   0.0000000e+00  -1.2964871e-01   6.3054792e+00   2.6198817e-04  -5.2010850e+08
   1.0003334e-12  -1.2912914e-01   6.3036985e+00   2.7272031e-04  -5.1870201e+08
   2.0006669e-12  -1.2861099e-01   6.3018872e+00   2.8385960e-04  -5.1729535e+08
   3.0010003e-12  -1.2809424e-01   6.3000449e+00   2.9542004e-04  -5.1588851e+08
   4.0013338e-12  -1.2757890e-01   6.2981714e+00   3.0741607e-04  -5.1448149e+08
   5.0016672e-12  -1.2706496e-01   6.2962661e+00   3.1986255e-04  -5.1307431e+08
   6.0020007e-12  -1.2655244e-01   6.2943287e+00   3.3277476e-04  -5.1166696e+08
   7.0023341e-12  -1.2604132e-01   6.2923588e+00   3.4616846e-04  -5.1025945e+08
   8.0026676e-12  -1.2553161e-01   6.2903559e+00   3.6005986e-04  -5.0885177e+08
   9.0030010e-12  -1.2502331e-01   6.2883198e+00   3.7446565e-04  -5.0744393e+08
   1.0003334e-11  -1.2451642e-01   6.2862499e+00   3.8940299e-04  -5.0603595e+08
   1.1003668e-11  -1.2401093e-01   6.2841458e+00   4.0488955e-04  -5.0462780e+08
   1.2004001e-11  -1.2350686e-01   6.2820072e+00   4.2094351e-04  -5.0321952e+08
   1.3004335e-11  -1.2300419e-01   6.2798336e+00   4.3758354e-04  -5.0181109e+08
   1.4004668e-11  -1.2250293e-01   6.2776246e+00   4.5482887e-04  -5.0040252e+08
   1.5005002e-11  -1.2200308e-01   6.2753799e+00   4.7269926e-04  -4.9899381e+08
   1.6005335e-11  -1.2150465e-01   6.2730990e+00   4.9121501e-04  -4.9758498e+08
   1.7005669e-11  -1.2100762e-01   6.2707814e+00   5.1039699e-04  -4.9617602e+08
   1.8006002e-11  -1.2051200e-01   6.2684268e+00   5.3026666e-04  -4.9476694e+08
   1.9006335e-11  -1.2001779e-01   6.2660347e+00   5.5084606e-04  -4.9335774e+08
   2.0006669e-11  -1.1952498e-01   6.2636048e+00   5.7215783e-04  -4.9194843e+08
   2.1007002e-11  -1.1903359e-01   6.2611366e+00   5.9422520e-04  -4.9053902e+08
   2.2007336e-11  -1.1854361e-01   6.2586297e+00   6.1707207e-04  -4.8912951e+08
   2.3007669e-11  -1.1805504e-01   6.2560837e+00   6.4072294e-04  -4.8771990e+08
   2.4008003e-11  -1.1756788e-01   6.2534981e+00   6.6520297e-04  -4.8631021e+08
   2.5008336e-11  -1.1708213e-01   6.2508726e+00   6.9053799e-04  -4.8490043e+08
   2.6008670e-11  -1.1659779e-01   6.2482067e+00   7.1675451e-04  -4.8349058e+08
   2.7009003e-11  -1.1611486e-01   6.2455000e+00   7.4387970e-04  -4.8208066e+08
   2.8009336e-11  -1.1563334e-01   6.2427521e+00   7.7194146e-04  -4.8067067e+08
   2.9009670e-11  -1.1515323e-01   6.2399625e+00   8.0096838e-04  -4.7926063e+08
   3.0010003e-11  -1.1467454e-01   6.2371309e+00   8.3098981e-04  -4.7785055e+08
   3.1010337e-11  -1.1419725e-01   6.2342568e+00   8.6203580e-04  -4.7644042e+08
   3.2010670e-11  -1.1372137e-01   6.2313398e+00   8.9413717e-04  -4.7503026e+08
   3.3011004e-11  -1.1324691e-01   6.2283795e+00   9.2732552e-04  -4.7362007e+08
   3.4011337e-11  -1.1277385e-01   6.2253755e+00   9.6163320e-04  -4.7220986e+08
   3.5011671e-11  -1.1230221e-01   6.2223273e+00   9.9709338e-04  -4.7079965e+08
   3.6012004e-11  -1.1183197e-01   6.2192346e+00   1.0337400e-03  -4.6938944e+08
   3.7012337e-11  -1.1136315e-01   6.2160970e+00   1.0716079e-03  -4.6797923e+08
   3.8012671e-11  -1.1089574e-01   6.2129139e+00   1.1107326e-03  -4.6656904e+08
   3.9013004e-11  -1.1042973e-01   6.2096851e+00   1.1511506e-03  -4.6515887e+08
   4.0013338e-11  -1.0996514e-01   6.2064101e+00   1.1928992e-03  -4.6374874e+08
   4.1013671e-11  -1.0950196e-01   6.2030885e+00   1.2360165e-03  -4.6233866e+08
   4.2014005e-11  -1.0904019e-01   6.1997199e+00   1.2805417e-03  -4.6092863e+08
   4.3014338e-11  -1.0857983e-01   6.1963039e+00   1.3265148e-03  -4.5951867e+08
   4.4014672e-11  -1.0812088e-01   6.1928401e+00   1.3739764e-03  -4.5810878e+08
   4.5015005e-11  -1.0766335e-01   6.1893281e+00   1.4229685e-03  -4.5669897e+08
   4.6015338e-11  -1.0720722e-01   6.1857675e+00   1.4735338e-03  -4.5528927e+08
   4.7015672e-11  -1.0675250e-01   6.1821579e+00   1.5257159e-03  -4.5387967e+08
   4.8016005e-11  -1.0629919e-01   6.1784990e+00   1.5795594e-03  -4.5247019e+08
   4.9016339e-11  -1.0584729e-01   6.1747903e+00   1.6351100e-03  -4.5106084e+08
   5.0016672e-11  -1.0539680e-01   6.1710315e+00   1.6924141e-03  -4.4965163e+08
   5.1017006e-11  -1.0494772e-01   6.1672221e+00   1.7515194e-03  -4.4824258e+08
   5.2017339e-11  -1.0450005e-01   6.1633618e+00   1.8124744e-03  -4.4683369e+08
   5.3017673e-11  -1.0405379e-01   6.1594503e+00   1.8753287e-03  -4.4542499e+08
   5.4018006e-11  -1.0360894e-01   6.1554872e+00   1.9401329e-03  -4.4401647e+08
   5.5018339e-11  -1.0316550e-01   6.1514720e+00   2.0069387e-03  -4.4260816e+08
   5.6018673e-11  -1.0272347e-01   6.1474045e+00   2.0757987e-03  -4.4120007e+08
   5.7019006e-11  -1.0228284e-01   6.1432843e+00   2.1467667e-03  -4.3979222e+08
   5.8019340e-11  -1.0184362e-01   6.1391110e+00   2.2198975e-03  -4.3838461e+08
   5.9019673e-11  -1.0140581e-01   6.1348843e+00   2.2952470e-03  -4.3697726e+08
   6.0020007e-11  -1.0096941e-01   6.1306038e+00   2.3728722e-03  -4.3557018e+08
   6.1020340e-11  -1.0053442e-01   6.1262692e+00   2.4528313e-03  -4.3416339e+08
   6.2020674e-11  -1.0010083e-01   6.1218802e+00   2.5351833e-03  -4.3275691e+08
   6.3021007e-11  -9.9668651e-02   6.1174365e+00   2.6199886e-03  -4.3135075e+08
   6.4021340e-11  -9.9237877e-02   6.1129377e+00   2.7073086e-03  -4.2994493e+08
   6.5021674e-11  -9.8808509e-02   6.1083834e+00   2.7972058e-03  -4.2853945e+08
   6.6022007e-11  -9.8380547e-02   6.1037735e+00   2.8897441e-03  -4.2713435e+08
   6.7022341e-11  -9.7953991e-02   6.0991076e+00   2.9849881e-03  -4.2572962e+08
   6.8022674e-11  -9.7528839e-02   6.0943853e+00   3.0830040e-03  -4.2432530e+08
   6.9023008e-11  -9.7105092e-02   6.0896065e+00   3.1838588e-03  -4.2292140e+08
   7.0023341e-11  -9.6682749e-02   6.0847707e+00   3.2876210e-03  -4.2151793e+08
   7.1023675e-11  -9.6261810e-02   6.0798778e+00   3.3943598e-03  -4.2011491e+08
   7.2024008e-11  -9.5842274e-02   6.0749275e+00   3.5041462e-03  -4.1871236e+08
   7.3024341e-11  -9.5424141e-02   6.0699194e+00   3.6170517e-03  -4.1731029e+08
   7.4024675e-11  -9.5007409e-02   6.0648534e+00   3.7331496e-03  -4.1590874e+08
   7.5025008e-11  -9.4592080e-02   6.0597291e+00   3.8525140e-03  -4.1450770e+08
   7.6025342e-11  -9.4178152e-02   6.0545464e+00   3.9752202e-03  -4.1310721e+08
   7.7025675e-11  -9.3765624e-02   6.0493049e+00   4.1013449e-03  -4.1170729e+08
   7.8026009e-11  -9.3354497e-02   6.0440045e+00   4.2309658e-03  -4.1030794e+08
   7.9026342e-11  -9.2944769e-02   6.0386450e+00   4.3641619e-03  -4.0890919e+08
   8.0026676e-11  -9.2536440e-02   6.0332261e+00   4.5010134e-03  -4.0751107e+08
   8.1027009e-11  -9.2129509e-02   6.0277476e+00   4.6416016e-03  -4.0611358e+08
   8.2027342e-11  -9.1723976e-02   6.0222093e+00   4.7860090e-03  -4.0471676e+08
   8.3027676e-11  -9.1319839e-02   6.0166110e+00   4.9343195e-03  -4.0332062e+08
   8.4028009e-11  -9.0917099e-02   6.0109525e+00   5.0866178e-03  -4.0192518e+08
   8.5028343e-11  -9.0515755e-02   6.0052338e+00   5.2429901e-03  -4.0053046e+08
   8.6028676e-11  -9.0115805e-02   5.9994545e+00   5.4035237e-03  -3.9913649e+08
   8.7029010e-11  -8.9717249e-02   5.9936145e+00   5.5683071e-03  -3.9774329e+08
   8.8029343e-11  -8.9320086e-02   5.9877138e+00   5.7374298e-03  -3.9635088e+08
   8.9029677e-11  -8.8924316e-02   5.9817521e+00   5.9109828e-03  -3.9495927e+08
   9.0030010e-11  -8.8529937e-02   5.9757293e+00   6.0890578e-03  -3.9356850e+08
   9.1030343e-11  -8.8136949e-02   5.9696453e+00   6.2717482e-03  -3.9217858e+08
   9.2030677e-11  -8.7745351e-02   5.9635000e+00   6.4591480e-03  -3.9078955e+08
   9.3031010e-11  -8.7355142e-02   5.9572933e+00   6.6513528e-03  -3.8940141e+08
   9.4031344e-11  -8.6966321e-02   5.9510251e+00   6.8484591e-03  -3.8801420e+08
   9.5031677e-11  -8.6578887e-02   5.9446952e+00   7.0505644e-03  -3.8662794e+08
   9.6032011e-11  -8.6192840e-02   5.9383038e+00   7.2577675e-03  -3.8524265e+08
   9.7032344e-11  -8.5808177e-02   5.9318506e+00   7.4701683e-03  -3.8385835e+08
   9.8032678e-11  -8.5424899e-02   5.9253356e+00   7.6878677e-03  -3.8247508e+08
   9.9033011e-11  -8.5043004e-02   5.9187587e+00   7.9109678e-03  -3.8109285e+08
   1.0003334e-10  -8.4662491e-02   5.9121200e+00   8.1395714e-03  -3.7971169e+08
   1.0103368e-10  -8.4283359e-02   5.9054195e+00   8.3737828e-03  -3.7833163e+08
   1.0203401e-10  -8.3905607e-02   5.8986570e+00   8.6137070e-03  -3.7695269e+08
   1.0303434e-10  -8.3529233e-02   5.8918326e+00   8.8594502e-03  -3.7557489e+08
   1.0403468e-10  -8.3154237e-02   5.8849463e+00   9.1111195e-03  -3.7419826e+08
   1.0503501e-10  -8.2780618e-02   5.8779982e+00   9.3688229e-03  -3.7282282e+08
   1.0603535e-10  -8.2408374e-02   5.8709882e+00   9.6326695e-03  -3.7144861e+08
   1.0703568e-10  -8.2037504e-02   5.8639164e+00   9.9027693e-03  -3.7007565e+08
   1.0803601e-10  -8.1668006e-02   5.8567828e+00   1.0179233e-02  -3.6870396e+08
   1.0903635e-10  -8.1299880e-02   5.8495876e+00   1.0462173e-02  -3.6733357e+08
   1.1003668e-10  -8.0933124e-02   5.8423307e+00   1.0751701e-02  -3.6596451e+08
   1.1103701e-10  -8.0567737e-02   5.8350122e+00   1.1047931e-02  -3.6459680e+08
   1.1203735e-10  -8.0203717e-02   5.8276323e+00   1.1350978e-02  -3.6323047e+08
   1.1303768e-10  -7.9841063e-02   5.8201911e+00   1.1660955e-02  -3.6186555e+08
   1.1403801e-10  -7.9479774e-02   5.8126886e+00   1.1977981e-02  -3.6050207e+08
   1.1503835e-10  -7.9119848e-02   5.8051250e+00   1.2302170e-02  -3.5914005e+08
   1.1603868e-10  -7.8761283e-02   5.7975005e+00   1.2633640e-02  -3.5777951e+08
   1.1703901e-10  -7.8404079e-02   5.7898151e+00   1.2972510e-02  -3.5642050e+08
   1.1803935e-10  -7.8048233e-02   5.7820691e+00   1.3318897e-02  -3.5506302e+08
   1.1903968e-10  -7.7693745e-02   5.7742625e+00   1.3672923e-02  -3.5370713e+08
   1.2004001e-10  -7.7340612e-02   5.7663956e+00   1.4034705e-02  -3.5235283e+08
   1.2104035e-10  -7.6988832e-02   5.7584687e+00   1.4404365e-02  -3.5100016e+08
   1.2204068e-10  -7.6638405e-02   5.7504817e+00   1.4782025e-02  -3.4964914e+08
   1.2304101e-10  -7.6289329e-02   5.7424351e+00   1.5167805e-02  -3.4829982e+08
   1.2404135e-10  -7.5941601e-02   5.7343290e+00   1.5561827e-02  -3.4695220e+08
   1.2504168e-10  -7.5595220e-02   5.7261637e+00   1.5964215e-02  -3.4560633e+08
   1.2604201e-10  -7.5250185e-02   5.7179393e+00   1.6375090e-02  -3.4426223e+08
   1.2704235e-10  -7.4906493e-02   5.7096562e+00   1.6794577e-02  -3.4291992e+08
   1.2804268e-10  -7.4564143e-02   5.7013146e+00   1.7222799e-02  -3.4157945e+08
   1.2904301e-10  -7.4223133e-02   5.6929148e+00   1.7659879e-02  -3.4024083e+08
   1.3004335e-10  -7.3883461e-02   5.6844571e+00   1.8105943e-02  -3.3890409e+08
   1.3104368e-10  -7.3545125e-02   5.6759418e+00   1.8561114e-02  -3.3756927e+08
   1.3204401e-10  -7.3208123e-02   5.6673691e+00   1.9025518e-02  -3.3623639e+08
   1.3304435e-10  -7.2872453e-02   5.6587395e+00   1.9499278e-02  -3.3490548e+08
   1.3404468e-10  -7.2538114e-02   5.6500533e+00   1.9982520e-02  -3.3357657e+08
   1.3504502e-10  -7.2205103e-02   5.6413107e+00   2.0475369e-02  -3.3224969e+08
   1.3604535e-10  -7.1873418e-02   5.6325122e+00   2.0977949e-02  -3.3092487e+08
   1.3704568e-10  -7.1543058e-02   5.6236581e+00   2.1490387e-02  -3.2960213e+08
   1.3804602e-10  -7.1214019e-02   5.6147487e+00   2.2012806e-02  -3.2828151e+08
   1.3904635e-10  -7.0886300e-02   5.6057845e+00   2.2545332e-02  -3.2696304e+08
   1.4004668e-10  -7.0559899e-02   5.5967659e+00   2.3088089e-02  -3.2564673e+08
   1.4104702e-10  -7.0234814e-02   5.5876932e+00   2.3641203e-02  -3.2433263e+08
   1.4204735e-10  -6.9911041e-02   5.5785668e+00   2.4204796e-02  -3.2302076e+08
   1.4304768e-10  -6.9588580e-02   5.5693873e+00   2.4778995e-02  -3.2171115e+08
   1.4404802e-10  -6.9267428e-02   5.5601549e+00   2.5363921e-02  -3.2040382e+08
   1.4504835e-10  -6.8947582e-02   5.5508702e+00   2.5959700e-02  -3.1909881e+08
   1.4604868e-10  -6.8629041e-02   5.5415337e+00   2.6566453e-02  -3.1779615e+08
   1.4704902e-10  -6.8311801e-02   5.5321456e+00   2.7184304e-02  -3.1649586e+08
   1.4804935e-10  -6.7995860e-02   5.5227067e+00   2.7813375e-02  -3.1519797e+08
   1.4904968e-10  -6.7681217e-02   5.5132172e+00   2.8453788e-02  -3.1390251e+08
   1.5005002e-10  -6.7367868e-02   5.5036777e+00   2.9105664e-02  -3.1260951e+08
   1.5105035e-10  -6.7055812e-02   5.4940886e+00   2.9769123e-02  -3.1131900e+08
   1.5205068e-10  -6.6745044e-02   5.4844506e+00   3.0444285e-02  -3.1003100e+08
   1.5305102e-10  -6.6435564e-02   5.4747641e+00   3.1131270e-02  -3.0874554e+08
   1.5405135e-10  -6.6127369e-02   5.4650296e+00   3.1830196e-02  -3.0746265e+08
   1.5505168e-10  -6.5820455e-02   5.4552476e+00   3.2541181e-02  -3.0618236e+08
   1.5605202e-10  -6.5514821e-02   5.4454187e+00   3.3264342e-02  -3.0490469e+08
   1.5705235e-10  -6.5210463e-02   5.4355434e+00   3.3999795e-02  -3.0362967e+08
   1.5805268e-10  -6.4907379e-02   5.4256222e+00   3.4747655e-02  -3.0235734e+08
   1.5905302e-10  -6.4605567e-02   5.4156558e+00   3.5508036e-02  -3.0108771e+08
   1.6005335e-10  -6.4305023e-02   5.4056447e+00   3.6281052e-02  -2.9982081e+08
   1.6105368e-10  -6.4005745e-02   5.3955894e+00   3.7066815e-02  -2.9855667e+08
   1.6205402e-10  -6.3707731e-02   5.3854906e+00   3.7865436e-02  -2.9729532e+08
   1.6305435e-10  -6.3410976e-02   5.3753488e+00   3.8677025e-02  -2.9603678e+08
   1.6405468e-10  -6.3115479e-02   5.3651645e+00   3.9501692e-02  -2.9478108e+08
   1.6505502e-10  -6.2821236e-02   5.3549385e+00   4.0339543e-02  -2.9352825e+08
   1.6605535e-10  -6.2528245e-02   5.3446713e+00   4.1190685e-02  -2.9227830e+08
   1.6705569e-10  -6.2236503e-02   5.3343635e+00   4.2055224e-02  -2.9103127e+08
   1.6805602e-10  -6.1946007e-02   5.3240158e+00   4.2933263e-02  -2.8978718e+08
   1.6905635e-10  -6.1656754e-02   5.3136287e+00   4.3824905e-02  -2.8854605e+08
   1.7005669e-10  -6.1368741e-02   5.3032028e+00   4.4730251e-02  -2.8730792e+08
   1.7105702e-10  -6.1081965e-02   5.2927389e+00   4.5649401e-02  -2.8607280e+08
   1.7205735e-10  -6.0796422e-02   5.2822375e+00   4.6582453e-02  -2.8484072e+08
   1.7305769e-10  -6.0512111e-02   5.2716993e+00   4.7529503e-02  -2.8361171e+08
   1.7405802e-10  -6.0229027e-02   5.2611250e+00   4.8490648e-02  -2.8238578e+08
   1.7505835e-10  -5.9947168e-02   5.2505151e+00   4.9465979e-02  -2.8116296e+08
   1.7605869e-10  -5.9666530e-02   5.2398703e+00   5.0455591e-02  -2.7994328e+08
   1.7705902e-10  -5.9387111e-02   5.2291913e+00   5.1459572e-02  -2.7872675e+08
   1.7805935e-10  -5.9108907e-02   5.2184788e+00   5.2478011e-02  -2.7751341e+08
   1.7905969e-10  -5.8831916e-02   5.2077333e+00   5.3510996e-02  -2.7630326e+08
   1.8006002e-10  -5.8556133e-02   5.1969557e+00   5.4558611e-02  -2.7509635e+08
   1.8106035e-10  -5.8281555e-02   5.1861465e+00   5.5620940e-02  -2.7389268e+08
   1.8206069e-10  -5.8008180e-02   5.1753065e+00   5.6698064e-02  -2.7269227e+08
   1.8306102e-10  -5.7736005e-02   5.1644362e+00   5.7790064e-02  -2.7149516e+08
   1.8406135e-10  -5.7465024e-02   5.1535364e+00   5.8897016e-02  -2.7030136e+08
   1.8506169e-10  -5.7195237e-02   5.1426078e+00   6.0018997e-02  -2.6911089e+08
   1.8606202e-10  -5.6926638e-02   5.1316511e+00   6.1156082e-02  -2.6792377e+08
   1.8706235e-10  -5.6659225e-02   5.1206668e+00   6.2308340e-02  -2.6674002e+08
   1.8806269e-10  -5.6392995e-02   5.1096558e+00   6.3475844e-02  -2.6555967e+08
   1.8906302e-10  -5.6127943e-02   5.0986187e+00   6.4658661e-02  -2.6438272e+08
   1.9006335e-10  -5.5864067e-02   5.0875563e+00   6.5856857e-02  -2.6320921e+08
   1.9106369e-10  -5.5601363e-02   5.0764691e+00   6.7070495e-02  -2.6203915e+08
   1.9206402e-10  -5.5339828e-02   5.0653579e+00   6.8299638e-02  -2.6087255e+08
   1.9306435e-10  -5.5079458e-02   5.0542234e+00   6.9544345e-02  -2.5970944e+08
   1.9406469e-10  -5.4820250e-02   5.0430663e+00   7.0804674e-02  -2.5854983e+08
   1.9506502e-10  -5.4562199e-02   5.0318872e+00   7.2080680e-02  -2.5739375e+08
   1.9606536e-10  -5.4305304e-02   5.0206869e+00   7.3372417e-02  -2.5624120e+08
   1.9706569e-10  -5.4049559e-02   5.0094661e+00   7.4679935e-02  -2.5509221e+08
   1.9806602e-10  -5.3794962e-02   4.9982255e+00   7.6003284e-02  -2.5394679e+08
   1.9906636e-10  -5.3541509e-02   4.9869657e+00   7.7342510e-02  -2.5280496e+08
   2.0006669e-10  -5.3289196e-02   4.9756874e+00   7.8697657e-02  -2.5166673e+08
   2.0106702e-10  -5.3038020e-02   4.9643914e+00   8.0068768e-02  -2.5053211e+08
   2.0206736e-10  -5.2787977e-02   4.9530784e+00   8.1455882e-02  -2.4940114e+08
   2.0306769e-10  -5.2539064e-02   4.9417490e+00   8.2859038e-02  -2.4827381e+08
   2.0406802e-10  -5.2291276e-02   4.9304039e+00   8.4278269e-02  -2.4715014e+08
   2.0506836e-10  -5.2044610e-02   4.9190438e+00   8.5713610e-02  -2.4603015e+08
   2.0606869e-10  -5.1799063e-02   4.9076695e+00   8.7165091e-02  -2.4491385e+08
   2.0706902e-10  -5.1554631e-02   4.8962815e+00   8.8632740e-02  -2.4380126e+08
   2.0806936e-10  -5.1311310e-02   4.8848806e+00   9.0116583e-02  -2.4269238e+08
   2.0906969e-10  -5.1069095e-02   4.8734675e+00   9.1616644e-02  -2.4158723e+08
   2.1007002e-10  -5.0827985e-02   4.8620428e+00   9.3132945e-02  -2.4048582e+08
   2.1107036e-10  -5.0587974e-02   4.8506072e+00   9.4665504e-02  -2.3938816e+08
   2.1207069e-10  -5.0349060e-02   4.8391615e+00   9.6214338e-02  -2.3829427e+08
   2.1307102e-10  -5.0111237e-02   4.8277062e+00   9.7779462e-02  -2.3720415e+08
   2.1407136e-10  -4.9874504e-02   4.8162420e+00   9.9360886e-02  -2.3611782e+08
   2.1507169e-10  -4.9638855e-02   4.8047697e+00   1.0095862e-01  -2.3503529e+08
   2.1607202e-10  -4.9404287e-02   4.7932898e+00   1.0257267e-01  -2.3395656e+08
   2.1707236e-10  -4.9170796e-02   4.7818031e+00   1.0420305e-01  -2.3288165e+08
   2.1807269e-10  -4.8938378e-02   4.7703102e+00   1.0584975e-01  -2.3181056e+08
   2.1907302e-10  -4.8707030e-02   4.7588118e+00   1.0751278e-01  -2.3074330e+08
   2.2007336e-10  -4.8476747e-02   4.7473084e+00   1.0919213e-01  -2.2967989e+08
   2.2107369e-10  -4.8247526e-02   4.7358008e+00   1.1088780e-01  -2.2862033e+08
   2.2207402e-10  -4.8019363e-02   4.7242897e+00   1.1259978e-01  -2.2756463e+08
   2.2307436e-10  -4.7792255e-02   4.7127755e+00   1.1432806e-01  -2.2651279e+08
   2.2407469e-10  -4.7566196e-02   4.7012591e+00   1.1607264e-01  -2.2546482e+08
   2.2507503e-10  -4.7341184e-02   4.6897409e+00   1.1783349e-01  -2.2442074e+08
   2.2607536e-10  -4.7117214e-02   4.6782218e+00   1.1961061e-01  -2.2338054e+08
   2.2707569e-10  -4.6894282e-02   4.6667021e+00   1.2140396e-01  -2.2234423e+08
   2.2807603e-10  -4.6672386e-02   4.6551827e+00   1.2321354e-01  -2.2131182e+08
   2.2907636e-10  -4.6451520e-02   4.6436641e+00   1.2503932e-01  -2.2028331e+08
   2.3007669e-10  -4.6231680e-02   4.6321469e+00   1.2688127e-01  -2.1925871e+08
   2.3107703e-10  -4.6012864e-02   4.6206317e+00   1.2873937e-01  -2.1823802e+08
   2.3207736e-10  -4.5795067e-02   4.6091191e+00   1.3061358e-01  -2.1722125e+08
   2.3307769e-10  -4.5578285e-02   4.5976098e+00   1.3250388e-01  -2.1620840e+08
   2.3407803e-10  -4.5362514e-02   4.5861042e+00   1.3441023e-01  -2.1519947e+08
   2.3507836e-10  -4.5147750e-02   4.5746031e+00   1.3633259e-01  -2.1419447e+08
   2.3607869e-10  -4.4933990e-02   4.5631069e+00   1.3827093e-01  -2.1319340e+08
   2.3707903e-10  -4.4721229e-02   4.5516163e+00   1.4022520e-01  -2.1219626e+08
   2.3807936e-10  -4.4509464e-02   4.5401319e+00   1.4219536e-01  -2.1120306e+08
   2.3907969e-10  -4.4298690e-02   4.5286541e+00   1.4418137e-01  -2.1021379e+08
   2.4008003e-10  -4.4088903e-02   4.5171835e+00   1.4618318e-01  -2.0922846e+08
   2.4108036e-10  -4.3880100e-02   4.5057208e+00   1.4820074e-01  -2.0824707e+08
   2.4208069e-10  -4.3672277e-02   4.4942665e+00   1.5023400e-01  -2.0726962e+08
   2.4308103e-10  -4.3465430e-02   4.4828210e+00   1.5228290e-01  -2.0629611e+08
   2.4408136e-10  -4.3259554e-02   4.4713850e+00   1.5434740e-01  -2.0532654e+08
   2.4508169e-10  -4.3054647e-02   4.4599589e+00   1.5642742e-01  -2.0436091e+08
   2.4608203e-10  -4.2850703e-02   4.4485434e+00   1.5852292e-01  -2.0339923e+08
   2.4708236e-10  -4.2647719e-02   4.4371388e+00   1.6063384e-01  -2.0244148e+08
   2.4808269e-10  -4.2445692e-02   4.4257458e+00   1.6276010e-01  -2.0148767e+08
   2.4908303e-10  -4.2244616e-02   4.4143648e+00   1.6490164e-01  -2.0053780e+08
   2.5008336e-10  -4.2044489e-02   4.4029964e+00   1.6705841e-01  -1.9959187e+08
   2.5108369e-10  -4.1845305e-02   4.3916410e+00   1.6923032e-01  -1.9864987e+08
   2.5208403e-10  -4.1647063e-02   4.3802992e+00   1.7141730e-01  -1.9771181e+08
   2.5308436e-10  -4.1449756e-02   4.3689713e+00   1.7361930e-01  -1.9677767e+08
   2.5408469e-10  -4.1253382e-02   4.3576580e+00   1.7583622e-01  -1.9584746e+08
   2.5508503e-10  -4.1057936e-02   4.3463596e+00   1.7806799e-01  -1.9492118e+08
   2.5608536e-10  -4.0863416e-02   4.3350766e+00   1.8031455e-01  -1.9399882e+08
   2.5708570e-10  -4.0669815e-02   4.3238096e+00   1.8257580e-01  -1.9308037e+08
   2.5808603e-10  -4.0477132e-02   4.3125589e+00   1.8485166e-01  -1.9216584e+08
   2.5908636e-10  -4.0285361e-02   4.3013250e+00   1.8714206e-01  -1.9125522e+08
   2.6008670e-10  -4.0094499e-02   4.2901083e+00   1.8944691e-01  -1.9034850e+08
   2.6108703e-10  -3.9904543e-02   4.2789093e+00   1.9176611e-01  -1.8944569e+08
   2.6208736e-10  -3.9715487e-02   4.2677284e+00   1.9409960e-01  -1.8854677e+08
   2.6308770e-10  -3.9527329e-02   4.2565660e+00   1.9644726e-01  -1.8765174e+08
   2.6408803e-10  -3.9340064e-02   4.2454225e+00   1.9880903e-01  -1.8676060e+08
   2.6508836e-10  -3.9153688e-02   4.2342985e+00   2.0118479e-01  -1.8587334e+08
   2.6608870e-10  -3.8968198e-02   4.2231941e+00   2.0357446e-01  -1.8498995e+08
   2.6708903e-10  -3.8783590e-02   4.2121100e+00   2.0597795e-01  -1.8411043e+08
   2.6808936e-10  -3.8599859e-02   4.2010463e+00   2.0839515e-01  -1.8323478e+08
   2.6908970e-10  -3.8417003e-02   4.1900036e+00   2.1082597e-01  -1.8236298e+08
   2.7009003e-10  -3.8235017e-02   4.1789823e+00   2.1327032e-01  -1.8149503e+08
   2.7109036e-10  -3.8053897e-02   4.1679826e+00   2.1572808e-01  -1.8063092e+08
   2.7209070e-10  -3.7873639e-02   4.1570049e+00   2.1819916e-01  -1.7977065e+08
   2.7309103e-10  -3.7694240e-02   4.1460497e+00   2.2068345e-01  -1.7891421e+08
   2.7409136e-10  -3.7515696e-02   4.1351173e+00   2.2318085e-01  -1.7806158e+08
   2.7509170e-10  -3.7338003e-02   4.1242079e+00   2.2569126e-01  -1.7721277e+08
   2.7609203e-10  -3.7161157e-02   4.1133220e+00   2.2821456e-01  -1.7636777e+08
   2.7709236e-10  -3.6985154e-02   4.1024600e+00   2.3075066e-01  -1.7552656e+08
   2.7809270e-10  -3.6809991e-02   4.0916220e+00   2.3329943e-01  -1.7468914e+08
   2.7909303e-10  -3.6635663e-02   4.0808085e+00   2.3586078e-01  -1.7385550e+08
   2.8009336e-10  -3.6462168e-02   4.0700198e+00   2.3843459e-01  -1.7302563e+08
   2.8109370e-10  -3.6289501e-02   4.0592561e+00   2.4102075e-01  -1.7219953e+08
   2.8209403e-10  -3.6117658e-02   4.0485179e+00   2.4361914e-01  -1.7137717e+08
   2.8309436e-10  -3.5946636e-02   4.0378053e+00   2.4622965e-01  -1.7055857e+08
   2.8409470e-10  -3.5776431e-02   4.0271187e+00   2.4885217e-01  -1.6974370e+08
   2.8509503e-10  -3.5607039e-02   4.0164584e+00   2.5148657e-01  -1.6893255e+08
   2.8609537e-10  -3.5438457e-02   4.0058247e+00   2.5413276e-01  -1.6812512e+08
   2.8709570e-10  -3.5270681e-02   3.9952178e+00   2.5679060e-01  -1.6732140e+08
   2.8809603e-10  -3.5103707e-02   3.9846379e+00   2.5945997e-01  -1.6652137e+08
   2.8909637e-10  -3.4937531e-02   3.9740855e+00   2.6214077e-01  -1.6572503e+08
   2.9009670e-10  -3.4772150e-02   3.9635607e+00   2.6483286e-01  -1.6493236e+08
   2.9109703e-10  -3.4607560e-02   3.9530637e+00   2.6753613e-01  -1.6414336e+08
   2.9209737e-10  -3.4443757e-02   3.9425949e+00   2.7025046e-01  -1.6335802e+08
   2.9309770e-10  -3.4280738e-02   3.9321545e+00   2.7297573e-01  -1.6257632e+08
   2.9409803e-10  -3.4118499e-02   3.9217427e+00   2.7571180e-01  -1.6179826e+08
   2.9509837e-10  -3.3957037e-02   3.9113597e+00   2.7845857e-01  -1.6102381e+08
   2.9609870e-10  -3.3796348e-02   3.9010058e+00   2.8121590e-01  -1.6025298e+08
   2.9709903e-10  -3.3636428e-02   3.8906812e+00   2.8398367e-01  -1.5948575e+08
   2.9809937e-10  -3.3477273e-02   3.8803860e+00   2.8676176e-01  -1.5872211e+08
   2.9909970e-10  -3.3318881e-02   3.8701206e+00   2.8955004e-01  -1.5796205e+08
   3.0010003e-10  -3.3161247e-02   3.8598852e+00   2.9234838e-01  -1.5720555e+08
   3.0110037e-10  -3.3004368e-02   3.8496798e+00   2.9515666e-01  -1.5645261e+08
   3.0210070e-10  -3.2848240e-02   3.8395047e+00   2.9797475e-01  -1.5570321e+08
   3.0310103e-10  -3.2692861e-02   3.8293602e+00   3.0080253e-01  -1.5495735e+08
   3.0410137e-10  -3.2538225e-02   3.8192463e+00   3.0363986e-01  -1.5421500e+08
   3.0510170e-10  -3.2384331e-02   3.8091633e+00   3.0648662e-01  -1.5347616e+08
   3.0610203e-10  -3.2231174e-02   3.7991113e+00   3.0934269e-01  -1.5274082e+08
   3.0710237e-10  -3.2078750e-02   3.7890906e+00   3.1220792e-01  -1.5200896e+08
   3.0810270e-10  -3.1927057e-02   3.7791012e+00   3.1508220e-01  -1.5128057e+08
   3.0910303e-10  -3.1776091e-02   3.7691433e+00   3.1796539e-01  -1.5055564e+08
   3.1010337e-10  -3.1625848e-02   3.7592171e+00   3.2085737e-01  -1.4983416e+08
   3.1110370e-10  -3.1476325e-02   3.7493228e+00   3.2375801e-01  -1.4911611e+08
   3.1210403e-10  -3.1327519e-02   3.7394604e+00   3.2666716e-01  -1.4840148e+08
   3.1310437e-10  -3.1179426e-02   3.7296301e+00   3.2958472e-01  -1.4769026e+08
   3.1410470e-10  -3.1032043e-02   3.7198321e+00   3.3251054e-01  -1.4698244e+08
   3.1510504e-10  -3.0885366e-02   3.7100665e+00   3.3544450e-01  -1.4627801e+08
   3.1610537e-10  -3.0739392e-02   3.7003334e+00   3.3838646e-01  -1.4557694e+08
   3.1710570e-10  -3.0594117e-02   3.6906329e+00   3.4133630e-01  -1.4487923e+08
   3.1810604e-10  -3.0449539e-02   3.6809652e+00   3.4429388e-01  -1.4418487e+08
   3.1910637e-10  -3.0305654e-02   3.6713303e+00   3.4725908e-01  -1.4349384e+08
   3.2010670e-10  -3.0162458e-02   3.6617284e+00   3.5023177e-01  -1.4280613e+08
   3.2110704e-10  -3.0019949e-02   3.6521595e+00   3.5321180e-01  -1.4212172e+08
   3.2210737e-10  -2.9878122e-02   3.6426239e+00   3.5619907e-01  -1.4144061e+08
   3.2310770e-10  -2.9736975e-02   3.6331215e+00   3.5919342e-01  -1.4076278e+08
   3.2410804e-10  -2.9596505e-02   3.6236524e+00   3.6219475e-01  -1.4008822e+08
   3.2510837e-10  -2.9456708e-02   3.6142168e+00   3.6520290e-01  -1.3941691e+08
   3.2610870e-10  -2.9317580e-02   3.6048148e+00   3.6821776e-01  -1.3874884e+08
   3.2710904e-10  -2.9179120e-02   3.5954463e+00   3.7123920e-01  -1.3808399e+08
   3.2810937e-10  -2.9041322e-02   3.5861115e+00   3.7426708e-01  -1.3742237e+08
   3.2910970e-10  -2.8904185e-02   3.5768105e+00   3.7730127e-01  -1.3676394e+08
   3.3011004e-10  -2.8767705e-02   3.5675434e+00   3.8034165e-01  -1.3610870e+08
   3.3111037e-10  -2.8631879e-02   3.5583101e+00   3.8338809e-01  -1.3545664e+08
   3.3211070e-10  -2.8496704e-02   3.5491107e+00   3.8644046e-01  -1.3480773e+08
   3.3311104e-10  -2.8362176e-02   3.5399454e+00   3.8949863e-01  -1.3416197e+08
   3.3411137e-10  -2.8228292e-02   3.5308141e+00   3.9256247e-01  -1.3351935e+08
   3.3511170e-10  -2.8095050e-02   3.5217170e+00   3.9563185e-01  -1.3287985e+08
   3.3611204e-10  -2.7962446e-02   3.5126540e+00   3.9870666e-01  -1.3224345e+08
   3.3711237e-10  -2.7830477e-02   3.5036252e+00   4.0178675e-01  -1.3161015e+08
   3.3811270e-10  -2.7699140e-02   3.4946306e+00   4.0487200e-01  -1.3097993e+08
   3.3911304e-10  -2.7568431e-02   3.4856703e+00   4.0796229e-01  -1.3035278e+08
   3.4011337e-10  -2.7438349e-02   3.4767444e+00   4.1105749e-01  -1.2972868e+08
   3.4111370e-10  -2.7308889e-02   3.4678527e+00   4.1415747e-01  -1.2910762e+08
   3.4211404e-10  -2.7180049e-02   3.4589955e+00   4.1726211e-01  -1.2848958e+08
   3.4311437e-10  -2.7051826e-02   3.4501726e+00   4.2037128e-01  -1.2787456e+08
   3.4411470e-10  -2.6924217e-02   3.4413841e+00   4.2348486e-01  -1.2726254e+08
   3.4511504e-10  -2.6797218e-02   3.4326301e+00   4.2660273e-01  -1.2665351e+08
   3.4611537e-10  -2.6670827e-02   3.4239104e+00   4.2972475e-01  -1.2604744e+08
   3.4711571e-10  -2.6545040e-02   3.4152253e+00   4.3285081e-01  -1.2544434e+08
   3.4811604e-10  -2.6419856e-02   3.4065746e+00   4.3598079e-01  -1.2484418e+08
   3.4911637e-10  -2.6295270e-02   3.3979584e+00   4.3911455e-01  -1.2424696e+08
   3.5011671e-10  -2.6171281e-02   3.3893766e+00   4.4225199e-01  -1.2365265e+08
   3.5111704e-10  -2.6047884e-02   3.3808293e+00   4.4539297e-01  -1.2306125e+08
   3.5211737e-10  -2.5925078e-02   3.3723164e+00   4.4853738e-01  -1.2247275e+08
   3.5311771e-10  -2.5802858e-02   3.3638381e+00   4.5168510e-01  -1.2188712e+08
   3.5411804e-10  -2.5681224e-02   3.3553941e+00   4.5483600e-01  -1.2130435e+08
   3.5511837e-10  -2.5560170e-02   3.3469846e+00   4.5798997e-01  -1.2072444e+08
   3.5611871e-10  -2.5439696e-02   3.3386096e+00   4.6114689e-01  -1.2014737e+08
   3.5711904e-10  -2.5319797e-02   3.3302689e+00   4.6430664e-01  -1.1957312e+08
   3.5811937e-10  -2.5200471e-02   3.3219626e+00   4.6746910e-01  -1.1900169e+08
   3.5911971e-10  -2.5081715e-02   3.3136907e+00   4.7063416e-01  -1.1843305e+08
   3.6012004e-10  -2.4963527e-02   3.3054531e+00   4.7380170e-01  -1.1786720e+08
   3.6112037e-10  -2.4845904e-02   3.2972499e+00   4.7697161e-01  -1.1730413e+08
   3.6212071e-10  -2.4728842e-02   3.2890810e+00   4.8014376e-01  -1.1674381e+08
   3.6312104e-10  -2.4612339e-02   3.2809463e+00   4.8331804e-01  -1.1618624e+08
   3.6412137e-10  -2.4496393e-02   3.2728458e+00   4.8649435e-01  -1.1563140e+08
   3.6512171e-10  -2.4381001e-02   3.2647796e+00   4.8967256e-01  -1.1507928e+08
   3.6612204e-10  -2.4266159e-02   3.2567475e+00   4.9285257e-01  -1.1452987e+08
   3.6712237e-10  -2.4151866e-02   3.2487495e+00   4.9603426e-01  -1.1398316e+08
   3.6812271e-10  -2.4038118e-02   3.2407856e+00   4.9921752e-01  -1.1343912e+08
   3.6912304e-10  -2.3924913e-02   3.2328557e+00   5.0240224e-01  -1.1289775e+08
   3.7012337e-10  -2.3812248e-02   3.2249599e+00   5.0558832e-01  -1.1235904e+08
   3.7112371e-10  -2.3700121e-02   3.2170980e+00   5.0877563e-01  -1.1182297e+08
   3.7212404e-10  -2.3588529e-02   3.2092699e+00   5.1196408e-01  -1.1128953e+08
   3.7312437e-10  -2.3477469e-02   3.2014758e+00   5.1515355e-01  -1.1075871e+08
   3.7412471e-10  -2.3366939e-02   3.1937154e+00   5.1834393e-01  -1.1023049e+08
   3.7512504e-10  -2.3256935e-02   3.1859887e+00   5.2153513e-01  -1.0970486e+08
   3.7612538e-10  -2.3147457e-02   3.1782958e+00   5.2472704e-01  -1.0918181e+08
   3.7712571e-10  -2.3038500e-02   3.1706365e+00   5.2791954e-01  -1.0866133e+08
   3.7812604e-10  -2.2930063e-02   3.1630107e+00   5.3111255e-01  -1.0814340e+08
   3.7912638e-10  -2.2822142e-02   3.1554185e+00   5.3430594e-01  -1.0762801e+08
   3.8012671e-10  -2.2714736e-02   3.1478597e+00   5.3749962e-01  -1.0711515e+08
   3.8112704e-10  -2.2607841e-02   3.1403343e+00   5.4069349e-01  -1.0660480e+08
   3.8212738e-10  -2.2501456e-02   3.1328422e+00   5.4388745e-01  -1.0609696e+08
   3.8312771e-10  -2.2395577e-02   3.1253833e+00   5.4708139e-01  -1.0559160e+08
   3.8412804e-10  -2.2290203e-02   3.1179577e+00   5.5027522e-01  -1.0508873e+08
   3.8512838e-10  -2.2185331e-02   3.1105651e+00   5.5346883e-01  -1.0458832e+08
   3.8612871e-10  -2.2080958e-02   3.1032056e+00   5.5666213e-01  -1.0409036e+08
   3.8712904e-10  -2.1977081e-02   3.0958791e+00   5.5985503e-01  -1.0359485e+08
   3.8812938e-10  -2.1873700e-02   3.0885855e+00   5.6304741e-01  -1.0310177e+08
   3.8912971e-10  -2.1770810e-02   3.0813247e+00   5.6623919e-01  -1.0261110e+08
   3.9013004e-10  -2.1668410e-02   3.0740966e+00   5.6943028e-01  -1.0212284e+08
   3.9113038e-10  -2.1566497e-02   3.0669012e+00   5.7262057e-01  -1.0163697e+08
   3.9213071e-10  -2.1465069e-02   3.0597384e+00   5.7580998e-01  -1.0115348e+08
   3.9313104e-10  -2.1364123e-02   3.0526081e+00   5.7899840e-01  -1.0067236e+08
   3.9413138e-10  -2.1263658e-02   3.0455103e+00   5.8218576e-01  -1.0019360e+08
   3.9513171e-10  -2.1163670e-02   3.0384447e+00   5.8537195e-01  -9.9717181e+07
   3.9613204e-10  -2.1064158e-02   3.0314115e+00   5.8855689e-01  -9.9243097e+07
   3.9713238e-10  -2.0965118e-02   3.0244104e+00   5.9174048e-01  -9.8771335e+07
   3.9813271e-10  -2.0866550e-02   3.0174414e+00   5.9492264e-01  -9.8301882e+07
   3.9913304e-10  -2.0768450e-02   3.0105045e+00   5.9810328e-01  -9.7834728e+07
   4.0013338e-10  -2.0670816e-02   3.0035994e+00   6.0128231e-01  -9.7369860e+07
   4.0113371e-10  -2.0573646e-02   2.9967262e+00   6.0445965e-01  -9.6907268e+07
   4.0213404e-10  -2.0476937e-02   2.9898847e+00   6.0763520e-01  -9.6446938e+07
   4.0313438e-10  -2.0380688e-02   2.9830749e+00   6.1080889e-01  -9.5988861e+07
   4.0413471e-10  -2.0284896e-02   2.9762967e+00   6.1398062e-01  -9.5533024e+07
   4.0513505e-10  -2.0189559e-02   2.9695499e+00   6.1715032e-01  -9.5079417e+07
   4.0613538e-10  -2.0094674e-02   2.9628345e+00   6.2031790e-01  -9.4628027e+07
   4.0713571e-10  -2.0000240e-02   2.9561504e+00   6.2348328e-01  -9.4178844e+07
   4.0813605e-10  -1.9906255e-02   2.9494974e+00   6.2664639e-01  -9.3731856e+07
   4.0913638e-10  -1.9812715e-02   2.9428756e+00   6.2980712e-01  -9.3287052e+07
   4.1013671e-10  -1.9719619e-02   2.9362848e+00   6.3296542e-01  -9.2844422e+07
   4.1113705e-10  -1.9626964e-02   2.9297248e+00   6.3612120e-01  -9.2403953e+07
   4.1213738e-10  -1.9534750e-02   2.9231957e+00   6.3927438e-01  -9.1965635e+07
   4.1313771e-10  -1.9442972e-02   2.9166973e+00   6.4242488e-01  -9.1529458e+07
   4.1413805e-10  -1.9351630e-02   2.9102295e+00   6.4557263e-01  -9.1095409e+07
   4.1513838e-10  -1.9260721e-02   2.9037922e+00   6.4871755e-01  -9.0663479e+07
   4.1613871e-10  -1.9170243e-02   2.8973854e+00   6.5185956e-01  -9.0233655e+07
   4.1713905e-10  -1.9080194e-02   2.8910088e+00   6.5499860e-01  -8.9805929e+07
   4.1813938e-10  -1.8990572e-02   2.8846625e+00   6.5813459e-01  -8.9380288e+07
   4.1913971e-10  -1.8901375e-02   2.8783462e+00   6.6126746e-01  -8.8956723e+07
   4.2014005e-10  -1.8812600e-02   2.8720600e+00   6.6439712e-01  -8.8535222e+07
   4.2114038e-10  -1.8724245e-02   2.8658037e+00   6.6752352e-01  -8.8115775e+07
   4.2214071e-10  -1.8636310e-02   2.8595772e+00   6.7064659e-01  -8.7698372e+07
   4.2314105e-10  -1.8548791e-02   2.8533804e+00   6.7376624e-01  -8.7283002e+07
   4.2414138e-10  -1.8461686e-02   2.8472132e+00   6.7688242e-01  -8.6869655e+07
   4.2514171e-10  -1.8374994e-02   2.8410755e+00   6.7999506e-01  -8.6458320e+07
   4.2614205e-10  -1.8288712e-02   2.8349672e+00   6.8310408e-01  -8.6048987e+07
   4.2714238e-10  -1.8202839e-02   2.8288881e+00   6.8620942e-01  -8.5641645e+07
   4.2814271e-10  -1.8117372e-02   2.8228383e+00   6.8931102e-01  -8.5236286e+07
   4.2914305e-10  -1.8032310e-02   2.8168175e+00   6.9240882e-01  -8.4832897e+07
   4.3014338e-10  -1.7947650e-02   2.8108257e+00   6.9550273e-01  -8.4431470e+07
   4.3114371e-10  -1.7863391e-02   2.8048628e+00   6.9859272e-01  -8.4031995e+07
   4.3214405e-10  -1.7779530e-02   2.7989286e+00   7.0167870e-01  -8.3634460e+07
   4.3314438e-10  -1.7696067e-02   2.7930230e+00   7.0476062e-01  -8.3238857e+07
   4.3414471e-10  -1.7612997e-02   2.7871460e+00   7.0783841e-01  -8.2845176e+07
   4.3514505e-10  -1.7530321e-02   2.7812975e+00   7.1091203e-01  -8.2453405e+07
   4.3614538e-10  -1.7448036e-02   2.7754772e+00   7.1398139e-01  -8.2063537e+07
   4.3714572e-10  -1.7366140e-02   2.7696852e+00   7.1704646e-01  -8.1675561e+07
   4.3814605e-10  -1.7284631e-02   2.7639213e+00   7.2010716e-01  -8.1289467e+07
   4.3914638e-10  -1.7203507e-02   2.7581854e+00   7.2316345e-01  -8.0905246e+07
   4.4014672e-10  -1.7122766e-02   2.7524774e+00   7.2621526e-01  -8.0522888e+07
   4.4114705e-10  -1.7042408e-02   2.7467972e+00   7.2926254e-01  -8.0142383e+07
   4.4214738e-10  -1.6962428e-02   2.7411447e+00   7.3230523e-01  -7.9763723e+07
   4.4314772e-10  -1.6882827e-02   2.7355197e+00   7.3534327e-01  -7.9386897e+07
   4.4414805e-10  -1.6803602e-02   2.7299222e+00   7.3837662e-01  -7.9011897e+07
   4.4514838e-10  -1.6724751e-02   2.7243521e+00   7.4140522e-01  -7.8638712e+07
   4.4614872e-10  -1.6646272e-02   2.7188092e+00   7.4442902e-01  -7.8267334e+07
   4.4714905e-10  -1.6568164e-02   2.7132934e+00   7.4744797e-01  -7.7897754e+07
   4.4814938e-10  -1.6490425e-02   2.7078047e+00   7.5046200e-01  -7.7529962e+07
   4.4914972e-10  -1.6413053e-02   2.7023428e+00   7.5347108e-01  -7.7163948e+07
   4.5015005e-10  -1.6336046e-02   2.6969078e+00   7.5647516e-01  -7.6799705e+07
   4.5115038e-10  -1.6259402e-02   2.6914995e+00   7.5947418e-01  -7.6437222e+07
   4.5215072e-10  -1.6183121e-02   2.6861177e+00   7.6246810e-01  -7.6076491e+07
   4.5315105e-10  -1.6107199e-02   2.6807625e+00   7.6545686e-01  -7.5717504e+07
   4.5415138e-10  -1.6031635e-02   2.6754336e+00   7.6844042e-01  -7.5360250e+07
   4.5515172e-10  -1.5956428e-02   2.6701310e+00   7.7141874e-01  -7.5004721e+07
   4.5615205e-10  -1.5881576e-02   2.6648545e+00   7.7439177e-01  -7.4650909e+07
   4.5715238e-10  -1.5807077e-02   2.6596040e+00   7.7735946e-01  -7.4298804e+07
   4.5815272e-10  -1.5732929e-02   2.6543795e+00   7.8032178e-01  -7.3948398e+07
   4.5915305e-10  -1.5659131e-02   2.6491808e+00   7.8327866e-01  -7.3599682e+07
   4.6015338e-10  -1.5585681e-02   2.6440078e+00   7.8623008e-01  -7.3252648e+07
   4.6115372e-10  -1.5512577e-02   2.6388604e+00   7.8917599e-01  -7.2907287e+07
   4.6215405e-10  -1.5439818e-02   2.6337385e+00   7.9211635e-01  -7.2563591e+07
   4.6315438e-10  -1.5367401e-02   2.6286420e+00   7.9505111e-01  -7.2221550e+07
   4.6415472e-10  -1.5295327e-02   2.6235708e+00   7.9798024e-01  -7.1881157e+07
   4.6515505e-10  -1.5223591e-02   2.6185247e+00   8.0090369e-01  -7.1542403e+07
   4.6615539e-10  -1.5152194e-02   2.6135037e+00   8.0382143e-01  -7.1205279e+07
   4.6715572e-10  -1.5081133e-02   2.6085076e+00   8.0673342e-01  -7.0869779e+07
   4.6815605e-10  -1.5010407e-02   2.6035364e+00   8.0963962e-01  -7.0535892e+07
   4.6915639e-10  -1.4940015e-02   2.5985899e+00   8.1254000e-01  -7.0203612e+07
   4.7015672e-10  -1.4869953e-02   2.5936680e+00   8.1543450e-01  -6.9872929e+07
   4.7115705e-10  -1.4800222e-02   2.5887706e+00   8.1832311e-01  -6.9543837e+07
   4.7215739e-10  -1.4730819e-02   2.5838977e+00   8.2120578e-01  -6.9216326e+07
   4.7315772e-10  -1.4661743e-02   2.5790490e+00   8.2408248e-01  -6.8890388e+07
   4.7415805e-10  -1.4592993e-02   2.5742245e+00   8.2695317e-01  -6.8566017e+07
   4.7515839e-10  -1.4524566e-02   2.5694241e+00   8.2981782e-01  -6.8243203e+07
   4.7615872e-10  -1.4456461e-02   2.5646477e+00   8.3267641e-01  -6.7921938e+07
   4.7715905e-10  -1.4388677e-02   2.5598951e+00   8.3552888e-01  -6.7602216e+07
   4.7815939e-10  -1.4321211e-02   2.5551663e+00   8.3837522e-01  -6.7284028e+07
   4.7915972e-10  -1.4254064e-02   2.5504612e+00   8.4121539e-01  -6.6967366e+07
   4.8016005e-10  -1.4187232e-02   2.5457796e+00   8.4404935e-01  -6.6652223e+07
   4.8116039e-10  -1.4120715e-02   2.5411214e+00   8.4687709e-01  -6.6338591e+07
   4.8216072e-10  -1.4054511e-02   2.5364866e+00   8.4969857e-01  -6.6026463e+07
   4.8316105e-10  -1.3988618e-02   2.5318749e+00   8.5251376e-01  -6.5715830e+07
   4.8416139e-10  -1.3923035e-02   2.5272864e+00   8.5532263e-01  -6.5406685e+07
   4.8516172e-10  -1.3857761e-02   2.5227210e+00   8.5812515e-01  -6.5099021e+07
   4.8616205e-10  -1.3792794e-02   2.5181784e+00   8.6092130e-01  -6.4792830e+07
   4.8716239e-10  -1.3728132e-02   2.5136586e+00   8.6371105e-01  -6.4488105e+07
   4.8816272e-10  -1.3663775e-02   2.5091615e+00   8.6649437e-01  -6.4184838e+07
   4.8916305e-10  -1.3599720e-02   2.5046870e+00   8.6927123e-01  -6.3883022e+07
   4.9016339e-10  -1.3535966e-02   2.5002350e+00   8.7204162e-01  -6.3582650e+07
   4.9116372e-10  -1.3472512e-02   2.4958054e+00   8.7480550e-01  -6.3283714e+07
   4.9216405e-10  -1.3409356e-02   2.4913981e+00   8.7756286e-01  -6.2986208e+07
   4.9316439e-10  -1.3346497e-02   2.4870129e+00   8.8031366e-01  -6.2690123e+07
   4.9416472e-10  -1.3283934e-02   2.4826498e+00   8.8305789e-01  -6.2395454e+07
   4.9516506e-10  -1.3221665e-02   2.4783087e+00   8.8579552e-01  -6.2102192e+07
   4.9616539e-10  -1.3159688e-02   2.4739894e+00   8.8852652e-01  -6.1810330e+07
   4.9716572e-10  -1.3098003e-02   2.4696919e+00   8.9125089e-01  -6.1519863e+07
   4.9816606e-10  -1.3036608e-02   2.4654161e+00   8.9396859e-01  -6.1230782e+07
   4.9916639e-10  -1.2975501e-02   2.4611618e+00   8.9667960e-01  -6.0943080e+07
   5.0016672e-10  -1.2914681e-02   2.4569290e+00   8.9938391e-01  -6.0656752e+07
   5.0116706e-10  -1.2854147e-02   2.4527175e+00   9.0208150e-01  -6.0371789e+07
   5.0216739e-10  -1.2793897e-02   2.4485273e+00   9.0477234e-01  -6.0088185e+07
   5.0316772e-10  -1.2733930e-02   2.4443582e+00   9.0745641e-01  -5.9805934e+07
   5.0416806e-10  -1.2674245e-02   2.4402102e+00   9.1013371e-01  -5.9525028e+07
   5.0516839e-10  -1.2614840e-02   2.4360832e+00   9.1280420e-01  -5.9245461e+07
   5.0616872e-10  -1.2555715e-02   2.4319769e+00   9.1546788e-01  -5.8967226e+07
   5.0716906e-10  -1.2496866e-02   2.4278915e+00   9.1812472e-01  -5.8690316e+07
   5.0816939e-10  -1.2438295e-02   2.4238267e+00   9.2077471e-01  -5.8414725e+07
   5.0916972e-10  -1.2379998e-02   2.4197824e+00   9.2341783e-01  -5.8140446e+07
   5.1017006e-10  -1.2321975e-02   2.4157586e+00   9.2605406e-01  -5.7867473e+07
   5.1117039e-10  -1.2264224e-02   2.4117551e+00   9.2868340e-01  -5.7595799e+07
   5.1217072e-10  -1.2206745e-02   2.4077719e+00   9.3130583e-01  -5.7325418e+07
   5.1317106e-10  -1.2149535e-02   2.4038089e+00   9.3392132e-01  -5.7056322e+07
   5.1417139e-10  -1.2092594e-02   2.3998659e+00   9.3652988e-01  -5.6788507e+07
   5.1517172e-10  -1.2035920e-02   2.3959429e+00   9.3913148e-01  -5.6521965e+07
   5.1617206e-10  -1.1979512e-02   2.3920397e+00   9.4172611e-01  -5.6256691e+07
   5.1717239e-10  -1.1923369e-02   2.3881563e+00   9.4431375e-01  -5.5992677e+07
   5.1817272e-10  -1.1867490e-02   2.3842926e+00   9.4689441e-01  -5.5729917e+07
   5.1917306e-10  -1.1811872e-02   2.3804485e+00   9.4946805e-01  -5.5468406e+07
   5.2017339e-10  -1.1756516e-02   2.3766238e+00   9.5203468e-01  -5.5208137e+07
   5.2117372e-10  -1.1701419e-02   2.3728186e+00   9.5459429e-01  -5.4949104e+07
   5.2217406e-10  -1.1646581e-02   2.3690326e+00   9.5714685e-01  -5.4691301e+07
   5.2317439e-10  -1.1592000e-02   2.3652658e+00   9.5969236e-01  -5.4434722e+07
   5.2417472e-10  -1.1537675e-02   2.3615181e+00   9.6223081e-01  -5.4179360e+07
   5.2517506e-10  -1.1483605e-02   2.3577895e+00   9.6476220e-01  -5.3925210e+07
   5.2617539e-10  -1.1429789e-02   2.3540797e+00   9.6728650e-01  -5.3672266e+07
   5.2717573e-10  -1.1376225e-02   2.3503888e+00   9.6980372e-01  -5.3420521e+07
   5.2817606e-10  -1.1322912e-02   2.3467166e+00   9.7231385e-01  -5.3169970e+07
   5.2917639e-10  -1.1269849e-02   2.3430630e+00   9.7481686e-01  -5.2920607e+07
   5.3017673e-10  -1.1217035e-02   2.3394280e+00   9.7731277e-01  -5.2672426e+07
   5.3117706e-10  -1.1164469e-02   2.3358114e+00   9.7980156e-01  -5.2425421e+07
   5.3217739e-10  -1.1112149e-02   2.3322132e+00   9.8228323e-01  -5.2179586e+07
   5.3317773e-10  -1.1060075e-02   2.3286332e+00   9.8475776e-01  -5.1934916e+07
   5.3417806e-10  -1.1008245e-02   2.3250715e+00   9.8722515e-01  -5.1691405e+07
   5.3517839e-10  -1.0956657e-02   2.3215278e+00   9.8968540e-01  -5.1449048e+07
   5.3617873e-10  -1.0905312e-02   2.3180021e+00   9.9213850e-01  -5.1207837e+07
   5.3717906e-10  -1.0854207e-02   2.3144943e+00   9.9458445e-01  -5.0967768e+07
   5.3817939e-10  -1.0803342e-02   2.3110044e+00   9.9702323e-01  -5.0728836e+07
   5.3917973e-10  -1.0752716e-02   2.3075322e+00   9.9945485e-01  -5.0491034e+07
   5.4018006e-10  -1.0702327e-02   2.3040776e+00   1.0018793e+00  -5.0254358e+07
   5.4118039e-10  -1.0652173e-02   2.3006406e+00   1.0042966e+00  -5.0018801e+07
   5.4218073e-10  -1.0602255e-02   2.2972210e+00   1.0067067e+00  -4.9784357e+07
   5.4318106e-10  -1.0552571e-02   2.2938188e+00   1.0091096e+00  -4.9551023e+07
   5.4418139e-10  -1.0503120e-02   2.2904339e+00   1.0115054e+00  -4.9318792e+07
   5.4518173e-10  -1.0453901e-02   2.2870662e+00   1.0138939e+00  -4.9087658e+07
   5.4618206e-10  -1.0404912e-02   2.2837157e+00   1.0162753e+00  -4.8857617e+07
   5.4718239e-10  -1.0356153e-02   2.2803821e+00   1.0186495e+00  -4.8628663e+07
   5.4818273e-10  -1.0307622e-02   2.2770655e+00   1.0210165e+00  -4.8400790e+07
   5.4918306e-10  -1.0259319e-02   2.2737658e+00   1.0233763e+00  -4.8173994e+07
   5.5018339e-10  -1.0211242e-02   2.2704828e+00   1.0257289e+00  -4.7948269e+07
   5.5118373e-10  -1.0163390e-02   2.2672166e+00   1.0280743e+00  -4.7723610e+07
   5.5218406e-10  -1.0115763e-02   2.2639669e+00   1.0304125e+00  -4.7500012e+07
   5.5318439e-10  -1.0068358e-02   2.2607338e+00   1.0327435e+00  -4.7277469e+07
   5.5418473e-10  -1.0021176e-02   2.2575170e+00   1.0350673e+00  -4.7055977e+07
   5.5518506e-10  -9.9742149e-03   2.2543167e+00   1.0373840e+00  -4.6835530e+07
   5.5618540e-10  -9.9274737e-03   2.2511326e+00   1.0396934e+00  -4.6616123e+07
   5.5718573e-10  -9.8809514e-03   2.2479647e+00   1.0419957e+00  -4.6397751e+07
   5.5818606e-10  -9.8346471e-03   2.2448130e+00   1.0442907e+00  -4.6180409e+07
   5.5918640e-10  -9.7885597e-03   2.2416772e+00   1.0465786e+00  -4.5964092e+07
   5.6018673e-10  -9.7426881e-03   2.2385574e+00   1.0488593e+00  -4.5748795e+07
   5.6118706e-10  -9.6970314e-03   2.2354535e+00   1.0511328e+00  -4.5534513e+07
   5.6218740e-10  -9.6515886e-03   2.2323653e+00   1.0533991e+00  -4.5321242e+07
   5.6318773e-10  -9.6063585e-03   2.2292929e+00   1.0556582e+00  -4.5108976e+07
   5.6418806e-10  -9.5613404e-03   2.2262360e+00   1.0579101e+00  -4.4897710e+07
   5.6518840e-10  -9.5165330e-03   2.2231947e+00   1.0601549e+00  -4.4687439e+07
   5.6618873e-10  -9.4719355e-03   2.2201689e+00   1.0623925e+00  -4.4478159e+07
   5.6718906e-10  -9.4275469e-03   2.2171585e+00   1.0646229e+00  -4.4269865e+07
   5.6818940e-10  -9.3833661e-03   2.2141633e+00   1.0668462e+00  -4.4062553e+07
   5.6918973e-10  -9.3393922e-03   2.2111834e+00   1.0690623e+00  -4.3856216e+07
   5.7019006e-10  -9.2956243e-03   2.2082187e+00   1.0712712e+00  -4.3650851e+07
   5.7119040e-10  -9.2520613e-03   2.2052690e+00   1.0734730e+00  -4.3446453e+07
   5.7219073e-10  -9.2087022e-03   2.2023343e+00   1.0756676e+00  -4.3243017e+07
   5.7319106e-10  -9.1655462e-03   2.1994145e+00   1.0778551e+00  -4.3040539e+07
   5.7419140e-10  -9.1225923e-03   2.1965096e+00   1.0800355e+00  -4.2839013e+07
   5.7519173e-10  -9.0798395e-03   2.1936194e+00   1.0822087e+00  -4.2638436e+07
   5.7619206e-10  -9.0372868e-03   2.1907440e+00   1.0843748e+00  -4.2438803e+07
   5.7719240e-10  -8.9949334e-03   2.1878831e+00   1.0865338e+00  -4.2240109e+07
   5.7819273e-10  -8.9527783e-03   2.1850368e+00   1.0886856e+00  -4.2042349e+07
   5.7919306e-10  -8.9108205e-03   2.1822050e+00   1.0908304e+00  -4.1845520e+07
   5.8019340e-10  -8.8690592e-03   2.1793875e+00   1.0929680e+00  -4.1649616e+07
   5.8119373e-10  -8.8274933e-03   2.1765844e+00   1.0950985e+00  -4.1454633e+07
   5.8219406e-10  -8.7861221e-03   2.1737955e+00   1.0972220e+00  -4.1260568e+07
   5.8319440e-10  -8.7449445e-03   2.1710208e+00   1.0993384e+00  -4.1067414e+07
   5.8419473e-10  -8.7039597e-03   2.1682601e+00   1.1014477e+00  -4.0875168e+07
   5.8519507e-10  -8.6631668e-03   2.1655135e+00   1.1035499e+00  -4.0683826e+07
   5.8619540e-10  -8.6225648e-03   2.1627809e+00   1.1056450e+00  -4.0493383e+07
   5.8719573e-10  -8.5821528e-03   2.1600621e+00   1.1077331e+00  -4.0303835e+07
   5.8819607e-10  -8.5419300e-03   2.1573572e+00   1.1098142e+00  -4.0115178e+07
   5.8919640e-10  -8.5018955e-03   2.1546660e+00   1.1118882e+00  -3.9927407e+07
   5.9019673e-10  -8.4620484e-03   2.1519884e+00   1.1139552e+00  -3.9740517e+07
   5.9119707e-10  -8.4223878e-03   2.1493245e+00   1.1160152e+00  -3.9554506e+07
   5.9219740e-10  -8.3829129e-03   2.1466741e+00   1.1180681e+00  -3.9369368e+07
   5.9319773e-10  -8.3436227e-03   2.1440371e+00   1.1201141e+00  -3.9185100e+07
   5.9419807e-10  -8.3045164e-03   2.1414135e+00   1.1221530e+00  -3.9001697e+07
   5.9519840e-10  -8.2655931e-03   2.1388033e+00   1.1241850e+00  -3.8819155e+07
   5.9619873e-10  -8.2268520e-03   2.1362063e+00   1.1262100e+00  -3.8637469e+07
   5.9719907e-10  -8.1882922e-03   2.1336225e+00   1.1282280e+00  -3.8456637e+07
   5.9819940e-10  -8.1499129e-03   2.1310517e+00   1.1302390e+00  -3.8276653e+07
   5.9919973e-10  -8.1117132e-03   2.1284941e+00   1.1322432e+00  -3.8097514e+07
   6.0020007e-10  -8.0736923e-03   2.1259494e+00   1.1342403e+00  -3.7919216e+07
   6.0120040e-10  -8.0358493e-03   2.1234176e+00   1.1362306e+00  -3.7741754e+07
   6.0220073e-10  -7.9981835e-03   2.1208987e+00   1.1382139e+00  -3.7565125e+07
   6.0320107e-10  -7.9606939e-03   2.1183925e+00   1.1401903e+00  -3.7389324e+07
   6.0420140e-10  -7.9233797e-03   2.1158991e+00   1.1421598e+00  -3.7214348e+07
   6.0520173e-10  -7.8862402e-03   2.1134183e+00   1.1441225e+00  -3.7040193e+07
   6.0620207e-10  -7.8492744e-03   2.1109501e+00   1.1460782e+00  -3.6866855e+07
   6.0720240e-10  -7.8124817e-03   2.1084944e+00   1.1480271e+00  -3.6694329e+07
   6.0820273e-10  -7.7758611e-03   2.1060512e+00   1.1499691e+00  -3.6522613e+07
   6.0920307e-10  -7.7394120e-03   2.1036203e+00   1.1519043e+00  -3.6351701e+07
   6.1020340e-10  -7.7031333e-03   2.1012018e+00   1.1538327e+00  -3.6181591e+07
   6.1120373e-10  -7.6670245e-03   2.0987955e+00   1.1557542e+00  -3.6012278e+07
   6.1220407e-10  -7.6310846e-03   2.0964014e+00   1.1576690e+00  -3.5843759e+07
   6.1320440e-10  -7.5953129e-03   2.0940195e+00   1.1595769e+00  -3.5676030e+07
   6.1420473e-10  -7.5597086e-03   2.0916496e+00   1.1614780e+00  -3.5509087e+07
   6.1520507e-10  -7.5242708e-03   2.0892917e+00   1.1633724e+00  -3.5342927e+07
   6.1620540e-10  -7.4889990e-03   2.0869458e+00   1.1652600e+00  -3.5177545e+07
   6.1720574e-10  -7.4538921e-03   2.0846117e+00   1.1671409e+00  -3.5012938e+07
   6.1820607e-10  -7.4189496e-03   2.0822895e+00   1.1690150e+00  -3.4849102e+07
   6.1920640e-10  -7.3841705e-03   2.0799790e+00   1.1708824e+00  -3.4686034e+07
   6.2020674e-10  -7.3495542e-03   2.0776802e+00   1.1727431e+00  -3.4523729e+07
   6.2120707e-10  -7.3150999e-03   2.0753931e+00   1.1745971e+00  -3.4362185e+07
   6.2220740e-10  -7.2808067e-03   2.0731175e+00   1.1764444e+00  -3.4201398e+07
   6.2320774e-10  -7.2466741e-03   2.0708535e+00   1.1782850e+00  -3.4041364e+07
   6.2420807e-10  -7.2127011e-03   2.0686009e+00   1.1801190e+00  -3.3882079e+07
   6.2520840e-10  -7.1788871e-03   2.0663597e+00   1.1819463e+00  -3.3723540e+07
   6.2620874e-10  -7.1452314e-03   2.0641298e+00   1.1837669e+00  -3.3565744e+07
   6.2720907e-10  -7.1117331e-03   2.0619113e+00   1.1855810e+00  -3.3408687e+07
   6.2820940e-10  -7.0783916e-03   2.0597039e+00   1.1873885e+00  -3.3252364e+07
   6.2920974e-10  -7.0452060e-03   2.0575077e+00   1.1891893e+00  -3.3096774e+07
   6.3021007e-10  -7.0121758e-03   2.0553226e+00   1.1909836e+00  -3.2941912e+07
   6.3121040e-10  -6.9793001e-03   2.0531486e+00   1.1927713e+00  -3.2787775e+07
   6.3221074e-10  -6.9465782e-03   2.0509855e+00   1.1945524e+00  -3.2634360e+07
   6.3321107e-10  -6.9140094e-03   2.0488334e+00   1.1963270e+00  -3.2481663e+07
   6.3421140e-10  -6.8815930e-03   2.0466922e+00   1.1980951e+00  -3.2329680e+07
   6.3521174e-10  -6.8493283e-03   2.0445617e+00   1.1998567e+00  -3.2178409e+07
   6.3621207e-10  -6.8172146e-03   2.0424421e+00   1.2016118e+00  -3.2027845e+07
   6.3721240e-10  -6.7852511e-03   2.0403331e+00   1.2033603e+00  -3.1877987e+07
   6.3821274e-10  -6.7534372e-03   2.0382348e+00   1.2051025e+00  -3.1728829e+07
   6.3921307e-10  -6.7217721e-03   2.0361471e+00   1.2068381e+00  -3.1580369e+07
   6.4021340e-10  -6.6902552e-03   2.0340699e+00   1.2085673e+00  -3.1432604e+07
   6.4121374e-10  -6.6588858e-03   2.0320032e+00   1.2102901e+00  -3.1285531e+07
   6.4221407e-10  -6.6276631e-03   2.0299470e+00   1.2120065e+00  -3.1139145e+07
   6.4321440e-10  -6.5965865e-03   2.0279011e+00   1.2137165e+00  -3.0993444e+07
   6.4421474e-10  -6.5656554e-03   2.0258655e+00   1.2154201e+00  -3.0848425e+07
   6.4521507e-10  -6.5348689e-03   2.0238402e+00   1.2171173e+00  -3.0704084e+07
   6.4621541e-10  -6.5042266e-03   2.0218252e+00   1.2188082e+00  -3.0560418e+07
   6.4721574e-10  -6.4737276e-03   2.0198203e+00   1.2204927e+00  -3.0417424e+07
   6.4821607e-10  -6.4433713e-03   2.0178255e+00   1.2221709e+00  -3.0275099e+07
   6.4921641e-10  -6.4131570e-03   2.0158407e+00   1.2238428e+00  -3.0133440e+07
   6.5021674e-10  -6.3830841e-03   2.0138660e+00   1.2255084e+00  -2.9992443e+07
   6.5121707e-10  -6.3531519e-03   2.0119012e+00   1.2271677e+00  -2.9852105e+07
   6.5221741e-10  -6.3233598e-03   2.0099463e+00   1.2288208e+00  -2.9712424e+07
   6.5321774e-10  -6.2937071e-03   2.0080013e+00   1.2304676e+00  -2.9573396e+07
   6.5421807e-10  -6.2641932e-03   2.0060661e+00   1.2321082e+00  -2.9435018e+07
   6.5521841e-10  -6.2348173e-03   2.0041406e+00   1.2337425e+00  -2.9297287e+07
   6.5621874e-10  -6.2055789e-03   2.0022248e+00   1.2353707e+00  -2.9160199e+07
   6.5721907e-10  -6.1764773e-03   2.0003187e+00   1.2369927e+00  -2.9023753e+07
   6.5821941e-10  -6.1475118e-03   1.9984221e+00   1.2386084e+00  -2.8887945e+07
   6.5921974e-10  -6.1186820e-03   1.9965351e+00   1.2402181e+00  -2.8752771e+07
   6.6022007e-10  -6.0899870e-03   1.9946576e+00   1.2418216e+00  -2.8618229e+07
   6.6122041e-10  -6.0614262e-03   1.9927896e+00   1.2434190e+00  -2.8484317e+07
   6.6222074e-10  -6.0329992e-03   1.9909309e+00   1.2450102e+00  -2.8351030e+07
   6.6322107e-10  -6.0047051e-03   1.9890816e+00   1.2465954e+00  -2.8218366e+07
   6.6422141e-10  -5.9765435e-03   1.9872416e+00   1.2481745e+00  -2.8086322e+07
   6.6522174e-10  -5.9485136e-03   1.9854109e+00   1.2497475e+00  -2.7954896e+07
   6.6622207e-10  -5.9206149e-03   1.9835893e+00   1.2513145e+00  -2.7824084e+07
   6.6722241e-10  -5.8928467e-03   1.9817769e+00   1.2528755e+00  -2.7693883e+07
   6.6822274e-10  -5.8652085e-03   1.9799737e+00   1.2544304e+00  -2.7564290e+07
   6.6922307e-10  -5.8376996e-03   1.9781794e+00   1.2559794e+00  -2.7435303e+07
   6.7022341e-10  -5.8103194e-03   1.9763942e+00   1.2575223e+00  -2.7306919e+07
   6.7122374e-10  -5.7830674e-03   1.9746180e+00   1.2590593e+00  -2.7179135e+07
   6.7222407e-10  -5.7559428e-03   1.9728507e+00   1.2605904e+00  -2.7051948e+07
   6.7322441e-10  -5.7289453e-03   1.9710923e+00   1.2621155e+00  -2.6925355e+07
   6.7422474e-10  -5.7020740e-03   1.9693427e+00   1.2636347e+00  -2.6799354e+07
   6.7522508e-10  -5.6753285e-03   1.9676018e+00   1.2651479e+00  -2.6673941e+07
   6.7622541e-10  -5.6487082e-03   1.9658698e+00   1.2666553e+00  -2.6549115e+07
   6.7722574e-10  -5.6222124e-03   1.9641464e+00   1.2681569e+00  -2.6424872e+07
   6.7822608e-10  -5.5958407e-03   1.9624316e+00   1.2696526e+00  -2.6301209e+07
   6.7922641e-10  -5.5695923e-03   1.9607255e+00   1.2711424e+00  -2.6178124e+07
   6.8022674e-10  -5.5434668e-03   1.9590279e+00   1.2726264e+00  -2.6055614e+07
   6.8122708e-10  -5.5174636e-03   1.9573388e+00   1.2741046e+00  -2.5933676e+07
   6.8222741e-10  -5.4915820e-03   1.9556582e+00   1.2755771e+00  -2.5812308e+07
   6.8322774e-10  -5.4658216e-03   1.9539860e+00   1.2770437e+00  -2.5691507e+07
   6.8422808e-10  -5.4401817e-03   1.9523223e+00   1.2785046e+00  -2.5571270e+07
   6.8522841e-10  -5.4146618e-03   1.9506668e+00   1.2799598e+00  -2.5451595e+07
   6.8622874e-10  -5.3892614e-03   1.9490196e+00   1.2814093e+00  -2.5332479e+07
   6.8722908e-10  -5.3639798e-03   1.9473807e+00   1.2828530e+00  -2.5213919e+07
   6.8822941e-10  -5.3388166e-03   1.9457500e+00   1.2842910e+00  -2.5095913e+07
   6.8922974e-10  -5.3137711e-03   1.9441275e+00   1.2857234e+00  -2.4978459e+07
   6.9023008e-10  -5.2888428e-03   1.9425131e+00   1.2871501e+00  -2.4861552e+07
   6.9123041e-10  -5.2640313e-03   1.9409068e+00   1.2885712e+00  -2.4745192e+07
   6.9223074e-10  -5.2393358e-03   1.9393085e+00   1.2899867e+00  -2.4629376e+07
   6.9323108e-10  -5.2147559e-03   1.9377182e+00   1.2913965e+00  -2.4514100e+07
   6.9423141e-10  -5.1902911e-03   1.9361359e+00   1.2928008e+00  -2.4399363e+07
   6.9523174e-10  -5.1659408e-03   1.9345615e+00   1.2941995e+00  -2.4285162e+07
   6.9623208e-10  -5.1417044e-03   1.9329949e+00   1.2955926e+00  -2.4171494e+07
   6.9723241e-10  -5.1175815e-03   1.9314362e+00   1.2969802e+00  -2.4058357e+07
   6.9823274e-10  -5.0935715e-03   1.9298853e+00   1.2983623e+00  -2.3945748e+07
   6.9923308e-10  -5.0696739e-03   1.9283422e+00   1.2997388e+00  -2.3833666e+07
   7.0023341e-10  -5.0458881e-03   1.9268067e+00   1.3011099e+00  -2.3722106e+07
   7.0123374e-10  -5.0222137e-03   1.9252790e+00   1.3024755e+00  -2.3611068e+07
   7.0223408e-10  -4.9986501e-03   1.9237588e+00   1.3038356e+00  -2.3500548e+07
   7.0323441e-10  -4.9751968e-03   1.9222463e+00   1.3051903e+00  -2.3390545e+07
   7.0423474e-10  -4.9518533e-03   1.9207413e+00   1.3065396e+00  -2.3281055e+07
   7.0523508e-10  -4.9286190e-03   1.9192438e+00   1.3078835e+00  -2.3172077e+07
   7.0623541e-10  -4.9054935e-03   1.9177538e+00   1.3092220e+00  -2.3063607e+07
   7.0723575e-10  -4.8824763e-03   1.9162713e+00   1.3105551e+00  -2.2955644e+07
   7.0823608e-10  -4.8595668e-03   1.9147961e+00   1.3118828e+00  -2.2848185e+07
   7.0923641e-10  -4.8367645e-03   1.9133284e+00   1.3132052e+00  -2.2741228e+07
   7.1023675e-10  -4.8140690e-03   1.9118679e+00   1.3145223e+00  -2.2634770e+07
   7.1123708e-10  -4.7914797e-03   1.9104147e+00   1.3158341e+00  -2.2528810e+07
   7.1223741e-10  -4.7689962e-03   1.9089688e+00   1.3171406e+00  -2.2423344e+07
   7.1323775e-10  -4.7466180e-03   1.9075301e+00   1.3184418e+00  -2.2318371e+07
   7.1423808e-10  -4.7243445e-03   1.9060985e+00   1.3197377e+00  -2.2213888e+07
   7.1523841e-10  -4.7021752e-03   1.9046741e+00   1.3210285e+00  -2.2109893e+07
   7.1623875e-10  -4.6801098e-03   1.9032568e+00   1.3223139e+00  -2.2006383e+07
   7.1723908e-10  -4.6581476e-03   1.9018465e+00   1.3235942e+00  -2.1903357e+07
   7.1823941e-10  -4.6362883e-03   1.9004433e+00   1.3248693e+00  -2.1800812e+07
   7.1923975e-10  -4.6145313e-03   1.8990471e+00   1.3261392e+00  -2.1698745e+07
   7.2024008e-10  -4.5928762e-03   1.8976578e+00   1.3274040e+00  -2.1597156e+07
   7.2124041e-10  -4.5713225e-03   1.8962755e+00   1.3286636e+00  -2.1496040e+07
   7.2224075e-10  -4.5498697e-03   1.8949000e+00   1.3299181e+00  -2.1395397e+07
   7.2324108e-10  -4.5285173e-03   1.8935314e+00   1.3311675e+00  -2.1295224e+07
   7.2424141e-10  -4.5072649e-03   1.8921695e+00   1.3324118e+00  -2.1195519e+07
   7.2524175e-10  -4.4861120e-03   1.8908145e+00   1.3336510e+00  -2.1096279e+07
   7.2624208e-10  -4.4650581e-03   1.8894662e+00   1.3348852e+00  -2.0997502e+07
   7.2724241e-10  -4.4441028e-03   1.8881246e+00   1.3361143e+00  -2.0899187e+07
   7.2824275e-10  -4.4232457e-03   1.8867897e+00   1.3373384e+00  -2.0801331e+07
   7.2924308e-10  -4.4024862e-03   1.8854614e+00   1.3385575e+00  -2.0703932e+07
   7.3024341e-10  -4.3818239e-03   1.8841397e+00   1.3397716e+00  -2.0606987e+07
   7.3124375e-10  -4.3612583e-03   1.8828246e+00   1.3409808e+00  -2.0510495e+07
   7.3224408e-10  -4.3407890e-03   1.8815161e+00   1.3421849e+00  -2.0414454e+07
   7.3324441e-10  -4.3204156e-03   1.8802140e+00   1.3433842e+00  -2.0318862e+07
   7.3424475e-10  -4.3001376e-03   1.8789184e+00   1.3445785e+00  -2.0223715e+07
   7.3524508e-10  -4.2799546e-03   1.8776293e+00   1.3457679e+00  -2.0129013e+07
   7.3624542e-10  -4.2598661e-03   1.8763465e+00   1.3469524e+00  -2.0034753e+07
   7.3724575e-10  -4.2398716e-03   1.8750701e+00   1.3481320e+00  -1.9940933e+07
   7.3824608e-10  -4.2199708e-03   1.8738001e+00   1.3493068e+00  -1.9847552e+07
   7.3924642e-10  -4.2001631e-03   1.8725363e+00   1.3504767e+00  -1.9754606e+07
   7.4024675e-10  -4.1804482e-03   1.8712789e+00   1.3516418e+00  -1.9662094e+07
   7.4124708e-10  -4.1608257e-03   1.8700276e+00   1.3528021e+00  -1.9570015e+07
   7.4224742e-10  -4.1412950e-03   1.8687826e+00   1.3539575e+00  -1.9478365e+07
   7.4324775e-10  -4.1218558e-03   1.8675438e+00   1.3551083e+00  -1.9387143e+07
   7.4424808e-10  -4.1025077e-03   1.8663111e+00   1.3562542e+00  -1.9296348e+07
   7.4524842e-10  -4.0832501e-03   1.8650845e+00   1.3573954e+00  -1.9205976e+07
   7.4624875e-10  -4.0640828e-03   1.8638640e+00   1.3585319e+00  -1.9116026e+07
   7.4724908e-10  -4.0450052e-03   1.8626495e+00   1.3596637e+00  -1.9026497e+07
   7.4824942e-10  -4.0260170e-03   1.8614411e+00   1.3607907e+00  -1.8937385e+07
   7.4924975e-10  -4.0071177e-03   1.8602386e+00   1.3619131e+00  -1.8848689e+07
   7.5025008e-10  -3.9883069e-03   1.8590421e+00   1.3630308e+00  -1.8760408e+07
   7.5125042e-10  -3.9695842e-03   1.8578516e+00   1.3641439e+00  -1.8672539e+07
   7.5225075e-10  -3.9509493e-03   1.8566669e+00   1.3652523e+00  -1.8585080e+07
   7.5325108e-10  -3.9324016e-03   1.8554881e+00   1.3663562e+00  -1.8498030e+07
   7.5425142e-10  -3.9139407e-03   1.8543151e+00   1.3674554e+00  -1.8411386e+07
   7.5525175e-10  -3.8955664e-03   1.8531480e+00   1.3685500e+00  -1.8325147e+07
   7.5625208e-10  -3.8772781e-03   1.8519866e+00   1.3696401e+00  -1.8239310e+07
   7.5725242e-10  -3.8590755e-03   1.8508310e+00   1.3707256e+00  -1.8153875e+07
   7.5825275e-10  -3.8409581e-03   1.8496810e+00   1.3718066e+00  -1.8068838e+07
   7.5925308e-10  -3.8229256e-03   1.8485368e+00   1.3728831e+00  -1.7984199e+07
   7.6025342e-10  -3.8049776e-03   1.8473983e+00   1.3739551e+00  -1.7899954e+07
   7.6125375e-10  -3.7871137e-03   1.8462653e+00   1.3750226e+00  -1.7816104e+07
   7.6225408e-10  -3.7693334e-03   1.8451380e+00   1.3760856e+00  -1.7732644e+07
   7.6325442e-10  -3.7516364e-03   1.8440162e+00   1.3771441e+00  -1.7649575e+07
   7.6425475e-10  -3.7340224e-03   1.8429000e+00   1.3781982e+00  -1.7566893e+07
   7.6525509e-10  -3.7164908e-03   1.8417893e+00   1.3792479e+00  -1.7484598e+07
   7.6625542e-10  -3.6990414e-03   1.8406841e+00   1.3802932e+00  -1.7402687e+07
   7.6725575e-10  -3.6816737e-03   1.8395844e+00   1.3813341e+00  -1.7321159e+07
   7.6825609e-10  -3.6643874e-03   1.8384900e+00   1.3823706e+00  -1.7240011e+07
   7.6925642e-10  -3.6471821e-03   1.8374011e+00   1.3834027e+00  -1.7159242e+07
   7.7025675e-10  -3.6300573e-03   1.8363176e+00   1.3844305e+00  -1.7078851e+07
   7.7125709e-10  -3.6130129e-03   1.8352394e+00   1.3854540e+00  -1.6998835e+07
   7.7225742e-10  -3.5960482e-03   1.8341665e+00   1.3864732e+00  -1.6919193e+07
   7.7325775e-10  -3.5791631e-03   1.8330990e+00   1.3874880e+00  -1.6839923e+07
   7.7425809e-10  -3.5623570e-03   1.8320367e+00   1.3884986e+00  -1.6761023e+07
   7.7525842e-10  -3.5456297e-03   1.8309796e+00   1.3895049e+00  -1.6682491e+07
   7.7625875e-10  -3.5289808e-03   1.8299277e+00   1.3905070e+00  -1.6604326e+07
   7.7725909e-10  -3.5124099e-03   1.8288811e+00   1.3915048e+00  -1.6526527e+07
   7.7825942e-10  -3.4959166e-03   1.8278396e+00   1.3924984e+00  -1.6449091e+07
   7.7925975e-10  -3.4795006e-03   1.8268032e+00   1.3934878e+00  -1.6372016e+07
   7.8026009e-10  -3.4631616e-03   1.8257720e+00   1.3944730e+00  -1.6295302e+07
   7.8126042e-10  -3.4468990e-03   1.8247458e+00   1.3954540e+00  -1.6218946e+07
   7.8226075e-10  -3.4307127e-03   1.8237247e+00   1.3964309e+00  -1.6142946e+07
   7.8326109e-10  -3.4146023e-03   1.8227086e+00   1.3974036e+00  -1.6067302e+07
   7.8426142e-10  -3.3985673e-03   1.8216975e+00   1.3983722e+00  -1.5992011e+07
   7.8526175e-10  -3.3826075e-03   1.8206914e+00   1.3993367e+00  -1.5917071e+07
   7.8626209e-10  -3.3667224e-03   1.8196903e+00   1.4002970e+00  -1.5842482e+07
   7.8726242e-10  -3.3509118e-03   1.8186941e+00   1.4012533e+00  -1.5768241e+07
   7.8826275e-10  -3.3351753e-03   1.8177028e+00   1.4022056e+00  -1.5694347e+07
   7.8926309e-10  -3.3195126e-03   1.8167163e+00   1.4031537e+00  -1.5620799e+07
   7.9026342e-10  -3.3039232e-03   1.8157348e+00   1.4040979e+00  -1.5547593e+07
   7.9126375e-10  -3.2884069e-03   1.8147580e+00   1.4050380e+00  -1.5474730e+07
   7.9226409e-10  -3.2729633e-03   1.8137861e+00   1.4059741e+00  -1.5402207e+07
   7.9326442e-10  -3.2575921e-03   1.8128189e+00   1.4069062e+00  -1.5330024e+07
   7.9426475e-10  -3.2422929e-03   1.8118565e+00   1.4078343e+00  -1.5258177e+07
   7.9526509e-10  -3.2270655e-03   1.8108989e+00   1.4087585e+00  -1.5186666e+07
   7.9626542e-10  -3.2119094e-03   1.8099459e+00   1.4096787e+00  -1.5115489e+07
   7.9726576e-10  -3.1968243e-03   1.8089976e+00   1.4105950e+00  -1.5044644e+07
   7.9826609e-10  -3.1818099e-03   1.8080540e+00   1.4115074e+00  -1.4974131e+07
   7.9926642e-10  -3.1668659e-03   1.8071150e+00   1.4124159e+00  -1.4903947e+07
   8.0026676e-10  -3.1519920e-03   1.8061807e+00   1.4133204e+00  -1.4834091e+07
   8.0126709e-10  -3.1371878e-03   1.8052509e+00   1.4142211e+00  -1.4764562e+07
   8.0226742e-10  -3.1224529e-03   1.8043257e+00   1.4151180e+00  -1.4695357e+07
   8.0326776e-10  -3.1077872e-03   1.8034051e+00   1.4160110e+00  -1.4626475e+07
   8.0426809e-10  -3.0931901e-03   1.8024889e+00   1.4169001e+00  -1.4557916e+07
   8.0526842e-10  -3.0786615e-03   1.8015773e+00   1.4177855e+00  -1.4489677e+07
   8.0626876e-10  -3.0642010e-03   1.8006701e+00   1.4186670e+00  -1.4421757e+07
   8.0726909e-10  -3.0498083e-03   1.7997674e+00   1.4195448e+00  -1.4354154e+07
   8.0826942e-10  -3.0354830e-03   1.7988691e+00   1.4204187e+00  -1.4286867e+07
   8.0926976e-10  -3.0212249e-03   1.7979752e+00   1.4212890e+00  -1.4219894e+07
   8.1027009e-10  -3.0070336e-03   1.7970858e+00   1.4221554e+00  -1.4153235e+07
   8.1127042e-10  -2.9929089e-03   1.7962006e+00   1.4230182e+00  -1.4086887e+07
   8.1227076e-10  -2.9788504e-03   1.7953198e+00   1.4238772e+00  -1.4020849e+07
   8.1327109e-10  -2.9648578e-03   1.7944434e+00   1.4247325e+00  -1.3955119e+07
   8.1427142e-10  -2.9509307e-03   1.7935712e+00   1.4255842e+00  -1.3889697e+07
   8.1527176e-10  -2.9370690e-03   1.7927033e+00   1.4264322e+00  -1.3824581e+07
   8.1627209e-10  -2.9232723e-03   1.7918397e+00   1.4272765e+00  -1.3759769e+07
   8.1727242e-10  -2.9095402e-03   1.7909803e+00   1.4281171e+00  -1.3695259e+07
   8.1827276e-10  -2.8958725e-03   1.7901251e+00   1.4289542e+00  -1.3631052e+07
   8.1927309e-10  -2.8822689e-03   1.7892741e+00   1.4297876e+00  -1.3567144e+07
   8.2027342e-10  -2.8687291e-03   1.7884272e+00   1.4306174e+00  -1.3503535e+07
   8.2127376e-10  -2.8552527e-03   1.7875846e+00   1.4314436e+00  -1.3440224e+07
   8.2227409e-10  -2.8418396e-03   1.7867460e+00   1.4322663e+00  -1.3377208e+07
   8.2327442e-10  -2.8284893e-03   1.7859115e+00   1.4330854e+00  -1.3314487e+07
   8.2427476e-10  -2.8152016e-03   1.7850812e+00   1.4339009e+00  -1.3252059e+07
   8.2527509e-10  -2.8019762e-03   1.7842549e+00   1.4347129e+00  -1.3189923e+07
   8.2627543e-10  -2.7888129e-03   1.7834326e+00   1.4355214e+00  -1.3128077e+07
   8.2727576e-10  -2.7757112e-03   1.7826144e+00   1.4363264e+00  -1.3066521e+07
   8.2827609e-10  -2.7626710e-03   1.7818001e+00   1.4371279e+00  -1.3005252e+07
   8.2927643e-10  -2.7496920e-03   1.7809899e+00   1.4379259e+00  -1.2944270e+07
   8.3027676e-10  -2.7367738e-03   1.7801836e+00   1.4387204e+00  -1.2883572e+07
   8.3127709e-10  -2.7239161e-03   1.7793813e+00   1.4395115e+00  -1.2823159e+07
   8.3227743e-10  -2.7111188e-03   1.7785828e+00   1.4402992e+00  -1.2763028e+07
   8.3327776e-10  -2.6983815e-03   1.7777883e+00   1.4410834e+00  -1.2703178e+07
   8.3427809e-10  -2.6857039e-03   1.7769977e+00   1.4418642e+00  -1.2643607e+07
   8.3527843e-10  -2.6730858e-03   1.7762109e+00   1.4426416e+00  -1.2584316e+07
   8.3627876e-10  -2.6605268e-03   1.7754280e+00   1.4434157e+00  -1.2525301e+07
   8.3727909e-10  -2.6480267e-03   1.7746489e+00   1.4441863e+00  -1.2466563e+07
   8.3827943e-10  -2.6355853e-03   1.7738736e+00   1.4449536e+00  -1.2408099e+07
   8.3927976e-10  -2.6232021e-03   1.7731021e+00   1.4457176e+00  -1.2349908e+07
   8.4028009e-10  -2.6108771e-03   1.7723344e+00   1.4464782e+00  -1.2291990e+07
   8.4128043e-10  -2.5986099e-03   1.7715704e+00   1.4472356e+00  -1.2234342e+07
   8.4228076e-10  -2.5864002e-03   1.7708101e+00   1.4479896e+00  -1.2176964e+07
   8.4328109e-10  -2.5742477e-03   1.7700536e+00   1.4487403e+00  -1.2119854e+07
   8.4428143e-10  -2.5621523e-03   1.7693007e+00   1.4494877e+00  -1.2063011e+07
   8.4528176e-10  -2.5501136e-03   1.7685516e+00   1.4502319e+00  -1.2006434e+07
   8.4628209e-10  -2.5381313e-03   1.7678060e+00   1.4509728e+00  -1.1950121e+07
   8.4728243e-10  -2.5262053e-03   1.7670641e+00   1.4517105e+00  -1.1894072e+07
   8.4828276e-10  -2.5143352e-03   1.7663259e+00   1.4524450e+00  -1.1838285e+07
   8.4928309e-10  -2.5025207e-03   1.7655912e+00   1.4531762e+00  -1.1782759e+07
   8.5028343e-10  -2.4907617e-03   1.7648601e+00   1.4539042e+00  -1.1727493e+07
   8.5128376e-10  -2.4790579e-03   1.7641326e+00   1.4546291e+00  -1.1672485e+07
   8.5228409e-10  -2.4674089e-03   1.7634087e+00   1.4553508e+00  -1.1617734e+07
   8.5328443e-10  -2.4558146e-03   1.7626882e+00   1.4560693e+00  -1.1563239e+07
   8.5428476e-10  -2.4442746e-03   1.7619713e+00   1.4567846e+00  -1.1508999e+07
   8.5528510e-10  -2.4327888e-03   1.7612579e+00   1.4574969e+00  -1.1455013e+07
   8.5628543e-10  -2.4213569e-03   1.7605479e+00   1.4582060e+00  -1.1401280e+07
   8.5728576e-10  -2.4099785e-03   1.7598414e+00   1.4589120e+00  -1.1347797e+07
   8.5828610e-10  -2.3986536e-03   1.7591384e+00   1.4596149e+00  -1.1294565e+07
   8.5928643e-10  -2.3873818e-03   1.7584387e+00   1.4603147e+00  -1.1241582e+07
   8.6028676e-10  -2.3761629e-03   1.7577425e+00   1.4610114e+00  -1.1188846e+07
   8.6128710e-10  -2.3649966e-03   1.7570497e+00   1.4617050e+00  -1.1136358e+07
   8.6228743e-10  -2.3538827e-03   1.7563602e+00   1.4623957e+00  -1.1084115e+07
   8.6328776e-10  -2.3428209e-03   1.7556741e+00   1.4630832e+00  -1.1032116e+07
   8.6428810e-10  -2.3318110e-03   1.7549914e+00   1.4637678e+00  -1.0980360e+07
   8.6528843e-10  -2.3208527e-03   1.7543120e+00   1.4644493e+00  -1.0928847e+07
   8.6628876e-10  -2.3099459e-03   1.7536358e+00   1.4651279e+00  -1.0877574e+07
   8.6728910e-10  -2.2990903e-03   1.7529630e+00   1.4658034e+00  -1.0826542e+07
   8.6828943e-10  -2.2882855e-03   1.7522934e+00   1.4664760e+00  -1.0775748e+07
   8.6928976e-10  -2.2775315e-03   1.7516271e+00   1.4671456e+00  -1.0725191e+07
   8.7029010e-10  -2.2668279e-03   1.7509640e+00   1.4678122e+00  -1.0674872e+07
   8.7129043e-10  -2.2561746e-03   1.7503042e+00   1.4684760e+00  -1.0624787e+07
   8.7229076e-10  -2.2455712e-03   1.7496476e+00   1.4691367e+00  -1.0574937e+07
   8.7329110e-10  -2.2350176e-03   1.7489941e+00   1.4697946e+00  -1.0525321e+07
   8.7429143e-10  -2.2245135e-03   1.7483439e+00   1.4704496e+00  -1.0475936e+07
   8.7529176e-10  -2.2140586e-03   1.7476968e+00   1.4711017e+00  -1.0426782e+07
   8.7629210e-10  -2.2036529e-03   1.7470528e+00   1.4717508e+00  -1.0377859e+07
   8.7729243e-10  -2.1932959e-03   1.7464120e+00   1.4723972e+00  -1.0329164e+07
   8.7829276e-10  -2.1829876e-03   1.7457743e+00   1.4730406e+00  -1.0280697e+07
   8.7929310e-10  -2.1727276e-03   1.7451397e+00   1.4736813e+00  -1.0232457e+07
   8.8029343e-10  -2.1625158e-03   1.7445081e+00   1.4743190e+00  -1.0184443e+07
   8.8129376e-10  -2.1523518e-03   1.7438797e+00   1.4749540e+00  -1.0136653e+07
   8.8229410e-10  -2.1422356e-03   1.7432543e+00   1.4755861e+00  -1.0089087e+07
   8.8329443e-10  -2.1321669e-03   1.7426319e+00   1.4762155e+00  -1.0041744e+07
   8.8429476e-10  -2.1221454e-03   1.7420125e+00   1.4768421e+00  -9.9946217e+06
   8.8529510e-10  -2.1121709e-03   1.7413962e+00   1.4774659e+00  -9.9477204e+06
   8.8629543e-10  -2.1022432e-03   1.7407828e+00   1.4780869e+00  -9.9010385e+06
   8.8729577e-10  -2.0923621e-03   1.7401725e+00   1.4787051e+00  -9.8545750e+06
   8.8829610e-10  -2.0825274e-03   1.7395650e+00   1.4793207e+00  -9.8083291e+06
   8.8929643e-10  -2.0727389e-03   1.7389606e+00   1.4799335e+00  -9.7622995e+06
   8.9029677e-10  -2.0629962e-03   1.7383590e+00   1.4805435e+00  -9.7164854e+06
   8.9129710e-10  -2.0532993e-03   1.7377604e+00   1.4811509e+00  -9.6708857e+06
   8.9229743e-10  -2.0436479e-03   1.7371647e+00   1.4817556e+00  -9.6254994e+06
   8.9329777e-10  -2.0340418e-03   1.7365719e+00   1.4823576e+00  -9.5803256e+06
   8.9429810e-10  -2.0244808e-03   1.7359820e+00   1.4829569e+00  -9.5353632e+06
   8.9529843e-10  -2.0149647e-03   1.7353949e+00   1.4835535e+00  -9.4906112e+06
   8.9629877e-10  -2.0054932e-03   1.7348106e+00   1.4841475e+00  -9.4460687e+06
   8.9729910e-10  -1.9960662e-03   1.7342292e+00   1.4847389e+00  -9.4017347e+06
   8.9829943e-10  -1.9866834e-03   1.7336506e+00   1.4853276e+00  -9.3576083e+06
   8.9929977e-10  -1.9773447e-03   1.7330748e+00   1.4859137e+00  -9.3136883e+06
   9.0030010e-10  -1.9680497e-03   1.7325019e+00   1.4864972e+00  -9.2699740e+06
   9.0130043e-10  -1.9587985e-03   1.7319316e+00   1.4870781e+00  -9.2264643e+06
   9.0230077e-10  -1.9495906e-03   1.7313642e+00   1.4876564e+00  -9.1831583e+06
   9.0330110e-10  -1.9404260e-03   1.7307995e+00   1.4882321e+00  -9.1400550e+06
   9.0430143e-10  -1.9313043e-03   1.7302375e+00   1.4888053e+00  -9.0971535e+06
   9.0530177e-10  -1.9222255e-03   1.7296783e+00   1.4893759e+00  -9.0544529e+06
   9.0630210e-10  -1.9131893e-03   1.7291217e+00   1.4899440e+00  -9.0119521e+06
   9.0730243e-10  -1.9041955e-03   1.7285679e+00   1.4905095e+00  -8.9696504e+06
   9.0830277e-10  -1.8952440e-03   1.7280167e+00   1.4910725e+00  -8.9275467e+06
   9.0930310e-10  -1.8863344e-03   1.7274682e+00   1.4916330e+00  -8.8856401e+06
   9.1030343e-10  -1.8774667e-03   1.7269224e+00   1.4921910e+00  -8.8439297e+06
   9.1130377e-10  -1.8686406e-03   1.7263792e+00   1.4927466e+00  -8.8024146e+06
   9.1230410e-10  -1.8598559e-03   1.7258386e+00   1.4932996e+00  -8.7610939e+06
   9.1330443e-10  -1.8511125e-03   1.7253006e+00   1.4938501e+00  -8.7199666e+06
   9.1430477e-10  -1.8424101e-03   1.7247653e+00   1.4943982e+00  -8.6790319e+06
   9.1530510e-10  -1.8337486e-03   1.7242325e+00   1.4949439e+00  -8.6382889e+06
   9.1630544e-10  -1.8251277e-03   1.7237023e+00   1.4954871e+00  -8.5977367e+06
   9.1730577e-10  -1.8165473e-03   1.7231747e+00   1.4960279e+00  -8.5573744e+06
   9.1830610e-10  -1.8080072e-03   1.7226497e+00   1.4965662e+00  -8.5172011e+06
   9.1930644e-10  -1.7995072e-03   1.7221271e+00   1.4971022e+00  -8.4772159e+06
   9.2030677e-10  -1.7910471e-03   1.7216071e+00   1.4976357e+00  -8.4374179e+06
   9.2130710e-10  -1.7826267e-03   1.7210896e+00   1.4981669e+00  -8.3978063e+06
   9.2230744e-10  -1.7742458e-03   1.7205746e+00   1.4986957e+00  -8.3583802e+06
   9.2330777e-10  -1.7659043e-03   1.7200621e+00   1.4992221e+00  -8.3191388e+06
   9.2430810e-10  -1.7576019e-03   1.7195521e+00   1.4997461e+00  -8.2800811e+06
   9.2530844e-10  -1.7493385e-03   1.7190446e+00   1.5002678e+00  -8.2412064e+06
   9.2630877e-10  -1.7411139e-03   1.7185395e+00   1.5007872e+00  -8.2025137e+06
   9.2730910e-10  -1.7329280e-03   1.7180368e+00   1.5013043e+00  -8.1640023e+06
   9.2830944e-10  -1.7247804e-03   1.7175366e+00   1.5018190e+00  -8.1256712e+06
   9.2930977e-10  -1.7166711e-03   1.7170387e+00   1.5023314e+00  -8.0875196e+06
   9.3031010e-10  -1.7085999e-03   1.7165433e+00   1.5028415e+00  -8.0495467e+06
   9.3131044e-10  -1.7005666e-03   1.7160503e+00   1.5033493e+00  -8.0117517e+06
   9.3231077e-10  -1.6925710e-03   1.7155597e+00   1.5038549e+00  -7.9741337e+06
   9.3331110e-10  -1.6846130e-03   1.7150714e+00   1.5043582e+00  -7.9366920e+06
   9.3431144e-10  -1.6766923e-03   1.7145855e+00   1.5048592e+00  -7.8994256e+06
   9.3531177e-10  -1.6688088e-03   1.7141019e+00   1.5053579e+00  -7.8623337e+06
   9.3631210e-10  -1.6609623e-03   1.7136207e+00   1.5058545e+00  -7.8254156e+06
   9.3731244e-10  -1.6531527e-03   1.7131418e+00   1.5063488e+00  -7.7886705e+06
   9.3831277e-10  -1.6453797e-03   1.7126652e+00   1.5068408e+00  -7.7520975e+06
   9.3931310e-10  -1.6376433e-03   1.7121909e+00   1.5073307e+00  -7.7156958e+06
   9.4031344e-10  -1.6299431e-03   1.7117188e+00   1.5078184e+00  -7.6794646e+06
   9.4131377e-10  -1.6222792e-03   1.7112491e+00   1.5083038e+00  -7.6434032e+06
   9.4231410e-10  -1.6146512e-03   1.7107816e+00   1.5087871e+00  -7.6075107e+06
   9.4331444e-10  -1.6070590e-03   1.7103164e+00   1.5092682e+00  -7.5717864e+06
   9.4431477e-10  -1.5995025e-03   1.7098534e+00   1.5097471e+00  -7.5362294e+06
   9.4531511e-10  -1.5919815e-03   1.7093927e+00   1.5102239e+00  -7.5008391e+06
   9.4631544e-10  -1.5844958e-03   1.7089342e+00   1.5106985e+00  -7.4656145e+06
   9.4731577e-10  -1.5770452e-03   1.7084779e+00   1.5111710e+00  -7.4305550e+06
   9.4831611e-10  -1.5696296e-03   1.7080238e+00   1.5116414e+00  -7.3956597e+06
   9.4931644e-10  -1.5622489e-03   1.7075719e+00   1.5121097e+00  -7.3609279e+06
   9.5031677e-10  -1.5549028e-03   1.7071221e+00   1.5125758e+00  -7.3263589e+06
   9.5131711e-10  -1.5475912e-03   1.7066745e+00   1.5130398e+00  -7.2919518e+06
   9.5231744e-10  -1.5403140e-03   1.7062291e+00   1.5135018e+00  -7.2577060e+06
   9.5331777e-10  -1.5330709e-03   1.7057859e+00   1.5139616e+00  -7.2236206e+06
   9.5431811e-10  -1.5258619e-03   1.7053447e+00   1.5144194e+00  -7.1896950e+06
   9.5531844e-10  -1.5186867e-03   1.7049057e+00   1.5148751e+00  -7.1559283e+06
   9.5631877e-10  -1.5115452e-03   1.7044688e+00   1.5153288e+00  -7.1223198e+06
   9.5731911e-10  -1.5044373e-03   1.7040340e+00   1.5157804e+00  -7.0888689e+06
   9.5831944e-10  -1.4973627e-03   1.7036013e+00   1.5162300e+00  -7.0555747e+06
   9.5931977e-10  -1.4903213e-03   1.7031707e+00   1.5166775e+00  -7.0224365e+06
   9.6032011e-10  -1.4833131e-03   1.7027422e+00   1.5171230e+00  -6.9894536e+06
   9.6132044e-10  -1.4763377e-03   1.7023157e+00   1.5175666e+00  -6.9566253e+06
   9.6232077e-10  -1.4693951e-03   1.7018913e+00   1.5180081e+00  -6.9239508e+06
   9.6332111e-10  -1.4624852e-03   1.7014689e+00   1.5184476e+00  -6.8914295e+06
   9.6432144e-10  -1.4556076e-03   1.7010486e+00   1.5188851e+00  -6.8590606e+06
   9.6532177e-10  -1.4487624e-03   1.7006302e+00   1.5193206e+00  -6.8268434e+06
   9.6632211e-10  -1.4419493e-03   1.7002139e+00   1.5197542e+00  -6.7947772e+06
   9.6732244e-10  -1.4351683e-03   1.6997996e+00   1.5201858e+00  -6.7628613e+06
   9.6832277e-10  -1.4284191e-03   1.6993873e+00   1.5206155e+00  -6.7310949e+06
   9.6932311e-10  -1.4217015e-03   1.6989770e+00   1.5210432e+00  -6.6994775e+06
   9.7032344e-10  -1.4150156e-03   1.6985686e+00   1.5214690e+00  -6.6680083e+06
   9.7132377e-10  -1.4083610e-03   1.6981622e+00   1.5218928e+00  -6.6366865e+06
   9.7232411e-10  -1.4017377e-03   1.6977578e+00   1.5223148e+00  -6.6055116e+06
   9.7332444e-10  -1.3951456e-03   1.6973553e+00   1.5227348e+00  -6.5744828e+06
   9.7432477e-10  -1.3885843e-03   1.6969547e+00   1.5231529e+00  -6.5435995e+06
   9.7532511e-10  -1.3820539e-03   1.6965561e+00   1.5235691e+00  -6.5128609e+06
   9.7632544e-10  -1.3755542e-03   1.6961594e+00   1.5239835e+00  -6.4822664e+06
   9.7732578e-10  -1.3690850e-03   1.6957646e+00   1.5243959e+00  -6.4518153e+06
   9.7832611e-10  -1.3626462e-03   1.6953717e+00   1.5248065e+00  -6.4215070e+06
   9.7932644e-10  -1.3562377e-03   1.6949807e+00   1.5252152e+00  -6.3913407e+06
   9.8032678e-10  -1.3498593e-03   1.6945915e+00   1.5256221e+00  -6.3613159e+06
   9.8132711e-10  -1.3435108e-03   1.6942043e+00   1.5260271e+00  -6.3314319e+06
   9.8232744e-10  -1.3371921e-03   1.6938189e+00   1.5264303e+00  -6.3016879e+06
   9.8332778e-10  -1.3309031e-03   1.6934353e+00   1.5268317e+00  -6.2720834e+06
   9.8432811e-10  -1.3246437e-03   1.6930536e+00   1.5272312e+00  -6.2426177e+06
   9.8532844e-10  -1.3184137e-03   1.6926737e+00   1.5276290e+00  -6.2132901e+06
   9.8632878e-10  -1.3122130e-03   1.6922957e+00   1.5280249e+00  -6.1841000e+06
   9.8732911e-10  -1.3060413e-03   1.6919194e+00   1.5284190e+00  -6.1550468e+06
   9.8832944e-10  -1.2998987e-03   1.6915450e+00   1.5288113e+00  -6.1261298e+06
   9.8932978e-10  -1.2937849e-03   1.6911724e+00   1.5292019e+00  -6.0973483e+06
   9.9033011e-10  -1.2876999e-03   1.6908015e+00   1.5295907e+00  -6.0687019e+06
   9.9133044e-10  -1.2816434e-03   1.6904324e+00   1.5299777e+00  -6.0401897e+06
   9.9233078e-10  -1.2756154e-03   1.6900652e+00   1.5303629e+00  -6.0118113e+06
   9.9333111e-10  -1.2696158e-03   1.6896996e+00   1.5307464e+00  -5.9835659e+06
   9.9433144e-10  -1.2636443e-03   1.6893359e+00   1.5311282e+00  -5.9554529e+06
   9.9533178e-10  -1.2577008e-03   1.6889738e+00   1.5315082e+00  -5.9274718e+06
   9.9633211e-10  -1.2517853e-03   1.6886135e+00   1.5318865e+00  -5.8996219e+06
   9.9733244e-10  -1.2458976e-03   1.6882550e+00   1.5322630e+00  -5.8719025e+06
   9.9833278e-10  -1.2400376e-03   1.6878981e+00   1.5326379e+00  -5.8443132e+06
   9.9933311e-10  -1.2342051e-03   1.6875430e+00   1.5330111e+00  -5.8168532e+06
   1.0003334e-09  -1.2283999e-03   1.6871896e+00   1.5333825e+00  -5.7895220e+06
   1.0013338e-09  -1.2226221e-03   1.6868379e+00   1.5337523e+00  -5.7623190e+06
   1.0023341e-09  -1.2168714e-03   1.6864878e+00   1.5341203e+00  -5.7352436e+06
   1.0033344e-09  -1.2111478e-03   1.6861395e+00   1.5344867e+00  -5.7082951e+06
   1.0043348e-09  -1.2054510e-03   1.6857928e+00   1.5348515e+00  -5.6814730e+06
   1.0053351e-09  -1.1997810e-03   1.6854477e+00   1.5352146e+00  -5.6547768e+06
   1.0063354e-09  -1.1941376e-03   1.6851044e+00   1.5355760e+00  -5.6282057e+06
   1.0073358e-09  -1.1885208e-03   1.6847626e+00   1.5359357e+00  -5.6017592e+06
   1.0083361e-09  -1.1829303e-03   1.6844226e+00   1.5362939e+00  -5.5754368e+06
   1.0093364e-09  -1.1773661e-03   1.6840841e+00   1.5366504e+00  -5.5492378e+06
   1.0103368e-09  -1.1718281e-03   1.6837473e+00   1.5370052e+00  -5.5231617e+06
   1.0113371e-09  -1.1663161e-03   1.6834120e+00   1.5373585e+00  -5.4972079e+06
   1.0123374e-09  -1.1608300e-03   1.6830784e+00   1.5377101e+00  -5.4713759e+06
   1.0133378e-09  -1.1553697e-03   1.6827464e+00   1.5380602e+00  -5.4456650e+06
   1.0143381e-09  -1.1499350e-03   1.6824160e+00   1.5384086e+00  -5.4200747e+06
   1.0153384e-09  -1.1445258e-03   1.6820872e+00   1.5387555e+00  -5.3946044e+06
   1.0163388e-09  -1.1391421e-03   1.6817599e+00   1.5391008e+00  -5.3692536e+06
   1.0173391e-09  -1.1337837e-03   1.6814342e+00   1.5394444e+00  -5.3440218e+06
   1.0183394e-09  -1.1284505e-03   1.6811101e+00   1.5397866e+00  -5.3189082e+06
   1.0193398e-09  -1.1231423e-03   1.6807875e+00   1.5401271e+00  -5.2939125e+06
   1.0203401e-09  -1.1178591e-03   1.6804665e+00   1.5404662e+00  -5.2690341e+06
   1.0213404e-09  -1.1126007e-03   1.6801470e+00   1.5408036e+00  -5.2442723e+06
   1.0223408e-09  -1.1073670e-03   1.6798290e+00   1.5411395e+00  -5.2196268e+06
   1.0233411e-09  -1.1021579e-03   1.6795126e+00   1.5414739e+00  -5.1950968e+06
   1.0243414e-09  -1.0969733e-03   1.6791976e+00   1.5418068e+00  -5.1706819e+06
   1.0253418e-09  -1.0918131e-03   1.6788842e+00   1.5421381e+00  -5.1463815e+06
   1.0263421e-09  -1.0866771e-03   1.6785723e+00   1.5424679e+00  -5.1221952e+06
   1.0273424e-09  -1.0815652e-03   1.6782619e+00   1.5427963e+00  -5.0981223e+06
   1.0283428e-09  -1.0764774e-03   1.6779529e+00   1.5431231e+00  -5.0741623e+06
   1.0293431e-09  -1.0714135e-03   1.6776455e+00   1.5434484e+00  -5.0503148e+06
   1.0303434e-09  -1.0663734e-03   1.6773395e+00   1.5437722e+00  -5.0265792e+06
   1.0313438e-09  -1.0613569e-03   1.6770349e+00   1.5440946e+00  -5.0029549e+06
   1.0323441e-09  -1.0563641e-03   1.6767319e+00   1.5444154e+00  -4.9794414e+06
   1.0333444e-09  -1.0513947e-03   1.6764303e+00   1.5447349e+00  -4.9560383e+06
   1.0343448e-09  -1.0464487e-03   1.6761301e+00   1.5450528e+00  -4.9327450e+06
   1.0353451e-09  -1.0415259e-03   1.6758314e+00   1.5453693e+00  -4.9095609e+06
   1.0363454e-09  -1.0366262e-03   1.6755340e+00   1.5456843e+00  -4.8864857e+06
   1.0373458e-09  -1.0317496e-03   1.6752382e+00   1.5459979e+00  -4.8635187e+06
   1.0383461e-09  -1.0268959e-03   1.6749437e+00   1.5463101e+00  -4.8406595e+06
   1.0393464e-09  -1.0220650e-03   1.6746506e+00   1.5466208e+00  -4.8179076e+06
   1.0403468e-09  -1.0172568e-03   1.6743590e+00   1.5469302e+00  -4.7952624e+06
   1.0413471e-09  -1.0124713e-03   1.6740687e+00   1.5472381e+00  -4.7727235e+06
   1.0423474e-09  -1.0077082e-03   1.6737798e+00   1.5475445e+00  -4.7502903e+06
   1.0433478e-09  -1.0029675e-03   1.6734923e+00   1.5478496e+00  -4.7279624e+06
   1.0443481e-09  -9.9824907e-04   1.6732062e+00   1.5481533e+00  -4.7057393e+06
   1.0453484e-09  -9.9355283e-04   1.6729215e+00   1.5484556e+00  -4.6836205e+06
   1.0463488e-09  -9.8887867e-04   1.6726381e+00   1.5487565e+00  -4.6616054e+06
   1.0473491e-09  -9.8422648e-04   1.6723561e+00   1.5490560e+00  -4.6396937e+06
   1.0483494e-09  -9.7959616e-04   1.6720754e+00   1.5493542e+00  -4.6178848e+06
   1.0493498e-09  -9.7498760e-04   1.6717960e+00   1.5496510e+00  -4.5961783e+06
   1.0503501e-09  -9.7040070e-04   1.6715180e+00   1.5499464e+00  -4.5745736e+06
   1.0513505e-09  -9.6583537e-04   1.6712413e+00   1.5502405e+00  -4.5530703e+06
   1.0523508e-09  -9.6129149e-04   1.6709660e+00   1.5505332e+00  -4.5316679e+06
   1.0533511e-09  -9.5676897e-04   1.6706920e+00   1.5508246e+00  -4.5103660e+06
   1.0543515e-09  -9.5226772e-04   1.6704192e+00   1.5511146e+00  -4.4891641e+06
   1.0553518e-09  -9.4778762e-04   1.6701478e+00   1.5514034e+00  -4.4680616e+06
   1.0563521e-09  -9.4332858e-04   1.6698777e+00   1.5516907e+00  -4.4470582e+06
   1.0573525e-09  -9.3889050e-04   1.6696088e+00   1.5519768e+00  -4.4261534e+06
   1.0583528e-09  -9.3447329e-04   1.6693413e+00   1.5522616e+00  -4.4053467e+06
   1.0593531e-09  -9.3007684e-04   1.6690750e+00   1.5525450e+00  -4.3846377e+06
   1.0603535e-09  -9.2570106e-04   1.6688100e+00   1.5528272e+00  -4.3640258e+06
   1.0613538e-09  -9.2134584e-04   1.6685463e+00   1.5531080e+00  -4.3435108e+06
   1.0623541e-09  -9.1701111e-04   1.6682838e+00   1.5533876e+00  -4.3230920e+06
   1.0633545e-09  -9.1269675e-04   1.6680225e+00   1.5536659e+00  -4.3027690e+06
   1.0643548e-09  -9.0840267e-04   1.6677626e+00   1.5539429e+00  -4.2825414e+06
   1.0653551e-09  -9.0412877e-04   1.6675038e+00   1.5542186e+00  -4.2624088e+06
   1.0663555e-09  -8.9987497e-04   1.6672463e+00   1.5544931e+00  -4.2423707e+06
   1.0673558e-09  -8.9564117e-04   1.6669901e+00   1.5547663e+00  -4.2224266e+06
   1.0683561e-09  -8.9142727e-04   1.6667350e+00   1.5550382e+00  -4.2025762e+06
   1.0693565e-09  -8.8723319e-04   1.6664812e+00   1.5553089e+00  -4.1828190e+06
   1.0703568e-09  -8.8305882e-04   1.6662286e+00   1.5555783e+00  -4.1631544e+06
   1.0713571e-09  -8.7890407e-04   1.6659772e+00   1.5558466e+00  -4.1435822e+06
   1.0723575e-09  -8.7476886e-04   1.6657270e+00   1.5561135e+00  -4.1241019e+06
   1.0733578e-09  -8.7065309e-04   1.6654779e+00   1.5563793e+00  -4.1047131e+06
   1.0743581e-09  -8.6655666e-04   1.6652301e+00   1.5566438e+00  -4.0854152e+06
   1.0753585e-09  -8.6247950e-04   1.6649835e+00   1.5569071e+00  -4.0662080e+06
   1.0763588e-09  -8.5842151e-04   1.6647380e+00   1.5571692e+00  -4.0470909e+06
   1.0773591e-09  -8.5438259e-04   1.6644937e+00   1.5574301e+00  -4.0280636e+06
   1.0783595e-09  -8.5036266e-04   1.6642506e+00   1.5576898e+00  -4.0091256e+06
   1.0793598e-09  -8.4636163e-04   1.6640086e+00   1.5579483e+00  -3.9902765e+06
   1.0803601e-09  -8.4237942e-04   1.6637678e+00   1.5582056e+00  -3.9715159e+06
   1.0813605e-09  -8.3841592e-04   1.6635281e+00   1.5584618e+00  -3.9528433e+06
   1.0823608e-09  -8.3447107e-04   1.6632896e+00   1.5587167e+00  -3.9342585e+06
   1.0833611e-09  -8.3054475e-04   1.6630522e+00   1.5589705e+00  -3.9157609e+06
   1.0843615e-09  -8.2663690e-04   1.6628160e+00   1.5592231e+00  -3.8973501e+06
   1.0853618e-09  -8.2274743e-04   1.6625808e+00   1.5594745e+00  -3.8790258e+06
   1.0863621e-09  -8.1887624e-04   1.6623468e+00   1.5597248e+00  -3.8607875e+06
   1.0873625e-09  -8.1502325e-04   1.6621139e+00   1.5599739e+00  -3.8426349e+06
   1.0883628e-09  -8.1118838e-04   1.6618822e+00   1.5602219e+00  -3.8245675e+06
   1.0893631e-09  -8.0737153e-04   1.6616515e+00   1.5604688e+00  -3.8065849e+06
   1.0903635e-09  -8.0357264e-04   1.6614219e+00   1.5607145e+00  -3.7886868e+06
   1.0913638e-09  -7.9979161e-04   1.6611934e+00   1.5609590e+00  -3.7708727e+06
   1.0923641e-09  -7.9602835e-04   1.6609660e+00   1.5612025e+00  -3.7531422e+06
   1.0933645e-09  -7.9228279e-04   1.6607397e+00   1.5614448e+00  -3.7354950e+06
   1.0943648e-09  -7.8855484e-04   1.6605145e+00   1.5616860e+00  -3.7179307e+06
   1.0953651e-09  -7.8484442e-04   1.6602904e+00   1.5619261e+00  -3.7004489e+06
   1.0963655e-09  -7.8115145e-04   1.6600673e+00   1.5621651e+00  -3.6830491e+06
   1.0973658e-09  -7.7747584e-04   1.6598453e+00   1.5624030e+00  -3.6657310e+06
   1.0983661e-09  -7.7381751e-04   1.6596243e+00   1.5626398e+00  -3.6484943e+06
   1.0993665e-09  -7.7017639e-04   1.6594044e+00   1.5628755e+00  -3.6313385e+06
   1.1003668e-09  -7.6655239e-04   1.6591855e+00   1.5631101e+00  -3.6142633e+06
   1.1013671e-09  -7.6294543e-04   1.6589677e+00   1.5633436e+00  -3.5972682e+06
   1.1023675e-09  -7.5935543e-04   1.6587509e+00   1.5635760e+00  -3.5803530e+06
   1.1033678e-09  -7.5578231e-04   1.6585352e+00   1.5638074e+00  -3.5635172e+06
   1.1043681e-09  -7.5222599e-04   1.6583205e+00   1.5640377e+00  -3.5467605e+06
   1.1053685e-09  -7.4868639e-04   1.6581068e+00   1.5642670e+00  -3.5300824e+06
   1.1063688e-09  -7.4516344e-04   1.6578941e+00   1.5644952e+00  -3.5134827e+06
   1.1073691e-09  -7.4165706e-04   1.6576824e+00   1.5647223e+00  -3.4969610e+06
   1.1083695e-09  -7.3816716e-04   1.6574718e+00   1.5649484e+00  -3.4805168e+06
   1.1093698e-09  -7.3469368e-04   1.6572621e+00   1.5651734e+00  -3.4641499e+06
   1.1103701e-09  -7.3123653e-04   1.6570535e+00   1.5653974e+00  -3.4478598e+06
   1.1113705e-09  -7.2779563e-04   1.6568458e+00   1.5656204e+00  -3.4316463e+06
   1.1123708e-09  -7.2437092e-04   1.6566391e+00   1.5658424e+00  -3.4155088e+06
   1.1133711e-09  -7.2096231e-04   1.6564335e+00   1.5660633e+00  -3.3994472e+06
   1.1143715e-09  -7.1756973e-04   1.6562287e+00   1.5662832e+00  -3.3834610e+06
   1.1153718e-09  -7.1419311e-04   1.6560250e+00   1.5665020e+00  -3.3675499e+06
   1.1163721e-09  -7.1083236e-04   1.6558223e+00   1.5667199e+00  -3.3517136e+06
   1.1173725e-09  -7.0748742e-04   1.6556205e+00   1.5669368e+00  -3.3359516e+06
   1.1183728e-09  -7.0415821e-04   1.6554196e+00   1.5671526e+00  -3.3202636e+06
   1.1193731e-09  -7.0084466e-04   1.6552197e+00   1.5673675e+00  -3.3046494e+06
   1.1203735e-09  -6.9754668e-04   1.6550208e+00   1.5675814e+00  -3.2891085e+06
   1.1213738e-09  -6.9426422e-04   1.6548228e+00   1.5677943e+00  -3.2736405e+06
   1.1223741e-09  -6.9099720e-04   1.6546258e+00   1.5680062e+00  -3.2582453e+06
   1.1233745e-09  -6.8774553e-04   1.6544297e+00   1.5682171e+00  -3.2429223e+06
   1.1243748e-09  -6.8450916e-04   1.6542345e+00   1.5684270e+00  -3.2276713e+06
   1.1253751e-09  -6.8128801e-04   1.6540403e+00   1.5686360e+00  -3.2124920e+06
   1.1263755e-09  -6.7808201e-04   1.6538470e+00   1.5688440e+00  -3.1973839e+06
   1.1273758e-09  -6.7489109e-04   1.6536546e+00   1.5690510e+00  -3.1823469e+06
   1.1283761e-09  -6.7171517e-04   1.6534631e+00   1.5692571e+00  -3.1673804e+06
   1.1293765e-09  -6.6855419e-04   1.6532726e+00   1.5694623e+00  -3.1524843e+06
   1.1303768e-09  -6.6540808e-04   1.6530829e+00   1.5696665e+00  -3.1376581e+06
   1.1313771e-09  -6.6227676e-04   1.6528941e+00   1.5698697e+00  -3.1229016e+06
   1.1323775e-09  -6.5916017e-04   1.6527063e+00   1.5700720e+00  -3.1082144e+06
   1.1333778e-09  -6.5605824e-04   1.6525193e+00   1.5702734e+00  -3.0935962e+06
   1.1343781e-09  -6.5297089e-04   1.6523332e+00   1.5704738e+00  -3.0790467e+06
   1.1353785e-09  -6.4989807e-04   1.6521480e+00   1.5706733e+00  -3.0645655e+06
   1.1363788e-09  -6.4683969e-04   1.6519637e+00   1.5708719e+00  -3.0501524e+06
   1.1373791e-09  -6.4379571e-04   1.6517803e+00   1.5710696e+00  -3.0358069e+06
   1.1383795e-09  -6.4076603e-04   1.6515977e+00   1.5712663e+00  -3.0215289e+06
   1.1393798e-09  -6.3775061e-04   1.6514161e+00   1.5714622e+00  -3.0073179e+06
   1.1403801e-09  -6.3474937e-04   1.6512352e+00   1.5716571e+00  -2.9931737e+06
   1.1413805e-09  -6.3176224e-04   1.6510553e+00   1.5718511e+00  -2.9790960e+06
   1.1423808e-09  -6.2878917e-04   1.6508762e+00   1.5720443e+00  -2.9650844e+06
   1.1433811e-09  -6.2583008e-04   1.6506979e+00   1.5722365e+00  -2.9511386e+06
   1.1443815e-09  -6.2288490e-04   1.6505205e+00   1.5724278e+00  -2.9372583e+06
   1.1453818e-09  -6.1995358e-04   1.6503439e+00   1.5726183e+00  -2.9234433e+06
   1.1463821e-09  -6.1703604e-04   1.6501682e+00   1.5728079e+00  -2.9096931e+06
   1.1473825e-09  -6.1413223e-04   1.6499933e+00   1.5729966e+00  -2.8960076e+06
   1.1483828e-09  -6.1124208e-04   1.6498192e+00   1.5731844e+00  -2.8823863e+06
   1.1493831e-09  -6.0836551e-04   1.6496460e+00   1.5733714e+00  -2.8688291e+06
   1.1503835e-09  -6.0550248e-04   1.6494736e+00   1.5735575e+00  -2.8553356e+06
   1.1513838e-09  -6.0265292e-04   1.6493020e+00   1.5737427e+00  -2.8419054e+06
   1.1523841e-09  -5.9981676e-04   1.6491312e+00   1.5739271e+00  -2.8285384e+06
   1.1533845e-09  -5.9699393e-04   1.6489613e+00   1.5741106e+00  -2.8152341e+06
   1.1543848e-09  -5.9418439e-04   1.6487921e+00   1.5742932e+00  -2.8019924e+06
   1.1553851e-09  -5.9138806e-04   1.6486238e+00   1.5744751e+00  -2.7888129e+06
   1.1563855e-09  -5.8860488e-04   1.6484562e+00   1.5746560e+00  -2.7756953e+06
   1.1573858e-09  -5.8583480e-04   1.6482895e+00   1.5748362e+00  -2.7626394e+06
   1.1583861e-09  -5.8307774e-04   1.6481235e+00   1.5750155e+00  -2.7496448e+06
   1.1593865e-09  -5.8033365e-04   1.6479583e+00   1.5751940e+00  -2.7367112e+06
   1.1603868e-09  -5.7760247e-04   1.6477939e+00   1.5753716e+00  -2.7238385e+06
   1.1613871e-09  -5.7488414e-04   1.6476303e+00   1.5755484e+00  -2.7110262e+06
   1.1623875e-09  -5.7217859e-04   1.6474675e+00   1.5757244e+00  -2.6982741e+06
   1.1633878e-09  -5.6948577e-04   1.6473055e+00   1.5758996e+00  -2.6855820e+06
   1.1643881e-09  -5.6680562e-04   1.6471442e+00   1.5760740e+00  -2.6729495e+06
   1.1653885e-09  -5.6413807e-04   1.6469837e+00   1.5762475e+00  -2.6603763e+06
   1.1663888e-09  -5.6148307e-04   1.6468239e+00   1.5764203e+00  -2.6478623e+06
   1.1673891e-09  -5.5884056e-04   1.6466649e+00   1.5765923e+00  -2.6354070e+06
   1.1683895e-09  -5.5621048e-04   1.6465067e+00   1.5767634e+00  -2.6230103e+06
   1.1693898e-09  -5.5359277e-04   1.6463492e+00   1.5769338e+00  -2.6106718e+06
   1.1703901e-09  -5.5098738e-04   1.6461924e+00   1.5771034e+00  -2.5983913e+06
   1.1713905e-09  -5.4839424e-04   1.6460364e+00   1.5772722e+00  -2.5861686e+06
   1.1723908e-09  -5.4581329e-04   1.6458812e+00   1.5774402e+00  -2.5740032e+06
   1.1733911e-09  -5.4324449e-04   1.6457267e+00   1.5776074e+00  -2.5618951e+06
   1.1743915e-09  -5.4068778e-04   1.6455729e+00   1.5777738e+00  -2.5498438e+06
   1.1753918e-09  -5.3814309e-04   1.6454198e+00   1.5779395e+00  -2.5378492e+06
   1.1763921e-09  -5.3561037e-04   1.6452675e+00   1.5781044e+00  -2.5259109e+06
   1.1773925e-09  -5.3308956e-04   1.6451159e+00   1.5782686e+00  -2.5140287e+06
   1.1783928e-09  -5.3058061e-04   1.6449650e+00   1.5784319e+00  -2.5022024e+06
   1.1793931e-09  -5.2808347e-04   1.6448148e+00   1.5785946e+00  -2.4904317e+06
   1.1803935e-09  -5.2559807e-04   1.6446654e+00   1.5787564e+00  -2.4787163e+06
   1.1813938e-09  -5.2312437e-04   1.6445166e+00   1.5789175e+00  -2.4670559e+06
   1.1823941e-09  -5.2066230e-04   1.6443686e+00   1.5790779e+00  -2.4554504e+06
   1.1833945e-09  -5.1821181e-04   1.6442213e+00   1.5792375e+00  -2.4438994e+06
   1.1843948e-09  -5.1577285e-04   1.6440746e+00   1.5793964e+00  -2.4324027e+06
   1.1853951e-09  -5.1334536e-04   1.6439287e+00   1.5795546e+00  -2.4209600e+06
   1.1863955e-09  -5.1092930e-04   1.6437834e+00   1.5797120e+00  -2.4095711e+06
   1.1873958e-09  -5.0852460e-04   1.6436389e+00   1.5798686e+00  -2.3982357e+06
   1.1883961e-09  -5.0613121e-04   1.6434950e+00   1.5800246e+00  -2.3869536e+06
   1.1893965e-09  -5.0374908e-04   1.6433518e+00   1.5801798e+00  -2.3757245e+06
   1.1903968e-09  -5.0137816e-04   1.6432093e+00   1.5803343e+00  -2.3645482e+06
   1.1913971e-09  -4.9901839e-04   1.6430675e+00   1.5804881e+00  -2.3534244e+06
   1.1923975e-09  -4.9666972e-04   1.6429263e+00   1.5806412e+00  -2.3423530e+06
   1.1933978e-09  -4.9433210e-04   1.6427858e+00   1.5807935e+00  -2.3313335e+06
   1.1943981e-09  -4.9200548e-04   1.6426460e+00   1.5809452e+00  -2.3203659e+06
   1.1953985e-09  -4.8968981e-04   1.6425068e+00   1.5810961e+00  -2.3094498e+06
   1.1963988e-09  -4.8738503e-04   1.6423683e+00   1.5812464e+00  -2.2985850e+06
   1.1973991e-09  -4.8509109e-04   1.6422305e+00   1.5813959e+00  -2.2877713e+06
   1.1983995e-09  -4.8280794e-04   1.6420933e+00   1.5815448e+00  -2.2770084e+06
   1.1993998e-09  -4.8053553e-04   1.6419568e+00   1.5816929e+00  -2.2662961e+06
   1.2004001e-09  -4.7827382e-04   1.6418209e+00   1.5818404e+00  -2.2556341e+06
   1.2014005e-09  -4.7602275e-04   1.6416857e+00   1.5819872e+00  -2.2450223e+06
   1.2024008e-09  -4.7378226e-04   1.6415511e+00   1.5821333e+00  -2.2344603e+06
   1.2034011e-09  -4.7155232e-04   1.6414171e+00   1.5822787e+00  -2.2239480e+06
   1.2044015e-09  -4.6933287e-04   1.6412838e+00   1.5824235e+00  -2.2134852e+06
   1.2054018e-09  -4.6712386e-04   1.6411511e+00   1.5825676e+00  -2.2030714e+06
   1.2064021e-09  -4.6492524e-04   1.6410190e+00   1.5827110e+00  -2.1927067e+06
   1.2074025e-09  -4.6273696e-04   1.6408876e+00   1.5828537e+00  -2.1823907e+06
   1.2084028e-09  -4.6055898e-04   1.6407567e+00   1.5829958e+00  -2.1721231e+06
   1.2094031e-09  -4.5839125e-04   1.6406266e+00   1.5831372e+00  -2.1619039e+06
   1.2104035e-09  -4.5623372e-04   1.6404970e+00   1.5832779e+00  -2.1517326e+06
   1.2114038e-09  -4.5408634e-04   1.6403680e+00   1.5834180e+00  -2.1416092e+06
   1.2124041e-09  -4.5194906e-04   1.6402397e+00   1.5835575e+00  -2.1315334e+06
   1.2134045e-09  -4.4982183e-04   1.6401119e+00   1.5836963e+00  -2.1215049e+06
   1.2144048e-09  -4.4770462e-04   1.6399848e+00   1.5838344e+00  -2.1115236e+06
   1.2154051e-09  -4.4559736e-04   1.6398583e+00   1.5839720e+00  -2.1015892e+06
   1.2164055e-09  -4.4350002e-04   1.6397323e+00   1.5841088e+00  -2.0917015e+06
   1.2174058e-09  -4.4141255e-04   1.6396070e+00   1.5842451e+00  -2.0818603e+06
   1.2184061e-09  -4.3933490e-04   1.6394822e+00   1.5843807e+00  -2.0720653e+06
   1.2194065e-09  -4.3726702e-04   1.6393581e+00   1.5845156e+00  -2.0623164e+06
   1.2204068e-09  -4.3520887e-04   1.6392345e+00   1.5846500e+00  -2.0526134e+06
   1.2214071e-09  -4.3316041e-04   1.6391116e+00   1.5847837e+00  -2.0429559e+06
   1.2224075e-09  -4.3112158e-04   1.6389892e+00   1.5849168e+00  -2.0333439e+06
   1.2234078e-09  -4.2909235e-04   1.6388673e+00   1.5850493e+00  -2.0237770e+06
   1.2244081e-09  -4.2707266e-04   1.6387461e+00   1.5851811e+00  -2.0142551e+06
   1.2254085e-09  -4.2506248e-04   1.6386255e+00   1.5853124e+00  -2.0047780e+06
   1.2264088e-09  -4.2306176e-04   1.6385054e+00   1.5854430e+00  -1.9953455e+06
   1.2274091e-09  -4.2107044e-04   1.6383858e+00   1.5855730e+00  -1.9859572e+06
   1.2284095e-09  -4.1908850e-04   1.6382669e+00   1.5857024e+00  -1.9766132e+06
   1.2294098e-09  -4.1711589e-04   1.6381485e+00   1.5858313e+00  -1.9673130e+06
   1.2304101e-09  -4.1515255e-04   1.6380307e+00   1.5859595e+00  -1.9580566e+06
   1.2314105e-09  -4.1319845e-04   1.6379134e+00   1.5860871e+00  -1.9488437e+06
   1.2324108e-09  -4.1125355e-04   1.6377967e+00   1.5862141e+00  -1.9396741e+06
   1.2334111e-09  -4.0931780e-04   1.6376805e+00   1.5863405e+00  -1.9305477e+06
   1.2344115e-09  -4.0739115e-04   1.6375649e+00   1.5864664e+00  -1.9214641e+06
   1.2354118e-09  -4.0547357e-04   1.6374499e+00   1.5865917e+00  -1.9124232e+06
   1.2364121e-09  -4.0356501e-04   1.6373354e+00   1.5867163e+00  -1.9034249e+06
   1.2374125e-09  -4.0166544e-04   1.6372214e+00   1.5868404e+00  -1.8944688e+06
   1.2384128e-09  -3.9977480e-04   1.6371080e+00   1.5869639e+00  -1.8855549e+06
   1.2394131e-09  -3.9789306e-04   1.6369951e+00   1.5870869e+00  -1.8766829e+06
   1.2404135e-09  -3.9602017e-04   1.6368827e+00   1.5872092e+00  -1.8678526e+06
   1.2414138e-09  -3.9415609e-04   1.6367709e+00   1.5873310e+00  -1.8590638e+06
   1.2424141e-09  -3.9230079e-04   1.6366596e+00   1.5874523e+00  -1.8503164e+06
   1.2434145e-09  -3.9045421e-04   1.6365488e+00   1.5875729e+00  -1.8416100e+06
   1.2444148e-09  -3.8861632e-04   1.6364386e+00   1.5876930e+00  -1.8329446e+06
   1.2454151e-09  -3.8678709e-04   1.6363288e+00   1.5878126e+00  -1.8243200e+06
   1.2464155e-09  -3.8496645e-04   1.6362196e+00   1.5879316e+00  -1.8157359e+06
   1.2474158e-09  -3.8315439e-04   1.6361109e+00   1.5880500e+00  -1.8071922e+06
   1.2484161e-09  -3.8135085e-04   1.6360028e+00   1.5881679e+00  -1.7986886e+06
   1.2494165e-09  -3.7955580e-04   1.6358951e+00   1.5882852e+00  -1.7902250e+06
   1.2504168e-09  -3.7776919e-04   1.6357880e+00   1.5884020e+00  -1.7818012e+06
   1.2514171e-09  -3.7599100e-04   1.6356813e+00   1.5885182e+00  -1.7734171e+06
   1.2524175e-09  -3.7422116e-04   1.6355752e+00   1.5886339e+00  -1.7650723e+06
   1.2534178e-09  -3.7245966e-04   1.6354696e+00   1.5887491e+00  -1.7567668e+06
   1.2544181e-09  -3.7070645e-04   1.6353644e+00   1.5888637e+00  -1.7485004e+06
   1.2554185e-09  -3.6896148e-04   1.6352598e+00   1.5889778e+00  -1.7402728e+06
   1.2564188e-09  -3.6722473e-04   1.6351557e+00   1.5890913e+00  -1.7320839e+06
   1.2574191e-09  -3.6549615e-04   1.6350520e+00   1.5892044e+00  -1.7239335e+06
   1.2584195e-09  -3.6377570e-04   1.6349489e+00   1.5893169e+00  -1.7158215e+06
   1.2594198e-09  -3.6206335e-04   1.6348462e+00   1.5894288e+00  -1.7077476e+06
   1.2604201e-09  -3.6035905e-04   1.6347440e+00   1.5895403e+00  -1.6997116e+06
   1.2614205e-09  -3.5866278e-04   1.6346423e+00   1.5896512e+00  -1.6917135e+06
   1.2624208e-09  -3.5697448e-04   1.6345411e+00   1.5897616e+00  -1.6837529e+06
   1.2634211e-09  -3.5529413e-04   1.6344404e+00   1.5898715e+00  -1.6758298e+06
   1.2644215e-09  -3.5362169e-04   1.6343401e+00   1.5899809e+00  -1.6679440e+06
   1.2654218e-09  -3.5195712e-04   1.6342403e+00   1.5900898e+00  -1.6600952e+06
   1.2664221e-09  -3.5030038e-04   1.6341410e+00   1.5901981e+00  -1.6522834e+06
   1.2674225e-09  -3.4865144e-04   1.6340422e+00   1.5903060e+00  -1.6445082e+06
   1.2684228e-09  -3.4701026e-04   1.6339438e+00   1.5904134e+00  -1.6367697e+06
   1.2694231e-09  -3.4537680e-04   1.6338459e+00   1.5905202e+00  -1.6290675e+06
   1.2704235e-09  -3.4375102e-04   1.6337485e+00   1.5906266e+00  -1.6214016e+06
   1.2714238e-09  -3.4213290e-04   1.6336515e+00   1.5907324e+00  -1.6137717e+06
   1.2724241e-09  -3.4052239e-04   1.6335550e+00   1.5908378e+00  -1.6061777e+06
   1.2734245e-09  -3.3891946e-04   1.6334589e+00   1.5909427e+00  -1.5986194e+06
   1.2744248e-09  -3.3732408e-04   1.6333633e+00   1.5910471e+00  -1.5910966e+06
   1.2754251e-09  -3.3573620e-04   1.6332681e+00   1.5911510e+00  -1.5836093e+06
   1.2764255e-09  -3.3415579e-04   1.6331734e+00   1.5912544e+00  -1.5761571e+06
   1.2774258e-09  -3.3258282e-04   1.6330792e+00   1.5913573e+00  -1.5687400e+06
   1.2784261e-09  -3.3101725e-04   1.6329853e+00   1.5914598e+00  -1.5613578e+06
   1.2794265e-09  -3.2945905e-04   1.6328920e+00   1.5915617e+00  -1.5540102e+06
   1.2804268e-09  -3.2790818e-04   1.6327990e+00   1.5916632e+00  -1.5466973e+06
   1.2814271e-09  -3.2636461e-04   1.6327066e+00   1.5917643e+00  -1.5394187e+06
   1.2824275e-09  -3.2482831e-04   1.6326145e+00   1.5918648e+00  -1.5321744e+06
   1.2834278e-09  -3.2329923e-04   1.6325229e+00   1.5919649e+00  -1.5249641e+06
   1.2844281e-09  -3.2177735e-04   1.6324317e+00   1.5920645e+00  -1.5177878e+06
   1.2854285e-09  -3.2026263e-04   1.6323410e+00   1.5921637e+00  -1.5106452e+06
   1.2864288e-09  -3.1875504e-04   1.6322507e+00   1.5922624e+00  -1.5035362e+06
   1.2874291e-09  -3.1725455e-04   1.6321608e+00   1.5923606e+00  -1.4964606e+06
   1.2884295e-09  -3.1576111e-04   1.6320713e+00   1.5924584e+00  -1.4894183e+06
   1.2894298e-09  -3.1427471e-04   1.6319823e+00   1.5925557e+00  -1.4824091e+06
   1.2904301e-09  -3.1279529e-04   1.6318936e+00   1.5926525e+00  -1.4754329e+06
   1.2914305e-09  -3.1132284e-04   1.6318054e+00   1.5927489e+00  -1.4684895e+06
   1.2924308e-09  -3.0985732e-04   1.6317177e+00   1.5928449e+00  -1.4615788e+06
   1.2934311e-09  -3.0839870e-04   1.6316303e+00   1.5929404e+00  -1.4547006e+06
   1.2944315e-09  -3.0694694e-04   1.6315433e+00   1.5930354e+00  -1.4478547e+06
   1.2954318e-09  -3.0550202e-04   1.6314568e+00   1.5931301e+00  -1.4410410e+06
   1.2964321e-09  -3.0406389e-04   1.6313707e+00   1.5932242e+00  -1.4342594e+06
   1.2974325e-09  -3.0263253e-04   1.6312849e+00   1.5933180e+00  -1.4275096e+06
   1.2984328e-09  -3.0120791e-04   1.6311996e+00   1.5934113e+00  -1.4207916e+06
   1.2994331e-09  -2.9978999e-04   1.6311147e+00   1.5935041e+00  -1.4141052e+06
   1.3004335e-09  -2.9837874e-04   1.6310302e+00   1.5935966e+00  -1.4074503e+06
   1.3014338e-09  -2.9697414e-04   1.6309461e+00   1.5936886e+00  -1.4008266e+06
   1.3024341e-09  -2.9557615e-04   1.6308623e+00   1.5937801e+00  -1.3942341e+06
   1.3034345e-09  -2.9418473e-04   1.6307790e+00   1.5938713e+00  -1.3876727e+06
   1.3044348e-09  -2.9279986e-04   1.6306961e+00   1.5939620e+00  -1.3811420e+06
   1.3054351e-09  -2.9142152e-04   1.6306136e+00   1.5940523e+00  -1.3746421e+06
   1.3064355e-09  -2.9004965e-04   1.6305314e+00   1.5941421e+00  -1.3681728e+06
   1.3074358e-09  -2.8868425e-04   1.6304497e+00   1.5942316e+00  -1.3617339e+06
   1.3084361e-09  -2.8732527e-04   1.6303683e+00   1.5943206e+00  -1.3553253e+06
   1.3094365e-09  -2.8597268e-04   1.6302873e+00   1.5944092e+00  -1.3489468e+06
   1.3104368e-09  -2.8462646e-04   1.6302067e+00   1.5944974e+00  -1.3425984e+06
   1.3114371e-09  -2.8328658e-04   1.6301265e+00   1.5945852e+00  -1.3362798e+06
   1.3124375e-09  -2.8195300e-04   1.6300467e+00   1.5946726e+00  -1.3299909e+06
   1.3134378e-09  -2.8062570e-04   1.6299672e+00   1.5947595e+00  -1.3237316e+06
   1.3144381e-09  -2.7930465e-04   1.6298881e+00   1.5948461e+00  -1.3175017e+06
   1.3154385e-09  -2.7798981e-04   1.6298094e+00   1.5949323e+00  -1.3113012e+06
   1.3164388e-09  -2.7668116e-04   1.6297311e+00   1.5950180e+00  -1.3051298e+06
   1.3174391e-09  -2.7537867e-04   1.6296531e+00   1.5951034e+00  -1.2989874e+06
   1.3184395e-09  -2.7408231e-04   1.6295755e+00   1.5951883e+00  -1.2928740e+06
   1.3194398e-09  -2.7279205e-04   1.6294982e+00   1.5952729e+00  -1.2867892e+06
   1.3204401e-09  -2.7150786e-04   1.6294214e+00   1.5953570e+00  -1.2807332e+06
   1.3214405e-09  -2.7022972e-04   1.6293449e+00   1.5954408e+00  -1.2747056e+06
   1.3224408e-09  -2.6895759e-04   1.6292687e+00   1.5955242e+00  -1.2687063e+06
   1.3234411e-09  -2.6769145e-04   1.6291930e+00   1.5956072e+00  -1.2627353e+06
   1.3244415e-09  -2.6643127e-04   1.6291175e+00   1.5956898e+00  -1.2567924e+06
   1.3254418e-09  -2.6517702e-04   1.6290425e+00   1.5957720e+00  -1.2508774e+06
   1.3264421e-09  -2.6392867e-04   1.6289677e+00   1.5958538e+00  -1.2449902e+06
   1.3274425e-09  -2.6268620e-04   1.6288934e+00   1.5959352e+00  -1.2391308e+06
   1.3284428e-09  -2.6144958e-04   1.6288194e+00   1.5960163e+00  -1.2332989e+06
   1.3294431e-09  -2.6021877e-04   1.6287457e+00   1.5960970e+00  -1.2274944e+06
   1.3304435e-09  -2.5899376e-04   1.6286724e+00   1.5961773e+00  -1.2217172e+06
   1.3314438e-09  -2.5777451e-04   1.6285994e+00   1.5962572e+00  -1.2159673e+06
   1.3324441e-09  -2.5656100e-04   1.6285268e+00   1.5963368e+00  -1.2102443e+06
   1.3334445e-09  -2.5535321e-04   1.6284546e+00   1.5964160e+00  -1.2045483e+06
   1.3344448e-09  -2.5415110e-04   1.6283826e+00   1.5964948e+00  -1.1988791e+06
   1.3354451e-09  -2.5295464e-04   1.6283110e+00   1.5965732e+00  -1.1932366e+06
   1.3364455e-09  -2.5176382e-04   1.6282398e+00   1.5966513e+00  -1.1876206e+06
   1.3374458e-09  -2.5057860e-04   1.6281689e+00   1.5967290e+00  -1.1820310e+06
   1.3384461e-09  -2.4939896e-04   1.6280983e+00   1.5968064e+00  -1.1764677e+06
   1.3394465e-09  -2.4822487e-04   1.6280280e+00   1.5968834e+00  -1.1709306e+06
   1.3404468e-09  -2.4705631e-04   1.6279581e+00   1.5969600e+00  -1.1654195e+06
   1.3414471e-09  -2.4589325e-04   1.6278885e+00   1.5970363e+00  -1.1599344e+06
   1.3424475e-09  -2.4473566e-04   1.6278193e+00   1.5971122e+00  -1.1544750e+06
   1.3434478e-09  -2.4358352e-04   1.6277503e+00   1.5971877e+00  -1.1490414e+06
   1.3444481e-09  -2.4243680e-04   1.6276817e+00   1.5972629e+00  -1.1436333e+06
   1.3454485e-09  -2.4129548e-04   1.6276135e+00   1.5973378e+00  -1.1382507e+06
   1.3464488e-09  -2.4015953e-04   1.6275455e+00   1.5974123e+00  -1.1328933e+06
   1.3474491e-09  -2.3902893e-04   1.6274779e+00   1.5974865e+00  -1.1275612e+06
   1.3484495e-09  -2.3790365e-04   1.6274106e+00   1.5975603e+00  -1.1222542e+06
   1.3494498e-09  -2.3678366e-04   1.6273436e+00   1.5976337e+00  -1.1169721e+06
   1.3504502e-09  -2.3566895e-04   1.6272769e+00   1.5977068e+00  -1.1117149e+06
   1.3514505e-09  -2.3455948e-04   1.6272105e+00   1.5977796e+00  -1.1064824e+06
   1.3524508e-09  -2.3345524e-04   1.6271445e+00   1.5978521e+00  -1.1012745e+06
   1.3534512e-09  -2.3235619e-04   1.6270787e+00   1.5979242e+00  -1.0960912e+06
   1.3544515e-09  -2.3126232e-04   1.6270133e+00   1.5979959e+00  -1.0909322e+06
   1.3554518e-09  -2.3017359e-04   1.6269482e+00   1.5980673e+00  -1.0857975e+06
   1.3564522e-09  -2.2908999e-04   1.6268834e+00   1.5981384e+00  -1.0806869e+06
   1.3574525e-09  -2.2801149e-04   1.6268189e+00   1.5982092e+00  -1.0756004e+06
   1.3584528e-09  -2.2693806e-04   1.6267547e+00   1.5982796e+00  -1.0705378e+06
   1.3594532e-09  -2.2586969e-04   1.6266908e+00   1.5983497e+00  -1.0654991e+06
   1.3604535e-09  -2.2480635e-04   1.6266272e+00   1.5984195e+00  -1.0604840e+06
   1.3614538e-09  -2.2374801e-04   1.6265639e+00   1.5984889e+00  -1.0554926e+06
   1.3624542e-09  -2.2269465e-04   1.6265009e+00   1.5985580e+00  -1.0505246e+06
   1.3634545e-09  -2.2164625e-04   1.6264382e+00   1.5986268e+00  -1.0455800e+06
   1.3644548e-09  -2.2060279e-04   1.6263758e+00   1.5986953e+00  -1.0406586e+06
   1.3654552e-09  -2.1956423e-04   1.6263137e+00   1.5987634e+00  -1.0357605e+06
   1.3664555e-09  -2.1853057e-04   1.6262519e+00   1.5988313e+00  -1.0308853e+06
   1.3674558e-09  -2.1750177e-04   1.6261903e+00   1.5988988e+00  -1.0260331e+06
   1.3684562e-09  -2.1647781e-04   1.6261291e+00   1.5989660e+00  -1.0212037e+06
   1.3694565e-09  -2.1545867e-04   1.6260682e+00   1.5990329e+00  -1.0163971e+06
   1.3704568e-09  -2.1444433e-04   1.6260075e+00   1.5990994e+00  -1.0116131e+06
   1.3714572e-09  -2.1343476e-04   1.6259471e+00   1.5991657e+00  -1.0068515e+06
   1.3724575e-09  -2.1242995e-04   1.6258871e+00   1.5992316e+00  -1.0021124e+06
   1.3734578e-09  -2.1142986e-04   1.6258273e+00   1.5992973e+00  -9.9739558e+05
   1.3744582e-09  -2.1043448e-04   1.6257678e+00   1.5993626e+00  -9.9270095e+05
   1.3754585e-09  -2.0944379e-04   1.6257085e+00   1.5994276e+00  -9.8802840e+05
   1.3764588e-09  -2.0845776e-04   1.6256496e+00   1.5994924e+00  -9.8337784e+05
   1.3774592e-09  -2.0747637e-04   1.6255909e+00   1.5995568e+00  -9.7874916e+05
   1.3784595e-09  -2.0649960e-04   1.6255325e+00   1.5996209e+00  -9.7414226e+05
   1.3794598e-09  -2.0552743e-04   1.6254744e+00   1.5996847e+00  -9.6955704e+05
   1.3804602e-09  -2.0455983e-04   1.6254165e+00   1.5997482e+00  -9.6499339e+05
   1.3814605e-09  -2.0359679e-04   1.6253590e+00   1.5998114e+00  -9.6045121e+05
   1.3824608e-09  -2.0263828e-04   1.6253017e+00   1.5998744e+00  -9.5593040e+05
   1.3834612e-09  -2.0168429e-04   1.6252446e+00   1.5999370e+00  -9.5143087e+05
   1.3844615e-09  -2.0073478e-04   1.6251879e+00   1.5999993e+00  -9.4695250e+05
   1.3854618e-09  -1.9978974e-04   1.6251314e+00   1.6000614e+00  -9.4249521e+05
   1.3864622e-09  -1.9884915e-04   1.6250751e+00   1.6001231e+00  -9.3805889e+05
   1.3874625e-09  -1.9791299e-04   1.6250192e+00   1.6001846e+00  -9.3364344e+05
   1.3884628e-09  -1.9698124e-04   1.6249635e+00   1.6002458e+00  -9.2924877e+05
   1.3894632e-09  -1.9605387e-04   1.6249080e+00   1.6003067e+00  -9.2487478e+05
   1.3904635e-09  -1.9513087e-04   1.6248529e+00   1.6003673e+00  -9.2052137e+05
   1.3914638e-09  -1.9421221e-04   1.6247980e+00   1.6004276e+00  -9.1618844e+05
   1.3924642e-09  -1.9329787e-04   1.6247433e+00   1.6004876e+00  -9.1187590e+05
   1.3934645e-09  -1.9238784e-04   1.6246889e+00   1.6005474e+00  -9.0758365e+05
   1.3944648e-09  -1.9148209e-04   1.6246348e+00   1.6006068e+00  -9.0331160e+05
   1.3954652e-09  -1.9058061e-04   1.6245809e+00   1.6006660e+00  -8.9905965e+05
   1.3964655e-09  -1.8968337e-04   1.6245273e+00   1.6007250e+00  -8.9482771e+05
   1.3974658e-09  -1.8879035e-04   1.6244739e+00   1.6007836e+00  -8.9061568e+05
   1.3984662e-09  -1.8790153e-04   1.6244208e+00   1.6008420e+00  -8.8642347e+05
   1.3994665e-09  -1.8701690e-04   1.6243679e+00   1.6009001e+00  -8.8225099e+05
   1.4004668e-09  -1.8613644e-04   1.6243153e+00   1.6009579e+00  -8.7809814e+05
   1.4014672e-09  -1.8526011e-04   1.6242629e+00   1.6010155e+00  -8.7396483e+05
   1.4024675e-09  -1.8438792e-04   1.6242108e+00   1.6010727e+00  -8.6985097e+05
   1.4034678e-09  -1.8351983e-04   1.6241589e+00   1.6011297e+00  -8.6575646e+05
   1.4044682e-09  -1.8265582e-04   1.6241073e+00   1.6011865e+00  -8.6168123e+05
   1.4054685e-09  -1.8179588e-04   1.6240559e+00   1.6012430e+00  -8.5762517e+05
   1.4064688e-09  -1.8093999e-04   1.6240047e+00   1.6012992e+00  -8.5358819e+05
   1.4074692e-09  -1.8008813e-04   1.6239538e+00   1.6013551e+00  -8.4957022e+05
   1.4084695e-09  -1.7924028e-04   1.6239032e+00   1.6014108e+00  -8.4557115e+05
   1.4094698e-09  -1.7839642e-04   1.6238527e+00   1.6014663e+00  -8.4159089e+05
   1.4104702e-09  -1.7755653e-04   1.6238026e+00   1.6015214e+00  -8.3762937e+05
   1.4114705e-09  -1.7672059e-04   1.6237526e+00   1.6015763e+00  -8.3368649e+05
   1.4124708e-09  -1.7588859e-04   1.6237029e+00   1.6016310e+00  -8.2976216e+05
   1.4134712e-09  -1.7506051e-04   1.6236534e+00   1.6016854e+00  -8.2585630e+05
   1.4144715e-09  -1.7423632e-04   1.6236042e+00   1.6017395e+00  -8.2196882e+05
   1.4154718e-09  -1.7341602e-04   1.6235552e+00   1.6017934e+00  -8.1809963e+05
   1.4164722e-09  -1.7259957e-04   1.6235064e+00   1.6018471e+00  -8.1424865e+05
   1.4174725e-09  -1.7178697e-04   1.6234578e+00   1.6019005e+00  -8.1041579e+05
   1.4184728e-09  -1.7097820e-04   1.6234095e+00   1.6019536e+00  -8.0660096e+05
   1.4194732e-09  -1.7017323e-04   1.6233614e+00   1.6020065e+00  -8.0280409e+05
   1.4204735e-09  -1.6937205e-04   1.6233135e+00   1.6020591e+00  -7.9902508e+05
   1.4214738e-09  -1.6857464e-04   1.6232659e+00   1.6021115e+00  -7.9526386e+05
   1.4224742e-09  -1.6778098e-04   1.6232185e+00   1.6021637e+00  -7.9152034e+05
   1.4234745e-09  -1.6699106e-04   1.6231713e+00   1.6022156e+00  -7.8779443e+05
   1.4244748e-09  -1.6620486e-04   1.6231243e+00   1.6022672e+00  -7.8408606e+05
   1.4254752e-09  -1.6542236e-04   1.6230776e+00   1.6023186e+00  -7.8039514e+05
   1.4264755e-09  -1.6464355e-04   1.6230310e+00   1.6023698e+00  -7.7672158e+05
   1.4274758e-09  -1.6386840e-04   1.6229847e+00   1.6024207e+00  -7.7306532e+05
   1.4284762e-09  -1.6309689e-04   1.6229386e+00   1.6024714e+00  -7.6942626e+05
   1.4294765e-09  -1.6232902e-04   1.6228928e+00   1.6025219e+00  -7.6580432e+05
   1.4304768e-09  -1.6156477e-04   1.6228471e+00   1.6025721e+00  -7.6219943e+05
   1.4314772e-09  -1.6080411e-04   1.6228017e+00   1.6026221e+00  -7.5861151e+05
   1.4324775e-09  -1.6004703e-04   1.6227565e+00   1.6026718e+00  -7.5504046e+05
   1.4334778e-09  -1.5929352e-04   1.6227114e+00   1.6027214e+00  -7.5148623e+05
   1.4344782e-09  -1.5854356e-04   1.6226666e+00   1.6027707e+00  -7.4794871e+05
   1.4354785e-09  -1.5779712e-04   1.6226221e+00   1.6028197e+00  -7.4442785e+05
   1.4364788e-09  -1.5705420e-04   1.6225777e+00   1.6028685e+00  -7.4092356e+05
   1.4374792e-09  -1.5631477e-04   1.6225335e+00   1.6029171e+00  -7.3743575e+05
   1.4384795e-09  -1.5557883e-04   1.6224896e+00   1.6029655e+00  -7.3396436e+05
   1.4394798e-09  -1.5484635e-04   1.6224458e+00   1.6030136e+00  -7.3050931e+05
   1.4404802e-09  -1.5411732e-04   1.6224023e+00   1.6030616e+00  -7.2707051e+05
   1.4414805e-09  -1.5339172e-04   1.6223589e+00   1.6031092e+00  -7.2364790e+05
   1.4424808e-09  -1.5266953e-04   1.6223158e+00   1.6031567e+00  -7.2024140e+05
   1.4434812e-09  -1.5195075e-04   1.6222729e+00   1.6032040e+00  -7.1685093e+05
   1.4444815e-09  -1.5123535e-04   1.6222301e+00   1.6032510e+00  -7.1347641e+05
   1.4454818e-09  -1.5052332e-04   1.6221876e+00   1.6032978e+00  -7.1011777e+05
   1.4464822e-09  -1.4981463e-04   1.6221453e+00   1.6033444e+00  -7.0677494e+05
   1.4474825e-09  -1.4910929e-04   1.6221032e+00   1.6033907e+00  -7.0344784e+05
   1.4484828e-09  -1.4840726e-04   1.6220612e+00   1.6034369e+00  -7.0013640e+05
   1.4494832e-09  -1.4770854e-04   1.6220195e+00   1.6034828e+00  -6.9684054e+05
   1.4504835e-09  -1.4701311e-04   1.6219780e+00   1.6035285e+00  -6.9356020e+05
   1.4514838e-09  -1.4632096e-04   1.6219366e+00   1.6035740e+00  -6.9029529e+05
   1.4524842e-09  -1.4563206e-04   1.6218955e+00   1.6036193e+00  -6.8704575e+05
   1.4534845e-09  -1.4494640e-04   1.6218545e+00   1.6036644e+00  -6.8381150e+05
   1.4544848e-09  -1.4426397e-04   1.6218138e+00   1.6037092e+00  -6.8059247e+05
   1.4554852e-09  -1.4358476e-04   1.6217732e+00   1.6037539e+00  -6.7738859e+05
   1.4564855e-09  -1.4290874e-04   1.6217329e+00   1.6037983e+00  -6.7419978e+05
   1.4574858e-09  -1.4223590e-04   1.6216927e+00   1.6038426e+00  -6.7102599e+05
   1.4584862e-09  -1.4156623e-04   1.6216527e+00   1.6038866e+00  -6.6786713e+05
   1.4594865e-09  -1.4089972e-04   1.6216129e+00   1.6039304e+00  -6.6472314e+05
   1.4604868e-09  -1.4023634e-04   1.6215733e+00   1.6039740e+00  -6.6159395e+05
   1.4614872e-09  -1.3957608e-04   1.6215338e+00   1.6040175e+00  -6.5847948e+05
   1.4624875e-09  -1.3891894e-04   1.6214946e+00   1.6040607e+00  -6.5537967e+05
