   0.0000000e+00  -1.2223701e-01   6.3472314e+00   4.6948733e-04  -5.2124191e+08
   1.0003334e-12  -1.2171630e-01   6.3462793e+00   4.8882798e-04  -5.1984602e+08
   2.0006669e-12  -1.2119698e-01   6.3453104e+00   5.0890870e-04  -5.1845003e+08
   3.0010003e-12  -1.2067906e-01   6.3443243e+00   5.2975532e-04  -5.1705395e+08
   4.0013338e-12  -1.2016253e-01   6.3433209e+00   5.5139444e-04  -5.1565779e+08
   5.0016672e-12  -1.1964741e-01   6.3422999e+00   5.7385347e-04  -5.1426153e+08
   6.0020007e-12  -1.1913368e-01   6.3412611e+00   5.9716070e-04  -5.1286520e+08
   7.0023341e-12  -1.1862134e-01   6.3402041e+00   6.2134522e-04  -5.1146878e+08
   8.0026676e-12  -1.1811041e-01   6.3391288e+00   6.4643703e-04  -5.1007228e+08
   9.0030010e-12  -1.1760087e-01   6.3380349e+00   6.7246703e-04  -5.0867570e+08
   1.0003334e-11  -1.1709273e-01   6.3369222e+00   6.9946703e-04  -5.0727904e+08
   1.1003668e-11  -1.1658598e-01   6.3357904e+00   7.2746978e-04  -5.0588230e+08
   1.2004001e-11  -1.1608063e-01   6.3346392e+00   7.5650902e-04  -5.0448550e+08
   1.3004335e-11  -1.1557668e-01   6.3334684e+00   7.8661946e-04  -5.0308862e+08
   1.4004668e-11  -1.1507413e-01   6.3322777e+00   8.1783681e-04  -5.0169168e+08
   1.5005002e-11  -1.1457297e-01   6.3310668e+00   8.5019785e-04  -5.0029467e+08
   1.6005335e-11  -1.1407322e-01   6.3298356e+00   8.8374040e-04  -4.9889760e+08
   1.7005669e-11  -1.1357486e-01   6.3285837e+00   9.1850337e-04  -4.9750046e+08
   1.8006002e-11  -1.1307789e-01   6.3273109e+00   9.5452676e-04  -4.9610327e+08
   1.9006335e-11  -1.1258233e-01   6.3260168e+00   9.9185173e-04  -4.9470603e+08
   2.0006669e-11  -1.1208816e-01   6.3247013e+00   1.0305206e-03  -4.9330873e+08
   2.1007002e-11  -1.1159539e-01   6.3233641e+00   1.0705769e-03  -4.9191139e+08
   2.2007336e-11  -1.1110402e-01   6.3220048e+00   1.1120652e-03  -4.9051399e+08
   2.3007669e-11  -1.1061404e-01   6.3206232e+00   1.1550316e-03  -4.8911656e+08
   2.4008003e-11  -1.1012547e-01   6.3192190e+00   1.1995232e-03  -4.8771909e+08
   2.5008336e-11  -1.0963829e-01   6.3177919e+00   1.2455886e-03  -4.8632159e+08
   2.6008670e-11  -1.0915251e-01   6.3163417e+00   1.2932775e-03  -4.8492405e+08
   2.7009003e-11  -1.0866812e-01   6.3148681e+00   1.3426411e-03  -4.8352649e+08
   2.8009336e-11  -1.0818514e-01   6.3133708e+00   1.3937320e-03  -4.8212891e+08
   2.9009670e-11  -1.0770355e-01   6.3118495e+00   1.4466040e-03  -4.8073130e+08
   3.0010003e-11  -1.0722336e-01   6.3103039e+00   1.5013126e-03  -4.7933368e+08
   3.1010337e-11  -1.0674457e-01   6.3087337e+00   1.5579145e-03  -4.7793605e+08
   3.2010670e-11  -1.0626718e-01   6.3071386e+00   1.6164681e-03  -4.7653842e+08
   3.3011004e-11  -1.0579119e-01   6.3055184e+00   1.6770331e-03  -4.7514078e+08
   3.4011337e-11  -1.0531659e-01   6.3038728e+00   1.7396709e-03  -4.7374315e+08
   3.5011671e-11  -1.0484339e-01   6.3022014e+00   1.8044445e-03  -4.7234553e+08
   3.6012004e-11  -1.0437159e-01   6.3005040e+00   1.8714183e-03  -4.7094792e+08
   3.7012337e-11  -1.0390119e-01   6.2987802e+00   1.9406586e-03  -4.6955033e+08
   3.8012671e-11  -1.0343218e-01   6.2970298e+00   2.0122331e-03  -4.6815276e+08
   3.9013004e-11  -1.0296458e-01   6.2952524e+00   2.0862113e-03  -4.6675522e+08
   4.0013338e-11  -1.0249837e-01   6.2934479e+00   2.1626644e-03  -4.6535772e+08
   4.1013671e-11  -1.0203356e-01   6.2916157e+00   2.2416655e-03  -4.6396026e+08
   4.2014005e-11  -1.0157015e-01   6.2897558e+00   2.3232893e-03  -4.6256285e+08
   4.3014338e-11  -1.0110813e-01   6.2878677e+00   2.4076122e-03  -4.6116549e+08
   4.4014672e-11  -1.0064751e-01   6.2859512e+00   2.4947128e-03  -4.5976819e+08
   4.5015005e-11  -1.0018829e-01   6.2840059e+00   2.5846712e-03  -4.5837096e+08
   4.6015338e-11  -9.9730473e-02   6.2820315e+00   2.6775697e-03  -4.5697380e+08
   4.7015672e-11  -9.9274049e-02   6.2800278e+00   2.7734922e-03  -4.5557672e+08
   4.8016005e-11  -9.8819022e-02   6.2779944e+00   2.8725248e-03  -4.5417973e+08
   4.9016339e-11  -9.8365393e-02   6.2759311e+00   2.9747556e-03  -4.5278282e+08
   5.0016672e-11  -9.7913160e-02   6.2738375e+00   3.0802746e-03  -4.5138602e+08
   5.1017006e-11  -9.7462325e-02   6.2717132e+00   3.1891738e-03  -4.4998933e+08
   5.2017339e-11  -9.7012887e-02   6.2695581e+00   3.3015474e-03  -4.4859276e+08
   5.3017673e-11  -9.6564846e-02   6.2673717e+00   3.4174917e-03  -4.4719631e+08
   5.4018006e-11  -9.6118202e-02   6.2651539e+00   3.5371051e-03  -4.4579999e+08
   5.5018339e-11  -9.5672954e-02   6.2629042e+00   3.6604880e-03  -4.4440381e+08
   5.6018673e-11  -9.5229103e-02   6.2606223e+00   3.7877433e-03  -4.4300777e+08
   5.7019006e-11  -9.4786648e-02   6.2583080e+00   3.9189758e-03  -4.4161190e+08
   5.8019340e-11  -9.4345589e-02   6.2559610e+00   4.0542928e-03  -4.4021619e+08
   5.9019673e-11  -9.3905927e-02   6.2535808e+00   4.1938038e-03  -4.3882066e+08
   6.0020007e-11  -9.3467660e-02   6.2511673e+00   4.3376204e-03  -4.3742530e+08
   6.1020340e-11  -9.3030789e-02   6.2487201e+00   4.4858569e-03  -4.3603015e+08
   6.2020674e-11  -9.2595313e-02   6.2462389e+00   4.6386296e-03  -4.3463519e+08
   6.3021007e-11  -9.2161233e-02   6.2437233e+00   4.7960573e-03  -4.3324044e+08
   6.4021340e-11  -9.1728547e-02   6.2411732e+00   4.9582613e-03  -4.3184592e+08
   6.5021674e-11  -9.1297257e-02   6.2385881e+00   5.1253652e-03  -4.3045163e+08
   6.6022007e-11  -9.0867361e-02   6.2359677e+00   5.2974951e-03  -4.2905758e+08
   6.7022341e-11  -9.0438859e-02   6.2333119e+00   5.4747796e-03  -4.2766379e+08
   6.8022674e-11  -9.0011751e-02   6.2306201e+00   5.6573497e-03  -4.2627025e+08
   6.9023008e-11  -8.9586038e-02   6.2278922e+00   5.8453390e-03  -4.2487699e+08
   7.0023341e-11  -8.9161717e-02   6.2251279e+00   6.0388836e-03  -4.2348402e+08
   7.1023675e-11  -8.8738790e-02   6.2223267e+00   6.2381223e-03  -4.2209134e+08
   7.2024008e-11  -8.8317256e-02   6.2194885e+00   6.4431962e-03  -4.2069897e+08
   7.3024341e-11  -8.7897114e-02   6.2166129e+00   6.6542493e-03  -4.1930692e+08
   7.4024675e-11  -8.7478365e-02   6.2136996e+00   6.8714279e-03  -4.1791520e+08
   7.5025008e-11  -8.7061007e-02   6.2107483e+00   7.0948813e-03  -4.1652383e+08
   7.6025342e-11  -8.6645041e-02   6.2077588e+00   7.3247612e-03  -4.1513281e+08
   7.7025675e-11  -8.6230467e-02   6.2047307e+00   7.5612220e-03  -4.1374216e+08
   7.8026009e-11  -8.5817283e-02   6.2016637e+00   7.8044209e-03  -4.1235189e+08
   7.9026342e-11  -8.5405489e-02   6.1985575e+00   8.0545175e-03  -4.1096201e+08
   8.0026676e-11  -8.4995086e-02   6.1954119e+00   8.3116745e-03  -4.0957255e+08
   8.1027009e-11  -8.4586072e-02   6.1922265e+00   8.5760571e-03  -4.0818350e+08
   8.2027342e-11  -8.4178448e-02   6.1890011e+00   8.8478332e-03  -4.0679489e+08
   8.3027676e-11  -8.3772212e-02   6.1857353e+00   9.1271736e-03  -4.0540672e+08
   8.4028009e-11  -8.3367365e-02   6.1824290e+00   9.4142515e-03  -4.0401902e+08
   8.5028343e-11  -8.2963905e-02   6.1790817e+00   9.7092433e-03  -4.0263179e+08
   8.6028676e-11  -8.2561833e-02   6.1756933e+00   1.0012328e-02  -4.0124506e+08
   8.7029010e-11  -8.2161148e-02   6.1722633e+00   1.0323687e-02  -3.9985882e+08
   8.8029343e-11  -8.1761849e-02   6.1687917e+00   1.0643505e-02  -3.9847311e+08
   8.9029677e-11  -8.1363936e-02   6.1652781e+00   1.0971969e-02  -3.9708794e+08
   9.0030010e-11  -8.0967408e-02   6.1617221e+00   1.1309269e-02  -3.9570332e+08
   9.1030343e-11  -8.0572265e-02   6.1581237e+00   1.1655599e-02  -3.9431926e+08
   9.2030677e-11  -8.0178505e-02   6.1544824e+00   1.2011152e-02  -3.9293578e+08
   9.3031010e-11  -7.9786130e-02   6.1507980e+00   1.2376128e-02  -3.9155291e+08
   9.4031344e-11  -7.9395137e-02   6.1470703e+00   1.2750728e-02  -3.9017064e+08
   9.5031677e-11  -7.9005527e-02   6.1432990e+00   1.3135155e-02  -3.8878901e+08
   9.6032011e-11  -7.8617299e-02   6.1394839e+00   1.3529616e-02  -3.8740803e+08
   9.7032344e-11  -7.8230451e-02   6.1356246e+00   1.3934320e-02  -3.8602771e+08
   9.8032678e-11  -7.7844984e-02   6.1317211e+00   1.4349479e-02  -3.8464807e+08
   9.9033011e-11  -7.7460897e-02   6.1277729e+00   1.4775307e-02  -3.8326913e+08
   1.0003334e-10  -7.7078188e-02   6.1237799e+00   1.5212022e-02  -3.8189090e+08
   1.0103368e-10  -7.6696858e-02   6.1197418e+00   1.5659843e-02  -3.8051341e+08
   1.0203401e-10  -7.6316905e-02   6.1156585e+00   1.6118993e-02  -3.7913668e+08
   1.0303434e-10  -7.5938329e-02   6.1115296e+00   1.6589697e-02  -3.7776071e+08
   1.0403468e-10  -7.5561129e-02   6.1073549e+00   1.7072183e-02  -3.7638553e+08
   1.0503501e-10  -7.5185304e-02   6.1031343e+00   1.7566681e-02  -3.7501116e+08
   1.0603535e-10  -7.4810853e-02   6.0988675e+00   1.8073423e-02  -3.7363761e+08
   1.0703568e-10  -7.4437776e-02   6.0945543e+00   1.8592645e-02  -3.7226491e+08
   1.0803601e-10  -7.4066072e-02   6.0901945e+00   1.9124586e-02  -3.7089307e+08
   1.0903635e-10  -7.3695739e-02   6.0857879e+00   1.9669483e-02  -3.6952212e+08
   1.1003668e-10  -7.3326777e-02   6.0813342e+00   2.0227582e-02  -3.6815206e+08
   1.1103701e-10  -7.2959186e-02   6.0768334e+00   2.0799125e-02  -3.6678293e+08
   1.1203735e-10  -7.2592963e-02   6.0722852e+00   2.1384361e-02  -3.6541475e+08
   1.1303768e-10  -7.2228108e-02   6.0676893e+00   2.1983539e-02  -3.6404753e+08
   1.1403801e-10  -7.1864621e-02   6.0630458e+00   2.2596910e-02  -3.6268129e+08
   1.1503835e-10  -7.1502499e-02   6.0583543e+00   2.3224729e-02  -3.6131605e+08
   1.1603868e-10  -7.1141743e-02   6.0536146e+00   2.3867251e-02  -3.5995184e+08
   1.1703901e-10  -7.0782351e-02   6.0488268e+00   2.4524735e-02  -3.5858868e+08
   1.1803935e-10  -7.0424321e-02   6.0439904e+00   2.5197441e-02  -3.5722658e+08
   1.1903968e-10  -7.0067654e-02   6.0391056e+00   2.5885630e-02  -3.5586557e+08
   1.2004001e-10  -6.9712348e-02   6.0341719e+00   2.6589567e-02  -3.5450567e+08
   1.2104035e-10  -6.9358401e-02   6.0291894e+00   2.7309518e-02  -3.5314690e+08
   1.2204068e-10  -6.9005813e-02   6.0241579e+00   2.8045750e-02  -3.5178929e+08
   1.2304101e-10  -6.8654582e-02   6.0190773e+00   2.8798532e-02  -3.5043285e+08
   1.2404135e-10  -6.8304707e-02   6.0139474e+00   2.9568137e-02  -3.4907761e+08
   1.2504168e-10  -6.7956188e-02   6.0087681e+00   3.0354835e-02  -3.4772359e+08
   1.2604201e-10  -6.7609022e-02   6.0035393e+00   3.1158902e-02  -3.4637081e+08
   1.2704235e-10  -6.7263209e-02   5.9982609e+00   3.1980613e-02  -3.4501930e+08
   1.2804268e-10  -6.6918747e-02   5.9929329e+00   3.2820245e-02  -3.4366908e+08
   1.2904301e-10  -6.6575635e-02   5.9875550e+00   3.3678077e-02  -3.4232017e+08
   1.3004335e-10  -6.6233872e-02   5.9821272e+00   3.4554387e-02  -3.4097259e+08
   1.3104368e-10  -6.5893456e-02   5.9766495e+00   3.5449456e-02  -3.3962637e+08
   1.3204401e-10  -6.5554386e-02   5.9711217e+00   3.6363567e-02  -3.3828154e+08
   1.3304435e-10  -6.5216661e-02   5.9655438e+00   3.7297002e-02  -3.3693811e+08
   1.3404468e-10  -6.4880278e-02   5.9599158e+00   3.8250044e-02  -3.3559611e+08
   1.3504502e-10  -6.4545238e-02   5.9542375e+00   3.9222978e-02  -3.3425556e+08
   1.3604535e-10  -6.4211537e-02   5.9485089e+00   4.0216088e-02  -3.3291649e+08
   1.3704568e-10  -6.3879176e-02   5.9427301e+00   4.1229661e-02  -3.3157891e+08
   1.3804602e-10  -6.3548151e-02   5.9369008e+00   4.2263983e-02  -3.3024287e+08
   1.3904635e-10  -6.3218462e-02   5.9310213e+00   4.3319341e-02  -3.2890838e+08
   1.4004668e-10  -6.2890108e-02   5.9250913e+00   4.4396021e-02  -3.2757546e+08
   1.4104702e-10  -6.2563085e-02   5.9191109e+00   4.5494310e-02  -3.2624414e+08
   1.4204735e-10  -6.2237394e-02   5.9130801e+00   4.6614497e-02  -3.2491444e+08
   1.4304768e-10  -6.1913032e-02   5.9069989e+00   4.7756867e-02  -3.2358639e+08
   1.4404802e-10  -6.1589998e-02   5.9008673e+00   4.8921710e-02  -3.2226002e+08
   1.4504835e-10  -6.1268290e-02   5.8946853e+00   5.0109312e-02  -3.2093534e+08
   1.4604868e-10  -6.0947906e-02   5.8884530e+00   5.1319959e-02  -3.1961239e+08
   1.4704902e-10  -6.0628844e-02   5.8821703e+00   5.2553938e-02  -3.1829118e+08
   1.4804935e-10  -6.0311103e-02   5.8758374e+00   5.3811536e-02  -3.1697176e+08
   1.4904968e-10  -5.9994681e-02   5.8694542e+00   5.5093037e-02  -3.1565413e+08
   1.5005002e-10  -5.9679577e-02   5.8630208e+00   5.6398726e-02  -3.1433832e+08
   1.5105035e-10  -5.9365787e-02   5.8565373e+00   5.7728887e-02  -3.1302437e+08
   1.5205068e-10  -5.9053312e-02   5.8500038e+00   5.9083803e-02  -3.1171229e+08
   1.5305102e-10  -5.8742147e-02   5.8434203e+00   6.0463755e-02  -3.1040212e+08
   1.5405135e-10  -5.8432293e-02   5.8367869e+00   6.1869024e-02  -3.0909387e+08
   1.5505168e-10  -5.8123746e-02   5.8301038e+00   6.3299890e-02  -3.0778757e+08
   1.5605202e-10  -5.7816504e-02   5.8233709e+00   6.4756630e-02  -3.0648325e+08
   1.5705235e-10  -5.7510567e-02   5.8165885e+00   6.6239521e-02  -3.0518094e+08
   1.5805268e-10  -5.7205931e-02   5.8097566e+00   6.7748838e-02  -3.0388065e+08
   1.5905302e-10  -5.6902595e-02   5.8028754e+00   6.9284852e-02  -3.0258243e+08
   1.6005335e-10  -5.6600557e-02   5.7959450e+00   7.0847837e-02  -3.0128628e+08
   1.6105368e-10  -5.6299814e-02   5.7889655e+00   7.2438059e-02  -2.9999224e+08
   1.6205402e-10  -5.6000365e-02   5.7819371e+00   7.4055787e-02  -2.9870033e+08
   1.6305435e-10  -5.5702207e-02   5.7748600e+00   7.5701285e-02  -2.9741058e+08
   1.6405468e-10  -5.5405338e-02   5.7677343e+00   7.7374815e-02  -2.9612302e+08
   1.6505502e-10  -5.5109756e-02   5.7605602e+00   7.9076638e-02  -2.9483766e+08
   1.6605535e-10  -5.4815459e-02   5.7533379e+00   8.0807010e-02  -2.9355454e+08
   1.6705569e-10  -5.4522444e-02   5.7460675e+00   8.2566186e-02  -2.9227368e+08
   1.6805602e-10  -5.4230710e-02   5.7387493e+00   8.4354417e-02  -2.9099511e+08
   1.6905635e-10  -5.3940253e-02   5.7313835e+00   8.6171953e-02  -2.8971886e+08
   1.7005669e-10  -5.3651072e-02   5.7239703e+00   8.8019038e-02  -2.8844494e+08
   1.7105702e-10  -5.3363164e-02   5.7165098e+00   8.9895915e-02  -2.8717338e+08
   1.7205735e-10  -5.3076527e-02   5.7090025e+00   9.1802823e-02  -2.8590421e+08
   1.7305769e-10  -5.2791158e-02   5.7014484e+00   9.3739998e-02  -2.8463746e+08
   1.7405802e-10  -5.2507056e-02   5.6938478e+00   9.5707672e-02  -2.8337314e+08
   1.7505835e-10  -5.2224217e-02   5.6862010e+00   9.7706073e-02  -2.8211130e+08
   1.7605869e-10  -5.1942639e-02   5.6785082e+00   9.9735426e-02  -2.8085194e+08
   1.7705902e-10  -5.1662320e-02   5.6707697e+00   1.0179595e-01  -2.7959509e+08
   1.7805935e-10  -5.1383256e-02   5.6629859e+00   1.0388786e-01  -2.7834079e+08
   1.7905969e-10  -5.1105447e-02   5.6551569e+00   1.0601138e-01  -2.7708905e+08
   1.8006002e-10  -5.0828888e-02   5.6472830e+00   1.0816670e-01  -2.7583990e+08
   1.8106035e-10  -5.0553578e-02   5.6393647e+00   1.1035404e-01  -2.7459336e+08
   1.8206069e-10  -5.0279513e-02   5.6314021e+00   1.1257360e-01  -2.7334947e+08
   1.8306102e-10  -5.0006691e-02   5.6233956e+00   1.1482555e-01  -2.7210823e+08
   1.8406135e-10  -4.9735110e-02   5.6153455e+00   1.1711011e-01  -2.7086969e+08
   1.8506169e-10  -4.9464767e-02   5.6072522e+00   1.1942745e-01  -2.6963385e+08
   1.8606202e-10  -4.9195658e-02   5.5991159e+00   1.2177776e-01  -2.6840075e+08
   1.8706235e-10  -4.8927782e-02   5.5909371e+00   1.2416121e-01  -2.6717041e+08
   1.8806269e-10  -4.8661135e-02   5.5827161e+00   1.2657796e-01  -2.6594286e+08
   1.8906302e-10  -4.8395715e-02   5.5744532e+00   1.2902819e-01  -2.6471811e+08
   1.9006335e-10  -4.8131519e-02   5.5661488e+00   1.3151206e-01  -2.6349619e+08
   1.9106369e-10  -4.7868543e-02   5.5578033e+00   1.3402972e-01  -2.6227712e+08
   1.9206402e-10  -4.7606786e-02   5.5494170e+00   1.3658132e-01  -2.6106093e+08
   1.9306435e-10  -4.7346244e-02   5.5409904e+00   1.3916700e-01  -2.5984764e+08
   1.9406469e-10  -4.7086915e-02   5.5325239e+00   1.4178690e-01  -2.5863727e+08
   1.9506502e-10  -4.6828795e-02   5.5240178e+00   1.4444116e-01  -2.5742984e+08
   1.9606536e-10  -4.6571881e-02   5.5154725e+00   1.4712990e-01  -2.5622538e+08
   1.9706569e-10  -4.6316171e-02   5.5068886e+00   1.4985325e-01  -2.5502391e+08
   1.9806602e-10  -4.6061661e-02   5.4982663e+00   1.5261130e-01  -2.5382545e+08
   1.9906636e-10  -4.5808349e-02   5.4896061e+00   1.5540419e-01  -2.5263003e+08
   2.0006669e-10  -4.5556232e-02   5.4809085e+00   1.5823200e-01  -2.5143765e+08
   2.0106702e-10  -4.5305305e-02   5.4721739e+00   1.6109484e-01  -2.5024836e+08
   2.0206736e-10  -4.5055567e-02   5.4634027e+00   1.6399280e-01  -2.4906215e+08
   2.0306769e-10  -4.4807014e-02   5.4545954e+00   1.6692596e-01  -2.4787907e+08
   2.0406802e-10  -4.4559643e-02   5.4457524e+00   1.6989439e-01  -2.4669912e+08
   2.0506836e-10  -4.4313451e-02   5.4368743e+00   1.7289818e-01  -2.4552233e+08
   2.0606869e-10  -4.4068435e-02   5.4279614e+00   1.7593738e-01  -2.4434872e+08
   2.0706902e-10  -4.3824591e-02   5.4190143e+00   1.7901206e-01  -2.4317831e+08
   2.0806936e-10  -4.3581917e-02   5.4100334e+00   1.8212227e-01  -2.4201111e+08
   2.0906969e-10  -4.3340409e-02   5.4010192e+00   1.8526804e-01  -2.4084716e+08
   2.1007002e-10  -4.3100063e-02   5.3919722e+00   1.8844943e-01  -2.3968646e+08
   2.1107036e-10  -4.2860878e-02   5.3828929e+00   1.9166647e-01  -2.3852903e+08
   2.1207069e-10  -4.2622848e-02   5.3737818e+00   1.9491917e-01  -2.3737490e+08
   2.1307102e-10  -4.2385972e-02   5.3646394e+00   1.9820756e-01  -2.3622408e+08
   2.1407136e-10  -4.2150245e-02   5.3554662e+00   2.0153166e-01  -2.3507659e+08
   2.1507169e-10  -4.1915664e-02   5.3462627e+00   2.0489146e-01  -2.3393245e+08
   2.1607202e-10  -4.1682227e-02   5.3370294e+00   2.0828698e-01  -2.3279167e+08
   2.1707236e-10  -4.1449929e-02   5.3277669e+00   2.1171819e-01  -2.3165428e+08
   2.1807269e-10  -4.1218767e-02   5.3184756e+00   2.1518508e-01  -2.3052028e+08
   2.1907302e-10  -4.0988739e-02   5.3091562e+00   2.1868764e-01  -2.2938971e+08
   2.2007336e-10  -4.0759839e-02   5.2998091e+00   2.2222584e-01  -2.2826257e+08
   2.2107369e-10  -4.0532066e-02   5.2904349e+00   2.2579963e-01  -2.2713887e+08
   2.2207402e-10  -4.0305415e-02   5.2810341e+00   2.2940898e-01  -2.2601865e+08
   2.2307436e-10  -4.0079883e-02   5.2716073e+00   2.3305385e-01  -2.2490190e+08
   2.2407469e-10  -3.9855466e-02   5.2621549e+00   2.3673417e-01  -2.2378865e+08
   2.2507503e-10  -3.9632162e-02   5.2526776e+00   2.4044988e-01  -2.2267891e+08
   2.2607536e-10  -3.9409966e-02   5.2431759e+00   2.4420092e-01  -2.2157269e+08
   2.2707569e-10  -3.9188874e-02   5.2336504e+00   2.4798720e-01  -2.2047002e+08
   2.2807603e-10  -3.8968885e-02   5.2241016e+00   2.5180866e-01  -2.1937090e+08
   2.2907636e-10  -3.8749993e-02   5.2145300e+00   2.5566519e-01  -2.1827535e+08
   2.3007669e-10  -3.8532195e-02   5.2049363e+00   2.5955670e-01  -2.1718338e+08
   2.3107703e-10  -3.8315489e-02   5.1953210e+00   2.6348309e-01  -2.1609501e+08
   2.3207736e-10  -3.8099869e-02   5.1856846e+00   2.6744425e-01  -2.1501024e+08
   2.3307769e-10  -3.7885332e-02   5.1760278e+00   2.7144006e-01  -2.1392910e+08
   2.3407803e-10  -3.7671876e-02   5.1663511e+00   2.7547041e-01  -2.1285158e+08
   2.3507836e-10  -3.7459496e-02   5.1566550e+00   2.7953516e-01  -2.1177772e+08
   2.3607869e-10  -3.7248188e-02   5.1469402e+00   2.8363418e-01  -2.1070750e+08
   2.3707903e-10  -3.7037949e-02   5.1372073e+00   2.8776733e-01  -2.0964096e+08
   2.3807936e-10  -3.6828775e-02   5.1274567e+00   2.9193446e-01  -2.0857809e+08
   2.3907969e-10  -3.6620663e-02   5.1176890e+00   2.9613541e-01  -2.0751892e+08
   2.4008003e-10  -3.6413609e-02   5.1079050e+00   3.0037003e-01  -2.0646344e+08
   2.4108036e-10  -3.6207608e-02   5.0981050e+00   3.0463814e-01  -2.0541167e+08
   2.4208069e-10  -3.6002658e-02   5.0882898e+00   3.0893958e-01  -2.0436363e+08
   2.4308103e-10  -3.5798755e-02   5.0784598e+00   3.1327417e-01  -2.0331931e+08
   2.4408136e-10  -3.5595895e-02   5.0686157e+00   3.1764171e-01  -2.0227873e+08
   2.4508169e-10  -3.5394073e-02   5.0587580e+00   3.2204203e-01  -2.0124190e+08
   2.4608203e-10  -3.5193288e-02   5.0488873e+00   3.2647492e-01  -2.0020882e+08
   2.4708236e-10  -3.4993534e-02   5.0390043e+00   3.3094017e-01  -1.9917951e+08
   2.4808269e-10  -3.4794807e-02   5.0291094e+00   3.3543760e-01  -1.9815396e+08
   2.4908303e-10  -3.4597105e-02   5.0192032e+00   3.3996696e-01  -1.9713220e+08
   2.5008336e-10  -3.4400423e-02   5.0092864e+00   3.4452806e-01  -1.9611423e+08
   2.5108369e-10  -3.4204758e-02   4.9993595e+00   3.4912066e-01  -1.9510004e+08
   2.5208403e-10  -3.4010106e-02   4.9894231e+00   3.5374453e-01  -1.9408966e+08
   2.5308436e-10  -3.3816462e-02   4.9794777e+00   3.5839944e-01  -1.9308309e+08
   2.5408469e-10  -3.3623823e-02   4.9695240e+00   3.6308514e-01  -1.9208033e+08
   2.5508503e-10  -3.3432186e-02   4.9595624e+00   3.6780139e-01  -1.9108138e+08
   2.5608536e-10  -3.3241546e-02   4.9495937e+00   3.7254793e-01  -1.9008626e+08
   2.5708570e-10  -3.3051900e-02   4.9396182e+00   3.7732452e-01  -1.8909497e+08
   2.5808603e-10  -3.2863244e-02   4.9296367e+00   3.8213089e-01  -1.8810751e+08
   2.5908636e-10  -3.2675573e-02   4.9196497e+00   3.8696676e-01  -1.8712390e+08
   2.6008670e-10  -3.2488885e-02   4.9096577e+00   3.9183188e-01  -1.8614412e+08
   2.6108703e-10  -3.2303175e-02   4.8996613e+00   3.9672597e-01  -1.8516819e+08
   2.6208736e-10  -3.2118439e-02   4.8896610e+00   4.0164874e-01  -1.8419611e+08
   2.6308770e-10  -3.1934674e-02   4.8796575e+00   4.0659991e-01  -1.8322789e+08
   2.6408803e-10  -3.1751876e-02   4.8696513e+00   4.1157920e-01  -1.8226352e+08
   2.6508836e-10  -3.1570040e-02   4.8596429e+00   4.1658630e-01  -1.8130301e+08
   2.6608870e-10  -3.1389164e-02   4.8496329e+00   4.2162093e-01  -1.8034636e+08
   2.6708903e-10  -3.1209242e-02   4.8396218e+00   4.2668277e-01  -1.7939358e+08
   2.6808936e-10  -3.1030272e-02   4.8296103e+00   4.3177154e-01  -1.7844466e+08
   2.6908970e-10  -3.0852249e-02   4.8195987e+00   4.3688691e-01  -1.7749961e+08
   2.7009003e-10  -3.0675169e-02   4.8095877e+00   4.4202857e-01  -1.7655843e+08
   2.7109036e-10  -3.0499030e-02   4.7995778e+00   4.4719621e-01  -1.7562113e+08
   2.7209070e-10  -3.0323826e-02   4.7895695e+00   4.5238951e-01  -1.7468769e+08
   2.7309103e-10  -3.0149553e-02   4.7795634e+00   4.5760815e-01  -1.7375812e+08
   2.7409136e-10  -2.9976209e-02   4.7695600e+00   4.6285179e-01  -1.7283242e+08
   2.7509170e-10  -2.9803789e-02   4.7595598e+00   4.6812012e-01  -1.7191060e+08
   2.7609203e-10  -2.9632289e-02   4.7495633e+00   4.7341279e-01  -1.7099265e+08
   2.7709236e-10  -2.9461706e-02   4.7395711e+00   4.7872947e-01  -1.7007857e+08
   2.7809270e-10  -2.9292035e-02   4.7295837e+00   4.8406982e-01  -1.6916836e+08
   2.7909303e-10  -2.9123272e-02   4.7196015e+00   4.8943351e-01  -1.6826202e+08
   2.8009336e-10  -2.8955414e-02   4.7096251e+00   4.9482018e-01  -1.6735954e+08
   2.8109370e-10  -2.8788458e-02   4.6996550e+00   5.0022950e-01  -1.6646094e+08
   2.8209403e-10  -2.8622398e-02   4.6896917e+00   5.0566110e-01  -1.6556620e+08
   2.8309436e-10  -2.8457231e-02   4.6797357e+00   5.1111465e-01  -1.6467532e+08
   2.8409470e-10  -2.8292954e-02   4.6697874e+00   5.1658979e-01  -1.6378830e+08
   2.8509503e-10  -2.8129562e-02   4.6598474e+00   5.2208616e-01  -1.6290514e+08
   2.8609537e-10  -2.7967051e-02   4.6499161e+00   5.2760341e-01  -1.6202583e+08
   2.8709570e-10  -2.7805418e-02   4.6399940e+00   5.3314118e-01  -1.6115038e+08
   2.8809603e-10  -2.7644659e-02   4.6300816e+00   5.3869910e-01  -1.6027877e+08
   2.8909637e-10  -2.7484770e-02   4.6201793e+00   5.4427682e-01  -1.5941101e+08
   2.9009670e-10  -2.7325748e-02   4.6102877e+00   5.4987396e-01  -1.5854710e+08
   2.9109703e-10  -2.7167587e-02   4.6004071e+00   5.5549017e-01  -1.5768702e+08
   2.9209737e-10  -2.7010285e-02   4.5905380e+00   5.6112508e-01  -1.5683077e+08
   2.9309770e-10  -2.6853837e-02   4.5806810e+00   5.6677832e-01  -1.5597835e+08
   2.9409803e-10  -2.6698241e-02   4.5708363e+00   5.7244952e-01  -1.5512976e+08
   2.9509837e-10  -2.6543491e-02   4.5610045e+00   5.7813830e-01  -1.5428499e+08
   2.9609870e-10  -2.6389584e-02   4.5511860e+00   5.8384431e-01  -1.5344404e+08
   2.9709903e-10  -2.6236517e-02   4.5413812e+00   5.8956716e-01  -1.5260689e+08
   2.9809937e-10  -2.6084285e-02   4.5315906e+00   5.9530649e-01  -1.5177355e+08
   2.9909970e-10  -2.5932885e-02   4.5218145e+00   6.0106192e-01  -1.5094401e+08
   3.0010003e-10  -2.5782313e-02   4.5120534e+00   6.0683307e-01  -1.5011826e+08
   3.0110037e-10  -2.5632565e-02   4.5023077e+00   6.1261958e-01  -1.4929630e+08
   3.0210070e-10  -2.5483637e-02   4.4925779e+00   6.1842107e-01  -1.4847813e+08
   3.0310103e-10  -2.5335526e-02   4.4828642e+00   6.2423716e-01  -1.4766372e+08
   3.0410137e-10  -2.5188227e-02   4.4731671e+00   6.3006748e-01  -1.4685309e+08
   3.0510170e-10  -2.5041738e-02   4.4634870e+00   6.3591165e-01  -1.4604622e+08
   3.0610203e-10  -2.4896054e-02   4.4538243e+00   6.4176930e-01  -1.4524310e+08
   3.0710237e-10  -2.4751171e-02   4.4441793e+00   6.4764005e-01  -1.4444373e+08
   3.0810270e-10  -2.4607086e-02   4.4345525e+00   6.5352353e-01  -1.4364811e+08
   3.0910303e-10  -2.4463795e-02   4.4249441e+00   6.5941937e-01  -1.4285621e+08
   3.1010337e-10  -2.4321294e-02   4.4153547e+00   6.6532718e-01  -1.4206805e+08
   3.1110370e-10  -2.4179580e-02   4.4057844e+00   6.7124661e-01  -1.4128360e+08
   3.1210403e-10  -2.4038648e-02   4.3962337e+00   6.7717726e-01  -1.4050286e+08
   3.1310437e-10  -2.3898496e-02   4.3867029e+00   6.8311878e-01  -1.3972583e+08
   3.1410470e-10  -2.3759119e-02   4.3771924e+00   6.8907079e-01  -1.3895249e+08
   3.1510504e-10  -2.3620514e-02   4.3677026e+00   6.9503291e-01  -1.3818284e+08
   3.1610537e-10  -2.3482677e-02   4.3582336e+00   7.0100479e-01  -1.3741686e+08
   3.1710570e-10  -2.3345604e-02   4.3487859e+00   7.0698605e-01  -1.3665456e+08
   3.1810604e-10  -2.3209292e-02   4.3393598e+00   7.1297631e-01  -1.3589592e+08
   3.1910637e-10  -2.3073736e-02   4.3299556e+00   7.1897523e-01  -1.3514092e+08
   3.2010670e-10  -2.2938935e-02   4.3205736e+00   7.2498242e-01  -1.3438958e+08
   3.2110704e-10  -2.2804883e-02   4.3112142e+00   7.3099753e-01  -1.3364186e+08
   3.2210737e-10  -2.2671577e-02   4.3018775e+00   7.3702020e-01  -1.3289777e+08
   3.2310770e-10  -2.2539013e-02   4.2925640e+00   7.4305005e-01  -1.3215730e+08
   3.2410804e-10  -2.2407188e-02   4.2832739e+00   7.4908673e-01  -1.3142043e+08
   3.2510837e-10  -2.2276099e-02   4.2740075e+00   7.5512989e-01  -1.3068716e+08
   3.2610870e-10  -2.2145741e-02   4.2647651e+00   7.6117916e-01  -1.2995748e+08
   3.2710904e-10  -2.2016112e-02   4.2555469e+00   7.6723419e-01  -1.2923138e+08
   3.2810937e-10  -2.1887207e-02   4.2463532e+00   7.7329463e-01  -1.2850884e+08
   3.2910970e-10  -2.1759022e-02   4.2371844e+00   7.7936012e-01  -1.2778986e+08
   3.3011004e-10  -2.1631556e-02   4.2280405e+00   7.8543032e-01  -1.2707442e+08
   3.3111037e-10  -2.1504803e-02   4.2189220e+00   7.9150487e-01  -1.2636252e+08
   3.3211070e-10  -2.1378760e-02   4.2098290e+00   7.9758343e-01  -1.2565415e+08
   3.3311104e-10  -2.1253424e-02   4.2007618e+00   8.0366566e-01  -1.2494930e+08
   3.3411137e-10  -2.1128792e-02   4.1917207e+00   8.0975121e-01  -1.2424795e+08
   3.3511170e-10  -2.1004859e-02   4.1827058e+00   8.1583974e-01  -1.2355010e+08
   3.3611204e-10  -2.0881622e-02   4.1737174e+00   8.2193092e-01  -1.2285573e+08
   3.3711237e-10  -2.0759078e-02   4.1647557e+00   8.2802441e-01  -1.2216484e+08
   3.3811270e-10  -2.0637224e-02   4.1558210e+00   8.3411987e-01  -1.2147741e+08
   3.3911304e-10  -2.0516055e-02   4.1469134e+00   8.4021698e-01  -1.2079343e+08
   3.4011337e-10  -2.0395569e-02   4.1380331e+00   8.4631540e-01  -1.2011289e+08
   3.4111370e-10  -2.0275762e-02   4.1291805e+00   8.5241482e-01  -1.1943578e+08
   3.4211404e-10  -2.0156630e-02   4.1203555e+00   8.5851490e-01  -1.1876209e+08
   3.4311437e-10  -2.0038171e-02   4.1115586e+00   8.6461532e-01  -1.1809181e+08
   3.4411470e-10  -1.9920380e-02   4.1027898e+00   8.7071576e-01  -1.1742493e+08
   3.4511504e-10  -1.9803255e-02   4.0940493e+00   8.7681592e-01  -1.1676143e+08
   3.4611537e-10  -1.9686791e-02   4.0853373e+00   8.8291547e-01  -1.1610130e+08
   3.4711571e-10  -1.9570987e-02   4.0766541e+00   8.8901410e-01  -1.1544453e+08
   3.4811604e-10  -1.9455837e-02   4.0679996e+00   8.9511150e-01  -1.1479112e+08
   3.4911637e-10  -1.9341339e-02   4.0593742e+00   9.0120737e-01  -1.1414105e+08
   3.5011671e-10  -1.9227490e-02   4.0507780e+00   9.0730141e-01  -1.1349430e+08
   3.5111704e-10  -1.9114286e-02   4.0422111e+00   9.1339331e-01  -1.1285087e+08
   3.5211737e-10  -1.9001724e-02   4.0336738e+00   9.1948277e-01  -1.1221074e+08
   3.5311771e-10  -1.8889801e-02   4.0251660e+00   9.2556950e-01  -1.1157390e+08
   3.5411804e-10  -1.8778513e-02   4.0166880e+00   9.3165321e-01  -1.1094035e+08
   3.5511837e-10  -1.8667857e-02   4.0082400e+00   9.3773361e-01  -1.1031006e+08
   3.5611871e-10  -1.8557830e-02   3.9998220e+00   9.4381041e-01  -1.0968303e+08
   3.5711904e-10  -1.8448428e-02   3.9914342e+00   9.4988333e-01  -1.0905925e+08
   3.5811937e-10  -1.8339649e-02   3.9830767e+00   9.5595208e-01  -1.0843869e+08
   3.5911971e-10  -1.8231489e-02   3.9747497e+00   9.6201640e-01  -1.0782136e+08
   3.6012004e-10  -1.8123944e-02   3.9664531e+00   9.6807599e-01  -1.0720723e+08
   3.6112037e-10  -1.8017013e-02   3.9581873e+00   9.7413059e-01  -1.0659631e+08
   3.6212071e-10  -1.7910690e-02   3.9499522e+00   9.8017994e-01  -1.0598856e+08
   3.6312104e-10  -1.7804974e-02   3.9417480e+00   9.8622376e-01  -1.0538399e+08
   3.6412137e-10  -1.7699862e-02   3.9335748e+00   9.9226179e-01  -1.0478258e+08
   3.6512171e-10  -1.7595349e-02   3.9254326e+00   9.9829378e-01  -1.0418431e+08
   3.6612204e-10  -1.7491433e-02   3.9173216e+00   1.0043195e+00  -1.0358918e+08
   3.6712237e-10  -1.7388110e-02   3.9092418e+00   1.0103386e+00  -1.0299717e+08
   3.6812271e-10  -1.7285379e-02   3.9011934e+00   1.0163509e+00  -1.0240827e+08
   3.6912304e-10  -1.7183234e-02   3.8931764e+00   1.0223561e+00  -1.0182247e+08
   3.7012337e-10  -1.7081674e-02   3.8851910e+00   1.0283541e+00  -1.0123976e+08
   3.7112371e-10  -1.6980696e-02   3.8772370e+00   1.0343444e+00  -1.0066012e+08
   3.7212404e-10  -1.6880295e-02   3.8693147e+00   1.0403270e+00  -1.0008354e+08
   3.7312437e-10  -1.6780470e-02   3.8614241e+00   1.0463016e+00  -9.9510010e+07
   3.7412471e-10  -1.6681217e-02   3.8535653e+00   1.0522679e+00  -9.8939515e+07
   3.7512504e-10  -1.6582533e-02   3.8457383e+00   1.0582258e+00  -9.8372044e+07
   3.7612538e-10  -1.6484415e-02   3.8379432e+00   1.0641749e+00  -9.7807585e+07
   3.7712571e-10  -1.6386861e-02   3.8301800e+00   1.0701151e+00  -9.7246125e+07
   3.7812604e-10  -1.6289866e-02   3.8224488e+00   1.0760461e+00  -9.6687651e+07
   3.7912638e-10  -1.6193428e-02   3.8147496e+00   1.0819678e+00  -9.6132151e+07
   3.8012671e-10  -1.6097545e-02   3.8070825e+00   1.0878798e+00  -9.5579612e+07
   3.8112704e-10  -1.6002213e-02   3.7994475e+00   1.0937821e+00  -9.5030023e+07
   3.8212738e-10  -1.5907429e-02   3.7918446e+00   1.0996743e+00  -9.4483370e+07
   3.8312771e-10  -1.5813190e-02   3.7842739e+00   1.1055563e+00  -9.3939641e+07
   3.8412804e-10  -1.5719494e-02   3.7767354e+00   1.1114279e+00  -9.3398823e+07
   3.8512838e-10  -1.5626337e-02   3.7692291e+00   1.1172889e+00  -9.2860905e+07
   3.8612871e-10  -1.5533717e-02   3.7617550e+00   1.1231391e+00  -9.2325874e+07
   3.8712904e-10  -1.5441630e-02   3.7543133e+00   1.1289782e+00  -9.1793716e+07
   3.8812938e-10  -1.5350075e-02   3.7469037e+00   1.1348062e+00  -9.1264420e+07
   3.8912971e-10  -1.5259047e-02   3.7395265e+00   1.1406227e+00  -9.0737974e+07
   3.9013004e-10  -1.5168544e-02   3.7321816e+00   1.1464277e+00  -9.0214364e+07
   3.9113038e-10  -1.5078564e-02   3.7248690e+00   1.1522210e+00  -8.9693579e+07
   3.9213071e-10  -1.4989103e-02   3.7175887e+00   1.1580023e+00  -8.9175606e+07
   3.9313104e-10  -1.4900159e-02   3.7103408e+00   1.1637714e+00  -8.8660432e+07
   3.9413138e-10  -1.4811729e-02   3.7031251e+00   1.1695283e+00  -8.8148045e+07
   3.9513171e-10  -1.4723810e-02   3.6959418e+00   1.1752728e+00  -8.7638433e+07
   3.9613204e-10  -1.4636399e-02   3.6887907e+00   1.1810046e+00  -8.7131583e+07
   3.9713238e-10  -1.4549494e-02   3.6816720e+00   1.1867237e+00  -8.6627483e+07
   3.9813271e-10  -1.4463092e-02   3.6745855e+00   1.1924298e+00  -8.6126120e+07
   3.9913304e-10  -1.4377190e-02   3.6675313e+00   1.1981227e+00  -8.5627482e+07
   4.0013338e-10  -1.4291785e-02   3.6605094e+00   1.2038025e+00  -8.5131558e+07
   4.0113371e-10  -1.4206875e-02   3.6535197e+00   1.2094688e+00  -8.4638333e+07
   4.0213404e-10  -1.4122457e-02   3.6465622e+00   1.2151216e+00  -8.4147797e+07
   4.0313438e-10  -1.4038528e-02   3.6396369e+00   1.2207606e+00  -8.3659937e+07
   4.0413471e-10  -1.3955086e-02   3.6327438e+00   1.2263858e+00  -8.3174741e+07
   4.0513505e-10  -1.3872128e-02   3.6258828e+00   1.2319970e+00  -8.2692195e+07
   4.0613538e-10  -1.3789651e-02   3.6190539e+00   1.2375941e+00  -8.2212289e+07
   4.0713571e-10  -1.3707653e-02   3.6122570e+00   1.2431768e+00  -8.1735010e+07
   4.0813605e-10  -1.3626131e-02   3.6054922e+00   1.2487452e+00  -8.1260346e+07
   4.0913638e-10  -1.3545082e-02   3.5987594e+00   1.2542991e+00  -8.0788284e+07
   4.1013671e-10  -1.3464505e-02   3.5920586e+00   1.2598383e+00  -8.0318812e+07
   4.1113705e-10  -1.3384395e-02   3.5853896e+00   1.2653627e+00  -7.9851919e+07
   4.1213738e-10  -1.3304751e-02   3.5787526e+00   1.2708722e+00  -7.9387592e+07
   4.1313771e-10  -1.3225571e-02   3.5721473e+00   1.2763666e+00  -7.8925819e+07
   4.1413805e-10  -1.3146851e-02   3.5655739e+00   1.2818459e+00  -7.8466588e+07
   4.1513838e-10  -1.3068589e-02   3.5590321e+00   1.2873100e+00  -7.8009887e+07
   4.1613871e-10  -1.2990783e-02   3.5525221e+00   1.2927587e+00  -7.7555705e+07
   4.1713905e-10  -1.2913429e-02   3.5460437e+00   1.2981919e+00  -7.7104028e+07
   4.1813938e-10  -1.2836527e-02   3.5395968e+00   1.3036095e+00  -7.6654846e+07
   4.1913971e-10  -1.2760072e-02   3.5331815e+00   1.3090114e+00  -7.6208145e+07
   4.2014005e-10  -1.2684063e-02   3.5267976e+00   1.3143975e+00  -7.5763916e+07
   4.2114038e-10  -1.2608497e-02   3.5204451e+00   1.3197677e+00  -7.5322144e+07
   4.2214071e-10  -1.2533371e-02   3.5141240e+00   1.3251219e+00  -7.4882820e+07
   4.2314105e-10  -1.2458684e-02   3.5078341e+00   1.3304600e+00  -7.4445930e+07
   4.2414138e-10  -1.2384433e-02   3.5015754e+00   1.3357819e+00  -7.4011463e+07
   4.2514171e-10  -1.2310615e-02   3.4953479e+00   1.3410876e+00  -7.3579408e+07
   4.2614205e-10  -1.2237227e-02   3.4891514e+00   1.3463769e+00  -7.3149752e+07
   4.2714238e-10  -1.2164269e-02   3.4829860e+00   1.3516497e+00  -7.2722484e+07
   4.2814271e-10  -1.2091737e-02   3.4768515e+00   1.3569061e+00  -7.2297593e+07
   4.2914305e-10  -1.2019628e-02   3.4707478e+00   1.3621458e+00  -7.1875066e+07
   4.3014338e-10  -1.1947941e-02   3.4646749e+00   1.3673688e+00  -7.1454893e+07
   4.3114371e-10  -1.1876673e-02   3.4586328e+00   1.3725751e+00  -7.1037061e+07
   4.3214405e-10  -1.1805822e-02   3.4526213e+00   1.3777645e+00  -7.0621559e+07
   4.3314438e-10  -1.1735385e-02   3.4466403e+00   1.3829370e+00  -7.0208376e+07
   4.3414471e-10  -1.1665360e-02   3.4406898e+00   1.3880925e+00  -6.9797500e+07
   4.3514505e-10  -1.1595745e-02   3.4347697e+00   1.3932310e+00  -6.9388920e+07
   4.3614538e-10  -1.1526538e-02   3.4288799e+00   1.3983524e+00  -6.8982625e+07
   4.3714572e-10  -1.1457736e-02   3.4230204e+00   1.4034566e+00  -6.8578602e+07
   4.3814605e-10  -1.1389337e-02   3.4171910e+00   1.4085435e+00  -6.8176841e+07
   4.3914638e-10  -1.1321338e-02   3.4113917e+00   1.4136132e+00  -6.7777331e+07
   4.4014672e-10  -1.1253739e-02   3.4056224e+00   1.4186655e+00  -6.7380060e+07
   4.4114705e-10  -1.1186535e-02   3.3998829e+00   1.4237004e+00  -6.6985017e+07
   4.4214738e-10  -1.1119725e-02   3.3941733e+00   1.4287178e+00  -6.6592191e+07
   4.4314772e-10  -1.1053308e-02   3.3884934e+00   1.4337178e+00  -6.6201571e+07
   4.4414805e-10  -1.0987279e-02   3.3828431e+00   1.4387001e+00  -6.5813145e+07
   4.4514838e-10  -1.0921639e-02   3.3772224e+00   1.4436649e+00  -6.5426903e+07
   4.4614872e-10  -1.0856383e-02   3.3716311e+00   1.4486120e+00  -6.5042834e+07
   4.4714905e-10  -1.0791511e-02   3.3660692e+00   1.4535414e+00  -6.4660926e+07
   4.4814938e-10  -1.0727019e-02   3.3605365e+00   1.4584530e+00  -6.4281170e+07
   4.4914972e-10  -1.0662907e-02   3.3550330e+00   1.4633469e+00  -6.3903553e+07
   4.5015005e-10  -1.0599171e-02   3.3495585e+00   1.4682229e+00  -6.3528064e+07
   4.5115038e-10  -1.0535809e-02   3.3441131e+00   1.4730811e+00  -6.3154695e+07
   4.5215072e-10  -1.0472820e-02   3.3386965e+00   1.4779215e+00  -6.2783432e+07
   4.5315105e-10  -1.0410201e-02   3.3333087e+00   1.4827439e+00  -6.2414266e+07
   4.5415138e-10  -1.0347950e-02   3.3279496e+00   1.4875483e+00  -6.2047186e+07
   4.5515172e-10  -1.0286066e-02   3.3226191e+00   1.4923348e+00  -6.1682181e+07
   4.5615205e-10  -1.0224545e-02   3.3173171e+00   1.4971032e+00  -6.1319241e+07
   4.5715238e-10  -1.0163387e-02   3.3120434e+00   1.5018537e+00  -6.0958355e+07
   4.5815272e-10  -1.0102589e-02   3.3067980e+00   1.5065860e+00  -6.0599512e+07
   4.5915305e-10  -1.0042148e-02   3.3015809e+00   1.5113003e+00  -6.0242702e+07
   4.6015338e-10  -9.9820633e-03   3.2963918e+00   1.5159965e+00  -5.9887915e+07
   4.6115372e-10  -9.9223324e-03   3.2912307e+00   1.5206746e+00  -5.9535140e+07
   4.6215405e-10  -9.8629535e-03   3.2860974e+00   1.5253345e+00  -5.9184366e+07
   4.6315438e-10  -9.8039244e-03   3.2809920e+00   1.5299763e+00  -5.8835584e+07
   4.6415472e-10  -9.7452431e-03   3.2759142e+00   1.5345999e+00  -5.8488782e+07
   4.6515505e-10  -9.6869078e-03   3.2708640e+00   1.5392053e+00  -5.8143951e+07
   4.6615539e-10  -9.6289164e-03   3.2658412e+00   1.5437925e+00  -5.7801081e+07
   4.6715572e-10  -9.5712670e-03   3.2608458e+00   1.5483615e+00  -5.7460161e+07
   4.6815605e-10  -9.5139576e-03   3.2558777e+00   1.5529123e+00  -5.7121181e+07
   4.6915639e-10  -9.4569863e-03   3.2509367e+00   1.5574449e+00  -5.6784131e+07
   4.7015672e-10  -9.4003512e-03   3.2460227e+00   1.5619593e+00  -5.6449001e+07
   4.7115705e-10  -9.3440504e-03   3.2411357e+00   1.5664554e+00  -5.6115781e+07
   4.7215739e-10  -9.2880818e-03   3.2362755e+00   1.5709333e+00  -5.5784460e+07
   4.7315772e-10  -9.2324438e-03   3.2314420e+00   1.5753929e+00  -5.5455030e+07
   4.7415805e-10  -9.1771343e-03   3.2266352e+00   1.5798344e+00  -5.5127480e+07
   4.7515839e-10  -9.1221515e-03   3.2218548e+00   1.5842575e+00  -5.4801799e+07
   4.7615872e-10  -9.0674936e-03   3.2171008e+00   1.5886625e+00  -5.4477979e+07
   4.7715905e-10  -9.0131586e-03   3.2123731e+00   1.5930492e+00  -5.4156010e+07
   4.7815939e-10  -8.9591447e-03   3.2076716e+00   1.5974176e+00  -5.3835881e+07
   4.7915972e-10  -8.9054501e-03   3.2029961e+00   1.6017679e+00  -5.3517583e+07
   4.8016005e-10  -8.8520730e-03   3.1983466e+00   1.6060999e+00  -5.3201107e+07
   4.8116039e-10  -8.7990116e-03   3.1937230e+00   1.6104138e+00  -5.2886442e+07
   4.8216072e-10  -8.7462640e-03   3.1891251e+00   1.6147094e+00  -5.2573580e+07
   4.8316105e-10  -8.6938284e-03   3.1845528e+00   1.6189868e+00  -5.2262510e+07
   4.8416139e-10  -8.6417031e-03   3.1800060e+00   1.6232461e+00  -5.1953223e+07
   4.8516172e-10  -8.5898862e-03   3.1754847e+00   1.6274872e+00  -5.1645709e+07
   4.8616205e-10  -8.5383761e-03   3.1709886e+00   1.6317101e+00  -5.1339960e+07
   4.8716239e-10  -8.4871709e-03   3.1665177e+00   1.6359149e+00  -5.1035966e+07
   4.8816272e-10  -8.4362689e-03   3.1620719e+00   1.6401016e+00  -5.0733717e+07
   4.8916305e-10  -8.3856683e-03   3.1576511e+00   1.6442701e+00  -5.0433204e+07
   4.9016339e-10  -8.3353675e-03   3.1532551e+00   1.6484206e+00  -5.0134418e+07
   4.9116372e-10  -8.2853647e-03   3.1488839e+00   1.6525530e+00  -4.9837349e+07
   4.9216405e-10  -8.2356581e-03   3.1445373e+00   1.6566674e+00  -4.9541989e+07
   4.9316439e-10  -8.1862462e-03   3.1402152e+00   1.6607637e+00  -4.9248328e+07
   4.9416472e-10  -8.1371271e-03   3.1359175e+00   1.6648420e+00  -4.8956357e+07
   4.9516506e-10  -8.0882992e-03   3.1316442e+00   1.6689024e+00  -4.8666068e+07
   4.9616539e-10  -8.0397609e-03   3.1273950e+00   1.6729447e+00  -4.8377450e+07
   4.9716572e-10  -7.9915104e-03   3.1231699e+00   1.6769692e+00  -4.8090496e+07
   4.9816606e-10  -7.9435461e-03   3.1189688e+00   1.6809757e+00  -4.7805195e+07
   4.9916639e-10  -7.8958664e-03   3.1147915e+00   1.6849643e+00  -4.7521540e+07
   5.0016672e-10  -7.8484695e-03   3.1106380e+00   1.6889351e+00  -4.7239521e+07
   5.0116706e-10  -7.8013540e-03   3.1065081e+00   1.6928880e+00  -4.6959130e+07
   5.0216739e-10  -7.7545181e-03   3.1024017e+00   1.6968232e+00  -4.6680357e+07
   5.0316772e-10  -7.7079602e-03   3.0983188e+00   1.7007405e+00  -4.6403195e+07
   5.0416806e-10  -7.6616787e-03   3.0942591e+00   1.7046401e+00  -4.6127633e+07
   5.0516839e-10  -7.6156721e-03   3.0902226e+00   1.7085220e+00  -4.5853664e+07
   5.0616872e-10  -7.5699387e-03   3.0862093e+00   1.7123862e+00  -4.5581280e+07
   5.0716906e-10  -7.5244770e-03   3.0822189e+00   1.7162328e+00  -4.5310470e+07
   5.0816939e-10  -7.4792854e-03   3.0782513e+00   1.7200617e+00  -4.5041227e+07
   5.0916972e-10  -7.4343623e-03   3.0743065e+00   1.7238730e+00  -4.4773543e+07
   5.1017006e-10  -7.3897062e-03   3.0703844e+00   1.7276668e+00  -4.4507408e+07
   5.1117039e-10  -7.3453155e-03   3.0664847e+00   1.7314431e+00  -4.4242815e+07
   5.1217072e-10  -7.3011887e-03   3.0626076e+00   1.7352019e+00  -4.3979755e+07
   5.1317106e-10  -7.2573243e-03   3.0587527e+00   1.7389433e+00  -4.3718219e+07
   5.1417139e-10  -7.2137207e-03   3.0549200e+00   1.7426672e+00  -4.3458200e+07
   5.1517172e-10  -7.1703764e-03   3.0511094e+00   1.7463738e+00  -4.3199688e+07
   5.1617206e-10  -7.1272900e-03   3.0473208e+00   1.7500631e+00  -4.2942677e+07
   5.1717239e-10  -7.0844599e-03   3.0435541e+00   1.7537350e+00  -4.2687157e+07
   5.1817272e-10  -7.0418846e-03   3.0398091e+00   1.7573897e+00  -4.2433120e+07
   5.1917306e-10  -6.9995627e-03   3.0360858e+00   1.7610272e+00  -4.2180559e+07
   5.2017339e-10  -6.9574927e-03   3.0323841e+00   1.7646475e+00  -4.1929465e+07
   5.2117372e-10  -6.9156731e-03   3.0287038e+00   1.7682507e+00  -4.1679830e+07
   5.2217406e-10  -6.8741024e-03   3.0250448e+00   1.7718368e+00  -4.1431646e+07
   5.2317439e-10  -6.8327793e-03   3.0214070e+00   1.7754059e+00  -4.1184906e+07
   5.2417472e-10  -6.7917023e-03   3.0177904e+00   1.7789579e+00  -4.0939600e+07
   5.2517506e-10  -6.7508699e-03   3.0141948e+00   1.7824930e+00  -4.0695722e+07
   5.2617539e-10  -6.7102808e-03   3.0106201e+00   1.7860112e+00  -4.0453264e+07
   5.2717573e-10  -6.6699335e-03   3.0070662e+00   1.7895125e+00  -4.0212217e+07
   5.2817606e-10  -6.6298265e-03   3.0035330e+00   1.7929969e+00  -3.9972574e+07
   5.2917639e-10  -6.5899586e-03   3.0000204e+00   1.7964646e+00  -3.9734327e+07
   5.3017673e-10  -6.5503283e-03   2.9965282e+00   1.7999156e+00  -3.9497468e+07
   5.3117706e-10  -6.5109342e-03   2.9930565e+00   1.8033498e+00  -3.9261991e+07
   5.3217739e-10  -6.4717750e-03   2.9896050e+00   1.8067674e+00  -3.9027886e+07
   5.3317773e-10  -6.4328492e-03   2.9861736e+00   1.8101684e+00  -3.8795147e+07
   5.3417806e-10  -6.3941556e-03   2.9827624e+00   1.8135529e+00  -3.8563766e+07
   5.3517839e-10  -6.3556927e-03   2.9793711e+00   1.8169208e+00  -3.8333735e+07
   5.3617873e-10  -6.3174592e-03   2.9759996e+00   1.8202723e+00  -3.8105047e+07
   5.3717906e-10  -6.2794539e-03   2.9726479e+00   1.8236074e+00  -3.7877695e+07
   5.3817939e-10  -6.2416752e-03   2.9693158e+00   1.8269261e+00  -3.7651670e+07
   5.3917973e-10  -6.2041220e-03   2.9660033e+00   1.8302285e+00  -3.7426967e+07
   5.4018006e-10  -6.1667929e-03   2.9627102e+00   1.8335147e+00  -3.7203576e+07
   5.4118039e-10  -6.1296865e-03   2.9594365e+00   1.8367846e+00  -3.6981492e+07
   5.4218073e-10  -6.0928017e-03   2.9561820e+00   1.8400384e+00  -3.6760707e+07
   5.4318106e-10  -6.0561370e-03   2.9529466e+00   1.8432761e+00  -3.6541213e+07
   5.4418139e-10  -6.0196913e-03   2.9497302e+00   1.8464977e+00  -3.6323003e+07
   5.4518173e-10  -5.9834632e-03   2.9465328e+00   1.8497033e+00  -3.6106071e+07
   5.4618206e-10  -5.9474514e-03   2.9433542e+00   1.8528929e+00  -3.5890409e+07
   5.4718239e-10  -5.9116547e-03   2.9401944e+00   1.8560667e+00  -3.5676009e+07
   5.4818273e-10  -5.8760719e-03   2.9370531e+00   1.8592245e+00  -3.5462866e+07
   5.4918306e-10  -5.8407016e-03   2.9339304e+00   1.8623666e+00  -3.5250971e+07
   5.5018339e-10  -5.8055426e-03   2.9308261e+00   1.8654929e+00  -3.5040318e+07
   5.5118373e-10  -5.7705937e-03   2.9277402e+00   1.8686036e+00  -3.4830901e+07
   5.5218406e-10  -5.7358537e-03   2.9246725e+00   1.8716985e+00  -3.4622711e+07
   5.5318439e-10  -5.7013213e-03   2.9216229e+00   1.8747779e+00  -3.4415742e+07
   5.5418473e-10  -5.6669954e-03   2.9185913e+00   1.8778418e+00  -3.4209988e+07
   5.5518506e-10  -5.6328746e-03   2.9155777e+00   1.8808901e+00  -3.4005441e+07
   5.5618540e-10  -5.5989578e-03   2.9125819e+00   1.8839231e+00  -3.3802095e+07
   5.5718573e-10  -5.5652438e-03   2.9096039e+00   1.8869406e+00  -3.3599943e+07
   5.5818606e-10  -5.5317315e-03   2.9066435e+00   1.8899429e+00  -3.3398978e+07
   5.5918640e-10  -5.4984195e-03   2.9037006e+00   1.8929298e+00  -3.3199194e+07
   5.6018673e-10  -5.4653068e-03   2.9007752e+00   1.8959016e+00  -3.3000583e+07
   5.6118706e-10  -5.4323922e-03   2.8978671e+00   1.8988581e+00  -3.2803140e+07
   5.6218740e-10  -5.3996745e-03   2.8949764e+00   1.9017996e+00  -3.2606858e+07
   5.6318773e-10  -5.3671526e-03   2.8921027e+00   1.9047260e+00  -3.2411730e+07
   5.6418806e-10  -5.3348252e-03   2.8892462e+00   1.9076375e+00  -3.2217749e+07
   5.6518840e-10  -5.3026913e-03   2.8864066e+00   1.9105339e+00  -3.2024910e+07
   5.6618873e-10  -5.2707497e-03   2.8835839e+00   1.9134155e+00  -3.1833206e+07
   5.6718906e-10  -5.2389994e-03   2.8807780e+00   1.9162823e+00  -3.1642629e+07
   5.6818940e-10  -5.2074390e-03   2.8779888e+00   1.9191343e+00  -3.1453175e+07
   5.6918973e-10  -5.1760677e-03   2.8752162e+00   1.9219716e+00  -3.1264837e+07
   5.7019006e-10  -5.1448841e-03   2.8724601e+00   1.9247942e+00  -3.1077608e+07
   5.7119040e-10  -5.1138873e-03   2.8697204e+00   1.9276022e+00  -3.0891482e+07
   5.7219073e-10  -5.0830761e-03   2.8669970e+00   1.9303956e+00  -3.0706453e+07
   5.7319106e-10  -5.0524495e-03   2.8642899e+00   1.9331745e+00  -3.0522514e+07
   5.7419140e-10  -5.0220062e-03   2.8615989e+00   1.9359390e+00  -3.0339660e+07
   5.7519173e-10  -4.9917454e-03   2.8589240e+00   1.9386892e+00  -3.0157884e+07
   5.7619206e-10  -4.9616658e-03   2.8562651e+00   1.9414249e+00  -2.9977181e+07
   5.7719240e-10  -4.9317665e-03   2.8536220e+00   1.9441465e+00  -2.9797543e+07
   5.7819273e-10  -4.9020463e-03   2.8509947e+00   1.9468538e+00  -2.9618966e+07
   5.7919306e-10  -4.8725042e-03   2.8483831e+00   1.9495469e+00  -2.9441442e+07
   5.8019340e-10  -4.8431391e-03   2.8457871e+00   1.9522259e+00  -2.9264966e+07
   5.8119373e-10  -4.8139500e-03   2.8432067e+00   1.9548909e+00  -2.9089533e+07
   5.8219406e-10  -4.7849359e-03   2.8406416e+00   1.9575419e+00  -2.8915136e+07
   5.8319440e-10  -4.7560958e-03   2.8380919e+00   1.9601790e+00  -2.8741768e+07
   5.8419473e-10  -4.7274285e-03   2.8355575e+00   1.9628022e+00  -2.8569425e+07
   5.8519507e-10  -4.6989331e-03   2.8330383e+00   1.9654115e+00  -2.8398101e+07
   5.8619540e-10  -4.6706086e-03   2.8305341e+00   1.9680071e+00  -2.8227790e+07
   5.8719573e-10  -4.6424539e-03   2.8280449e+00   1.9705890e+00  -2.8058485e+07
   5.8819607e-10  -4.6144681e-03   2.8255707e+00   1.9731573e+00  -2.7890181e+07
   5.8919640e-10  -4.5866501e-03   2.8231112e+00   1.9757119e+00  -2.7722873e+07
   5.9019673e-10  -4.5589990e-03   2.8206666e+00   1.9782530e+00  -2.7556555e+07
   5.9119707e-10  -4.5315138e-03   2.8182365e+00   1.9807807e+00  -2.7391221e+07
   5.9219740e-10  -4.5041934e-03   2.8158211e+00   1.9832949e+00  -2.7226865e+07
   5.9319773e-10  -4.4770370e-03   2.8134202e+00   1.9857957e+00  -2.7063483e+07
   5.9419807e-10  -4.4500434e-03   2.8110336e+00   1.9882832e+00  -2.6901067e+07
   5.9519840e-10  -4.4232119e-03   2.8086614e+00   1.9907575e+00  -2.6739614e+07
   5.9619873e-10  -4.3965414e-03   2.8063034e+00   1.9932186e+00  -2.6579116e+07
   5.9719907e-10  -4.3700310e-03   2.8039596e+00   1.9956665e+00  -2.6419570e+07
   5.9819940e-10  -4.3436797e-03   2.8016299e+00   1.9981013e+00  -2.6260969e+07
   5.9919973e-10  -4.3174865e-03   2.7993142e+00   2.0005231e+00  -2.6103308e+07
   6.0020007e-10  -4.2914506e-03   2.7970124e+00   2.0029320e+00  -2.5946581e+07
   6.0120040e-10  -4.2655710e-03   2.7947245e+00   2.0053279e+00  -2.5790784e+07
   6.0220073e-10  -4.2398468e-03   2.7924503e+00   2.0077110e+00  -2.5635910e+07
   6.0320107e-10  -4.2142770e-03   2.7901898e+00   2.0100812e+00  -2.5481955e+07
   6.0420140e-10  -4.1888607e-03   2.7879429e+00   2.0124387e+00  -2.5328914e+07
   6.0520173e-10  -4.1635971e-03   2.7857095e+00   2.0147835e+00  -2.5176780e+07
   6.0620207e-10  -4.1384853e-03   2.7834896e+00   2.0171157e+00  -2.5025549e+07
   6.0720240e-10  -4.1135242e-03   2.7812830e+00   2.0194353e+00  -2.4875216e+07
   6.0820273e-10  -4.0887131e-03   2.7790897e+00   2.0217424e+00  -2.4725775e+07
   6.0920307e-10  -4.0640510e-03   2.7769097e+00   2.0240370e+00  -2.4577222e+07
   6.1020340e-10  -4.0395371e-03   2.7747427e+00   2.0263192e+00  -2.4429551e+07
   6.1120373e-10  -4.0151704e-03   2.7725889e+00   2.0285891e+00  -2.4282757e+07
   6.1220407e-10  -3.9909502e-03   2.7704480e+00   2.0308466e+00  -2.4136834e+07
   6.1320440e-10  -3.9668754e-03   2.7683200e+00   2.0330919e+00  -2.3991779e+07
   6.1420473e-10  -3.9429454e-03   2.7662048e+00   2.0353250e+00  -2.3847586e+07
   6.1520507e-10  -3.9191591e-03   2.7641025e+00   2.0375460e+00  -2.3704250e+07
   6.1620540e-10  -3.8955158e-03   2.7620128e+00   2.0397548e+00  -2.3561767e+07
   6.1720574e-10  -3.8720146e-03   2.7599357e+00   2.0419517e+00  -2.3420130e+07
   6.1820607e-10  -3.8486547e-03   2.7578711e+00   2.0441366e+00  -2.3279336e+07
   6.1920640e-10  -3.8254351e-03   2.7558190e+00   2.0463096e+00  -2.3139379e+07
   6.2020674e-10  -3.8023552e-03   2.7537793e+00   2.0484707e+00  -2.3000254e+07
   6.2120707e-10  -3.7794140e-03   2.7517519e+00   2.0506200e+00  -2.2861958e+07
   6.2220740e-10  -3.7566107e-03   2.7497368e+00   2.0527576e+00  -2.2724484e+07
   6.2320774e-10  -3.7339445e-03   2.7477338e+00   2.0548835e+00  -2.2587829e+07
   6.2420807e-10  -3.7114147e-03   2.7457429e+00   2.0569977e+00  -2.2451987e+07
   6.2520840e-10  -3.6890203e-03   2.7437641e+00   2.0591003e+00  -2.2316954e+07
   6.2620874e-10  -3.6667605e-03   2.7417972e+00   2.0611915e+00  -2.2182724e+07
   6.2720907e-10  -3.6446347e-03   2.7398422e+00   2.0632711e+00  -2.2049295e+07
   6.2820940e-10  -3.6226419e-03   2.7378990e+00   2.0653393e+00  -2.1916660e+07
   6.2920974e-10  -3.6007814e-03   2.7359676e+00   2.0673961e+00  -2.1784815e+07
   6.3021007e-10  -3.5790524e-03   2.7340479e+00   2.0694417e+00  -2.1653756e+07
   6.3121040e-10  -3.5574541e-03   2.7321397e+00   2.0714759e+00  -2.1523478e+07
   6.3221074e-10  -3.5359857e-03   2.7302431e+00   2.0734990e+00  -2.1393976e+07
   6.3321107e-10  -3.5146465e-03   2.7283580e+00   2.0755109e+00  -2.1265247e+07
   6.3421140e-10  -3.4934356e-03   2.7264843e+00   2.0775117e+00  -2.1137285e+07
   6.3521174e-10  -3.4723524e-03   2.7246220e+00   2.0795014e+00  -2.1010086e+07
   6.3621207e-10  -3.4513961e-03   2.7227709e+00   2.0814801e+00  -2.0883645e+07
   6.3721240e-10  -3.4305658e-03   2.7209310e+00   2.0834479e+00  -2.0757959e+07
   6.3821274e-10  -3.4098609e-03   2.7191022e+00   2.0854049e+00  -2.0633022e+07
   6.3921307e-10  -3.3892806e-03   2.7172845e+00   2.0873509e+00  -2.0508831e+07
   6.4021340e-10  -3.3688242e-03   2.7154779e+00   2.0892862e+00  -2.0385381e+07
   6.4121374e-10  -3.3484908e-03   2.7136822e+00   2.0912108e+00  -2.0262668e+07
   6.4221407e-10  -3.3282799e-03   2.7118973e+00   2.0931246e+00  -2.0140687e+07
   6.4321440e-10  -3.3081906e-03   2.7101233e+00   2.0950279e+00  -2.0019435e+07
   6.4421474e-10  -3.2882223e-03   2.7083600e+00   2.0969205e+00  -1.9898906e+07
   6.4521507e-10  -3.2683741e-03   2.7066074e+00   2.0988027e+00  -1.9779097e+07
   6.4621541e-10  -3.2486455e-03   2.7048654e+00   2.1006743e+00  -1.9660004e+07
   6.4721574e-10  -3.2290356e-03   2.7031340e+00   2.1025356e+00  -1.9541622e+07
   6.4821607e-10  -3.2095438e-03   2.7014130e+00   2.1043864e+00  -1.9423948e+07
   6.4921641e-10  -3.1901694e-03   2.6997026e+00   2.1062270e+00  -1.9306976e+07
   6.5021674e-10  -3.1709116e-03   2.6980024e+00   2.1080572e+00  -1.9190704e+07
   6.5121707e-10  -3.1517698e-03   2.6963126e+00   2.1098773e+00  -1.9075126e+07
   6.5221741e-10  -3.1327432e-03   2.6946331e+00   2.1116872e+00  -1.8960239e+07
   6.5321774e-10  -3.1138313e-03   2.6929637e+00   2.1134869e+00  -1.8846039e+07
   6.5421807e-10  -3.0950332e-03   2.6913044e+00   2.1152766e+00  -1.8732522e+07
   6.5521841e-10  -3.0763483e-03   2.6896552e+00   2.1170563e+00  -1.8619683e+07
   6.5621874e-10  -3.0577760e-03   2.6880160e+00   2.1188260e+00  -1.8507520e+07
   6.5721907e-10  -3.0393156e-03   2.6863868e+00   2.1205858e+00  -1.8396027e+07
   6.5821941e-10  -3.0209663e-03   2.6847675e+00   2.1223357e+00  -1.8285201e+07
   6.5921974e-10  -3.0027276e-03   2.6831579e+00   2.1240758e+00  -1.8175038e+07
   6.6022007e-10  -2.9845988e-03   2.6815582e+00   2.1258062e+00  -1.8065535e+07
   6.6122041e-10  -2.9665791e-03   2.6799681e+00   2.1275268e+00  -1.7956686e+07
   6.6222074e-10  -2.9486681e-03   2.6783877e+00   2.1292377e+00  -1.7848489e+07
   6.6322107e-10  -2.9308649e-03   2.6768169e+00   2.1309391e+00  -1.7740940e+07
   6.6422141e-10  -2.9131690e-03   2.6752557e+00   2.1326308e+00  -1.7634034e+07
   6.6522174e-10  -2.8955798e-03   2.6737039e+00   2.1343130e+00  -1.7527769e+07
   6.6622207e-10  -2.8780965e-03   2.6721615e+00   2.1359858e+00  -1.7422140e+07
   6.6722241e-10  -2.8607185e-03   2.6706285e+00   2.1376491e+00  -1.7317143e+07
   6.6822274e-10  -2.8434453e-03   2.6691048e+00   2.1393030e+00  -1.7212775e+07
   6.6922307e-10  -2.8262762e-03   2.6675904e+00   2.1409476e+00  -1.7109033e+07
   6.7022341e-10  -2.8092106e-03   2.6660851e+00   2.1425829e+00  -1.7005912e+07
   6.7122374e-10  -2.7922478e-03   2.6645890e+00   2.1442090e+00  -1.6903408e+07
   6.7222407e-10  -2.7753872e-03   2.6631020e+00   2.1458259e+00  -1.6801519e+07
   6.7322441e-10  -2.7586283e-03   2.6616241e+00   2.1474337e+00  -1.6700241e+07
   6.7422474e-10  -2.7419703e-03   2.6601551e+00   2.1490323e+00  -1.6599569e+07
   6.7522508e-10  -2.7254128e-03   2.6586950e+00   2.1506219e+00  -1.6499501e+07
   6.7622541e-10  -2.7089551e-03   2.6572438e+00   2.1522025e+00  -1.6400033e+07
   6.7722574e-10  -2.6925966e-03   2.6558014e+00   2.1537742e+00  -1.6301161e+07
   6.7822608e-10  -2.6763367e-03   2.6543678e+00   2.1553369e+00  -1.6202882e+07
   6.7922641e-10  -2.6601748e-03   2.6529429e+00   2.1568908e+00  -1.6105192e+07
   6.8022674e-10  -2.6441104e-03   2.6515267e+00   2.1584358e+00  -1.6008088e+07
   6.8122708e-10  -2.6281428e-03   2.6501190e+00   2.1599721e+00  -1.5911566e+07
   6.8222741e-10  -2.6122715e-03   2.6487199e+00   2.1614996e+00  -1.5815624e+07
   6.8322774e-10  -2.5964958e-03   2.6473294e+00   2.1630185e+00  -1.5720257e+07
   6.8422808e-10  -2.5808153e-03   2.6459472e+00   2.1645287e+00  -1.5625462e+07
   6.8522841e-10  -2.5652294e-03   2.6445735e+00   2.1660304e+00  -1.5531236e+07
   6.8622874e-10  -2.5497374e-03   2.6432081e+00   2.1675235e+00  -1.5437575e+07
   6.8722908e-10  -2.5343388e-03   2.6418511e+00   2.1690081e+00  -1.5344477e+07
   6.8822941e-10  -2.5190331e-03   2.6405023e+00   2.1704842e+00  -1.5251937e+07
   6.8922974e-10  -2.5038197e-03   2.6391616e+00   2.1719519e+00  -1.5159953e+07
   6.9023008e-10  -2.4886980e-03   2.6378292e+00   2.1734113e+00  -1.5068521e+07
   6.9123041e-10  -2.4736676e-03   2.6365048e+00   2.1748623e+00  -1.4977637e+07
   6.9223074e-10  -2.4587277e-03   2.6351885e+00   2.1763051e+00  -1.4887300e+07
   6.9323108e-10  -2.4438780e-03   2.6338802e+00   2.1777396e+00  -1.4797505e+07
   6.9423141e-10  -2.4291179e-03   2.6325798e+00   2.1791659e+00  -1.4708249e+07
   6.9523174e-10  -2.4144467e-03   2.6312874e+00   2.1805841e+00  -1.4619529e+07
   6.9623208e-10  -2.3998641e-03   2.6300028e+00   2.1819941e+00  -1.4531343e+07
   6.9723241e-10  -2.3853694e-03   2.6287260e+00   2.1833961e+00  -1.4443686e+07
   6.9823274e-10  -2.3709622e-03   2.6274570e+00   2.1847901e+00  -1.4356555e+07
   6.9923308e-10  -2.3566418e-03   2.6261958e+00   2.1861761e+00  -1.4269948e+07
   7.0023341e-10  -2.3424079e-03   2.6249421e+00   2.1875542e+00  -1.4183862e+07
   7.0123374e-10  -2.3282598e-03   2.6236962e+00   2.1889243e+00  -1.4098293e+07
   7.0223408e-10  -2.3141970e-03   2.6224577e+00   2.1902866e+00  -1.4013238e+07
   7.0323441e-10  -2.3002191e-03   2.6212269e+00   2.1916411e+00  -1.3928694e+07
   7.0423474e-10  -2.2863255e-03   2.6200035e+00   2.1929879e+00  -1.3844658e+07
   7.0523508e-10  -2.2725157e-03   2.6187875e+00   2.1943269e+00  -1.3761128e+07
   7.0623541e-10  -2.2587893e-03   2.6175790e+00   2.1956582e+00  -1.3678100e+07
   7.0723575e-10  -2.2451457e-03   2.6163778e+00   2.1969819e+00  -1.3595571e+07
   7.0823608e-10  -2.2315843e-03   2.6151839e+00   2.1982980e+00  -1.3513538e+07
   7.0923641e-10  -2.2181048e-03   2.6139973e+00   2.1996065e+00  -1.3431998e+07
   7.1023675e-10  -2.2047067e-03   2.6128179e+00   2.2009075e+00  -1.3350949e+07
   7.1123708e-10  -2.1913894e-03   2.6116456e+00   2.2022010e+00  -1.3270387e+07
   7.1223741e-10  -2.1781524e-03   2.6104806e+00   2.2034870e+00  -1.3190310e+07
   7.1323775e-10  -2.1649953e-03   2.6093225e+00   2.2047657e+00  -1.3110714e+07
   7.1423808e-10  -2.1519176e-03   2.6081716e+00   2.2060370e+00  -1.3031598e+07
   7.1523841e-10  -2.1389188e-03   2.6070276e+00   2.2073010e+00  -1.2952957e+07
   7.1623875e-10  -2.1259985e-03   2.6058906e+00   2.2085577e+00  -1.2874789e+07
   7.1723908e-10  -2.1131561e-03   2.6047605e+00   2.2098071e+00  -1.2797092e+07
   7.1823941e-10  -2.1003912e-03   2.6036373e+00   2.2110494e+00  -1.2719862e+07
   7.1923975e-10  -2.0877034e-03   2.6025210e+00   2.2122845e+00  -1.2643097e+07
   7.2024008e-10  -2.0750921e-03   2.6014114e+00   2.2135124e+00  -1.2566794e+07
   7.2124041e-10  -2.0625569e-03   2.6003086e+00   2.2147333e+00  -1.2490950e+07
   7.2224075e-10  -2.0500974e-03   2.5992125e+00   2.2159471e+00  -1.2415563e+07
   7.2324108e-10  -2.0377131e-03   2.5981230e+00   2.2171540e+00  -1.2340630e+07
   7.2424141e-10  -2.0254035e-03   2.5970402e+00   2.2183538e+00  -1.2266147e+07
   7.2524175e-10  -2.0131682e-03   2.5959640e+00   2.2195467e+00  -1.2192113e+07
   7.2624208e-10  -2.0010068e-03   2.5948943e+00   2.2207327e+00  -1.2118525e+07
   7.2724241e-10  -1.9889188e-03   2.5938312e+00   2.2219119e+00  -1.2045380e+07
   7.2824275e-10  -1.9769037e-03   2.5927745e+00   2.2230842e+00  -1.1972675e+07
   7.2924308e-10  -1.9649611e-03   2.5917242e+00   2.2242498e+00  -1.1900409e+07
   7.3024341e-10  -1.9530907e-03   2.5906803e+00   2.2254086e+00  -1.1828577e+07
   7.3124375e-10  -1.9412919e-03   2.5896428e+00   2.2265607e+00  -1.1757178e+07
   7.3224408e-10  -1.9295643e-03   2.5886116e+00   2.2277061e+00  -1.1686209e+07
   7.3324441e-10  -1.9179075e-03   2.5875867e+00   2.2288449e+00  -1.1615668e+07
   7.3424475e-10  -1.9063210e-03   2.5865680e+00   2.2299770e+00  -1.1545551e+07
   7.3524508e-10  -1.8948045e-03   2.5855555e+00   2.2311027e+00  -1.1475857e+07
   7.3624542e-10  -1.8833576e-03   2.5845492e+00   2.2322217e+00  -1.1406583e+07
   7.3724575e-10  -1.8719797e-03   2.5835490e+00   2.2333343e+00  -1.1337726e+07
   7.3824608e-10  -1.8606705e-03   2.5825548e+00   2.2344405e+00  -1.1269284e+07
   7.3924642e-10  -1.8494296e-03   2.5815668e+00   2.2355402e+00  -1.1201254e+07
   7.4024675e-10  -1.8382565e-03   2.5805847e+00   2.2366335e+00  -1.1133634e+07
   7.4124708e-10  -1.8271509e-03   2.5796086e+00   2.2377205e+00  -1.1066422e+07
   7.4224742e-10  -1.8161123e-03   2.5786385e+00   2.2388012e+00  -1.0999615e+07
   7.4324775e-10  -1.8051404e-03   2.5776743e+00   2.2398756e+00  -1.0933211e+07
   7.4424808e-10  -1.7942347e-03   2.5767159e+00   2.2409437e+00  -1.0867206e+07
   7.4524842e-10  -1.7833949e-03   2.5757634e+00   2.2420057e+00  -1.0801600e+07
   7.4624875e-10  -1.7726205e-03   2.5748166e+00   2.2430614e+00  -1.0736389e+07
   7.4724908e-10  -1.7619111e-03   2.5738757e+00   2.2441110e+00  -1.0671571e+07
   7.4824942e-10  -1.7512664e-03   2.5729404e+00   2.2451545e+00  -1.0607144e+07
   7.4924975e-10  -1.7406860e-03   2.5720108e+00   2.2461920e+00  -1.0543106e+07
   7.5025008e-10  -1.7301694e-03   2.5710869e+00   2.2472234e+00  -1.0479453e+07
   7.5125042e-10  -1.7197164e-03   2.5701687e+00   2.2482487e+00  -1.0416184e+07
   7.5225075e-10  -1.7093265e-03   2.5692560e+00   2.2492682e+00  -1.0353297e+07
   7.5325108e-10  -1.6989992e-03   2.5683488e+00   2.2502816e+00  -1.0290789e+07
   7.5425142e-10  -1.6887344e-03   2.5674472e+00   2.2512892e+00  -1.0228658e+07
   7.5525175e-10  -1.6785315e-03   2.5665511e+00   2.2522909e+00  -1.0166902e+07
   7.5625208e-10  -1.6683902e-03   2.5656604e+00   2.2532867e+00  -1.0105518e+07
   7.5725242e-10  -1.6583102e-03   2.5647752e+00   2.2542768e+00  -1.0044504e+07
   7.5825275e-10  -1.6482910e-03   2.5638953e+00   2.2552610e+00  -9.9838582e+06
   7.5925308e-10  -1.6383323e-03   2.5630208e+00   2.2562396e+00  -9.9235783e+06
   7.6025342e-10  -1.6284338e-03   2.5621516e+00   2.2572124e+00  -9.8636620e+06
   7.6125375e-10  -1.6185950e-03   2.5612877e+00   2.2581795e+00  -9.8041071e+06
   7.6225408e-10  -1.6088157e-03   2.5604290e+00   2.2591410e+00  -9.7449114e+06
   7.6325442e-10  -1.5990953e-03   2.5595756e+00   2.2600968e+00  -9.6860729e+06
   7.6425475e-10  -1.5894337e-03   2.5587274e+00   2.2610471e+00  -9.6275894e+06
   7.6525509e-10  -1.5798304e-03   2.5578843e+00   2.2619918e+00  -9.5694586e+06
   7.6625542e-10  -1.5702851e-03   2.5570464e+00   2.2629310e+00  -9.5116787e+06
   7.6725575e-10  -1.5607975e-03   2.5562135e+00   2.2638647e+00  -9.4542473e+06
   7.6825609e-10  -1.5513671e-03   2.5553857e+00   2.2647930e+00  -9.3971625e+06
   7.6925642e-10  -1.5419937e-03   2.5545630e+00   2.2657158e+00  -9.3404221e+06
   7.7025675e-10  -1.5326769e-03   2.5537453e+00   2.2666332e+00  -9.2840241e+06
   7.7125709e-10  -1.5234164e-03   2.5529325e+00   2.2675453e+00  -9.2279665e+06
   7.7225742e-10  -1.5142117e-03   2.5521247e+00   2.2684520e+00  -9.1722471e+06
   7.7325775e-10  -1.5050627e-03   2.5513218e+00   2.2693534e+00  -9.1168641e+06
   7.7425809e-10  -1.4959689e-03   2.5505238e+00   2.2702495e+00  -9.0618152e+06
   7.7525842e-10  -1.4869300e-03   2.5497306e+00   2.2711404e+00  -9.0070986e+06
   7.7625875e-10  -1.4779457e-03   2.5489423e+00   2.2720260e+00  -8.9527123e+06
   7.7725909e-10  -1.4690157e-03   2.5481588e+00   2.2729065e+00  -8.8986542e+06
   7.7825942e-10  -1.4601396e-03   2.5473800e+00   2.2737818e+00  -8.8449224e+06
   7.7925975e-10  -1.4513170e-03   2.5466060e+00   2.2746520e+00  -8.7915150e+06
   7.8026009e-10  -1.4425478e-03   2.5458366e+00   2.2755170e+00  -8.7384299e+06
   7.8126042e-10  -1.4338315e-03   2.5450720e+00   2.2763770e+00  -8.6856653e+06
   7.8226075e-10  -1.4251679e-03   2.5443120e+00   2.2772320e+00  -8.6332192e+06
   7.8326109e-10  -1.4165566e-03   2.5435566e+00   2.2780819e+00  -8.5810898e+06
   7.8426142e-10  -1.4079973e-03   2.5428058e+00   2.2789268e+00  -8.5292750e+06
   7.8526175e-10  -1.3994896e-03   2.5420596e+00   2.2797668e+00  -8.4777731e+06
   7.8626209e-10  -1.3910334e-03   2.5413180e+00   2.2806019e+00  -8.4265820e+06
   7.8726242e-10  -1.3826282e-03   2.5405808e+00   2.2814320e+00  -8.3757001e+06
   7.8826275e-10  -1.3742738e-03   2.5398481e+00   2.2822573e+00  -8.3251254e+06
   7.8926309e-10  -1.3659699e-03   2.5391199e+00   2.2830777e+00  -8.2748560e+06
   7.9026342e-10  -1.3577160e-03   2.5383961e+00   2.2838933e+00  -8.2248902e+06
   7.9126375e-10  -1.3495121e-03   2.5376767e+00   2.2847041e+00  -8.1752261e+06
   7.9226409e-10  -1.3413577e-03   2.5369617e+00   2.2855102e+00  -8.1258618e+06
   7.9326442e-10  -1.3332525e-03   2.5362511e+00   2.2863115e+00  -8.0767956e+06
   7.9426475e-10  -1.3251963e-03   2.5355447e+00   2.2871081e+00  -8.0280258e+06
   7.9526509e-10  -1.3171887e-03   2.5348427e+00   2.2879000e+00  -7.9795504e+06
   7.9626542e-10  -1.3092295e-03   2.5341449e+00   2.2886873e+00  -7.9313678e+06
   7.9726576e-10  -1.3013184e-03   2.5334513e+00   2.2894699e+00  -7.8834762e+06
   7.9826609e-10  -1.2934550e-03   2.5327620e+00   2.2902479e+00  -7.8358737e+06
   7.9926642e-10  -1.2856391e-03   2.5320769e+00   2.2910213e+00  -7.7885588e+06
   8.0026676e-10  -1.2778705e-03   2.5313959e+00   2.2917902e+00  -7.7415296e+06
   8.0126709e-10  -1.2701487e-03   2.5307191e+00   2.2925546e+00  -7.6947844e+06
   8.0226742e-10  -1.2624736e-03   2.5300464e+00   2.2933144e+00  -7.6483216e+06
   8.0326776e-10  -1.2548448e-03   2.5293778e+00   2.2940698e+00  -7.6021394e+06
   8.0426809e-10  -1.2472622e-03   2.5287133e+00   2.2948207e+00  -7.5562361e+06
   8.0526842e-10  -1.2397253e-03   2.5280528e+00   2.2955672e+00  -7.5106101e+06
   8.0626876e-10  -1.2322339e-03   2.5273963e+00   2.2963093e+00  -7.4652596e+06
   8.0726909e-10  -1.2247878e-03   2.5267438e+00   2.2970471e+00  -7.4201831e+06
   8.0826942e-10  -1.2173866e-03   2.5260952e+00   2.2977804e+00  -7.3753789e+06
   8.0926976e-10  -1.2100301e-03   2.5254506e+00   2.2985095e+00  -7.3308452e+06
   8.1027009e-10  -1.2027181e-03   2.5248100e+00   2.2992343e+00  -7.2865806e+06
   8.1127042e-10  -1.1954502e-03   2.5241732e+00   2.2999548e+00  -7.2425834e+06
   8.1227076e-10  -1.1882263e-03   2.5235403e+00   2.3006710e+00  -7.1988519e+06
   8.1327109e-10  -1.1810459e-03   2.5229112e+00   2.3013830e+00  -7.1553846e+06
   8.1427142e-10  -1.1739089e-03   2.5222860e+00   2.3020908e+00  -7.1121799e+06
   8.1527176e-10  -1.1668151e-03   2.5216646e+00   2.3027944e+00  -7.0692361e+06
   8.1627209e-10  -1.1597640e-03   2.5210469e+00   2.3034939e+00  -7.0265518e+06
   8.1727242e-10  -1.1527556e-03   2.5204330e+00   2.3041893e+00  -6.9841253e+06
   8.1827276e-10  -1.1457894e-03   2.5198228e+00   2.3048805e+00  -6.9419551e+06
   8.1927309e-10  -1.1388654e-03   2.5192164e+00   2.3055677e+00  -6.9000397e+06
   8.2027342e-10  -1.1319832e-03   2.5186136e+00   2.3062508e+00  -6.8583775e+06
   8.2127376e-10  -1.1251425e-03   2.5180145e+00   2.3069299e+00  -6.8169670e+06
   8.2227409e-10  -1.1183432e-03   2.5174190e+00   2.3076049e+00  -6.7758067e+06
   8.2327442e-10  -1.1115849e-03   2.5168271e+00   2.3082760e+00  -6.7348950e+06
   8.2427476e-10  -1.1048674e-03   2.5162389e+00   2.3089431e+00  -6.6942305e+06
   8.2527509e-10  -1.0981905e-03   2.5156542e+00   2.3096063e+00  -6.6538116e+06
   8.2627543e-10  -1.0915539e-03   2.5150731e+00   2.3102655e+00  -6.6136370e+06
   8.2727576e-10  -1.0849574e-03   2.5144955e+00   2.3109208e+00  -6.5737050e+06
   8.2827609e-10  -1.0784008e-03   2.5139214e+00   2.3115723e+00  -6.5340143e+06
   8.2927643e-10  -1.0718837e-03   2.5133508e+00   2.3122199e+00  -6.4945634e+06
   8.3027676e-10  -1.0654060e-03   2.5127837e+00   2.3128637e+00  -6.4553509e+06
   8.3127709e-10  -1.0589675e-03   2.5122200e+00   2.3135037e+00  -6.4163752e+06
   8.3227743e-10  -1.0525678e-03   2.5116597e+00   2.3141399e+00  -6.3776351e+06
   8.3327776e-10  -1.0462067e-03   2.5111029e+00   2.3147723e+00  -6.3391289e+06
   8.3427809e-10  -1.0398841e-03   2.5105494e+00   2.3154010e+00  -6.3008555e+06
   8.3527843e-10  -1.0335997e-03   2.5099993e+00   2.3160260e+00  -6.2628132e+06
   8.3627876e-10  -1.0273532e-03   2.5094525e+00   2.3166472e+00  -6.2250009e+06
   8.3727909e-10  -1.0211444e-03   2.5089090e+00   2.3172648e+00  -6.1874169e+06
   8.3827943e-10  -1.0149732e-03   2.5083689e+00   2.3178788e+00  -6.1500601e+06
   8.3927976e-10  -1.0088392e-03   2.5078320e+00   2.3184890e+00  -6.1129289e+06
   8.4028009e-10  -1.0027423e-03   2.5072984e+00   2.3190957e+00  -6.0760221e+06
   8.4128043e-10  -9.9668215e-04   2.5067681e+00   2.3196988e+00  -6.0393383e+06
   8.4228076e-10  -9.9065863e-04   2.5062409e+00   2.3202983e+00  -6.0028761e+06
   8.4328109e-10  -9.8467150e-04   2.5057170e+00   2.3208943e+00  -5.9666342e+06
   8.4428143e-10  -9.7872052e-04   2.5051962e+00   2.3214867e+00  -5.9306113e+06
   8.4528176e-10  -9.7280548e-04   2.5046786e+00   2.3220756e+00  -5.8948060e+06
   8.4628209e-10  -9.6692616e-04   2.5041642e+00   2.3226611e+00  -5.8592171e+06
   8.4728243e-10  -9.6108235e-04   2.5036529e+00   2.3232430e+00  -5.8238431e+06
   8.4828276e-10  -9.5527384e-04   2.5031447e+00   2.3238215e+00  -5.7886829e+06
   8.4928309e-10  -9.4950041e-04   2.5026395e+00   2.3243966e+00  -5.7537352e+06
   8.5028343e-10  -9.4376184e-04   2.5021375e+00   2.3249683e+00  -5.7189986e+06
   8.5128376e-10  -9.3805793e-04   2.5016384e+00   2.3255366e+00  -5.6844718e+06
   8.5228409e-10  -9.3238847e-04   2.5011425e+00   2.3261015e+00  -5.6501537e+06
   8.5328443e-10  -9.2675325e-04   2.5006495e+00   2.3266630e+00  -5.6160429e+06
   8.5428476e-10  -9.2115206e-04   2.5001595e+00   2.3272213e+00  -5.5821382e+06
   8.5528510e-10  -9.1558470e-04   2.4996725e+00   2.3277762e+00  -5.5484383e+06
   8.5628543e-10  -9.1005096e-04   2.4991884e+00   2.3283278e+00  -5.5149421e+06
   8.5728576e-10  -9.0455064e-04   2.4987073e+00   2.3288762e+00  -5.4816482e+06
   8.5828610e-10  -8.9908354e-04   2.4982292e+00   2.3294212e+00  -5.4485555e+06
   8.5928643e-10  -8.9364946e-04   2.4977539e+00   2.3299631e+00  -5.4156627e+06
   8.6028676e-10  -8.8824819e-04   2.4972815e+00   2.3305017e+00  -5.3829686e+06
   8.6128710e-10  -8.8287955e-04   2.4968119e+00   2.3310372e+00  -5.3504721e+06
   8.6228743e-10  -8.7754333e-04   2.4963453e+00   2.3315694e+00  -5.3181719e+06
   8.6328776e-10  -8.7223933e-04   2.4958814e+00   2.3320986e+00  -5.2860668e+06
   8.6428810e-10  -8.6696737e-04   2.4954204e+00   2.3326245e+00  -5.2541557e+06
   8.6528843e-10  -8.6172725e-04   2.4949622e+00   2.3331473e+00  -5.2224374e+06
   8.6628876e-10  -8.5651877e-04   2.4945067e+00   2.3336671e+00  -5.1909108e+06
   8.6728910e-10  -8.5134175e-04   2.4940540e+00   2.3341837e+00  -5.1595746e+06
   8.6828943e-10  -8.4619599e-04   2.4936041e+00   2.3346973e+00  -5.1284277e+06
   8.6928976e-10  -8.4108131e-04   2.4931569e+00   2.3352078e+00  -5.0974689e+06
   8.7029010e-10  -8.3599752e-04   2.4927124e+00   2.3357153e+00  -5.0666972e+06
   8.7129043e-10  -8.3094443e-04   2.4922706e+00   2.3362198e+00  -5.0361114e+06
   8.7229076e-10  -8.2592185e-04   2.4918315e+00   2.3367212e+00  -5.0057104e+06
   8.7329110e-10  -8.2092961e-04   2.4913950e+00   2.3372197e+00  -4.9754931e+06
   8.7429143e-10  -8.1596752e-04   2.4909612e+00   2.3377153e+00  -4.9454583e+06
   8.7529176e-10  -8.1103539e-04   2.4905301e+00   2.3382078e+00  -4.9156049e+06
   8.7629210e-10  -8.0613305e-04   2.4901015e+00   2.3386975e+00  -4.8859319e+06
   8.7729243e-10  -8.0126032e-04   2.4896756e+00   2.3391842e+00  -4.8564381e+06
   8.7829276e-10  -7.9641701e-04   2.4892522e+00   2.3396681e+00  -4.8271225e+06
   8.7929310e-10  -7.9160295e-04   2.4888314e+00   2.3401490e+00  -4.7979840e+06
   8.8029343e-10  -7.8681797e-04   2.4884132e+00   2.3406271e+00  -4.7690215e+06
   8.8129376e-10  -7.8206188e-04   2.4879975e+00   2.3411024e+00  -4.7402339e+06
   8.8229410e-10  -7.7733451e-04   2.4875843e+00   2.3415748e+00  -4.7116203e+06
   8.8329443e-10  -7.7263569e-04   2.4871736e+00   2.3420444e+00  -4.6831795e+06
   8.8429476e-10  -7.6796525e-04   2.4867655e+00   2.3425113e+00  -4.6549105e+06
   8.8529510e-10  -7.6332302e-04   2.4863598e+00   2.3429753e+00  -4.6268123e+06
   8.8629543e-10  -7.5870882e-04   2.4859565e+00   2.3434366e+00  -4.5988838e+06
   8.8729577e-10  -7.5412248e-04   2.4855557e+00   2.3438951e+00  -4.5711240e+06
   8.8829610e-10  -7.4956384e-04   2.4851574e+00   2.3443509e+00  -4.5435318e+06
   8.8929643e-10  -7.4503273e-04   2.4847614e+00   2.3448040e+00  -4.5161064e+06
   8.9029677e-10  -7.4052899e-04   2.4843679e+00   2.3452544e+00  -4.4888466e+06
   8.9129710e-10  -7.3605244e-04   2.4839767e+00   2.3457021e+00  -4.4617514e+06
   8.9229743e-10  -7.3160293e-04   2.4835879e+00   2.3461472e+00  -4.4348199e+06
   8.9329777e-10  -7.2718028e-04   2.4832015e+00   2.3465896e+00  -4.4080511e+06
   8.9429810e-10  -7.2278435e-04   2.4828174e+00   2.3470294e+00  -4.3814439e+06
   8.9529843e-10  -7.1841496e-04   2.4824357e+00   2.3474665e+00  -4.3549974e+06
   8.9629877e-10  -7.1407196e-04   2.4820563e+00   2.3479010e+00  -4.3287107e+06
   8.9729910e-10  -7.0975519e-04   2.4816791e+00   2.3483330e+00  -4.3025828e+06
   8.9829943e-10  -7.0546448e-04   2.4813043e+00   2.3487624e+00  -4.2766126e+06
   8.9929977e-10  -7.0119969e-04   2.4809317e+00   2.3491892e+00  -4.2507993e+06
   9.0030010e-10  -6.9696065e-04   2.4805614e+00   2.3496134e+00  -4.2251419e+06
   9.0130043e-10  -6.9274721e-04   2.4801933e+00   2.3500352e+00  -4.1996394e+06
   9.0230077e-10  -6.8855922e-04   2.4798275e+00   2.3504544e+00  -4.1742910e+06
   9.0330110e-10  -6.8439651e-04   2.4794639e+00   2.3508712e+00  -4.1490956e+06
   9.0430143e-10  -6.8025895e-04   2.4791025e+00   2.3512854e+00  -4.1240524e+06
   9.0530177e-10  -6.7614637e-04   2.4787433e+00   2.3516972e+00  -4.0991605e+06
   9.0630210e-10  -6.7205863e-04   2.4783862e+00   2.3521065e+00  -4.0744188e+06
   9.0730243e-10  -6.6799557e-04   2.4780314e+00   2.3525134e+00  -4.0498266e+06
   9.0830277e-10  -6.6395705e-04   2.4776786e+00   2.3529178e+00  -4.0253829e+06
   9.0930310e-10  -6.5994291e-04   2.4773281e+00   2.3533199e+00  -4.0010868e+06
   9.1030343e-10  -6.5595302e-04   2.4769796e+00   2.3537195e+00  -3.9769374e+06
   9.1130377e-10  -6.5198722e-04   2.4766333e+00   2.3541168e+00  -3.9529338e+06
   9.1230410e-10  -6.4804538e-04   2.4762890e+00   2.3545117e+00  -3.9290752e+06
   9.1330443e-10  -6.4412733e-04   2.4759469e+00   2.3549042e+00  -3.9053607e+06
   9.1430477e-10  -6.4023295e-04   2.4756068e+00   2.3552944e+00  -3.8817893e+06
   9.1530510e-10  -6.3636208e-04   2.4752688e+00   2.3556822e+00  -3.8583603e+06
   9.1630544e-10  -6.3251459e-04   2.4749328e+00   2.3560678e+00  -3.8350727e+06
   9.1730577e-10  -6.2869034e-04   2.4745989e+00   2.3564510e+00  -3.8119258e+06
   9.1830610e-10  -6.2488917e-04   2.4742670e+00   2.3568320e+00  -3.7889186e+06
   9.1930644e-10  -6.2111097e-04   2.4739371e+00   2.3572107e+00  -3.7660503e+06
   9.2030677e-10  -6.1735558e-04   2.4736092e+00   2.3575871e+00  -3.7433201e+06
   9.2130710e-10  -6.1362287e-04   2.4732833e+00   2.3579613e+00  -3.7207272e+06
   9.2230744e-10  -6.0991269e-04   2.4729593e+00   2.3583332e+00  -3.6982706e+06
   9.2330777e-10  -6.0622493e-04   2.4726374e+00   2.3587030e+00  -3.6759496e+06
   9.2430810e-10  -6.0255943e-04   2.4723174e+00   2.3590705e+00  -3.6537634e+06
   9.2530844e-10  -5.9891607e-04   2.4719993e+00   2.3594358e+00  -3.6317112e+06
   9.2630877e-10  -5.9529471e-04   2.4716831e+00   2.3597989e+00  -3.6097920e+06
   9.2730910e-10  -5.9169523e-04   2.4713689e+00   2.3601599e+00  -3.5880052e+06
   9.2830944e-10  -5.8811747e-04   2.4710566e+00   2.3605187e+00  -3.5663499e+06
   9.2930977e-10  -5.8456133e-04   2.4707462e+00   2.3608754e+00  -3.5448254e+06
   9.3031010e-10  -5.8102665e-04   2.4704376e+00   2.3612299e+00  -3.5234308e+06
   9.3131044e-10  -5.7751333e-04   2.4701309e+00   2.3615824e+00  -3.5021654e+06
   9.3231077e-10  -5.7402122e-04   2.4698261e+00   2.3619327e+00  -3.4810283e+06
   9.3331110e-10  -5.7055020e-04   2.4695231e+00   2.3622809e+00  -3.4600188e+06
   9.3431144e-10  -5.6710014e-04   2.4692220e+00   2.3626270e+00  -3.4391361e+06
   9.3531177e-10  -5.6367091e-04   2.4689227e+00   2.3629711e+00  -3.4183795e+06
   9.3631210e-10  -5.6026240e-04   2.4686252e+00   2.3633131e+00  -3.3977482e+06
   9.3731244e-10  -5.5687446e-04   2.4683295e+00   2.3636531e+00  -3.3772415e+06
   9.3831277e-10  -5.5350699e-04   2.4680356e+00   2.3639911e+00  -3.3568585e+06
   9.3931310e-10  -5.5015985e-04   2.4677435e+00   2.3643270e+00  -3.3365985e+06
   9.4031344e-10  -5.4683293e-04   2.4674531e+00   2.3646609e+00  -3.3164609e+06
   9.4131377e-10  -5.4352609e-04   2.4671645e+00   2.3649928e+00  -3.2964447e+06
   9.4231410e-10  -5.4023923e-04   2.4668777e+00   2.3653228e+00  -3.2765494e+06
   9.4331444e-10  -5.3697222e-04   2.4665926e+00   2.3656507e+00  -3.2567742e+06
   9.4431477e-10  -5.3372493e-04   2.4663092e+00   2.3659767e+00  -3.2371183e+06
   9.4531511e-10  -5.3049726e-04   2.4660276e+00   2.3663008e+00  -3.2175811e+06
   9.4631544e-10  -5.2728907e-04   2.4657476e+00   2.3666229e+00  -3.1981618e+06
   9.4731577e-10  -5.2410027e-04   2.4654694e+00   2.3669431e+00  -3.1788596e+06
   9.4831611e-10  -5.2093071e-04   2.4651928e+00   2.3672613e+00  -3.1596740e+06
   9.4931644e-10  -5.1778030e-04   2.4649179e+00   2.3675777e+00  -3.1406041e+06
   9.5031677e-10  -5.1464892e-04   2.4646447e+00   2.3678922e+00  -3.1216494e+06
   9.5131711e-10  -5.1153644e-04   2.4643731e+00   2.3682048e+00  -3.1028090e+06
   9.5231744e-10  -5.0844277e-04   2.4641032e+00   2.3685155e+00  -3.0840823e+06
   9.5331777e-10  -5.0536777e-04   2.4638349e+00   2.3688244e+00  -3.0654687e+06
   9.5431811e-10  -5.0231135e-04   2.4635682e+00   2.3691314e+00  -3.0469673e+06
   9.5531844e-10  -4.9927338e-04   2.4633032e+00   2.3694366e+00  -3.0285777e+06
   9.5631877e-10  -4.9625376e-04   2.4630398e+00   2.3697399e+00  -3.0102989e+06
   9.5731911e-10  -4.9325237e-04   2.4627779e+00   2.3700415e+00  -2.9921305e+06
   9.5831944e-10  -4.9026911e-04   2.4625177e+00   2.3703412e+00  -2.9740717e+06
   9.5931977e-10  -4.8730387e-04   2.4622590e+00   2.3706391e+00  -2.9561219e+06
   9.6032011e-10  -4.8435653e-04   2.4620019e+00   2.3709353e+00  -2.9382804e+06
   9.6132044e-10  -4.8142700e-04   2.4617463e+00   2.3712297e+00  -2.9205466e+06
   9.6232077e-10  -4.7851515e-04   2.4614923e+00   2.3715223e+00  -2.9029197e+06
   9.6332111e-10  -4.7562089e-04   2.4612398e+00   2.3718132e+00  -2.8853992e+06
   9.6432144e-10  -4.7274411e-04   2.4609889e+00   2.3721023e+00  -2.8679844e+06
   9.6532177e-10  -4.6988471e-04   2.4607395e+00   2.3723897e+00  -2.8506747e+06
   9.6632211e-10  -4.6704257e-04   2.4604916e+00   2.3726754e+00  -2.8334695e+06
   9.6732244e-10  -4.6421759e-04   2.4602451e+00   2.3729594e+00  -2.8163680e+06
   9.6832277e-10  -4.6140968e-04   2.4600002e+00   2.3732416e+00  -2.7993697e+06
   9.6932311e-10  -4.5861873e-04   2.4597568e+00   2.3735222e+00  -2.7824740e+06
   9.7032344e-10  -4.5584463e-04   2.4595148e+00   2.3738011e+00  -2.7656802e+06
   9.7132377e-10  -4.5308728e-04   2.4592744e+00   2.3740783e+00  -2.7489878e+06
   9.7232411e-10  -4.5034659e-04   2.4590353e+00   2.3743539e+00  -2.7323960e+06
   9.7332444e-10  -4.4762245e-04   2.4587977e+00   2.3746278e+00  -2.7159043e+06
   9.7432477e-10  -4.4491476e-04   2.4585616e+00   2.3749001e+00  -2.6995122e+06
   9.7532511e-10  -4.4222342e-04   2.4583269e+00   2.3751707e+00  -2.6832189e+06
   9.7632544e-10  -4.3954834e-04   2.4580936e+00   2.3754397e+00  -2.6670239e+06
   9.7732578e-10  -4.3688941e-04   2.4578617e+00   2.3757072e+00  -2.6509266e+06
   9.7832611e-10  -4.3424654e-04   2.4576312e+00   2.3759730e+00  -2.6349264e+06
   9.7932644e-10  -4.3161964e-04   2.4574022e+00   2.3762372e+00  -2.6190227e+06
   9.8032678e-10  -4.2900859e-04   2.4571745e+00   2.3764998e+00  -2.6032150e+06
   9.8132711e-10  -4.2641332e-04   2.4569481e+00   2.3767609e+00  -2.5875026e+06
   9.8232744e-10  -4.2383372e-04   2.4567232e+00   2.3770204e+00  -2.5718850e+06
   9.8332778e-10  -4.2126971e-04   2.4564996e+00   2.3772783e+00  -2.5563616e+06
   9.8432811e-10  -4.1872117e-04   2.4562774e+00   2.3775347e+00  -2.5409318e+06
   9.8532844e-10  -4.1618803e-04   2.4560565e+00   2.3777896e+00  -2.5255952e+06
   9.8632878e-10  -4.1367019e-04   2.4558370e+00   2.3780429e+00  -2.5103510e+06
   9.8732911e-10  -4.1116756e-04   2.4556188e+00   2.3782947e+00  -2.4951988e+06
   9.8832944e-10  -4.0868004e-04   2.4554019e+00   2.3785450e+00  -2.4801379e+06
   9.8932978e-10  -4.0620755e-04   2.4551863e+00   2.3787938e+00  -2.4651679e+06
   9.9033011e-10  -4.0374998e-04   2.4549720e+00   2.3790411e+00  -2.4502882e+06
   9.9133044e-10  -4.0130726e-04   2.4547591e+00   2.3792869e+00  -2.4354983e+06
   9.9233078e-10  -3.9887930e-04   2.4545474e+00   2.3795313e+00  -2.4207975e+06
   9.9333111e-10  -3.9646600e-04   2.4543370e+00   2.3797742e+00  -2.4061854e+06
   9.9433144e-10  -3.9406728e-04   2.4541278e+00   2.3800156e+00  -2.3916614e+06
   9.9533178e-10  -3.9168304e-04   2.4539200e+00   2.3802556e+00  -2.3772251e+06
   9.9633211e-10  -3.8931320e-04   2.4537134e+00   2.3804941e+00  -2.3628758e+06
   9.9733244e-10  -3.8695768e-04   2.4535080e+00   2.3807312e+00  -2.3486130e+06
   9.9833278e-10  -3.8461639e-04   2.4533039e+00   2.3809669e+00  -2.3344363e+06
   9.9933311e-10  -3.8228923e-04   2.4531010e+00   2.3812012e+00  -2.3203450e+06
   1.0003334e-09  -3.7997614e-04   2.4528994e+00   2.3814341e+00  -2.3063388e+06
   1.0013338e-09  -3.7767701e-04   2.4526990e+00   2.3816656e+00  -2.2924170e+06
   1.0023341e-09  -3.7539177e-04   2.4524998e+00   2.3818957e+00  -2.2785791e+06
   1.0033344e-09  -3.7312033e-04   2.4523018e+00   2.3821244e+00  -2.2648247e+06
   1.0043348e-09  -3.7086262e-04   2.4521050e+00   2.3823517e+00  -2.2511533e+06
   1.0053351e-09  -3.6861854e-04   2.4519094e+00   2.3825777e+00  -2.2375643e+06
   1.0063354e-09  -3.6638802e-04   2.4517149e+00   2.3828023e+00  -2.2240572e+06
   1.0073358e-09  -3.6417096e-04   2.4515217e+00   2.3830255e+00  -2.2106316e+06
   1.0083361e-09  -3.6196731e-04   2.4513296e+00   2.3832475e+00  -2.1972870e+06
   1.0093364e-09  -3.5977696e-04   2.4511387e+00   2.3834681e+00  -2.1840228e+06
   1.0103368e-09  -3.5759984e-04   2.4509489e+00   2.3836873e+00  -2.1708386e+06
   1.0113371e-09  -3.5543587e-04   2.4507603e+00   2.3839053e+00  -2.1577340e+06
   1.0123374e-09  -3.5328498e-04   2.4505729e+00   2.3841219e+00  -2.1447083e+06
   1.0133378e-09  -3.5114707e-04   2.4503865e+00   2.3843373e+00  -2.1317612e+06
   1.0143381e-09  -3.4902208e-04   2.4502013e+00   2.3845513e+00  -2.1188921e+06
   1.0153384e-09  -3.4690993e-04   2.4500172e+00   2.3847641e+00  -2.1061007e+06
   1.0163388e-09  -3.4481053e-04   2.4498343e+00   2.3849756e+00  -2.0933863e+06
   1.0173391e-09  -3.4272382e-04   2.4496524e+00   2.3851858e+00  -2.0807487e+06
   1.0183394e-09  -3.4064971e-04   2.4494716e+00   2.3853948e+00  -2.0681872e+06
   1.0193398e-09  -3.3858814e-04   2.4492920e+00   2.3856025e+00  -2.0557015e+06
   1.0203401e-09  -3.3653901e-04   2.4491134e+00   2.3858090e+00  -2.0432910e+06
   1.0213404e-09  -3.3450226e-04   2.4489359e+00   2.3860142e+00  -2.0309554e+06
   1.0223408e-09  -3.3247782e-04   2.4487595e+00   2.3862182e+00  -2.0186942e+06
   1.0233411e-09  -3.3046561e-04   2.4485841e+00   2.3864209e+00  -2.0065069e+06
   1.0243414e-09  -3.2846555e-04   2.4484098e+00   2.3866225e+00  -1.9943930e+06
   1.0253418e-09  -3.2647757e-04   2.4482366e+00   2.3868228e+00  -1.9823523e+06
   1.0263421e-09  -3.2450161e-04   2.4480644e+00   2.3870220e+00  -1.9703841e+06
   1.0273424e-09  -3.2253758e-04   2.4478933e+00   2.3872199e+00  -1.9584880e+06
   1.0283428e-09  -3.2058541e-04   2.4477232e+00   2.3874166e+00  -1.9466637e+06
   1.0293431e-09  -3.1864504e-04   2.4475541e+00   2.3876122e+00  -1.9349107e+06
   1.0303434e-09  -3.1671639e-04   2.4473860e+00   2.3878066e+00  -1.9232285e+06
   1.0313438e-09  -3.1479939e-04   2.4472190e+00   2.3879998e+00  -1.9116168e+06
   1.0323441e-09  -3.1289398e-04   2.4470530e+00   2.3881919e+00  -1.9000750e+06
   1.0333444e-09  -3.1100007e-04   2.4468879e+00   2.3883828e+00  -1.8886029e+06
   1.0343448e-09  -3.0911761e-04   2.4467239e+00   2.3885726e+00  -1.8771999e+06
   1.0353451e-09  -3.0724652e-04   2.4465609e+00   2.3887612e+00  -1.8658657e+06
   1.0363454e-09  -3.0538673e-04   2.4463988e+00   2.3889487e+00  -1.8545998e+06
   1.0373458e-09  -3.0353818e-04   2.4462378e+00   2.3891350e+00  -1.8434018e+06
   1.0383461e-09  -3.0170080e-04   2.4460777e+00   2.3893203e+00  -1.8322713e+06
   1.0393464e-09  -2.9987451e-04   2.4459186e+00   2.3895044e+00  -1.8212079e+06
   1.0403468e-09  -2.9805927e-04   2.4457604e+00   2.3896874e+00  -1.8102113e+06
   1.0413471e-09  -2.9625499e-04   2.4456032e+00   2.3898693e+00  -1.7992809e+06
   1.0423474e-09  -2.9446161e-04   2.4454470e+00   2.3900502e+00  -1.7884164e+06
   1.0433478e-09  -2.9267906e-04   2.4452917e+00   2.3902299e+00  -1.7776174e+06
   1.0443481e-09  -2.9090729e-04   2.4451373e+00   2.3904086e+00  -1.7668835e+06
   1.0453484e-09  -2.8914622e-04   2.4449839e+00   2.3905862e+00  -1.7562143e+06
   1.0463488e-09  -2.8739579e-04   2.4448314e+00   2.3907627e+00  -1.7456094e+06
   1.0473491e-09  -2.8565593e-04   2.4446798e+00   2.3909382e+00  -1.7350685e+06
   1.0483494e-09  -2.8392659e-04   2.4445292e+00   2.3911126e+00  -1.7245911e+06
   1.0493498e-09  -2.8220770e-04   2.4443795e+00   2.3912859e+00  -1.7141769e+06
   1.0503501e-09  -2.8049919e-04   2.4442306e+00   2.3914582e+00  -1.7038254e+06
   1.0513505e-09  -2.7880101e-04   2.4440827e+00   2.3916295e+00  -1.6935364e+06
   1.0523508e-09  -2.7711308e-04   2.4439356e+00   2.3917998e+00  -1.6833094e+06
   1.0533511e-09  -2.7543536e-04   2.4437895e+00   2.3919690e+00  -1.6731440e+06
   1.0543515e-09  -2.7376777e-04   2.4436442e+00   2.3921372e+00  -1.6630399e+06
   1.0553518e-09  -2.7211026e-04   2.4434999e+00   2.3923044e+00  -1.6529967e+06
   1.0563521e-09  -2.7046277e-04   2.4433563e+00   2.3924706e+00  -1.6430140e+06
   1.0573525e-09  -2.6882523e-04   2.4432137e+00   2.3926358e+00  -1.6330916e+06
   1.0583528e-09  -2.6719758e-04   2.4430719e+00   2.3928000e+00  -1.6232289e+06
   1.0593531e-09  -2.6557978e-04   2.4429310e+00   2.3929632e+00  -1.6134257e+06
   1.0603535e-09  -2.6397174e-04   2.4427909e+00   2.3931254e+00  -1.6036816e+06
   1.0613538e-09  -2.6237343e-04   2.4426517e+00   2.3932867e+00  -1.5939962e+06
   1.0623541e-09  -2.6078477e-04   2.4425133e+00   2.3934470e+00  -1.5843693e+06
   1.0633545e-09  -2.5920571e-04   2.4423758e+00   2.3936063e+00  -1.5748003e+06
   1.0643548e-09  -2.5763619e-04   2.4422391e+00   2.3937646e+00  -1.5652890e+06
   1.0653551e-09  -2.5607616e-04   2.4421032e+00   2.3939221e+00  -1.5558351e+06
   1.0663555e-09  -2.5452556e-04   2.4419682e+00   2.3940785e+00  -1.5464381e+06
   1.0673558e-09  -2.5298432e-04   2.4418339e+00   2.3942340e+00  -1.5370978e+06
   1.0683561e-09  -2.5145240e-04   2.4417005e+00   2.3943886e+00  -1.5278138e+06
   1.0693565e-09  -2.4992974e-04   2.4415679e+00   2.3945423e+00  -1.5185858e+06
   1.0703568e-09  -2.4841628e-04   2.4414361e+00   2.3946950e+00  -1.5094134e+06
   1.0713571e-09  -2.4691197e-04   2.4413051e+00   2.3948468e+00  -1.5002962e+06
   1.0723575e-09  -2.4541674e-04   2.4411748e+00   2.3949977e+00  -1.4912341e+06
   1.0733578e-09  -2.4393056e-04   2.4410454e+00   2.3951477e+00  -1.4822265e+06
   1.0743581e-09  -2.4245335e-04   2.4409168e+00   2.3952968e+00  -1.4732733e+06
   1.0753585e-09  -2.4098507e-04   2.4407889e+00   2.3954450e+00  -1.4643740e+06
   1.0763588e-09  -2.3952567e-04   2.4406618e+00   2.3955923e+00  -1.4555284e+06
   1.0773591e-09  -2.3807509e-04   2.4405355e+00   2.3957387e+00  -1.4467361e+06
   1.0783595e-09  -2.3663327e-04   2.4404099e+00   2.3958843e+00  -1.4379968e+06
   1.0793598e-09  -2.3520017e-04   2.4402851e+00   2.3960289e+00  -1.4293101e+06
   1.0803601e-09  -2.3377573e-04   2.4401610e+00   2.3961727e+00  -1.4206759e+06
   1.0813605e-09  -2.3235990e-04   2.4400378e+00   2.3963156e+00  -1.4120937e+06
   1.0823608e-09  -2.3095262e-04   2.4399152e+00   2.3964577e+00  -1.4035632e+06
   1.0833611e-09  -2.2955385e-04   2.4397934e+00   2.3965989e+00  -1.3950841e+06
   1.0843615e-09  -2.2816354e-04   2.4396723e+00   2.3967392e+00  -1.3866562e+06
   1.0853618e-09  -2.2678163e-04   2.4395520e+00   2.3968787e+00  -1.3782790e+06
   1.0863621e-09  -2.2540807e-04   2.4394324e+00   2.3970174e+00  -1.3699523e+06
   1.0873625e-09  -2.2404281e-04   2.4393135e+00   2.3971553e+00  -1.3616759e+06
   1.0883628e-09  -2.2268581e-04   2.4391953e+00   2.3972923e+00  -1.3534493e+06
   1.0893631e-09  -2.2133701e-04   2.4390779e+00   2.3974284e+00  -1.3452723e+06
   1.0903635e-09  -2.1999636e-04   2.4389611e+00   2.3975638e+00  -1.3371447e+06
   1.0913638e-09  -2.1866382e-04   2.4388451e+00   2.3976984e+00  -1.3290660e+06
   1.0923641e-09  -2.1733933e-04   2.4387298e+00   2.3978321e+00  -1.3210360e+06
   1.0933645e-09  -2.1602284e-04   2.4386151e+00   2.3979650e+00  -1.3130544e+06
   1.0943648e-09  -2.1471432e-04   2.4385012e+00   2.3980972e+00  -1.3051209e+06
   1.0953651e-09  -2.1341370e-04   2.4383880e+00   2.3982285e+00  -1.2972352e+06
   1.0963655e-09  -2.1212094e-04   2.4382754e+00   2.3983590e+00  -1.2893971e+06
   1.0973658e-09  -2.1083601e-04   2.4381635e+00   2.3984888e+00  -1.2816063e+06
   1.0983661e-09  -2.0955883e-04   2.4380523e+00   2.3986178e+00  -1.2738624e+06
   1.0993665e-09  -2.0828938e-04   2.4379418e+00   2.3987460e+00  -1.2661651e+06
   1.1003668e-09  -2.0702760e-04   2.4378319e+00   2.3988734e+00  -1.2585143e+06
   1.1013671e-09  -2.0577346e-04   2.4377227e+00   2.3990001e+00  -1.2509096e+06
   1.1023675e-09  -2.0452689e-04   2.4376142e+00   2.3991260e+00  -1.2433508e+06
   1.1033678e-09  -2.0328786e-04   2.4375063e+00   2.3992511e+00  -1.2358375e+06
   1.1043681e-09  -2.0205631e-04   2.4373991e+00   2.3993755e+00  -1.2283695e+06
   1.1053685e-09  -2.0083222e-04   2.4372925e+00   2.3994991e+00  -1.2209465e+06
   1.1063688e-09  -1.9961552e-04   2.4371866e+00   2.3996220e+00  -1.2135683e+06
   1.1073691e-09  -1.9840618e-04   2.4370813e+00   2.3997442e+00  -1.2062345e+06
   1.1083695e-09  -1.9720416e-04   2.4369766e+00   2.3998656e+00  -1.1989450e+06
   1.1093698e-09  -1.9600939e-04   2.4368726e+00   2.3999863e+00  -1.1916994e+06
   1.1103701e-09  -1.9482186e-04   2.4367692e+00   2.4001062e+00  -1.1844975e+06
   1.1113705e-09  -1.9364150e-04   2.4366665e+00   2.4002254e+00  -1.1773390e+06
   1.1123708e-09  -1.9246828e-04   2.4365643e+00   2.4003440e+00  -1.1702236e+06
   1.1133711e-09  -1.9130215e-04   2.4364628e+00   2.4004618e+00  -1.1631512e+06
   1.1143715e-09  -1.9014307e-04   2.4363619e+00   2.4005789e+00  -1.1561214e+06
   1.1153718e-09  -1.8899100e-04   2.4362616e+00   2.4006952e+00  -1.1491339e+06
   1.1163721e-09  -1.8784590e-04   2.4361619e+00   2.4008109e+00  -1.1421886e+06
   1.1173725e-09  -1.8670772e-04   2.4360628e+00   2.4009259e+00  -1.1352852e+06
   1.1183728e-09  -1.8557642e-04   2.4359644e+00   2.4010402e+00  -1.1284234e+06
   1.1193731e-09  -1.8445197e-04   2.4358665e+00   2.4011538e+00  -1.1216029e+06
   1.1203735e-09  -1.8333431e-04   2.4357692e+00   2.4012667e+00  -1.1148236e+06
   1.1213738e-09  -1.8222341e-04   2.4356725e+00   2.4013790e+00  -1.1080852e+06
   1.1223741e-09  -1.8111923e-04   2.4355763e+00   2.4014905e+00  -1.1013873e+06
   1.1233745e-09  -1.8002172e-04   2.4354808e+00   2.4016014e+00  -1.0947299e+06
   1.1243748e-09  -1.7893085e-04   2.4353858e+00   2.4017117e+00  -1.0881126e+06
   1.1253751e-09  -1.7784658e-04   2.4352915e+00   2.4018212e+00  -1.0815352e+06
   1.1263755e-09  -1.7676886e-04   2.4351976e+00   2.4019301e+00  -1.0749974e+06
   1.1273758e-09  -1.7569766e-04   2.4351044e+00   2.4020384e+00  -1.0684991e+06
   1.1283761e-09  -1.7463294e-04   2.4350117e+00   2.4021459e+00  -1.0620399e+06
   1.1293765e-09  -1.7357466e-04   2.4349196e+00   2.4022529e+00  -1.0556197e+06
   1.1303768e-09  -1.7252278e-04   2.4348280e+00   2.4023592e+00  -1.0492382e+06
   1.1313771e-09  -1.7147726e-04   2.4347370e+00   2.4024648e+00  -1.0428952e+06
   1.1323775e-09  -1.7043806e-04   2.4346466e+00   2.4025699e+00  -1.0365904e+06
   1.1333778e-09  -1.6940514e-04   2.4345566e+00   2.4026742e+00  -1.0303236e+06
   1.1343781e-09  -1.6837848e-04   2.4344673e+00   2.4027780e+00  -1.0240947e+06
   1.1353785e-09  -1.6735802e-04   2.4343785e+00   2.4028811e+00  -1.0179032e+06
   1.1363788e-09  -1.6634373e-04   2.4342902e+00   2.4029836e+00  -1.0117491e+06
   1.1373791e-09  -1.6533558e-04   2.4342024e+00   2.4030855e+00  -1.0056322e+06
   1.1383795e-09  -1.6433352e-04   2.4341152e+00   2.4031868e+00  -9.9955206e+05
   1.1393798e-09  -1.6333753e-04   2.4340285e+00   2.4032875e+00  -9.9350862e+05
   1.1403801e-09  -1.6234756e-04   2.4339423e+00   2.4033875e+00  -9.8750163e+05
   1.1413805e-09  -1.6136358e-04   2.4338567e+00   2.4034870e+00  -9.8153085e+05
   1.1423808e-09  -1.6038554e-04   2.4337716e+00   2.4035858e+00  -9.7559608e+05
   1.1433811e-09  -1.5941343e-04   2.4336870e+00   2.4036841e+00  -9.6969710e+05
   1.1443815e-09  -1.5844719e-04   2.4336029e+00   2.4037818e+00  -9.6383369e+05
   1.1453818e-09  -1.5748680e-04   2.4335193e+00   2.4038788e+00  -9.5800564e+05
   1.1463821e-09  -1.5653222e-04   2.4334362e+00   2.4039753e+00  -9.5221273e+05
   1.1473825e-09  -1.5558341e-04   2.4333536e+00   2.4040712e+00  -9.4645475e+05
   1.1483828e-09  -1.5464034e-04   2.4332715e+00   2.4041666e+00  -9.4073150e+05
   1.1493831e-09  -1.5370297e-04   2.4331899e+00   2.4042613e+00  -9.3504276e+05
   1.1503835e-09  -1.5277128e-04   2.4331089e+00   2.4043555e+00  -9.2938833e+05
   1.1513838e-09  -1.5184522e-04   2.4330283e+00   2.4044491e+00  -9.2376800e+05
   1.1523841e-09  -1.5092476e-04   2.4329481e+00   2.4045422e+00  -9.1818156e+05
   1.1533845e-09  -1.5000987e-04   2.4328685e+00   2.4046347e+00  -9.1262881e+05
   1.1543848e-09  -1.4910052e-04   2.4327894e+00   2.4047266e+00  -9.0710955e+05
   1.1553851e-09  -1.4819666e-04   2.4327107e+00   2.4048180e+00  -9.0162358e+05
   1.1563855e-09  -1.4729828e-04   2.4326325e+00   2.4049088e+00  -8.9617069e+05
   1.1573858e-09  -1.4640533e-04   2.4325548e+00   2.4049991e+00  -8.9075069e+05
   1.1583861e-09  -1.4551778e-04   2.4324776e+00   2.4050888e+00  -8.8536338e+05
   1.1593865e-09  -1.4463560e-04   2.4324008e+00   2.4051780e+00  -8.8000856e+05
   1.1603868e-09  -1.4375875e-04   2.4323245e+00   2.4052667e+00  -8.7468603e+05
   1.1613871e-09  -1.4288722e-04   2.4322486e+00   2.4053548e+00  -8.6939561e+05
   1.1623875e-09  -1.4202095e-04   2.4321732e+00   2.4054424e+00  -8.6413710e+05
   1.1633878e-09  -1.4115992e-04   2.4320983e+00   2.4055294e+00  -8.5891030e+05
   1.1643881e-09  -1.4030411e-04   2.4320238e+00   2.4056159e+00  -8.5371503e+05
   1.1653885e-09  -1.3945347e-04   2.4319498e+00   2.4057020e+00  -8.4855109e+05
   1.1663888e-09  -1.3860798e-04   2.4318762e+00   2.4057874e+00  -8.4341830e+05
   1.1673891e-09  -1.3776761e-04   2.4318031e+00   2.4058724e+00  -8.3831648e+05
   1.1683895e-09  -1.3693231e-04   2.4317304e+00   2.4059569e+00  -8.3324542e+05
   1.1693898e-09  -1.3610208e-04   2.4316582e+00   2.4060408e+00  -8.2820496e+05
   1.1703901e-09  -1.3527686e-04   2.4315863e+00   2.4061243e+00  -8.2319489e+05
   1.1713905e-09  -1.3445664e-04   2.4315150e+00   2.4062072e+00  -8.1821505e+05
   1.1723908e-09  -1.3364139e-04   2.4314440e+00   2.4062897e+00  -8.1326525e+05
   1.1733911e-09  -1.3283106e-04   2.4313735e+00   2.4063716e+00  -8.0834531e+05
   1.1743915e-09  -1.3202564e-04   2.4313034e+00   2.4064531e+00  -8.0345505e+05
   1.1753918e-09  -1.3122509e-04   2.4312337e+00   2.4065340e+00  -7.9859428e+05
   1.1763921e-09  -1.3042939e-04   2.4311645e+00   2.4066145e+00  -7.9376284e+05
   1.1773925e-09  -1.2963850e-04   2.4310957e+00   2.4066945e+00  -7.8896055e+05
   1.1783928e-09  -1.2885240e-04   2.4310273e+00   2.4067740e+00  -7.8418723e+05
   1.1793931e-09  -1.2807105e-04   2.4309593e+00   2.4068530e+00  -7.7944270e+05
   1.1803935e-09  -1.2729443e-04   2.4308917e+00   2.4069315e+00  -7.7472680e+05
   1.1813938e-09  -1.2652252e-04   2.4308245e+00   2.4070096e+00  -7.7003935e+05
   1.1823941e-09  -1.2575527e-04   2.4307578e+00   2.4070872e+00  -7.6538018e+05
   1.1833945e-09  -1.2499267e-04   2.4306914e+00   2.4071643e+00  -7.6074911e+05
   1.1843948e-09  -1.2423468e-04   2.4306255e+00   2.4072410e+00  -7.5614599e+05
   1.1853951e-09  -1.2348128e-04   2.4305599e+00   2.4073172e+00  -7.5157064e+05
   1.1863955e-09  -1.2273243e-04   2.4304947e+00   2.4073929e+00  -7.4702290e+05
   1.1873958e-09  -1.2198813e-04   2.4304300e+00   2.4074682e+00  -7.4250259e+05
   1.1883961e-09  -1.2124832e-04   2.4303656e+00   2.4075430e+00  -7.3800956e+05
   1.1893965e-09  -1.2051299e-04   2.4303016e+00   2.4076174e+00  -7.3354364e+05
   1.1903968e-09  -1.1978212e-04   2.4302380e+00   2.4076913e+00  -7.2910467e+05
   1.1913971e-09  -1.1905566e-04   2.4301748e+00   2.4077648e+00  -7.2469247e+05
   1.1923975e-09  -1.1833361e-04   2.4301120e+00   2.4078379e+00  -7.2030691e+05
   1.1933978e-09  -1.1761592e-04   2.4300495e+00   2.4079105e+00  -7.1594780e+05
   1.1943981e-09  -1.1690258e-04   2.4299875e+00   2.4079826e+00  -7.1161500e+05
   1.1953985e-09  -1.1619355e-04   2.4299258e+00   2.4080543e+00  -7.0730835e+05
   1.1963988e-09  -1.1548882e-04   2.4298644e+00   2.4081256e+00  -7.0302768e+05
   1.1973991e-09  -1.1478835e-04   2.4298035e+00   2.4081965e+00  -6.9877285e+05
   1.1983995e-09  -1.1409212e-04   2.4297429e+00   2.4082669e+00  -6.9454369e+05
   1.1993998e-09  -1.1340011e-04   2.4296827e+00   2.4083369e+00  -6.9034005e+05
   1.2004001e-09  -1.1271228e-04   2.4296229e+00   2.4084065e+00  -6.8616178e+05
   1.2014005e-09  -1.1202862e-04   2.4295634e+00   2.4084757e+00  -6.8200873e+05
   1.2024008e-09  -1.1134910e-04   2.4295043e+00   2.4085444e+00  -6.7788074e+05
   1.2034011e-09  -1.1067369e-04   2.4294455e+00   2.4086127e+00  -6.7377766e+05
   1.2044015e-09  -1.1000237e-04   2.4293871e+00   2.4086806e+00  -6.6969935e+05
   1.2054018e-09  -1.0933511e-04   2.4293290e+00   2.4087481e+00  -6.6564565e+05
   1.2064021e-09  -1.0867190e-04   2.4292713e+00   2.4088152e+00  -6.6161641e+05
   1.2074025e-09  -1.0801269e-04   2.4292140e+00   2.4088819e+00  -6.5761150e+05
   1.2084028e-09  -1.0735748e-04   2.4291570e+00   2.4089482e+00  -6.5363075e+05
   1.2094031e-09  -1.0670624e-04   2.4291003e+00   2.4090141e+00  -6.4967403e+05
   1.2104035e-09  -1.0605893e-04   2.4290440e+00   2.4090796e+00  -6.4574120e+05
   1.2114038e-09  -1.0541555e-04   2.4289880e+00   2.4091447e+00  -6.4183210e+05
   1.2124041e-09  -1.0477606e-04   2.4289324e+00   2.4092094e+00  -6.3794660e+05
   1.2134045e-09  -1.0414044e-04   2.4288771e+00   2.4092737e+00  -6.3408456e+05
   1.2144048e-09  -1.0350867e-04   2.4288221e+00   2.4093376e+00  -6.3024582e+05
   1.2154051e-09  -1.0288073e-04   2.4287675e+00   2.4094012e+00  -6.2643026e+05
   1.2164055e-09  -1.0225659e-04   2.4287132e+00   2.4094643e+00  -6.2263773e+05
   1.2174058e-09  -1.0163622e-04   2.4286592e+00   2.4095271e+00  -6.1886809e+05
   1.2184061e-09  -1.0101962e-04   2.4286055e+00   2.4095895e+00  -6.1512121e+05
   1.2194065e-09  -1.0040674e-04   2.4285522e+00   2.4096515e+00  -6.1139695e+05
   1.2204068e-09  -9.9797581e-05   2.4284992e+00   2.4097131e+00  -6.0769517e+05
   1.2214071e-09  -9.9192107e-05   2.4284465e+00   2.4097744e+00  -6.0401574e+05
   1.2224075e-09  -9.8590299e-05   2.4283942e+00   2.4098353e+00  -6.0035852e+05
   1.2234078e-09  -9.7992135e-05   2.4283422e+00   2.4098958e+00  -5.9672338e+05
   1.2244081e-09  -9.7397593e-05   2.4282904e+00   2.4099560e+00  -5.9311019e+05
   1.2254085e-09  -9.6806651e-05   2.4282390e+00   2.4100158e+00  -5.8951881e+05
   1.2264088e-09  -9.6219288e-05   2.4281879e+00   2.4100752e+00  -5.8594912e+05
   1.2274091e-09  -9.5635481e-05   2.4281371e+00   2.4101343e+00  -5.8240098e+05
   1.2284095e-09  -9.5055209e-05   2.4280866e+00   2.4101930e+00  -5.7887426e+05
   1.2294098e-09  -9.4478452e-05   2.4280365e+00   2.4102514e+00  -5.7536884e+05
   1.2304101e-09  -9.3905187e-05   2.4279866e+00   2.4103094e+00  -5.7188458e+05
   1.2314105e-09  -9.3335393e-05   2.4279370e+00   2.4103670e+00  -5.6842136e+05
   1.2324108e-09  -9.2769051e-05   2.4278878e+00   2.4104243e+00  -5.6497905e+05
   1.2334111e-09  -9.2206138e-05   2.4278388e+00   2.4104813e+00  -5.6155753e+05
   1.2344115e-09  -9.1646634e-05   2.4277901e+00   2.4105379e+00  -5.5815667e+05
   1.2354118e-09  -9.1090519e-05   2.4277417e+00   2.4105942e+00  -5.5477635e+05
   1.2364121e-09  -9.0537771e-05   2.4276936e+00   2.4106501e+00  -5.5141643e+05
   1.2374125e-09  -8.9988371e-05   2.4276459e+00   2.4107057e+00  -5.4807681e+05
   1.2384128e-09  -8.9442299e-05   2.4275983e+00   2.4107610e+00  -5.4475736e+05
   1.2394131e-09  -8.8899534e-05   2.4275511e+00   2.4108159e+00  -5.4145795e+05
   1.2404135e-09  -8.8360056e-05   2.4275042e+00   2.4108705e+00  -5.3817847e+05
   1.2414138e-09  -8.7823846e-05   2.4274576e+00   2.4109248e+00  -5.3491879e+05
   1.2424141e-09  -8.7290883e-05   2.4274112e+00   2.4109787e+00  -5.3167880e+05
   1.2434145e-09  -8.6761149e-05   2.4273651e+00   2.4110324e+00  -5.2845838e+05
   1.2444148e-09  -8.6234623e-05   2.4273193e+00   2.4110856e+00  -5.2525741e+05
   1.2454151e-09  -8.5711286e-05   2.4272738e+00   2.4111386e+00  -5.2207577e+05
   1.2464155e-09  -8.5191119e-05   2.4272285e+00   2.4111913e+00  -5.1891335e+05
   1.2474158e-09  -8.4674103e-05   2.4271836e+00   2.4112436e+00  -5.1577003e+05
   1.2484161e-09  -8.4160219e-05   2.4271388e+00   2.4112956e+00  -5.1264569e+05
   1.2494165e-09  -8.3649448e-05   2.4270944e+00   2.4113473e+00  -5.0954023e+05
   1.2504168e-09  -8.3141770e-05   2.4270503e+00   2.4113987e+00  -5.0645353e+05
   1.2514171e-09  -8.2637168e-05   2.4270064e+00   2.4114498e+00  -5.0338547e+05
   1.2524175e-09  -8.2135622e-05   2.4269627e+00   2.4115005e+00  -5.0033594e+05
   1.2534178e-09  -8.1637115e-05   2.4269194e+00   2.4115510e+00  -4.9730484e+05
   1.2544181e-09  -8.1141628e-05   2.4268763e+00   2.4116011e+00  -4.9429204e+05
   1.2554185e-09  -8.0649142e-05   2.4268334e+00   2.4116510e+00  -4.9129745e+05
   1.2564188e-09  -8.0159640e-05   2.4267908e+00   2.4117005e+00  -4.8832094e+05
   1.2574191e-09  -7.9673103e-05   2.4267485e+00   2.4117498e+00  -4.8536242e+05
   1.2584195e-09  -7.9189514e-05   2.4267065e+00   2.4117987e+00  -4.8242177e+05
   1.2594198e-09  -7.8708854e-05   2.4266646e+00   2.4118474e+00  -4.7949889e+05
   1.2604201e-09  -7.8231107e-05   2.4266231e+00   2.4118957e+00  -4.7659366e+05
   1.2614205e-09  -7.7756254e-05   2.4265818e+00   2.4119438e+00  -4.7370599e+05
   1.2624208e-09  -7.7284277e-05   2.4265407e+00   2.4119916e+00  -4.7083577e+05
   1.2634211e-09  -7.6815161e-05   2.4264999e+00   2.4120391e+00  -4.6798288e+05
   1.2644215e-09  -7.6348886e-05   2.4264594e+00   2.4120863e+00  -4.6514724e+05
   1.2654218e-09  -7.5885437e-05   2.4264190e+00   2.4121332e+00  -4.6232872e+05
   1.2664221e-09  -7.5424796e-05   2.4263790e+00   2.4121798e+00  -4.5952724e+05
   1.2674225e-09  -7.4966945e-05   2.4263391e+00   2.4122262e+00  -4.5674269e+05
   1.2684228e-09  -7.4511869e-05   2.4262996e+00   2.4122722e+00  -4.5397496e+05
   1.2694231e-09  -7.4059550e-05   2.4262602e+00   2.4123180e+00  -4.5122395e+05
   1.2704235e-09  -7.3609972e-05   2.4262211e+00   2.4123635e+00  -4.4848957e+05
   1.2714238e-09  -7.3163118e-05   2.4261822e+00   2.4124088e+00  -4.4577172e+05
   1.2724241e-09  -7.2718972e-05   2.4261436e+00   2.4124537e+00  -4.4307028e+05
   1.2734245e-09  -7.2277517e-05   2.4261052e+00   2.4124984e+00  -4.4038518e+05
   1.2744248e-09  -7.1838737e-05   2.4260670e+00   2.4125428e+00  -4.3771630e+05
   1.2754251e-09  -7.1402616e-05   2.4260291e+00   2.4125870e+00  -4.3506354e+05
   1.2764255e-09  -7.0969138e-05   2.4259914e+00   2.4126309e+00  -4.3242682e+05
   1.2774258e-09  -7.0538286e-05   2.4259539e+00   2.4126745e+00  -4.2980604e+05
   1.2784261e-09  -7.0110046e-05   2.4259167e+00   2.4127178e+00  -4.2720110e+05
   1.2794265e-09  -6.9684400e-05   2.4258797e+00   2.4127609e+00  -4.2461190e+05
   1.2804268e-09  -6.9261334e-05   2.4258429e+00   2.4128038e+00  -4.2203834e+05
   1.2814271e-09  -6.8840832e-05   2.4258063e+00   2.4128463e+00  -4.1948035e+05
   1.2824275e-09  -6.8422879e-05   2.4257699e+00   2.4128886e+00  -4.1693781e+05
   1.2834278e-09  -6.8007458e-05   2.4257338e+00   2.4129307e+00  -4.1441065e+05
   1.2844281e-09  -6.7594555e-05   2.4256979e+00   2.4129725e+00  -4.1189875e+05
   1.2854285e-09  -6.7184154e-05   2.4256622e+00   2.4130141e+00  -4.0940205e+05
   1.2864288e-09  -6.6776241e-05   2.4256267e+00   2.4130553e+00  -4.0692043e+05
   1.2874291e-09  -6.6370800e-05   2.4255914e+00   2.4130964e+00  -4.0445382e+05
   1.2884295e-09  -6.5967816e-05   2.4255564e+00   2.4131372e+00  -4.0200211e+05
   1.2894298e-09  -6.5567274e-05   2.4255216e+00   2.4131778e+00  -3.9956523e+05
   1.2904301e-09  -6.5169161e-05   2.4254869e+00   2.4132181e+00  -3.9714308e+05
   1.2914305e-09  -6.4773460e-05   2.4254525e+00   2.4132581e+00  -3.9473557e+05
   1.2924308e-09  -6.4380158e-05   2.4254183e+00   2.4132979e+00  -3.9234262e+05
   1.2934311e-09  -6.3989239e-05   2.4253843e+00   2.4133375e+00  -3.8996413e+05
   1.2944315e-09  -6.3600690e-05   2.4253505e+00   2.4133769e+00  -3.8760003e+05
   1.2954318e-09  -6.3214497e-05   2.4253169e+00   2.4134160e+00  -3.8525021e+05
   1.2964321e-09  -6.2830644e-05   2.4252835e+00   2.4134548e+00  -3.8291461e+05
   1.2974325e-09  -6.2449118e-05   2.4252503e+00   2.4134935e+00  -3.8059312e+05
   1.2984328e-09  -6.2069904e-05   2.4252174e+00   2.4135319e+00  -3.7828567e+05
   1.2994331e-09  -6.1692990e-05   2.4251846e+00   2.4135700e+00  -3.7599218e+05
   1.3004335e-09  -6.1318360e-05   2.4251520e+00   2.4136080e+00  -3.7371255e+05
   1.3014338e-09  -6.0946001e-05   2.4251196e+00   2.4136457e+00  -3.7144670e+05
   1.3024341e-09  -6.0575899e-05   2.4250874e+00   2.4136831e+00  -3.6919456e+05
   1.3034345e-09  -6.0208041e-05   2.4250554e+00   2.4137204e+00  -3.6695604e+05
   1.3044348e-09  -5.9842413e-05   2.4250236e+00   2.4137574e+00  -3.6473105e+05
   1.3054351e-09  -5.9479002e-05   2.4249920e+00   2.4137942e+00  -3.6251952e+05
   1.3064355e-09  -5.9117793e-05   2.4249606e+00   2.4138308e+00  -3.6032136e+05
   1.3074358e-09  -5.8758775e-05   2.4249294e+00   2.4138671e+00  -3.5813649e+05
   1.3084361e-09  -5.8401933e-05   2.4248983e+00   2.4139033e+00  -3.5596484e+05
   1.3094365e-09  -5.8047254e-05   2.4248675e+00   2.4139392e+00  -3.5380632e+05
   1.3104368e-09  -5.7694726e-05   2.4248368e+00   2.4139749e+00  -3.5166085e+05
   1.3114371e-09  -5.7344335e-05   2.4248064e+00   2.4140104e+00  -3.4952836e+05
   1.3124375e-09  -5.6996068e-05   2.4247761e+00   2.4140456e+00  -3.4740877e+05
   1.3134378e-09  -5.6649913e-05   2.4247460e+00   2.4140807e+00  -3.4530200e+05
   1.3144381e-09  -5.6305857e-05   2.4247160e+00   2.4141155e+00  -3.4320797e+05
   1.3154385e-09  -5.5963887e-05   2.4246863e+00   2.4141501e+00  -3.4112661e+05
   1.3164388e-09  -5.5623990e-05   2.4246567e+00   2.4141846e+00  -3.3905783e+05
   1.3174391e-09  -5.5286154e-05   2.4246273e+00   2.4142188e+00  -3.3700157e+05
   1.3184395e-09  -5.4950366e-05   2.4245981e+00   2.4142528e+00  -3.3495775e+05
   1.3194398e-09  -5.4616615e-05   2.4245691e+00   2.4142866e+00  -3.3292629e+05
   1.3204401e-09  -5.4284887e-05   2.4245403e+00   2.4143202e+00  -3.3090712e+05
   1.3214405e-09  -5.3955171e-05   2.4245116e+00   2.4143535e+00  -3.2890016e+05
   1.3224408e-09  -5.3627454e-05   2.4244831e+00   2.4143867e+00  -3.2690534e+05
   1.3234411e-09  -5.3301724e-05   2.4244548e+00   2.4144197e+00  -3.2492259e+05
   1.3244415e-09  -5.2977969e-05   2.4244266e+00   2.4144525e+00  -3.2295184e+05
   1.3254418e-09  -5.2656178e-05   2.4243986e+00   2.4144851e+00  -3.2099301e+05
   1.3264421e-09  -5.2336338e-05   2.4243708e+00   2.4145175e+00  -3.1904603e+05
   1.3274425e-09  -5.2018438e-05   2.4243432e+00   2.4145497e+00  -3.1711083e+05
   1.3284428e-09  -5.1702465e-05   2.4243157e+00   2.4145817e+00  -3.1518733e+05
   1.3294431e-09  -5.1388409e-05   2.4242884e+00   2.4146135e+00  -3.1327548e+05
   1.3304435e-09  -5.1076257e-05   2.4242612e+00   2.4146451e+00  -3.1137519e+05
   1.3314438e-09  -5.0765998e-05   2.4242342e+00   2.4146765e+00  -3.0948640e+05
   1.3324441e-09  -5.0457620e-05   2.4242074e+00   2.4147077e+00  -3.0760904e+05
   1.3334445e-09  -5.0151113e-05   2.4241808e+00   2.4147388e+00  -3.0574304e+05
   1.3344448e-09  -4.9846465e-05   2.4241543e+00   2.4147696e+00  -3.0388832e+05
   1.3354451e-09  -4.9543665e-05   2.4241279e+00   2.4148003e+00  -3.0204484e+05
   1.3364455e-09  -4.9242700e-05   2.4241018e+00   2.4148308e+00  -3.0021250e+05
   1.3374458e-09  -4.8943562e-05   2.4240757e+00   2.4148611e+00  -2.9839126e+05
   1.3384461e-09  -4.8646237e-05   2.4240499e+00   2.4148912e+00  -2.9658103e+05
   1.3394465e-09  -4.8350716e-05   2.4240242e+00   2.4149211e+00  -2.9478176e+05
   1.3404468e-09  -4.8056987e-05   2.4239986e+00   2.4149509e+00  -2.9299338e+05
   1.3414471e-09  -4.7765040e-05   2.4239732e+00   2.4149804e+00  -2.9121582e+05
   1.3424475e-09  -4.7474863e-05   2.4239480e+00   2.4150098e+00  -2.8944902e+05
   1.3434478e-09  -4.7186447e-05   2.4239229e+00   2.4150390e+00  -2.8769291e+05
   1.3444481e-09  -4.6899780e-05   2.4238980e+00   2.4150681e+00  -2.8594743e+05
   1.3454485e-09  -4.6614852e-05   2.4238732e+00   2.4150969e+00  -2.8421251e+05
   1.3464488e-09  -4.6331652e-05   2.4238486e+00   2.4151256e+00  -2.8248810e+05
   1.3474491e-09  -4.6050170e-05   2.4238241e+00   2.4151541e+00  -2.8077412e+05
   1.3484495e-09  -4.5770395e-05   2.4237998e+00   2.4151825e+00  -2.7907052e+05
   1.3494498e-09  -4.5492318e-05   2.4237756e+00   2.4152106e+00  -2.7737722e+05
   1.3504502e-09  -4.5215927e-05   2.4237516e+00   2.4152386e+00  -2.7569418e+05
   1.3514505e-09  -4.4941213e-05   2.4237277e+00   2.4152664e+00  -2.7402132e+05
   1.3524508e-09  -4.4668165e-05   2.4237039e+00   2.4152941e+00  -2.7235859e+05
   1.3534512e-09  -4.4396774e-05   2.4236803e+00   2.4153216e+00  -2.7070593e+05
   1.3544515e-09  -4.4127029e-05   2.4236569e+00   2.4153489e+00  -2.6906327e+05
   1.3554518e-09  -4.3858921e-05   2.4236335e+00   2.4153761e+00  -2.6743055e+05
   1.3564522e-09  -4.3592439e-05   2.4236104e+00   2.4154030e+00  -2.6580771e+05
   1.3574525e-09  -4.3327573e-05   2.4235873e+00   2.4154299e+00  -2.6419471e+05
   1.3584528e-09  -4.3064315e-05   2.4235644e+00   2.4154565e+00  -2.6259146e+05
   1.3594532e-09  -4.2802653e-05   2.4235417e+00   2.4154830e+00  -2.6099792e+05
   1.3604535e-09  -4.2542579e-05   2.4235191e+00   2.4155094e+00  -2.5941403e+05
   1.3614538e-09  -4.2284083e-05   2.4234966e+00   2.4155356e+00  -2.5783973e+05
   1.3624542e-09  -4.2027155e-05   2.4234742e+00   2.4155616e+00  -2.5627496e+05
   1.3634545e-09  -4.1771786e-05   2.4234520e+00   2.4155875e+00  -2.5471967e+05
   1.3644548e-09  -4.1517967e-05   2.4234300e+00   2.4156132e+00  -2.5317379e+05
   1.3654552e-09  -4.1265687e-05   2.4234080e+00   2.4156387e+00  -2.5163727e+05
   1.3664555e-09  -4.1014938e-05   2.4233862e+00   2.4156641e+00  -2.5011005e+05
   1.3674558e-09  -4.0765710e-05   2.4233645e+00   2.4156894e+00  -2.4859208e+05
   1.3684562e-09  -4.0517995e-05   2.4233430e+00   2.4157144e+00  -2.4708330e+05
   1.3694565e-09  -4.0271783e-05   2.4233216e+00   2.4157394e+00  -2.4558366e+05
   1.3704568e-09  -4.0027064e-05   2.4233003e+00   2.4157642e+00  -2.4409310e+05
   1.3714572e-09  -3.9783830e-05   2.4232792e+00   2.4157888e+00  -2.4261157e+05
   1.3724575e-09  -3.9542073e-05   2.4232581e+00   2.4158133e+00  -2.4113901e+05
   1.3734578e-09  -3.9301782e-05   2.4232372e+00   2.4158376e+00  -2.3967536e+05
   1.3744582e-09  -3.9062949e-05   2.4232165e+00   2.4158618e+00  -2.3822058e+05
   1.3754585e-09  -3.8825566e-05   2.4231958e+00   2.4158859e+00  -2.3677461e+05
   1.3764588e-09  -3.8589623e-05   2.4231753e+00   2.4159098e+00  -2.3533739e+05
   1.3774592e-09  -3.8355112e-05   2.4231549e+00   2.4159335e+00  -2.3390888e+05
   1.3784595e-09  -3.8122023e-05   2.4231346e+00   2.4159571e+00  -2.3248902e+05
   1.3794598e-09  -3.7890350e-05   2.4231145e+00   2.4159806e+00  -2.3107776e+05
   1.3804602e-09  -3.7660082e-05   2.4230945e+00   2.4160039e+00  -2.2967505e+05
   1.3814605e-09  -3.7431211e-05   2.4230746e+00   2.4160271e+00  -2.2828083e+05
   1.3824608e-09  -3.7203730e-05   2.4230548e+00   2.4160502e+00  -2.2689506e+05
   1.3834612e-09  -3.6977629e-05   2.4230351e+00   2.4160731e+00  -2.2551768e+05
   1.3844615e-09  -3.6752900e-05   2.4230156e+00   2.4160958e+00  -2.2414865e+05
   1.3854618e-09  -3.6529535e-05   2.4229962e+00   2.4161185e+00  -2.2278790e+05
   1.3864622e-09  -3.6307525e-05   2.4229769e+00   2.4161409e+00  -2.2143540e+05
   1.3874625e-09  -3.6086863e-05   2.4229577e+00   2.4161633e+00  -2.2009110e+05
   1.3884628e-09  -3.5867540e-05   2.4229386e+00   2.4161855e+00  -2.1875493e+05
   1.3894632e-09  -3.5649549e-05   2.4229196e+00   2.4162076e+00  -2.1742686e+05
   1.3904635e-09  -3.5432880e-05   2.4229008e+00   2.4162295e+00  -2.1610683e+05
   1.3914638e-09  -3.5217526e-05   2.4228821e+00   2.4162514e+00  -2.1479480e+05
   1.3924642e-09  -3.5003479e-05   2.4228635e+00   2.4162730e+00  -2.1349072e+05
   1.3934645e-09  -3.4790732e-05   2.4228450e+00   2.4162946e+00  -2.1219454e+05
   1.3944648e-09  -3.4579275e-05   2.4228266e+00   2.4163160e+00  -2.1090621e+05
   1.3954652e-09  -3.4369103e-05   2.4228083e+00   2.4163373e+00  -2.0962569e+05
   1.3964655e-09  -3.4160205e-05   2.4227901e+00   2.4163585e+00  -2.0835293e+05
   1.3974658e-09  -3.3952576e-05   2.4227721e+00   2.4163795e+00  -2.0708787e+05
   1.3984662e-09  -3.3746207e-05   2.4227541e+00   2.4164004e+00  -2.0583048e+05
   1.3994665e-09  -3.3541091e-05   2.4227363e+00   2.4164212e+00  -2.0458071e+05
   1.4004668e-09  -3.3337219e-05   2.4227186e+00   2.4164418e+00  -2.0333851e+05
   1.4014672e-09  -3.3134586e-05   2.4227009e+00   2.4164624e+00  -2.0210384e+05
   1.4024675e-09  -3.2933182e-05   2.4226834e+00   2.4164828e+00  -2.0087665e+05
   1.4034678e-09  -3.2733001e-05   2.4226660e+00   2.4165030e+00  -1.9965690e+05
   1.4044682e-09  -3.2534034e-05   2.4226487e+00   2.4165232e+00  -1.9844453e+05
   1.4054685e-09  -3.2336276e-05   2.4226315e+00   2.4165432e+00  -1.9723951e+05
   1.4064688e-09  -3.2139718e-05   2.4226144e+00   2.4165632e+00  -1.9604180e+05
   1.4074692e-09  -3.1944353e-05   2.4225974e+00   2.4165829e+00  -1.9485134e+05
   1.4084695e-09  -3.1750175e-05   2.4225806e+00   2.4166026e+00  -1.9366810e+05
   1.4094698e-09  -3.1557175e-05   2.4225638e+00   2.4166222e+00  -1.9249202e+05
   1.4104702e-09  -3.1365347e-05   2.4225471e+00   2.4166416e+00  -1.9132308e+05
   1.4114705e-09  -3.1174683e-05   2.4225305e+00   2.4166609e+00  -1.9016121e+05
   1.4124708e-09  -3.0985176e-05   2.4225140e+00   2.4166801e+00  -1.8900639e+05
   1.4134712e-09  -3.0796821e-05   2.4224977e+00   2.4166992e+00  -1.8785857e+05
   1.4144715e-09  -3.0609608e-05   2.4224814e+00   2.4167182e+00  -1.8671771e+05
   1.4154718e-09  -3.0423533e-05   2.4224652e+00   2.4167370e+00  -1.8558375e+05
   1.4164722e-09  -3.0238587e-05   2.4224491e+00   2.4167557e+00  -1.8445668e+05
   1.4174725e-09  -3.0054763e-05   2.4224331e+00   2.4167744e+00  -1.8333643e+05
   1.4184728e-09  -2.9872056e-05   2.4224172e+00   2.4167929e+00  -1.8222297e+05
   1.4194732e-09  -2.9690458e-05   2.4224015e+00   2.4168113e+00  -1.8111626e+05
   1.4204735e-09  -2.9509963e-05   2.4223858e+00   2.4168296e+00  -1.8001626e+05
   1.4214738e-09  -2.9330563e-05   2.4223702e+00   2.4168477e+00  -1.7892293e+05
   1.4224742e-09  -2.9152253e-05   2.4223547e+00   2.4168658e+00  -1.7783622e+05
   1.4234745e-09  -2.8975025e-05   2.4223392e+00   2.4168838e+00  -1.7675610e+05
   1.4244748e-09  -2.8798874e-05   2.4223239e+00   2.4169016e+00  -1.7568253e+05
   1.4254752e-09  -2.8623792e-05   2.4223087e+00   2.4169193e+00  -1.7461546e+05
   1.4264755e-09  -2.8449773e-05   2.4222936e+00   2.4169370e+00  -1.7355487e+05
   1.4274758e-09  -2.8276811e-05   2.4222785e+00   2.4169545e+00  -1.7250070e+05
   1.4284762e-09  -2.8104898e-05   2.4222636e+00   2.4169719e+00  -1.7145293e+05
   1.4294765e-09  -2.7934030e-05   2.4222487e+00   2.4169892e+00  -1.7041150e+05
   1.4304768e-09  -2.7764200e-05   2.4222340e+00   2.4170064e+00  -1.6937639e+05
   1.4314772e-09  -2.7595400e-05   2.4222193e+00   2.4170235e+00  -1.6834756e+05
   1.4324775e-09  -2.7427626e-05   2.4222047e+00   2.4170405e+00  -1.6732496e+05
   1.4334778e-09  -2.7260870e-05   2.4221902e+00   2.4170574e+00  -1.6630856e+05
   1.4344782e-09  -2.7095127e-05   2.4221758e+00   2.4170742e+00  -1.6529832e+05
   1.4354785e-09  -2.6930390e-05   2.4221615e+00   2.4170909e+00  -1.6429421e+05
   1.4364788e-09  -2.6766654e-05   2.4221472e+00   2.4171075e+00  -1.6329619e+05
   1.4374792e-09  -2.6603912e-05   2.4221331e+00   2.4171240e+00  -1.6230422e+05
   1.4384795e-09  -2.6442158e-05   2.4221190e+00   2.4171404e+00  -1.6131826e+05
   1.4394798e-09  -2.6281387e-05   2.4221050e+00   2.4171567e+00  -1.6033828e+05
   1.4404802e-09  -2.6121591e-05   2.4220911e+00   2.4171729e+00  -1.5936424e+05
   1.4414805e-09  -2.5962767e-05   2.4220773e+00   2.4171889e+00  -1.5839611e+05
   1.4424808e-09  -2.5804907e-05   2.4220636e+00   2.4172049e+00  -1.5743385e+05
   1.4434812e-09  -2.5648005e-05   2.4220499e+00   2.4172208e+00  -1.5647743e+05
   1.4444815e-09  -2.5492057e-05   2.4220364e+00   2.4172366e+00  -1.5552680e+05
   1.4454818e-09  -2.5337055e-05   2.4220229e+00   2.4172523e+00  -1.5458194e+05
   1.4464822e-09  -2.5182995e-05   2.4220095e+00   2.4172679e+00  -1.5364281e+05
   1.4474825e-09  -2.5029870e-05   2.4219962e+00   2.4172835e+00  -1.5270937e+05
   1.4484828e-09  -2.4877676e-05   2.4219830e+00   2.4172989e+00  -1.5178159e+05
   1.4494832e-09  -2.4726406e-05   2.4219698e+00   2.4173142e+00  -1.5085944e+05
   1.4504835e-09  -2.4576054e-05   2.4219567e+00   2.4173294e+00  -1.4994288e+05
   1.4514838e-09  -2.4426616e-05   2.4219437e+00   2.4173446e+00  -1.4903189e+05
   1.4524842e-09  -2.4278085e-05   2.4219308e+00   2.4173596e+00  -1.4812641e+05
   1.4534845e-09  -2.4130457e-05   2.4219180e+00   2.4173746e+00  -1.4722643e+05
   1.4544848e-09  -2.3983725e-05   2.4219052e+00   2.4173895e+00  -1.4633191e+05
   1.4554852e-09  -2.3837884e-05   2.4218926e+00   2.4174042e+00  -1.4544281e+05
   1.4564855e-09  -2.3692929e-05   2.4218800e+00   2.4174189e+00  -1.4455910e+05
   1.4574858e-09  -2.3548855e-05   2.4218674e+00   2.4174335e+00  -1.4368075e+05
   1.4584862e-09  -2.3405655e-05   2.4218550e+00   2.4174480e+00  -1.4280773e+05
   1.4594865e-09  -2.3263326e-05   2.4218426e+00   2.4174624e+00  -1.4194001e+05
   1.4604868e-09  -2.3121861e-05   2.4218303e+00   2.4174768e+00  -1.4107755e+05
   1.4614872e-09  -2.2981255e-05   2.4218181e+00   2.4174910e+00  -1.4022032e+05
   1.4624875e-09  -2.2841504e-05   2.4218059e+00   2.4175052e+00  -1.3936829e+05
