   0.0000000e+00  -1.3999991e-01   6.2638503e+00   1.1630261e-04  -5.1897585e+08
   2.6675559e-12  -1.3862063e-01   6.2568388e+00   1.2933479e-04  -5.1519725e+08
   5.3351117e-12  -1.3725143e-01   6.2495125e+00   1.4370706e-04  -5.1141688e+08
   8.0026676e-12  -1.3589232e-01   6.2418615e+00   1.5954262e-04  -5.0763484e+08
   1.0670223e-11  -1.3454331e-01   6.2338758e+00   1.7697434e-04  -5.0385120e+08
   1.3337779e-11  -1.3320439e-01   6.2255455e+00   1.9614532e-04  -5.0006608e+08
   1.6005335e-11  -1.3187556e-01   6.2168606e+00   2.1720946e-04  -4.9627959e+08
   1.8672891e-11  -1.3055685e-01   6.2078111e+00   2.4033207e-04  -4.9249185e+08
   2.1340447e-11  -1.2924824e-01   6.1983872e+00   2.6569048e-04  -4.8870300e+08
   2.4008003e-11  -1.2794974e-01   6.1885789e+00   2.9347470e-04  -4.8491320e+08
   2.6675559e-11  -1.2666135e-01   6.1783767e+00   3.2388799e-04  -4.8112261e+08
   2.9343114e-11  -1.2538307e-01   6.1677708e+00   3.5714752e-04  -4.7733142e+08
   3.2010670e-11  -1.2411491e-01   6.1567518e+00   3.9348500e-04  -4.7353981e+08
   3.4678226e-11  -1.2285686e-01   6.1453104e+00   4.3314733e-04  -4.6974800e+08
   3.7345782e-11  -1.2160893e-01   6.1334376e+00   4.7639719e-04  -4.6595621e+08
   4.0013338e-11  -1.2037111e-01   6.1211244e+00   5.2351368e-04  -4.6216468e+08
   4.2680894e-11  -1.1914341e-01   6.1083624e+00   5.7479292e-04  -4.5837366e+08
   4.5348449e-11  -1.1792582e-01   6.0951432e+00   6.3054861e-04  -4.5458343e+08
   4.8016005e-11  -1.1671834e-01   6.0814588e+00   6.9111261e-04  -4.5079428e+08
   5.0683561e-11  -1.1552097e-01   6.0673017e+00   7.5683547e-04  -4.4700651e+08
   5.3351117e-11  -1.1433370e-01   6.0526646e+00   8.2808695e-04  -4.4322043e+08
   5.6018673e-11  -1.1315653e-01   6.0375407e+00   9.0525641e-04  -4.3943639e+08
   5.8686229e-11  -1.1198944e-01   6.0219237e+00   9.8875334e-04  -4.3565475e+08
   6.1353785e-11  -1.1083245e-01   6.0058077e+00   1.0790076e-03  -4.3187586e+08
   6.4021340e-11  -1.0968552e-01   5.9891872e+00   1.1764699e-03  -4.2810013e+08
   6.6688896e-11  -1.0854867e-01   5.9720575e+00   1.2816119e-03  -4.2432795e+08
   6.9356452e-11  -1.0742187e-01   5.9544142e+00   1.3949266e-03  -4.2055975e+08
   7.2024008e-11  -1.0630512e-01   5.9362537e+00   1.5169281e-03  -4.1679596e+08
   7.4691564e-11  -1.0519840e-01   5.9175729e+00   1.6481522e-03  -4.1303704e+08
   7.7359120e-11  -1.0410171e-01   5.8983692e+00   1.7891559e-03  -4.0928345e+08
   8.0026676e-11  -1.0301501e-01   5.8786409e+00   1.9405176e-03  -4.0553568e+08
   8.2694231e-11  -1.0193831e-01   5.8583869e+00   2.1028367e-03  -4.0179423e+08
   8.5361787e-11  -1.0087158e-01   5.8376066e+00   2.2767335e-03  -3.9805961e+08
   8.8029343e-11  -9.9814799e-02   5.8163004e+00   2.4628487e-03  -3.9433234e+08
   9.0696899e-11  -9.8767951e-02   5.7944693e+00   2.6618432e-03  -3.9061298e+08
   9.3364455e-11  -9.7731013e-02   5.7721149e+00   2.8743971e-03  -3.8690206e+08
   9.6032011e-11  -9.6703961e-02   5.7492397e+00   3.1012094e-03  -3.8320015e+08
   9.8699567e-11  -9.5686771e-02   5.7258470e+00   3.3429972e-03  -3.7950783e+08
   1.0136712e-10  -9.4679417e-02   5.7019406e+00   3.6004948e-03  -3.7582567e+08
   1.0403468e-10  -9.3681870e-02   5.6775252e+00   3.8744526e-03  -3.7215428e+08
   1.0670223e-10  -9.2694100e-02   5.6526063e+00   4.1656365e-03  -3.6849424e+08
   1.0936979e-10  -9.1716078e-02   5.6271902e+00   4.4748262e-03  -3.6484618e+08
   1.1203735e-10  -9.0747769e-02   5.6012836e+00   4.8028146e-03  -3.6121069e+08
   1.1470490e-10  -8.9789140e-02   5.5748943e+00   5.1504060e-03  -3.5758840e+08
   1.1737246e-10  -8.8840155e-02   5.5480307e+00   5.5184148e-03  -3.5397994e+08
   1.2004001e-10  -8.7900774e-02   5.5207017e+00   5.9076644e-03  -3.5038591e+08
   1.2270757e-10  -8.6970961e-02   5.4929171e+00   6.3189852e-03  -3.4680694e+08
   1.2537513e-10  -8.6050672e-02   5.4646874e+00   6.7532134e-03  -3.4324366e+08
   1.2804268e-10  -8.5139866e-02   5.4360235e+00   7.2111889e-03  -3.3969670e+08
   1.3071024e-10  -8.4238498e-02   5.4069371e+00   7.6937541e-03  -3.3616666e+08
   1.3337779e-10  -8.3346523e-02   5.3774403e+00   8.2017518e-03  -3.3265417e+08
   1.3604535e-10  -8.2463891e-02   5.3475461e+00   8.7360236e-03  -3.2915983e+08
   1.3871290e-10  -8.1590555e-02   5.3172676e+00   9.2974080e-03  -3.2568425e+08
   1.4138046e-10  -8.0726464e-02   5.2866187e+00   9.8867388e-03  -3.2222803e+08
   1.4404802e-10  -7.9871564e-02   5.2556135e+00   1.0504843e-02  -3.1879175e+08
   1.4671557e-10  -7.9025802e-02   5.2242668e+00   1.1152539e-02  -3.1537599e+08
   1.4938313e-10  -7.8189122e-02   5.1925936e+00   1.1830634e-02  -3.1198132e+08
   1.5205068e-10  -7.7361468e-02   5.1606092e+00   1.2539926e-02  -3.0860829e+08
   1.5471824e-10  -7.6542781e-02   5.1283294e+00   1.3281196e-02  -3.0525744e+08
   1.5738580e-10  -7.5733001e-02   5.0957700e+00   1.4055210e-02  -3.0192930e+08
   1.6005335e-10  -7.4932067e-02   5.0629473e+00   1.4862719e-02  -2.9862438e+08
   1.6272091e-10  -7.4139916e-02   5.0298777e+00   1.5704451e-02  -2.9534318e+08
   1.6538846e-10  -7.3356484e-02   4.9965776e+00   1.6581118e-02  -2.9208617e+08
   1.6805602e-10  -7.2581706e-02   4.9630636e+00   1.7493407e-02  -2.8885382e+08
   1.7072357e-10  -7.1815516e-02   4.9293526e+00   1.8441982e-02  -2.8564656e+08
   1.7339113e-10  -7.1057846e-02   4.8954612e+00   1.9427482e-02  -2.8246481e+08
   1.7605869e-10  -7.0308627e-02   4.8614061e+00   2.0450523e-02  -2.7930899e+08
   1.7872624e-10  -6.9567791e-02   4.8272041e+00   2.1511688e-02  -2.7617947e+08
   1.8139380e-10  -6.8835266e-02   4.7928719e+00   2.2611538e-02  -2.7307662e+08
   1.8406135e-10  -6.8110980e-02   4.7584258e+00   2.3750599e-02  -2.7000077e+08
   1.8672891e-10  -6.7394862e-02   4.7238823e+00   2.4929371e-02  -2.6695225e+08
   1.8939647e-10  -6.6686838e-02   4.6892577e+00   2.6148321e-02  -2.6393135e+08
   1.9206402e-10  -6.5986834e-02   4.6545680e+00   2.7407884e-02  -2.6093834e+08
   1.9473158e-10  -6.5294775e-02   4.6198290e+00   2.8708462e-02  -2.5797349e+08
   1.9739913e-10  -6.4610586e-02   4.5850562e+00   3.0050427e-02  -2.5503701e+08
   2.0006669e-10  -6.3934190e-02   4.5502649e+00   3.1434114e-02  -2.5212912e+08
   2.0273424e-10  -6.3265512e-02   4.5154701e+00   3.2859828e-02  -2.4925000e+08
   2.0540180e-10  -6.2604475e-02   4.4806865e+00   3.4327836e-02  -2.4639983e+08
   2.0806936e-10  -6.1951000e-02   4.4459285e+00   3.5838375e-02  -2.4357873e+08
   2.1073691e-10  -6.1305011e-02   4.4112100e+00   3.7391644e-02  -2.4078684e+08
   2.1340447e-10  -6.0666429e-02   4.3765446e+00   3.8987813e-02  -2.3802425e+08
   2.1607202e-10  -6.0035176e-02   4.3419456e+00   4.0627013e-02  -2.3529105e+08
   2.1873958e-10  -5.9411173e-02   4.3074259e+00   4.2309344e-02  -2.3258729e+08
   2.2140714e-10  -5.8794342e-02   4.2729979e+00   4.4034873e-02  -2.2991300e+08
   2.2407469e-10  -5.8184605e-02   4.2386737e+00   4.5803633e-02  -2.2726821e+08
   2.2674225e-10  -5.7581883e-02   4.2044648e+00   4.7615624e-02  -2.2465293e+08
   2.2940980e-10  -5.6986096e-02   4.1703826e+00   4.9470815e-02  -2.2206712e+08
   2.3207736e-10  -5.6397167e-02   4.1364376e+00   5.1369143e-02  -2.1951075e+08
   2.3474491e-10  -5.5815017e-02   4.1026404e+00   5.3310514e-02  -2.1698378e+08
   2.3741247e-10  -5.5239568e-02   4.0690008e+00   5.5294804e-02  -2.1448612e+08
   2.4008003e-10  -5.4670741e-02   4.0355283e+00   5.7321858e-02  -2.1201769e+08
   2.4274758e-10  -5.4108459e-02   4.0022320e+00   5.9391495e-02  -2.0957839e+08
   2.4541514e-10  -5.3552644e-02   3.9691205e+00   6.1503503e-02  -2.0716810e+08
   2.4808269e-10  -5.3003220e-02   3.9362020e+00   6.3657645e-02  -2.0478669e+08
   2.5075025e-10  -5.2460109e-02   3.9034843e+00   6.5853656e-02  -2.0243401e+08
   2.5341781e-10  -5.1923235e-02   3.8709747e+00   6.8091247e-02  -2.0010991e+08
   2.5608536e-10  -5.1392521e-02   3.8386803e+00   7.0370102e-02  -1.9781421e+08
   2.5875292e-10  -5.0867893e-02   3.8066076e+00   7.2689884e-02  -1.9554672e+08
   2.6142047e-10  -5.0349276e-02   3.7747627e+00   7.5050230e-02  -1.9330727e+08
   2.6408803e-10  -4.9836595e-02   3.7431514e+00   7.7450759e-02  -1.9109564e+08
   2.6675559e-10  -4.9329775e-02   3.7117792e+00   7.9891067e-02  -1.8891162e+08
   2.6942314e-10  -4.8828744e-02   3.6806510e+00   8.2370727e-02  -1.8675499e+08
   2.7209070e-10  -4.8333429e-02   3.6497715e+00   8.4889299e-02  -1.8462552e+08
   2.7475825e-10  -4.7843758e-02   3.6191451e+00   8.7446319e-02  -1.8252296e+08
   2.7742581e-10  -4.7359660e-02   3.5887756e+00   9.0041309e-02  -1.8044708e+08
   2.8009336e-10  -4.6881063e-02   3.5586667e+00   9.2673774e-02  -1.7839762e+08
   2.8276092e-10  -4.6407897e-02   3.5288218e+00   9.5343203e-02  -1.7637432e+08
   2.8542848e-10  -4.5940094e-02   3.4992439e+00   9.8049071e-02  -1.7437692e+08
   2.8809603e-10  -4.5477584e-02   3.4699355e+00   1.0079084e-01  -1.7240515e+08
   2.9076359e-10  -4.5020299e-02   3.4408992e+00   1.0356795e-01  -1.7045874e+08
   2.9343114e-10  -4.4568172e-02   3.4121371e+00   1.0637986e-01  -1.6853740e+08
   2.9609870e-10  -4.4121137e-02   3.3836510e+00   1.0922596e-01  -1.6664087e+08
   2.9876626e-10  -4.3679128e-02   3.3554425e+00   1.1210570e-01  -1.6476884e+08
   3.0143381e-10  -4.3242080e-02   3.3275130e+00   1.1501846e-01  -1.6292105e+08
   3.0410137e-10  -4.2809928e-02   3.2998636e+00   1.1796365e-01  -1.6109720e+08
   3.0676892e-10  -4.2382610e-02   3.2724951e+00   1.2094065e-01  -1.5929700e+08
   3.0943648e-10  -4.1960062e-02   3.2454082e+00   1.2394885e-01  -1.5752016e+08
   3.1210403e-10  -4.1542222e-02   3.2186033e+00   1.2698762e-01  -1.5576638e+08
   3.1477159e-10  -4.1129030e-02   3.1920807e+00   1.3005633e-01  -1.5403538e+08
   3.1743915e-10  -4.0720425e-02   3.1658405e+00   1.3315434e-01  -1.5232686e+08
   3.2010670e-10  -4.0316348e-02   3.1398825e+00   1.3628102e-01  -1.5064053e+08
   3.2277426e-10  -3.9916739e-02   3.1142064e+00   1.3943571e-01  -1.4897609e+08
   3.2544181e-10  -3.9521541e-02   3.0888118e+00   1.4261777e-01  -1.4733325e+08
   3.2810937e-10  -3.9130697e-02   3.0636979e+00   1.4582655e-01  -1.4571172e+08
   3.3077693e-10  -3.8744150e-02   3.0388642e+00   1.4906140e-01  -1.4411120e+08
   3.3344448e-10  -3.8361844e-02   3.0143096e+00   1.5232165e-01  -1.4253142e+08
   3.3611204e-10  -3.7983725e-02   2.9900331e+00   1.5560667e-01  -1.4097208e+08
   3.3877959e-10  -3.7609738e-02   2.9660335e+00   1.5891578e-01  -1.3943289e+08
   3.4144715e-10  -3.7239830e-02   2.9423097e+00   1.6224834e-01  -1.3791358e+08
   3.4411470e-10  -3.6873949e-02   2.9188601e+00   1.6560369e-01  -1.3641385e+08
   3.4678226e-10  -3.6512042e-02   2.8956833e+00   1.6898117e-01  -1.3493343e+08
   3.4944982e-10  -3.6154058e-02   2.8727777e+00   1.7238014e-01  -1.3347205e+08
   3.5211737e-10  -3.5799948e-02   2.8501416e+00   1.7579993e-01  -1.3202941e+08
   3.5478493e-10  -3.5449661e-02   2.8277733e+00   1.7923989e-01  -1.3060527e+08
   3.5745248e-10  -3.5103148e-02   2.8056709e+00   1.8269939e-01  -1.2919933e+08
   3.6012004e-10  -3.4760362e-02   2.7838325e+00   1.8617777e-01  -1.2781134e+08
   3.6278760e-10  -3.4421254e-02   2.7622561e+00   1.8967440e-01  -1.2644103e+08
   3.6545515e-10  -3.4085778e-02   2.7409398e+00   1.9318863e-01  -1.2508815e+08
   3.6812271e-10  -3.3753888e-02   2.7198813e+00   1.9671983e-01  -1.2375242e+08
   3.7079026e-10  -3.3425538e-02   2.6990786e+00   2.0026737e-01  -1.2243360e+08
   3.7345782e-10  -3.3100684e-02   2.6785294e+00   2.0383062e-01  -1.2113144e+08
   3.7612538e-10  -3.2779281e-02   2.6582315e+00   2.0740896e-01  -1.1984568e+08
   3.7879293e-10  -3.2461287e-02   2.6381827e+00   2.1100177e-01  -1.1857609e+08
   3.8146049e-10  -3.2146657e-02   2.6183805e+00   2.1460844e-01  -1.1732241e+08
   3.8412804e-10  -3.1835351e-02   2.5988227e+00   2.1822836e-01  -1.1608442e+08
   3.8679560e-10  -3.1527326e-02   2.5795070e+00   2.2186093e-01  -1.1486187e+08
   3.8946315e-10  -3.1222543e-02   2.5604308e+00   2.2550555e-01  -1.1365453e+08
   3.9213071e-10  -3.0920959e-02   2.5415918e+00   2.2916163e-01  -1.1246217e+08
   3.9479827e-10  -3.0622537e-02   2.5229875e+00   2.3282858e-01  -1.1128457e+08
   3.9746582e-10  -3.0327236e-02   2.5046155e+00   2.3650583e-01  -1.1012151e+08
   4.0013338e-10  -3.0035018e-02   2.4864733e+00   2.4019280e-01  -1.0897277e+08
   4.0280093e-10  -2.9745846e-02   2.4685584e+00   2.4388892e-01  -1.0783812e+08
   4.0546849e-10  -2.9459682e-02   2.4508684e+00   2.4759364e-01  -1.0671737e+08
   4.0813605e-10  -2.9176490e-02   2.4334007e+00   2.5130639e-01  -1.0561029e+08
   4.1080360e-10  -2.8896232e-02   2.4161530e+00   2.5502664e-01  -1.0451670e+08
   4.1347116e-10  -2.8618874e-02   2.3991226e+00   2.5875383e-01  -1.0343637e+08
   4.1613871e-10  -2.8344379e-02   2.3823070e+00   2.6248744e-01  -1.0236912e+08
   4.1880627e-10  -2.8072715e-02   2.3657039e+00   2.6622693e-01  -1.0131474e+08
   4.2147382e-10  -2.7803846e-02   2.3493106e+00   2.6997179e-01  -1.0027306e+08
   4.2414138e-10  -2.7537739e-02   2.3331248e+00   2.7372150e-01  -9.9243864e+07
   4.2680894e-10  -2.7274361e-02   2.3171439e+00   2.7747555e-01  -9.8226982e+07
   4.2947649e-10  -2.7013680e-02   2.3013655e+00   2.8123344e-01  -9.7222227e+07
   4.3214405e-10  -2.6755662e-02   2.2857872e+00   2.8499469e-01  -9.6229419e+07
   4.3481160e-10  -2.6500277e-02   2.2704064e+00   2.8875880e-01  -9.5248381e+07
   4.3747916e-10  -2.6247494e-02   2.2552208e+00   2.9252529e-01  -9.4278938e+07
   4.4014672e-10  -2.5997281e-02   2.2402279e+00   2.9629370e-01  -9.3320921e+07
   4.4281427e-10  -2.5749609e-02   2.2254253e+00   3.0006356e-01  -9.2374160e+07
   4.4548183e-10  -2.5504447e-02   2.2108107e+00   3.0383441e-01  -9.1438491e+07
   4.4814938e-10  -2.5261767e-02   2.1963817e+00   3.0760580e-01  -9.0513751e+07
   4.5081694e-10  -2.5021539e-02   2.1821359e+00   3.1137728e-01  -8.9599780e+07
   4.5348449e-10  -2.4783735e-02   2.1680710e+00   3.1514843e-01  -8.8696422e+07
   4.5615205e-10  -2.4548326e-02   2.1541847e+00   3.1891881e-01  -8.7803523e+07
   4.5881961e-10  -2.4315286e-02   2.1404747e+00   3.2268800e-01  -8.6920931e+07
   4.6148716e-10  -2.4084586e-02   2.1269387e+00   3.2645559e-01  -8.6048498e+07
   4.6415472e-10  -2.3856200e-02   2.1135744e+00   3.3022116e-01  -8.5186076e+07
   4.6682227e-10  -2.3630102e-02   2.1003796e+00   3.3398432e-01  -8.4333524e+07
   4.6948983e-10  -2.3406264e-02   2.0873521e+00   3.3774468e-01  -8.3490699e+07
   4.7215739e-10  -2.3184663e-02   2.0744897e+00   3.4150185e-01  -8.2657462e+07
   4.7482494e-10  -2.2965271e-02   2.0617903e+00   3.4525544e-01  -8.1833679e+07
   4.7749250e-10  -2.2748064e-02   2.0492516e+00   3.4900509e-01  -8.1019214e+07
   4.8016005e-10  -2.2533017e-02   2.0368716e+00   3.5275044e-01  -8.0213936e+07
   4.8282761e-10  -2.2320107e-02   2.0246481e+00   3.5649111e-01  -7.9417717e+07
   4.8549517e-10  -2.2109308e-02   2.0125791e+00   3.6022677e-01  -7.8630429e+07
   4.8816272e-10  -2.1900598e-02   2.0006625e+00   3.6395706e-01  -7.7851947e+07
   4.9083028e-10  -2.1693953e-02   1.9888963e+00   3.6768166e-01  -7.7082149e+07
   4.9349783e-10  -2.1489350e-02   1.9772784e+00   3.7140021e-01  -7.6320915e+07
   4.9616539e-10  -2.1286766e-02   1.9658069e+00   3.7511242e-01  -7.5568126e+07
   4.9883294e-10  -2.1086179e-02   1.9544798e+00   3.7881794e-01  -7.4823665e+07
   5.0150050e-10  -2.0887567e-02   1.9432951e+00   3.8251648e-01  -7.4087420e+07
   5.0416806e-10  -2.0690908e-02   1.9322510e+00   3.8620773e-01  -7.3359277e+07
   5.0683561e-10  -2.0496180e-02   1.9213456e+00   3.8989138e-01  -7.2639127e+07
   5.0950317e-10  -2.0303364e-02   1.9105769e+00   3.9356716e-01  -7.1926860e+07
   5.1217072e-10  -2.0112436e-02   1.8999431e+00   3.9723477e-01  -7.1222371e+07
   5.1483828e-10  -1.9923378e-02   1.8894424e+00   4.0089393e-01  -7.0525554e+07
   5.1750584e-10  -1.9736169e-02   1.8790730e+00   4.0454437e-01  -6.9836308e+07
   5.2017339e-10  -1.9550788e-02   1.8688331e+00   4.0818582e-01  -6.9154530e+07
   5.2284095e-10  -1.9367216e-02   1.8587209e+00   4.1181803e-01  -6.8480122e+07
   5.2550850e-10  -1.9185433e-02   1.8487348e+00   4.1544073e-01  -6.7812985e+07
   5.2817606e-10  -1.9005420e-02   1.8388730e+00   4.1905368e-01  -6.7153025e+07
   5.3084361e-10  -1.8827158e-02   1.8291338e+00   4.2265664e-01  -6.6500146e+07
   5.3351117e-10  -1.8650629e-02   1.8195155e+00   4.2624937e-01  -6.5854255e+07
   5.3617873e-10  -1.8475813e-02   1.8100166e+00   4.2983164e-01  -6.5215262e+07
   5.3884628e-10  -1.8302692e-02   1.8006353e+00   4.3340322e-01  -6.4583077e+07
   5.4151384e-10  -1.8131249e-02   1.7913701e+00   4.3696390e-01  -6.3957612e+07
   5.4418139e-10  -1.7961466e-02   1.7822193e+00   4.4051345e-01  -6.3338779e+07
   5.4684895e-10  -1.7793325e-02   1.7731816e+00   4.4405168e-01  -6.2726495e+07
   5.4951651e-10  -1.7626808e-02   1.7642552e+00   4.4757838e-01  -6.2120674e+07
   5.5218406e-10  -1.7461899e-02   1.7554387e+00   4.5109334e-01  -6.1521235e+07
   5.5485162e-10  -1.7298580e-02   1.7467306e+00   4.5459639e-01  -6.0928097e+07
   5.5751917e-10  -1.7136835e-02   1.7381295e+00   4.5808733e-01  -6.0341179e+07
   5.6018673e-10  -1.6976648e-02   1.7296337e+00   4.6156597e-01  -5.9760405e+07
   5.6285428e-10  -1.6818002e-02   1.7212421e+00   4.6503216e-01  -5.9185695e+07
   5.6552184e-10  -1.6660881e-02   1.7129530e+00   4.6848570e-01  -5.8616975e+07
   5.6818940e-10  -1.6505269e-02   1.7047652e+00   4.7192644e-01  -5.8054170e+07
   5.7085695e-10  -1.6351150e-02   1.6966772e+00   4.7535422e-01  -5.7497206e+07
   5.7352451e-10  -1.6198510e-02   1.6886877e+00   4.7876887e-01  -5.6946011e+07
   5.7619206e-10  -1.6047332e-02   1.6807954e+00   4.8217026e-01  -5.6400515e+07
   5.7885962e-10  -1.5897602e-02   1.6729989e+00   4.8555822e-01  -5.5860647e+07
   5.8152718e-10  -1.5749305e-02   1.6652970e+00   4.8893262e-01  -5.5326338e+07
   5.8419473e-10  -1.5602425e-02   1.6576884e+00   4.9229332e-01  -5.4797521e+07
   5.8686229e-10  -1.5456949e-02   1.6501717e+00   4.9564018e-01  -5.4274129e+07
   5.8952984e-10  -1.5312862e-02   1.6427458e+00   4.9897309e-01  -5.3756096e+07
   5.9219740e-10  -1.5170150e-02   1.6354095e+00   5.0229190e-01  -5.3243359e+07
   5.9486495e-10  -1.5028798e-02   1.6281615e+00   5.0559652e-01  -5.2735852e+07
   5.9753251e-10  -1.4888794e-02   1.6210007e+00   5.0888681e-01  -5.2233514e+07
   6.0020007e-10  -1.4750122e-02   1.6139258e+00   5.1216267e-01  -5.1736284e+07
   6.0286762e-10  -1.4612770e-02   1.6069358e+00   5.1542399e-01  -5.1244099e+07
   6.0553518e-10  -1.4476725e-02   1.6000294e+00   5.1867066e-01  -5.0756902e+07
   6.0820273e-10  -1.4341973e-02   1.5932056e+00   5.2190260e-01  -5.0274632e+07
   6.1087029e-10  -1.4208500e-02   1.5864632e+00   5.2511970e-01  -4.9797232e+07
   6.1353785e-10  -1.4076295e-02   1.5798012e+00   5.2832187e-01  -4.9324645e+07
   6.1620540e-10  -1.3945343e-02   1.5732185e+00   5.3150902e-01  -4.8856815e+07
   6.1887296e-10  -1.3815634e-02   1.5667140e+00   5.3468108e-01  -4.8393686e+07
   6.2154051e-10  -1.3687154e-02   1.5602867e+00   5.3783796e-01  -4.7935204e+07
   6.2420807e-10  -1.3559890e-02   1.5539356e+00   5.4097958e-01  -4.7481316e+07
   6.2687563e-10  -1.3433832e-02   1.5476596e+00   5.4410588e-01  -4.7031967e+07
   6.2954318e-10  -1.3308966e-02   1.5414578e+00   5.4721678e-01  -4.6587107e+07
   6.3221074e-10  -1.3185280e-02   1.5353291e+00   5.5031222e-01  -4.6146683e+07
   6.3487829e-10  -1.3062764e-02   1.5292726e+00   5.5339214e-01  -4.5710646e+07
   6.3754585e-10  -1.2941405e-02   1.5232873e+00   5.5645647e-01  -4.5278945e+07
   6.4021340e-10  -1.2821192e-02   1.5173724e+00   5.5950516e-01  -4.4851531e+07
   6.4288096e-10  -1.2702114e-02   1.5115268e+00   5.6253817e-01  -4.4428355e+07
   6.4554852e-10  -1.2584158e-02   1.5057497e+00   5.6555544e-01  -4.4009371e+07
   6.4821607e-10  -1.2467315e-02   1.5000401e+00   5.6855692e-01  -4.3594531e+07
   6.5088363e-10  -1.2351573e-02   1.4943972e+00   5.7154258e-01  -4.3183788e+07
   6.5355118e-10  -1.2236921e-02   1.4888200e+00   5.7451236e-01  -4.2777097e+07
   6.5621874e-10  -1.2123349e-02   1.4833078e+00   5.7746625e-01  -4.2374413e+07
   6.5888630e-10  -1.2010846e-02   1.4778597e+00   5.8040419e-01  -4.1975691e+07
   6.6155385e-10  -1.1899401e-02   1.4724748e+00   5.8332617e-01  -4.1580887e+07
   6.6422141e-10  -1.1789004e-02   1.4671524e+00   5.8623215e-01  -4.1189959e+07
   6.6688896e-10  -1.1679644e-02   1.4618915e+00   5.8912210e-01  -4.0802863e+07
   6.6955652e-10  -1.1571312e-02   1.4566914e+00   5.9199601e-01  -4.0419558e+07
   6.7222407e-10  -1.1463998e-02   1.4515514e+00   5.9485386e-01  -4.0040002e+07
   6.7489163e-10  -1.1357691e-02   1.4464706e+00   5.9769562e-01  -3.9664154e+07
   6.7755919e-10  -1.1252382e-02   1.4414482e+00   6.0052128e-01  -3.9291974e+07
   6.8022674e-10  -1.1148061e-02   1.4364836e+00   6.0333083e-01  -3.8923422e+07
   6.8289430e-10  -1.1044718e-02   1.4315759e+00   6.0612426e-01  -3.8558458e+07
   6.8556185e-10  -1.0942344e-02   1.4267244e+00   6.0890156e-01  -3.8197045e+07
   6.8822941e-10  -1.0840930e-02   1.4219285e+00   6.1166272e-01  -3.7839144e+07
   6.9089697e-10  -1.0740465e-02   1.4171873e+00   6.1440775e-01  -3.7484717e+07
   6.9356452e-10  -1.0640941e-02   1.4125002e+00   6.1713663e-01  -3.7133726e+07
   6.9623208e-10  -1.0542350e-02   1.4078666e+00   6.1984938e-01  -3.6786137e+07
   6.9889963e-10  -1.0444680e-02   1.4032856e+00   6.2254600e-01  -3.6441911e+07
   7.0156719e-10  -1.0347925e-02   1.3987567e+00   6.2522649e-01  -3.6101013e+07
   7.0423474e-10  -1.0252074e-02   1.3942791e+00   6.2789085e-01  -3.5763408e+07
   7.0690230e-10  -1.0157120e-02   1.3898523e+00   6.3053911e-01  -3.5429062e+07
   7.0956986e-10  -1.0063054e-02   1.3854755e+00   6.3317127e-01  -3.5097939e+07
   7.1223741e-10  -9.9698660e-03   1.3811482e+00   6.3578733e-01  -3.4770006e+07
   7.1490497e-10  -9.8775490e-03   1.3768698e+00   6.3838733e-01  -3.4445230e+07
   7.1757252e-10  -9.7860941e-03   1.3726395e+00   6.4097128e-01  -3.4123577e+07
   7.2024008e-10  -9.6954932e-03   1.3684568e+00   6.4353919e-01  -3.3805014e+07
   7.2290764e-10  -9.6057379e-03   1.3643210e+00   6.4609108e-01  -3.3489510e+07
   7.2557519e-10  -9.5168202e-03   1.3602317e+00   6.4862699e-01  -3.3177032e+07
   7.2824275e-10  -9.4287321e-03   1.3561882e+00   6.5114693e-01  -3.2867549e+07
   7.3091030e-10  -9.3414656e-03   1.3521900e+00   6.5365092e-01  -3.2561030e+07
   7.3357786e-10  -9.2550128e-03   1.3482364e+00   6.5613901e-01  -3.2257445e+07
   7.3624542e-10  -9.1693660e-03   1.3443269e+00   6.5861120e-01  -3.1956762e+07
   7.3891297e-10  -9.0845174e-03   1.3404610e+00   6.6106755e-01  -3.1658953e+07
   7.4158053e-10  -9.0004594e-03   1.3366381e+00   6.6350807e-01  -3.1363987e+07
   7.4424808e-10  -8.9171845e-03   1.3328577e+00   6.6593280e-01  -3.1071836e+07
   7.4691564e-10  -8.8346852e-03   1.3291193e+00   6.6834178e-01  -3.0782470e+07
   7.4958319e-10  -8.7529541e-03   1.3254223e+00   6.7073504e-01  -3.0495862e+07
   7.5225075e-10  -8.6719840e-03   1.3217662e+00   6.7311262e-01  -3.0211982e+07
   7.5491831e-10  -8.5917675e-03   1.3181506e+00   6.7547455e-01  -2.9930804e+07
   7.5758586e-10  -8.5122974e-03   1.3145748e+00   6.7782089e-01  -2.9652299e+07
   7.6025342e-10  -8.4335668e-03   1.3110385e+00   6.8015166e-01  -2.9376441e+07
   7.6292097e-10  -8.3555685e-03   1.3075411e+00   6.8246692e-01  -2.9103202e+07
   7.6558853e-10  -8.2782957e-03   1.3040822e+00   6.8476671e-01  -2.8832557e+07
   7.6825609e-10  -8.2017413e-03   1.3006613e+00   6.8705106e-01  -2.8564479e+07
   7.7092364e-10  -8.1258987e-03   1.2972780e+00   6.8932004e-01  -2.8298942e+07
   7.7359120e-10  -8.0507611e-03   1.2939317e+00   6.9157367e-01  -2.8035921e+07
   7.7625875e-10  -7.9763218e-03   1.2906220e+00   6.9381202e-01  -2.7775391e+07
   7.7892631e-10  -7.9025741e-03   1.2873485e+00   6.9603513e-01  -2.7517325e+07
   7.8159386e-10  -7.8295116e-03   1.2841107e+00   6.9824305e-01  -2.7261701e+07
   7.8426142e-10  -7.7571277e-03   1.2809082e+00   7.0043584e-01  -2.7008493e+07
   7.8692898e-10  -7.6854161e-03   1.2777406e+00   7.0261354e-01  -2.6757677e+07
   7.8959653e-10  -7.6143704e-03   1.2746074e+00   7.0477620e-01  -2.6509229e+07
   7.9226409e-10  -7.5439844e-03   1.2715083e+00   7.0692389e-01  -2.6263126e+07
   7.9493164e-10  -7.4742517e-03   1.2684428e+00   7.0905665e-01  -2.6019345e+07
   7.9759920e-10  -7.4051662e-03   1.2654105e+00   7.1117455e-01  -2.5777862e+07
   8.0026676e-10  -7.3367219e-03   1.2624110e+00   7.1327763e-01  -2.5538655e+07
   8.0293431e-10  -7.2689127e-03   1.2594439e+00   7.1536596e-01  -2.5301701e+07
   8.0560187e-10  -7.2017325e-03   1.2565089e+00   7.1743959e-01  -2.5066977e+07
   8.0826942e-10  -7.1351756e-03   1.2536056e+00   7.1949858e-01  -2.4834463e+07
   8.1093698e-10  -7.0692359e-03   1.2507335e+00   7.2154299e-01  -2.4604136e+07
   8.1360453e-10  -7.0039078e-03   1.2478923e+00   7.2357288e-01  -2.4375975e+07
   8.1627209e-10  -6.9391855e-03   1.2450816e+00   7.2558831e-01  -2.4149958e+07
   8.1893965e-10  -6.8750632e-03   1.2423011e+00   7.2758934e-01  -2.3926064e+07
   8.2160720e-10  -6.8115354e-03   1.2395505e+00   7.2957603e-01  -2.3704272e+07
   8.2427476e-10  -6.7485964e-03   1.2368292e+00   7.3154845e-01  -2.3484563e+07
   8.2694231e-10  -6.6862408e-03   1.2341371e+00   7.3350666e-01  -2.3266915e+07
   8.2960987e-10  -6.6244630e-03   1.2314738e+00   7.3545072e-01  -2.3051308e+07
   8.3227743e-10  -6.5632577e-03   1.2288389e+00   7.3738069e-01  -2.2837723e+07
   8.3494498e-10  -6.5026195e-03   1.2262321e+00   7.3929665e-01  -2.2626139e+07
   8.3761254e-10  -6.4425430e-03   1.2236530e+00   7.4119865e-01  -2.2416538e+07
   8.4028009e-10  -6.3830230e-03   1.2211014e+00   7.4308675e-01  -2.2208900e+07
   8.4294765e-10  -6.3240543e-03   1.2185769e+00   7.4496104e-01  -2.2003205e+07
   8.4561521e-10  -6.2656317e-03   1.2160792e+00   7.4682156e-01  -2.1799436e+07
   8.4828276e-10  -6.2077502e-03   1.2136080e+00   7.4866839e-01  -2.1597573e+07
   8.5095032e-10  -6.1504046e-03   1.2111629e+00   7.5050160e-01  -2.1397598e+07
   8.5361787e-10  -6.0935899e-03   1.2087438e+00   7.5232125e-01  -2.1199493e+07
   8.5628543e-10  -6.0373013e-03   1.2063502e+00   7.5412741e-01  -2.1003239e+07
   8.5895298e-10  -5.9815337e-03   1.2039818e+00   7.5592015e-01  -2.0808819e+07
   8.6162054e-10  -5.9262823e-03   1.2016385e+00   7.5769953e-01  -2.0616215e+07
   8.6428810e-10  -5.8715423e-03   1.1993198e+00   7.5946562e-01  -2.0425409e+07
   8.6695565e-10  -5.8173089e-03   1.1970256e+00   7.6121850e-01  -2.0236385e+07
   8.6962321e-10  -5.7635773e-03   1.1947554e+00   7.6295823e-01  -2.0049125e+07
   8.7229076e-10  -5.7103430e-03   1.1925091e+00   7.6468488e-01  -1.9863612e+07
   8.7495832e-10  -5.6576012e-03   1.1902864e+00   7.6639853e-01  -1.9679829e+07
   8.7762588e-10  -5.6053474e-03   1.1880870e+00   7.6809923e-01  -1.9497760e+07
   8.8029343e-10  -5.5535770e-03   1.1859106e+00   7.6978706e-01  -1.9317388e+07
   8.8296099e-10  -5.5022855e-03   1.1837570e+00   7.7146209e-01  -1.9138698e+07
   8.8562854e-10  -5.4514684e-03   1.1816259e+00   7.7312439e-01  -1.8961672e+07
   8.8829610e-10  -5.4011214e-03   1.1795170e+00   7.7477404e-01  -1.8786296e+07
   8.9096365e-10  -5.3512400e-03   1.1774302e+00   7.7641109e-01  -1.8612552e+07
   8.9363121e-10  -5.3018199e-03   1.1753651e+00   7.7803562e-01  -1.8440427e+07
   8.9629877e-10  -5.2528568e-03   1.1733215e+00   7.7964771e-01  -1.8269904e+07
   8.9896632e-10  -5.2043465e-03   1.1712991e+00   7.8124742e-01  -1.8100967e+07
   9.0163388e-10  -5.1562847e-03   1.1692978e+00   7.8283482e-01  -1.7933603e+07
   9.0430143e-10  -5.1086674e-03   1.1673172e+00   7.8440999e-01  -1.7767796e+07
   9.0696899e-10  -5.0614902e-03   1.1653572e+00   7.8597300e-01  -1.7603530e+07
   9.0963655e-10  -5.0147492e-03   1.1634175e+00   7.8752391e-01  -1.7440792e+07
   9.1230410e-10  -4.9684403e-03   1.1614979e+00   7.8906279e-01  -1.7279567e+07
   9.1497166e-10  -4.9225594e-03   1.1595981e+00   7.9058973e-01  -1.7119841e+07
   9.1763921e-10  -4.8771027e-03   1.1577179e+00   7.9210479e-01  -1.6961599e+07
   9.2030677e-10  -4.8320661e-03   1.1558572e+00   7.9360804e-01  -1.6804827e+07
   9.2297432e-10  -4.7874458e-03   1.1540157e+00   7.9509955e-01  -1.6649512e+07
   9.2564188e-10  -4.7432378e-03   1.1521931e+00   7.9657939e-01  -1.6495639e+07
   9.2830944e-10  -4.6994384e-03   1.1503893e+00   7.9804764e-01  -1.6343195e+07
   9.3097699e-10  -4.6560438e-03   1.1486040e+00   7.9950436e-01  -1.6192166e+07
   9.3364455e-10  -4.6130502e-03   1.1468372e+00   8.0094963e-01  -1.6042540e+07
   9.3631210e-10  -4.5704538e-03   1.1450884e+00   8.0238351e-01  -1.5894302e+07
   9.3897966e-10  -4.5282511e-03   1.1433576e+00   8.0380609e-01  -1.5747440e+07
   9.4164722e-10  -4.4864383e-03   1.1416445e+00   8.0521742e-01  -1.5601940e+07
   9.4431477e-10  -4.4450118e-03   1.1399490e+00   8.0661758e-01  -1.5457791e+07
   9.4698233e-10  -4.4039680e-03   1.1382709e+00   8.0800664e-01  -1.5314978e+07
   9.4964988e-10  -4.3633035e-03   1.1366099e+00   8.0938468e-01  -1.5173490e+07
   9.5231744e-10  -4.3230146e-03   1.1349658e+00   8.1075175e-01  -1.5033314e+07
   9.5498499e-10  -4.2830979e-03   1.1333386e+00   8.1210793e-01  -1.4894438e+07
   9.5765255e-10  -4.2435500e-03   1.1317279e+00   8.1345330e-01  -1.4756849e+07
   9.6032011e-10  -4.2043673e-03   1.1301337e+00   8.1478792e-01  -1.4620535e+07
   9.6298766e-10  -4.1655467e-03   1.1285557e+00   8.1611185e-01  -1.4485485e+07
   9.6565522e-10  -4.1270846e-03   1.1269938e+00   8.1742518e-01  -1.4351686e+07
   9.6832277e-10  -4.0889777e-03   1.1254477e+00   8.1872797e-01  -1.4219127e+07
   9.7099033e-10  -4.0512228e-03   1.1239173e+00   8.2002029e-01  -1.4087796e+07
   9.7365789e-10  -4.0138167e-03   1.1224025e+00   8.2130221e-01  -1.3957682e+07
   9.7632544e-10  -3.9767560e-03   1.1209031e+00   8.2257380e-01  -1.3828772e+07
   9.7899300e-10  -3.9400376e-03   1.1194188e+00   8.2383512e-01  -1.3701057e+07
   9.8166055e-10  -3.9036582e-03   1.1179496e+00   8.2508625e-01  -1.3574524e+07
   9.8432811e-10  -3.8676149e-03   1.1164953e+00   8.2632726e-01  -1.3449163e+07
   9.8699567e-10  -3.8319044e-03   1.1150556e+00   8.2755820e-01  -1.3324962e+07
   9.8966322e-10  -3.7965237e-03   1.1136305e+00   8.2877916e-01  -1.3201911e+07
   9.9233078e-10  -3.7614697e-03   1.1122198e+00   8.2999020e-01  -1.3080000e+07
   9.9499833e-10  -3.7267395e-03   1.1108233e+00   8.3119138e-01  -1.2959216e+07
   9.9766589e-10  -3.6923299e-03   1.1094409e+00   8.3238278e-01  -1.2839550e+07
   1.0003334e-09  -3.6582380e-03   1.1080725e+00   8.3356445e-01  -1.2720992e+07
   1.0030010e-09  -3.6244610e-03   1.1067178e+00   8.3473648e-01  -1.2603531e+07
   1.0056686e-09  -3.5909958e-03   1.1053767e+00   8.3589892e-01  -1.2487156e+07
   1.0083361e-09  -3.5578397e-03   1.1040492e+00   8.3705185e-01  -1.2371858e+07
   1.0110037e-09  -3.5249896e-03   1.1027349e+00   8.3819532e-01  -1.2257626e+07
   1.0136712e-09  -3.4924429e-03   1.1014339e+00   8.3932941e-01  -1.2144451e+07
   1.0163388e-09  -3.4601967e-03   1.1001459e+00   8.4045417e-01  -1.2032323e+07
   1.0190063e-09  -3.4282482e-03   1.0988708e+00   8.4156968e-01  -1.1921232e+07
   1.0216739e-09  -3.3965947e-03   1.0976085e+00   8.4267601e-01  -1.1811168e+07
   1.0243414e-09  -3.3652334e-03   1.0963588e+00   8.4377321e-01  -1.1702122e+07
   1.0270090e-09  -3.3341617e-03   1.0951217e+00   8.4486135e-01  -1.1594084e+07
   1.0296766e-09  -3.3033768e-03   1.0938969e+00   8.4594050e-01  -1.1487044e+07
   1.0323441e-09  -3.2728761e-03   1.0926843e+00   8.4701071e-01  -1.1380995e+07
   1.0350117e-09  -3.2426570e-03   1.0914838e+00   8.4807206e-01  -1.1275925e+07
   1.0376792e-09  -3.2127169e-03   1.0902954e+00   8.4912461e-01  -1.1171827e+07
   1.0403468e-09  -3.1830532e-03   1.0891187e+00   8.5016843e-01  -1.1068691e+07
   1.0430143e-09  -3.1536634e-03   1.0879539e+00   8.5120356e-01  -1.0966509e+07
   1.0456819e-09  -3.1245449e-03   1.0868006e+00   8.5223008e-01  -1.0865270e+07
   1.0483494e-09  -3.0956951e-03   1.0856587e+00   8.5324806e-01  -1.0764967e+07
   1.0510170e-09  -3.0671117e-03   1.0845283e+00   8.5425755e-01  -1.0665591e+07
   1.0536846e-09  -3.0387922e-03   1.0834091e+00   8.5525861e-01  -1.0567134e+07
   1.0563521e-09  -3.0107341e-03   1.0823009e+00   8.5625131e-01  -1.0469586e+07
   1.0590197e-09  -2.9829350e-03   1.0812038e+00   8.5723570e-01  -1.0372939e+07
   1.0616872e-09  -2.9553925e-03   1.0801176e+00   8.5821186e-01  -1.0277185e+07
   1.0643548e-09  -2.9281043e-03   1.0790422e+00   8.5917984e-01  -1.0182316e+07
   1.0670223e-09  -2.9010679e-03   1.0779774e+00   8.6013969e-01  -1.0088323e+07
   1.0696899e-09  -2.8742812e-03   1.0769231e+00   8.6109149e-01  -9.9951982e+06
   1.0723575e-09  -2.8477417e-03   1.0758793e+00   8.6203529e-01  -9.9029338e+06
   1.0750250e-09  -2.8214471e-03   1.0748458e+00   8.6297115e-01  -9.8115215e+06
   1.0776926e-09  -2.7953953e-03   1.0738226e+00   8.6389914e-01  -9.7209535e+06
   1.0803601e-09  -2.7695840e-03   1.0728094e+00   8.6481930e-01  -9.6312220e+06
   1.0830277e-09  -2.7440110e-03   1.0718063e+00   8.6573170e-01  -9.5423191e+06
   1.0856952e-09  -2.7186740e-03   1.0708130e+00   8.6663640e-01  -9.4542373e+06
   1.0883628e-09  -2.6935708e-03   1.0698296e+00   8.6753345e-01  -9.3669689e+06
   1.0910303e-09  -2.6686994e-03   1.0688558e+00   8.6842292e-01  -9.2805064e+06
   1.0936979e-09  -2.6440576e-03   1.0678916e+00   8.6930485e-01  -9.1948422e+06
   1.0963655e-09  -2.6196432e-03   1.0669370e+00   8.7017932e-01  -9.1099690e+06
   1.0990330e-09  -2.5954542e-03   1.0659917e+00   8.7104637e-01  -9.0258795e+06
   1.1017006e-09  -2.5714884e-03   1.0650557e+00   8.7190606e-01  -8.9425664e+06
   1.1043681e-09  -2.5477439e-03   1.0641289e+00   8.7275845e-01  -8.8600225e+06
   1.1070357e-09  -2.5242186e-03   1.0632113e+00   8.7360359e-01  -8.7782407e+06
   1.1097032e-09  -2.5009103e-03   1.0623026e+00   8.7444154e-01  -8.6972139e+06
   1.1123708e-09  -2.4778173e-03   1.0614029e+00   8.7527236e-01  -8.6169351e+06
   1.1150383e-09  -2.4549374e-03   1.0605119e+00   8.7609610e-01  -8.5373975e+06
   1.1177059e-09  -2.4322687e-03   1.0596298e+00   8.7691281e-01  -8.4585940e+06
   1.1203735e-09  -2.4098092e-03   1.0587562e+00   8.7772255e-01  -8.3805181e+06
   1.1230410e-09  -2.3875570e-03   1.0578913e+00   8.7852537e-01  -8.3031628e+06
   1.1257086e-09  -2.3655102e-03   1.0570348e+00   8.7932134e-01  -8.2265216e+06
   1.1283761e-09  -2.3436670e-03   1.0561866e+00   8.8011049e-01  -8.1505878e+06
   1.1310437e-09  -2.3220253e-03   1.0553468e+00   8.8089288e-01  -8.0753549e+06
   1.1337112e-09  -2.3005834e-03   1.0545152e+00   8.8166858e-01  -8.0008164e+06
   1.1363788e-09  -2.2793395e-03   1.0536917e+00   8.8243762e-01  -7.9269659e+06
   1.1390463e-09  -2.2582916e-03   1.0528762e+00   8.8320006e-01  -7.8537970e+06
   1.1417139e-09  -2.2374380e-03   1.0520688e+00   8.8395596e-01  -7.7813035e+06
   1.1443815e-09  -2.2167769e-03   1.0512691e+00   8.8470536e-01  -7.7094790e+06
   1.1470490e-09  -2.1963065e-03   1.0504773e+00   8.8544831e-01  -7.6383174e+06
   1.1497166e-09  -2.1760250e-03   1.0496932e+00   8.8618487e-01  -7.5678125e+06
   1.1523841e-09  -2.1559308e-03   1.0489168e+00   8.8691510e-01  -7.4979583e+06
   1.1550517e-09  -2.1360220e-03   1.0481479e+00   8.8763902e-01  -7.4287488e+06
   1.1577192e-09  -2.1162970e-03   1.0473865e+00   8.8835671e-01  -7.3601780e+06
   1.1603868e-09  -2.0967541e-03   1.0466325e+00   8.8906820e-01  -7.2922400e+06
   1.1630544e-09  -2.0773915e-03   1.0458858e+00   8.8977355e-01  -7.2249290e+06
   1.1657219e-09  -2.0582077e-03   1.0451464e+00   8.9047281e-01  -7.1582391e+06
   1.1683895e-09  -2.0392010e-03   1.0444142e+00   8.9116602e-01  -7.0921646e+06
   1.1710570e-09  -2.0203697e-03   1.0436891e+00   8.9185323e-01  -7.0266999e+06
   1.1737246e-09  -2.0017122e-03   1.0429710e+00   8.9253449e-01  -6.9618393e+06
   1.1763921e-09  -1.9832269e-03   1.0422599e+00   8.9320985e-01  -6.8975772e+06
   1.1790597e-09  -1.9649123e-03   1.0415557e+00   8.9387936e-01  -6.8339081e+06
   1.1817272e-09  -1.9467668e-03   1.0408583e+00   8.9454306e-01  -6.7708265e+06
   1.1843948e-09  -1.9287887e-03   1.0401677e+00   8.9520100e-01  -6.7083270e+06
   1.1870624e-09  -1.9109766e-03   1.0394838e+00   8.9585323e-01  -6.6464042e+06
   1.1897299e-09  -1.8933289e-03   1.0388064e+00   8.9649979e-01  -6.5850528e+06
   1.1923975e-09  -1.8758441e-03   1.0381357e+00   8.9714073e-01  -6.5242675e+06
   1.1950650e-09  -1.8585207e-03   1.0374714e+00   8.9777609e-01  -6.4640431e+06
   1.1977326e-09  -1.8413572e-03   1.0368136e+00   8.9840593e-01  -6.4043743e+06
   1.2004001e-09  -1.8243521e-03   1.0361621e+00   8.9903027e-01  -6.3452562e+06
   1.2030677e-09  -1.8075041e-03   1.0355169e+00   8.9964918e-01  -6.2866835e+06
   1.2057352e-09  -1.7908115e-03   1.0348780e+00   9.0026269e-01  -6.2286513e+06
   1.2084028e-09  -1.7742730e-03   1.0342452e+00   9.0087085e-01  -6.1711546e+06
   1.2110704e-09  -1.7578872e-03   1.0336185e+00   9.0147369e-01  -6.1141883e+06
   1.2137379e-09  -1.7416527e-03   1.0329979e+00   9.0207128e-01  -6.0577477e+06
   1.2164055e-09  -1.7255680e-03   1.0323833e+00   9.0266364e-01  -6.0018279e+06
   1.2190730e-09  -1.7096318e-03   1.0317746e+00   9.0325082e-01  -5.9464240e+06
   1.2217406e-09  -1.6938427e-03   1.0311717e+00   9.0383286e-01  -5.8915313e+06
   1.2244081e-09  -1.6781994e-03   1.0305747e+00   9.0440981e-01  -5.8371451e+06
   1.2270757e-09  -1.6627004e-03   1.0299834e+00   9.0498171e-01  -5.7832607e+06
   1.2297432e-09  -1.6473446e-03   1.0293978e+00   9.0554860e-01  -5.7298735e+06
   1.2324108e-09  -1.6321305e-03   1.0288179e+00   9.0611051e-01  -5.6769789e+06
   1.2350784e-09  -1.6170568e-03   1.0282435e+00   9.0666750e-01  -5.6245723e+06
   1.2377459e-09  -1.6021223e-03   1.0276746e+00   9.0721960e-01  -5.5726492e+06
   1.2404135e-09  -1.5873257e-03   1.0271112e+00   9.0776686e-01  -5.5212053e+06
   1.2430810e-09  -1.5726657e-03   1.0265533e+00   9.0830930e-01  -5.4702360e+06
   1.2457486e-09  -1.5581410e-03   1.0260007e+00   9.0884698e-01  -5.4197369e+06
   1.2484161e-09  -1.5437504e-03   1.0254534e+00   9.0937993e-01  -5.3697038e+06
   1.2510837e-09  -1.5294926e-03   1.0249113e+00   9.0990819e-01  -5.3201324e+06
   1.2537513e-09  -1.5153664e-03   1.0243745e+00   9.1043181e-01  -5.2710183e+06
   1.2564188e-09  -1.5013707e-03   1.0238428e+00   9.1095081e-01  -5.2223574e+06
   1.2590864e-09  -1.4875042e-03   1.0233162e+00   9.1146524e-01  -5.1741454e+06
   1.2617539e-09  -1.4737657e-03   1.0227946e+00   9.1197514e-01  -5.1263783e+06
   1.2644215e-09  -1.4601540e-03   1.0222781e+00   9.1248054e-01  -5.0790519e+06
   1.2670890e-09  -1.4466680e-03   1.0217665e+00   9.1298149e-01  -5.0321622e+06
   1.2697566e-09  -1.4333065e-03   1.0212598e+00   9.1347801e-01  -4.9857052e+06
   1.2724241e-09  -1.4200683e-03   1.0207579e+00   9.1397015e-01  -4.9396767e+06
   1.2750917e-09  -1.4069524e-03   1.0202609e+00   9.1445794e-01  -4.8940730e+06
   1.2777593e-09  -1.3939575e-03   1.0197686e+00   9.1494142e-01  -4.8488901e+06
   1.2804268e-09  -1.3810826e-03   1.0192810e+00   9.1542063e-01  -4.8041240e+06
   1.2830944e-09  -1.3683266e-03   1.0187981e+00   9.1589560e-01  -4.7597710e+06
   1.2857619e-09  -1.3556883e-03   1.0183198e+00   9.1636637e-01  -4.7158273e+06
   1.2884295e-09  -1.3431668e-03   1.0178461e+00   9.1683297e-01  -4.6722890e+06
   1.2910970e-09  -1.3307608e-03   1.0173769e+00   9.1729544e-01  -4.6291524e+06
   1.2937646e-09  -1.3184694e-03   1.0169122e+00   9.1775381e-01  -4.5864139e+06
   1.2964321e-09  -1.3062914e-03   1.0164519e+00   9.1820812e-01  -4.5440697e+06
   1.2990997e-09  -1.2942259e-03   1.0159960e+00   9.1865840e-01  -4.5021162e+06
   1.3017673e-09  -1.2822718e-03   1.0155445e+00   9.1910468e-01  -4.4605498e+06
   1.3044348e-09  -1.2704280e-03   1.0150972e+00   9.1954701e-01  -4.4193670e+06
   1.3071024e-09  -1.2586936e-03   1.0146543e+00   9.1998541e-01  -4.3785641e+06
   1.3097699e-09  -1.2470676e-03   1.0142155e+00   9.2041992e-01  -4.3381378e+06
   1.3124375e-09  -1.2355488e-03   1.0137810e+00   9.2085057e-01  -4.2980845e+06
   1.3151050e-09  -1.2241365e-03   1.0133506e+00   9.2127739e-01  -4.2584008e+06
   1.3177726e-09  -1.2128295e-03   1.0129242e+00   9.2170042e-01  -4.2190832e+06
   1.3204401e-09  -1.2016269e-03   1.0125020e+00   9.2211968e-01  -4.1801285e+06
   1.3231077e-09  -1.1905277e-03   1.0120838e+00   9.2253522e-01  -4.1415332e+06
   1.3257753e-09  -1.1795310e-03   1.0116695e+00   9.2294706e-01  -4.1032940e+06
   1.3284428e-09  -1.1686359e-03   1.0112592e+00   9.2335523e-01  -4.0654077e+06
   1.3311104e-09  -1.1578413e-03   1.0108528e+00   9.2375976e-01  -4.0278710e+06
   1.3337779e-09  -1.1471464e-03   1.0104503e+00   9.2416069e-01  -3.9906807e+06
   1.3364455e-09  -1.1365503e-03   1.0100515e+00   9.2455805e-01  -3.9538335e+06
   1.3391130e-09  -1.1260520e-03   1.0096566e+00   9.2495187e-01  -3.9173264e+06
   1.3417806e-09  -1.1156506e-03   1.0092655e+00   9.2534217e-01  -3.8811561e+06
   1.3444481e-09  -1.1053453e-03   1.0088780e+00   9.2572899e-01  -3.8453197e+06
   1.3471157e-09  -1.0951351e-03   1.0084942e+00   9.2611236e-01  -3.8098139e+06
   1.3497833e-09  -1.0850192e-03   1.0081141e+00   9.2649231e-01  -3.7746357e+06
   1.3524508e-09  -1.0749967e-03   1.0077376e+00   9.2686886e-01  -3.7397822e+06
   1.3551184e-09  -1.0650668e-03   1.0073647e+00   9.2724205e-01  -3.7052504e+06
   1.3577859e-09  -1.0552285e-03   1.0069953e+00   9.2761191e-01  -3.6710372e+06
   1.3604535e-09  -1.0454811e-03   1.0066294e+00   9.2797846e-01  -3.6371397e+06
   1.3631210e-09  -1.0358237e-03   1.0062669e+00   9.2834173e-01  -3.6035550e+06
   1.3657886e-09  -1.0262554e-03   1.0059079e+00   9.2870175e-01  -3.5702803e+06
   1.3684562e-09  -1.0167756e-03   1.0055524e+00   9.2905855e-01  -3.5373126e+06
   1.3711237e-09  -1.0073832e-03   1.0052001e+00   9.2941216e-01  -3.5046492e+06
   1.3737913e-09  -9.9807759e-04   1.0048513e+00   9.2976260e-01  -3.4722872e+06
   1.3764588e-09  -9.8885790e-04   1.0045057e+00   9.3010991e-01  -3.4402239e+06
   1.3791264e-09  -9.7972335e-04   1.0041634e+00   9.3045410e-01  -3.4084565e+06
   1.3817939e-09  -9.7067314e-04   1.0038244e+00   9.3079521e-01  -3.3769822e+06
   1.3844615e-09  -9.6170651e-04   1.0034885e+00   9.3113326e-01  -3.3457984e+06
   1.3871290e-09  -9.5282268e-04   1.0031558e+00   9.3146828e-01  -3.3149024e+06
   1.3897966e-09  -9.4402088e-04   1.0028263e+00   9.3180030e-01  -3.2842916e+06
   1.3924642e-09  -9.3530037e-04   1.0024999e+00   9.3212933e-01  -3.2539632e+06
   1.3951317e-09  -9.2666038e-04   1.0021766e+00   9.3245542e-01  -3.2239148e+06
   1.3977993e-09  -9.1810017e-04   1.0018564e+00   9.3277858e-01  -3.1941437e+06
   1.4004668e-09  -9.0961902e-04   1.0015391e+00   9.3309883e-01  -3.1646473e+06
   1.4031344e-09  -9.0121618e-04   1.0012249e+00   9.3341621e-01  -3.1354232e+06
   1.4058019e-09  -8.9289095e-04   1.0009137e+00   9.3373074e-01  -3.1064688e+06
   1.4084695e-09  -8.8464259e-04   1.0006054e+00   9.3404244e-01  -3.0777816e+06
   1.4111370e-09  -8.7647040e-04   1.0003000e+00   9.3435135e-01  -3.0493592e+06
   1.4138046e-09  -8.6837368e-04   9.9999745e-01   9.3465747e-01  -3.0211991e+06
   1.4164722e-09  -8.6035174e-04   9.9969779e-01   9.3496084e-01  -2.9932989e+06
   1.4191397e-09  -8.5240387e-04   9.9940096e-01   9.3526148e-01  -2.9656562e+06
   1.4218073e-09  -8.4452940e-04   9.9910694e-01   9.3555942e-01  -2.9382687e+06
   1.4244748e-09  -8.3672765e-04   9.9881569e-01   9.3585468e-01  -2.9111339e+06
   1.4271424e-09  -8.2899796e-04   9.9852719e-01   9.3614727e-01  -2.8842496e+06
   1.4298099e-09  -8.2133964e-04   9.9824142e-01   9.3643724e-01  -2.8576135e+06
   1.4324775e-09  -8.1375205e-04   9.9795834e-01   9.3672459e-01  -2.8312231e+06
   1.4351450e-09  -8.0623453e-04   9.9767792e-01   9.3700935e-01  -2.8050764e+06
   1.4378126e-09  -7.9878644e-04   9.9740016e-01   9.3729155e-01  -2.7791710e+06
   1.4404802e-09  -7.9140713e-04   9.9712501e-01   9.3757120e-01  -2.7535047e+06
   1.4431477e-09  -7.8409597e-04   9.9685246e-01   9.3784834e-01  -2.7280754e+06
   1.4458153e-09  -7.7685234e-04   9.9658247e-01   9.3812297e-01  -2.7028807e+06
   1.4484828e-09  -7.6967560e-04   9.9631503e-01   9.3839513e-01  -2.6779186e+06
   1.4511504e-09  -7.6256514e-04   9.9605011e-01   9.3866483e-01  -2.6531869e+06
   1.4538179e-09  -7.5552034e-04   9.9578769e-01   9.3893210e-01  -2.6286835e+06
   1.4564855e-09  -7.4854061e-04   9.9552774e-01   9.3919695e-01  -2.6044063e+06
   1.4591531e-09  -7.4162535e-04   9.9527023e-01   9.3945942e-01  -2.5803532e+06
   1.4618206e-09  -7.3477394e-04   9.9501515e-01   9.3971951e-01  -2.5565221e+06
   1.4644882e-09  -7.2798582e-04   9.9476247e-01   9.3997726e-01  -2.5329110e+06
   1.4671557e-09  -7.2126039e-04   9.9451217e-01   9.4023268e-01  -2.5095178e+06
   1.4698233e-09  -7.1459707e-04   9.9426423e-01   9.4048579e-01  -2.4863406e+06
   1.4724908e-09  -7.0799529e-04   9.9401862e-01   9.4073661e-01  -2.4633774e+06
   1.4751584e-09  -7.0145449e-04   9.9377532e-01   9.4098516e-01  -2.4406261e+06
   1.4778259e-09  -6.9497409e-04   9.9353430e-01   9.4123147e-01  -2.4180848e+06
   1.4804935e-09  -6.8855355e-04   9.9329556e-01   9.4147555e-01  -2.3957516e+06
   1.4831611e-09  -6.8219231e-04   9.9305906e-01   9.4171743e-01  -2.3736246e+06
   1.4858286e-09  -6.7588982e-04   9.9282478e-01   9.4195711e-01  -2.3517018e+06
   1.4884962e-09  -6.6964554e-04   9.9259271e-01   9.4219463e-01  -2.3299815e+06
   1.4911637e-09  -6.6345893e-04   9.9236281e-01   9.4243000e-01  -2.3084616e+06
   1.4938313e-09  -6.5732946e-04   9.9213508e-01   9.4266323e-01  -2.2871404e+06
   1.4964988e-09  -6.5125660e-04   9.9190949e-01   9.4289436e-01  -2.2660160e+06
   1.4991664e-09  -6.4523984e-04   9.9168601e-01   9.4312339e-01  -2.2450867e+06
   1.5018339e-09  -6.3927864e-04   9.9146464e-01   9.4335035e-01  -2.2243505e+06
   1.5045015e-09  -6.3337251e-04   9.9124534e-01   9.4357525e-01  -2.2038058e+06
   1.5071691e-09  -6.2752092e-04   9.9102811e-01   9.4379811e-01  -2.1834508e+06
   1.5098366e-09  -6.2172339e-04   9.9081291e-01   9.4401896e-01  -2.1632836e+06
   1.5125042e-09  -6.1597940e-04   9.9059974e-01   9.4423780e-01  -2.1433027e+06
   1.5151717e-09  -6.1028846e-04   9.9038856e-01   9.4445466e-01  -2.1235062e+06
   1.5178393e-09  -6.0465009e-04   9.9017937e-01   9.4466955e-01  -2.1038925e+06
   1.5205068e-09  -5.9906380e-04   9.8997214e-01   9.4488249e-01  -2.0844598e+06
   1.5231744e-09  -5.9352911e-04   9.8976685e-01   9.4509351e-01  -2.0652066e+06
   1.5258419e-09  -5.8804554e-04   9.8956349e-01   9.4530260e-01  -2.0461311e+06
   1.5285095e-09  -5.8261261e-04   9.8936204e-01   9.4550980e-01  -2.0272318e+06
   1.5311771e-09  -5.7722987e-04   9.8916248e-01   9.4571512e-01  -2.0085069e+06
   1.5338446e-09  -5.7189685e-04   9.8896478e-01   9.4591858e-01  -1.9899549e+06
   1.5365122e-09  -5.6661309e-04   9.8876895e-01   9.4612019e-01  -1.9715742e+06
   1.5391797e-09  -5.6137813e-04   9.8857494e-01   9.4631997e-01  -1.9533632e+06
   1.5418473e-09  -5.5619153e-04   9.8838276e-01   9.4651793e-01  -1.9353203e+06
   1.5445148e-09  -5.5105283e-04   9.8819238e-01   9.4671410e-01  -1.9174440e+06
   1.5471824e-09  -5.4596160e-04   9.8800378e-01   9.4690849e-01  -1.8997328e+06
   1.5498499e-09  -5.4091740e-04   9.8781695e-01   9.4710110e-01  -1.8821851e+06
   1.5525175e-09  -5.3591979e-04   9.8763187e-01   9.4729197e-01  -1.8647994e+06
   1.5551851e-09  -5.3096834e-04   9.8744852e-01   9.4748111e-01  -1.8475742e+06
   1.5578526e-09  -5.2606263e-04   9.8726689e-01   9.4766852e-01  -1.8305081e+06
   1.5605202e-09  -5.2120224e-04   9.8708696e-01   9.4785423e-01  -1.8135996e+06
   1.5631877e-09  -5.1638674e-04   9.8690872e-01   9.4803825e-01  -1.7968471e+06
   1.5658553e-09  -5.1161572e-04   9.8673214e-01   9.4822060e-01  -1.7802494e+06
   1.5685228e-09  -5.0688877e-04   9.8655722e-01   9.4840129e-01  -1.7638049e+06
   1.5711904e-09  -5.0220549e-04   9.8638394e-01   9.4858034e-01  -1.7475122e+06
   1.5738580e-09  -4.9756547e-04   9.8621228e-01   9.4875776e-01  -1.7313700e+06
   1.5765255e-09  -4.9296831e-04   9.8604222e-01   9.4893356e-01  -1.7153768e+06
   1.5791931e-09  -4.8841361e-04   9.8587376e-01   9.4910776e-01  -1.6995314e+06
   1.5818606e-09  -4.8390099e-04   9.8570687e-01   9.4928038e-01  -1.6838322e+06
   1.5845282e-09  -4.7943005e-04   9.8554154e-01   9.4945142e-01  -1.6682780e+06
   1.5871957e-09  -4.7500041e-04   9.8537776e-01   9.4962091e-01  -1.6528674e+06
   1.5898633e-09  -4.7061169e-04   9.8521551e-01   9.4978886e-01  -1.6375991e+06
   1.5925308e-09  -4.6626351e-04   9.8505478e-01   9.4995527e-01  -1.6224718e+06
   1.5951984e-09  -4.6195550e-04   9.8489556e-01   9.5012017e-01  -1.6074841e+06
   1.5978660e-09  -4.5768728e-04   9.8473782e-01   9.5028357e-01  -1.5926349e+06
   1.6005335e-09  -4.5345849e-04   9.8458155e-01   9.5044548e-01  -1.5779228e+06
   1.6032011e-09  -4.4926876e-04   9.8442675e-01   9.5060591e-01  -1.5633465e+06
   1.6058686e-09  -4.4511774e-04   9.8427339e-01   9.5076489e-01  -1.5489049e+06
   1.6085362e-09  -4.4100506e-04   9.8412147e-01   9.5092241e-01  -1.5345966e+06
   1.6112037e-09  -4.3693038e-04   9.8397097e-01   9.5107850e-01  -1.5204204e+06
   1.6138713e-09  -4.3289334e-04   9.8382187e-01   9.5123316e-01  -1.5063751e+06
   1.6165388e-09  -4.2889358e-04   9.8367417e-01   9.5138641e-01  -1.4924596e+06
   1.6192064e-09  -4.2493078e-04   9.8352784e-01   9.5153827e-01  -1.4786725e+06
   1.6218740e-09  -4.2100459e-04   9.8338289e-01   9.5168874e-01  -1.4650128e+06
   1.6245415e-09  -4.1711466e-04   9.8323928e-01   9.5183784e-01  -1.4514792e+06
   1.6272091e-09  -4.1326067e-04   9.8309702e-01   9.5198558e-01  -1.4380706e+06
   1.6298766e-09  -4.0944229e-04   9.8295609e-01   9.5213197e-01  -1.4247858e+06
   1.6325442e-09  -4.0565917e-04   9.8281647e-01   9.5227702e-01  -1.4116236e+06
   1.6352117e-09  -4.0191101e-04   9.8267816e-01   9.5242075e-01  -1.3985831e+06
   1.6378793e-09  -3.9819747e-04   9.8254114e-01   9.5256317e-01  -1.3856629e+06
   1.6405468e-09  -3.9451824e-04   9.8240540e-01   9.5270429e-01  -1.3728621e+06
   1.6432144e-09  -3.9087299e-04   9.8227092e-01   9.5284412e-01  -1.3601795e+06
   1.6458820e-09  -3.8726142e-04   9.8213770e-01   9.5298268e-01  -1.3476140e+06
   1.6485495e-09  -3.8368322e-04   9.8200572e-01   9.5311997e-01  -1.3351646e+06
   1.6512171e-09  -3.8013807e-04   9.8187498e-01   9.5325600e-01  -1.3228301e+06
   1.6538846e-09  -3.7662567e-04   9.8174545e-01   9.5339079e-01  -1.3106095e+06
   1.6565522e-09  -3.7314572e-04   9.8161713e-01   9.5352436e-01  -1.2985018e+06
   1.6592197e-09  -3.6969792e-04   9.8149001e-01   9.5365670e-01  -1.2865059e+06
   1.6618873e-09  -3.6628197e-04   9.8136408e-01   9.5378783e-01  -1.2746209e+06
   1.6645549e-09  -3.6289758e-04   9.8123932e-01   9.5391776e-01  -1.2628455e+06
   1.6672224e-09  -3.5954445e-04   9.8111573e-01   9.5404651e-01  -1.2511789e+06
   1.6698900e-09  -3.5622230e-04   9.8099328e-01   9.5417408e-01  -1.2396201e+06
   1.6725575e-09  -3.5293084e-04   9.8087198e-01   9.5430049e-01  -1.2281680e+06
   1.6752251e-09  -3.4966979e-04   9.8075181e-01   9.5442574e-01  -1.2168217e+06
   1.6778926e-09  -3.4643887e-04   9.8063276e-01   9.5454984e-01  -1.2055802e+06
   1.6805602e-09  -3.4323780e-04   9.8051482e-01   9.5467281e-01  -1.1944425e+06
   1.6832277e-09  -3.4006629e-04   9.8039798e-01   9.5479465e-01  -1.1834076e+06
   1.6858953e-09  -3.3692409e-04   9.8028223e-01   9.5491538e-01  -1.1724747e+06
   1.6885629e-09  -3.3381092e-04   9.8016756e-01   9.5503501e-01  -1.1616427e+06
   1.6912304e-09  -3.3072651e-04   9.8005396e-01   9.5515354e-01  -1.1509108e+06
   1.6938980e-09  -3.2767060e-04   9.7994141e-01   9.5527099e-01  -1.1402780e+06
   1.6965655e-09  -3.2464291e-04   9.7982992e-01   9.5538736e-01  -1.1297434e+06
   1.6992331e-09  -3.2164320e-04   9.7971946e-01   9.5550267e-01  -1.1193061e+06
   1.7019006e-09  -3.1867120e-04   9.7961003e-01   9.5561693e-01  -1.1089652e+06
   1.7045682e-09  -3.1572666e-04   9.7950163e-01   9.5573014e-01  -1.0987199e+06
   1.7072357e-09  -3.1280933e-04   9.7939423e-01   9.5584231e-01  -1.0885691e+06
   1.7099033e-09  -3.0991894e-04   9.7928783e-01   9.5595345e-01  -1.0785121e+06
   1.7125709e-09  -3.0705526e-04   9.7918243e-01   9.5606358e-01  -1.0685480e+06
   1.7152384e-09  -3.0421804e-04   9.7907800e-01   9.5617270e-01  -1.0586759e+06
   1.7179060e-09  -3.0140703e-04   9.7897455e-01   9.5628082e-01  -1.0488950e+06
   1.7205735e-09  -2.9862199e-04   9.7887206e-01   9.5638796e-01  -1.0392044e+06
   1.7232411e-09  -2.9586267e-04   9.7877053e-01   9.5649411e-01  -1.0296034e+06
   1.7259086e-09  -2.9312886e-04   9.7866994e-01   9.5659929e-01  -1.0200910e+06
   1.7285762e-09  -2.9042030e-04   9.7857028e-01   9.5670350e-01  -1.0106665e+06
   1.7312437e-09  -2.8773676e-04   9.7847156e-01   9.5680676e-01  -1.0013290e+06
   1.7339113e-09  -2.8507802e-04   9.7837375e-01   9.5690908e-01  -9.9207780e+05
   1.7365789e-09  -2.8244384e-04   9.7827686e-01   9.5701045e-01  -9.8291203e+05
   1.7392464e-09  -2.7983400e-04   9.7818087e-01   9.5711090e-01  -9.7383092e+05
   1.7419140e-09  -2.7724827e-04   9.7808577e-01   9.5721043e-01  -9.6483369e+05
   1.7445815e-09  -2.7468643e-04   9.7799155e-01   9.5730905e-01  -9.5591956e+05
   1.7472491e-09  -2.7214826e-04   9.7789822e-01   9.5740676e-01  -9.4708777e+05
   1.7499166e-09  -2.6963354e-04   9.7780575e-01   9.5750358e-01  -9.3833756e+05
   1.7525842e-09  -2.6714205e-04   9.7771414e-01   9.5759951e-01  -9.2966817e+05
   1.7552518e-09  -2.6467358e-04   9.7762338e-01   9.5769456e-01  -9.2107886e+05
   1.7579193e-09  -2.6222792e-04   9.7753347e-01   9.5778874e-01  -9.1256889e+05
   1.7605869e-09  -2.5980485e-04   9.7744439e-01   9.5788206e-01  -9.0413752e+05
   1.7632544e-09  -2.5740418e-04   9.7735615e-01   9.5797452e-01  -8.9578403e+05
   1.7659220e-09  -2.5502568e-04   9.7726872e-01   9.5806613e-01  -8.8750771e+05
   1.7685895e-09  -2.5266916e-04   9.7718211e-01   9.5815691e-01  -8.7930783e+05
   1.7712571e-09  -2.5033441e-04   9.7709630e-01   9.5824685e-01  -8.7118370e+05
   1.7739246e-09  -2.4802123e-04   9.7701129e-01   9.5833596e-01  -8.6313461e+05
   1.7765922e-09  -2.4572942e-04   9.7692707e-01   9.5842426e-01  -8.5515987e+05
   1.7792598e-09  -2.4345879e-04   9.7684364e-01   9.5851175e-01  -8.4725880e+05
   1.7819273e-09  -2.4120913e-04   9.7676098e-01   9.5859844e-01  -8.3943071e+05
   1.7845949e-09  -2.3898027e-04   9.7667909e-01   9.5868433e-01  -8.3167493e+05
   1.7872624e-09  -2.3677199e-04   9.7659796e-01   9.5876943e-01  -8.2399079e+05
   1.7899300e-09  -2.3458412e-04   9.7651759e-01   9.5885376e-01  -8.1637764e+05
   1.7925975e-09  -2.3241646e-04   9.7643796e-01   9.5893730e-01  -8.0883481e+05
   1.7952651e-09  -2.3026883e-04   9.7635907e-01   9.5902009e-01  -8.0136165e+05
   1.7979326e-09  -2.2814105e-04   9.7628092e-01   9.5910211e-01  -7.9395753e+05
   1.8006002e-09  -2.2603292e-04   9.7620349e-01   9.5918338e-01  -7.8662180e+05
   1.8032678e-09  -2.2394427e-04   9.7612678e-01   9.5926391e-01  -7.7935384e+05
   1.8059353e-09  -2.2187492e-04   9.7605079e-01   9.5934369e-01  -7.7215302e+05
   1.8086029e-09  -2.1982469e-04   9.7597550e-01   9.5942274e-01  -7.6501871e+05
   1.8112704e-09  -2.1779340e-04   9.7590091e-01   9.5950107e-01  -7.5795031e+05
   1.8139380e-09  -2.1578088e-04   9.7582701e-01   9.5957868e-01  -7.5094720e+05
   1.8166055e-09  -2.1378696e-04   9.7575380e-01   9.5965558e-01  -7.4400879e+05
   1.8192731e-09  -2.1181146e-04   9.7568128e-01   9.5973177e-01  -7.3713447e+05
   1.8219406e-09  -2.0985421e-04   9.7560942e-01   9.5980726e-01  -7.3032365e+05
   1.8246082e-09  -2.0791504e-04   9.7553823e-01   9.5988205e-01  -7.2357575e+05
   1.8272758e-09  -2.0599379e-04   9.7546771e-01   9.5995617e-01  -7.1689019e+05
   1.8299433e-09  -2.0409030e-04   9.7539784e-01   9.6002960e-01  -7.1026638e+05
   1.8326109e-09  -2.0220439e-04   9.7532861e-01   9.6010235e-01  -7.0370377e+05
   1.8352784e-09  -2.0033591e-04   9.7526004e-01   9.6017444e-01  -6.9720178e+05
   1.8379460e-09  -1.9848469e-04   9.7519209e-01   9.6024586e-01  -6.9075986e+05
   1.8406135e-09  -1.9665057e-04   9.7512478e-01   9.6031663e-01  -6.8437745e+05
   1.8432811e-09  -1.9483340e-04   9.7505810e-01   9.6038675e-01  -6.7805399e+05
   1.8459486e-09  -1.9303303e-04   9.7499203e-01   9.6045623e-01  -6.7178896e+05
   1.8486162e-09  -1.9124928e-04   9.7492658e-01   9.6052507e-01  -6.6558180e+05
   1.8512838e-09  -1.8948202e-04   9.7486174e-01   9.6059327e-01  -6.5943198e+05
   1.8539513e-09  -1.8773109e-04   9.7479749e-01   9.6066085e-01  -6.5333897e+05
   1.8566189e-09  -1.8599634e-04   9.7473385e-01   9.6072781e-01  -6.4730226e+05
   1.8592864e-09  -1.8427761e-04   9.7467079e-01   9.6079415e-01  -6.4132131e+05
   1.8619540e-09  -1.8257477e-04   9.7460832e-01   9.6085988e-01  -6.3539561e+05
   1.8646215e-09  -1.8088766e-04   9.7454643e-01   9.6092501e-01  -6.2952466e+05
   1.8672891e-09  -1.7921613e-04   9.7448512e-01   9.6098954e-01  -6.2370795e+05
   1.8699567e-09  -1.7756006e-04   9.7442437e-01   9.6105347e-01  -6.1794497e+05
   1.8726242e-09  -1.7591928e-04   9.7436419e-01   9.6111682e-01  -6.1223523e+05
   1.8752918e-09  -1.7429367e-04   9.7430457e-01   9.6117959e-01  -6.0657824e+05
   1.8779593e-09  -1.7268307e-04   9.7424550e-01   9.6124178e-01  -6.0097351e+05
   1.8806269e-09  -1.7108736e-04   9.7418698e-01   9.6130340e-01  -5.9542056e+05
   1.8832944e-09  -1.6950639e-04   9.7412900e-01   9.6136445e-01  -5.8991891e+05
   1.8859620e-09  -1.6794003e-04   9.7407156e-01   9.6142494e-01  -5.8446809e+05
   1.8886295e-09  -1.6638814e-04   9.7401465e-01   9.6148488e-01  -5.7906763e+05
   1.8912971e-09  -1.6485060e-04   9.7395828e-01   9.6154426e-01  -5.7371705e+05
   1.8939647e-09  -1.6332725e-04   9.7390242e-01   9.6160310e-01  -5.6841591e+05
   1.8966322e-09  -1.6181799e-04   9.7384708e-01   9.6166139e-01  -5.6316375e+05
   1.8992998e-09  -1.6032267e-04   9.7379226e-01   9.6171915e-01  -5.5796010e+05
   1.9019673e-09  -1.5884117e-04   9.7373794e-01   9.6177638e-01  -5.5280453e+05
   1.9046349e-09  -1.5737335e-04   9.7368413e-01   9.6183308e-01  -5.4769659e+05
   1.9073024e-09  -1.5591910e-04   9.7363082e-01   9.6188926e-01  -5.4263584e+05
   1.9099700e-09  -1.5447829e-04   9.7357801e-01   9.6194493e-01  -5.3762185e+05
   1.9126375e-09  -1.5305079e-04   9.7352568e-01   9.6200008e-01  -5.3265418e+05
   1.9153051e-09  -1.5163648e-04   9.7347384e-01   9.6205473e-01  -5.2773240e+05
   1.9179727e-09  -1.5023524e-04   9.7342248e-01   9.6210887e-01  -5.2285610e+05
   1.9206402e-09  -1.4884694e-04   9.7337159e-01   9.6216251e-01  -5.1802484e+05
   1.9233078e-09  -1.4747148e-04   9.7332118e-01   9.6221567e-01  -5.1323823e+05
   1.9259753e-09  -1.4610872e-04   9.7327124e-01   9.6226833e-01  -5.0849583e+05
   1.9286429e-09  -1.4475856e-04   9.7322176e-01   9.6232051e-01  -5.0379725e+05
   1.9313104e-09  -1.4342087e-04   9.7317273e-01   9.6237220e-01  -4.9914207e+05
   1.9339780e-09  -1.4209554e-04   9.7312417e-01   9.6242342e-01  -4.9452991e+05
   1.9366455e-09  -1.4078246e-04   9.7307605e-01   9.6247418e-01  -4.8996036e+05
   1.9393131e-09  -1.3948151e-04   9.7302838e-01   9.6252446e-01  -4.8543302e+05
   1.9419807e-09  -1.3819258e-04   9.7298115e-01   9.6257428e-01  -4.8094752e+05
   1.9446482e-09  -1.3691556e-04   9.7293436e-01   9.6262364e-01  -4.7650345e+05
   1.9473158e-09  -1.3565035e-04   9.7288800e-01   9.6267255e-01  -4.7210045e+05
   1.9499833e-09  -1.3439682e-04   9.7284208e-01   9.6272101e-01  -4.6773812e+05
   1.9526509e-09  -1.3315487e-04   9.7279658e-01   9.6276902e-01  -4.6341610e+05
   1.9553184e-09  -1.3192441e-04   9.7275150e-01   9.6281659e-01  -4.5913401e+05
   1.9579860e-09  -1.3070531e-04   9.7270684e-01   9.6286372e-01  -4.5489148e+05
   1.9606536e-09  -1.2949747e-04   9.7266259e-01   9.6291042e-01  -4.5068815e+05
   1.9633211e-09  -1.2830080e-04   9.7261875e-01   9.6295669e-01  -4.4652365e+05
   1.9659887e-09  -1.2711519e-04   9.7257533e-01   9.6300253e-01  -4.4239763e+05
   1.9686562e-09  -1.2594053e-04   9.7253230e-01   9.6304796e-01  -4.3830973e+05
   1.9713238e-09  -1.2477672e-04   9.7248967e-01   9.6309296e-01  -4.3425960e+05
   1.9739913e-09  -1.2362367e-04   9.7244744e-01   9.6313755e-01  -4.3024689e+05
   1.9766589e-09  -1.2248127e-04   9.7240559e-01   9.6318172e-01  -4.2627125e+05
   1.9793264e-09  -1.2134943e-04   9.7236414e-01   9.6322550e-01  -4.2233235e+05
   1.9819940e-09  -1.2022805e-04   9.7232307e-01   9.6326886e-01  -4.1842984e+05
   1.9846616e-09  -1.1911703e-04   9.7228238e-01   9.6331183e-01  -4.1456338e+05
   1.9873291e-09  -1.1801628e-04   9.7224207e-01   9.6335441e-01  -4.1073265e+05
   1.9899967e-09  -1.1692569e-04   9.7220213e-01   9.6339659e-01  -4.0693732e+05
   1.9926642e-09  -1.1584519e-04   9.7216257e-01   9.6343838e-01  -4.0317704e+05
   1.9953318e-09  -1.1477467e-04   9.7212337e-01   9.6347979e-01  -3.9945152e+05
   1.9979993e-09  -1.1371404e-04   9.7208453e-01   9.6352081e-01  -3.9576041e+05
   2.0006669e-09  -1.1266321e-04   9.7204605e-01   9.6356146e-01  -3.9210341e+05
   2.0033344e-09  -1.1162210e-04   9.7200793e-01   9.6360174e-01  -3.8848019e+05
   2.0060020e-09  -1.1059060e-04   9.7197016e-01   9.6364164e-01  -3.8489045e+05
   2.0086696e-09  -1.0956863e-04   9.7193274e-01   9.6368118e-01  -3.8133388e+05
   2.0113371e-09  -1.0855611e-04   9.7189567e-01   9.6372035e-01  -3.7781017e+05
   2.0140047e-09  -1.0755294e-04   9.7185895e-01   9.6375916e-01  -3.7431902e+05
   2.0166722e-09  -1.0655905e-04   9.7182256e-01   9.6379761e-01  -3.7086012e+05
   2.0193398e-09  -1.0557434e-04   9.7178651e-01   9.6383571e-01  -3.6743319e+05
   2.0220073e-09  -1.0459872e-04   9.7175079e-01   9.6387346e-01  -3.6403791e+05
   2.0246749e-09  -1.0363212e-04   9.7171541e-01   9.6391086e-01  -3.6067401e+05
   2.0273424e-09  -1.0267446e-04   9.7168035e-01   9.6394792e-01  -3.5734119e+05
   2.0300100e-09  -1.0172564e-04   9.7164562e-01   9.6398463e-01  -3.5403916e+05
   2.0326776e-09  -1.0078559e-04   9.7161121e-01   9.6402101e-01  -3.5076764e+05
   2.0353451e-09  -9.9854230e-05   9.7157712e-01   9.6405705e-01  -3.4752635e+05
   2.0380127e-09  -9.8931474e-05   9.7154334e-01   9.6409276e-01  -3.4431501e+05
   2.0406802e-09  -9.8017245e-05   9.7150988e-01   9.6412814e-01  -3.4113334e+05
   2.0433478e-09  -9.7111464e-05   9.7147673e-01   9.6416320e-01  -3.3798106e+05
   2.0460153e-09  -9.6214052e-05   9.7144388e-01   9.6419793e-01  -3.3485792e+05
   2.0486829e-09  -9.5324934e-05   9.7141134e-01   9.6423234e-01  -3.3176363e+05
   2.0513505e-09  -9.4444031e-05   9.7137910e-01   9.6426643e-01  -3.2869793e+05
   2.0540180e-09  -9.3571268e-05   9.7134716e-01   9.6430021e-01  -3.2566055e+05
   2.0566856e-09  -9.2706571e-05   9.7131551e-01   9.6433368e-01  -3.2265124e+05
   2.0593531e-09  -9.1849863e-05   9.7128416e-01   9.6436684e-01  -3.1966974e+05
   2.0620207e-09  -9.1001072e-05   9.7125310e-01   9.6439970e-01  -3.1671579e+05
   2.0646882e-09  -9.0160125e-05   9.7122233e-01   9.6443225e-01  -3.1378913e+05
   2.0673558e-09  -8.9326948e-05   9.7119184e-01   9.6446450e-01  -3.1088951e+05
   2.0700233e-09  -8.8501471e-05   9.7116163e-01   9.6449646e-01  -3.0801668e+05
   2.0726909e-09  -8.7683621e-05   9.7113170e-01   9.6452812e-01  -3.0517040e+05
   2.0753585e-09  -8.6873329e-05   9.7110206e-01   9.6455949e-01  -3.0235041e+05
   2.0780260e-09  -8.6070525e-05   9.7107268e-01   9.6459057e-01  -2.9955649e+05
   2.0806936e-09  -8.5275139e-05   9.7104358e-01   9.6462136e-01  -2.9678838e+05
   2.0833611e-09  -8.4487103e-05   9.7101474e-01   9.6465187e-01  -2.9404584e+05
   2.0860287e-09  -8.3706349e-05   9.7098618e-01   9.6468210e-01  -2.9132865e+05
   2.0886962e-09  -8.2932810e-05   9.7095788e-01   9.6471205e-01  -2.8863656e+05
   2.0913638e-09  -8.2166419e-05   9.7092984e-01   9.6474172e-01  -2.8596935e+05
   2.0940313e-09  -8.1407109e-05   9.7090206e-01   9.6477112e-01  -2.8332679e+05
   2.0966989e-09  -8.0654817e-05   9.7087453e-01   9.6480025e-01  -2.8070864e+05
   2.0993665e-09  -7.9909476e-05   9.7084727e-01   9.6482911e-01  -2.7811468e+05
   2.1020340e-09  -7.9171023e-05   9.7082025e-01   9.6485770e-01  -2.7554469e+05
   2.1047016e-09  -7.8439393e-05   9.7079349e-01   9.6488603e-01  -2.7299845e+05
   2.1073691e-09  -7.7714524e-05   9.7076697e-01   9.6491410e-01  -2.7047573e+05
   2.1100367e-09  -7.6996354e-05   9.7074070e-01   9.6494191e-01  -2.6797633e+05
   2.1127042e-09  -7.6284820e-05   9.7071467e-01   9.6496947e-01  -2.6550002e+05
   2.1153718e-09  -7.5579862e-05   9.7068888e-01   9.6499677e-01  -2.6304659e+05
   2.1180393e-09  -7.4881417e-05   9.7066333e-01   9.6502382e-01  -2.6061583e+05
   2.1207069e-09  -7.4189427e-05   9.7063802e-01   9.6505061e-01  -2.5820753e+05
   2.1233745e-09  -7.3503831e-05   9.7061294e-01   9.6507717e-01  -2.5582148e+05
   2.1260420e-09  -7.2824571e-05   9.7058810e-01   9.6510347e-01  -2.5345748e+05
   2.1287096e-09  -7.2151588e-05   9.7056348e-01   9.6512954e-01  -2.5111533e+05
   2.1313771e-09  -7.1484824e-05   9.7053910e-01   9.6515536e-01  -2.4879482e+05
   2.1340447e-09  -7.0824221e-05   9.7051493e-01   9.6518095e-01  -2.4649575e+05
   2.1367122e-09  -7.0169722e-05   9.7049100e-01   9.6520630e-01  -2.4421792e+05
   2.1393798e-09  -6.9521272e-05   9.7046728e-01   9.6523141e-01  -2.4196114e+05
   2.1420473e-09  -6.8878814e-05   9.7044378e-01   9.6525630e-01  -2.3972521e+05
   2.1447149e-09  -6.8242293e-05   9.7042050e-01   9.6528095e-01  -2.3750995e+05
   2.1473825e-09  -6.7611654e-05   9.7039744e-01   9.6530538e-01  -2.3531515e+05
   2.1500500e-09  -6.6986842e-05   9.7037459e-01   9.6532959e-01  -2.3314063e+05
   2.1527176e-09  -6.6367805e-05   9.7035195e-01   9.6535356e-01  -2.3098621e+05
   2.1553851e-09  -6.5754488e-05   9.7032952e-01   9.6537732e-01  -2.2885170e+05
   2.1580527e-09  -6.5146838e-05   9.7030730e-01   9.6540086e-01  -2.2673690e+05
   2.1607202e-09  -6.4544803e-05   9.7028528e-01   9.6542418e-01  -2.2464165e+05
   2.1633878e-09  -6.3948332e-05   9.7026347e-01   9.6544729e-01  -2.2256576e+05
   2.1660554e-09  -6.3357373e-05   9.7024186e-01   9.6547018e-01  -2.2050905e+05
   2.1687229e-09  -6.2771875e-05   9.7022045e-01   9.6549287e-01  -2.1847135e+05
   2.1713905e-09  -6.2191787e-05   9.7019924e-01   9.6551534e-01  -2.1645248e+05
   2.1740580e-09  -6.1617060e-05   9.7017822e-01   9.6553761e-01  -2.1445226e+05
   2.1767256e-09  -6.1047644e-05   9.7015740e-01   9.6555967e-01  -2.1247052e+05
   2.1793931e-09  -6.0483490e-05   9.7013677e-01   9.6558152e-01  -2.1050710e+05
   2.1820607e-09  -5.9924549e-05   9.7011634e-01   9.6560318e-01  -2.0856181e+05
   2.1847282e-09  -5.9370773e-05   9.7009609e-01   9.6562464e-01  -2.0663451e+05
   2.1873958e-09  -5.8822115e-05   9.7007603e-01   9.6564589e-01  -2.0472501e+05
   2.1900634e-09  -5.8278527e-05   9.7005615e-01   9.6566696e-01  -2.0283316e+05
   2.1927309e-09  -5.7739962e-05   9.7003646e-01   9.6568782e-01  -2.0095879e+05
   2.1953985e-09  -5.7206374e-05   9.7001695e-01   9.6570850e-01  -1.9910173e+05
   2.1980660e-09  -5.6677717e-05   9.6999762e-01   9.6572898e-01  -1.9726184e+05
   2.2007336e-09  -5.6153945e-05   9.6997848e-01   9.6574928e-01  -1.9543895e+05
   2.2034011e-09  -5.5635013e-05   9.6995950e-01   9.6576939e-01  -1.9363291e+05
   2.2060687e-09  -5.5120877e-05   9.6994071e-01   9.6578931e-01  -1.9184355e+05
   2.2087362e-09  -5.4611492e-05   9.6992208e-01   9.6580905e-01  -1.9007073e+05
   2.2114038e-09  -5.4106814e-05   9.6990363e-01   9.6582860e-01  -1.8831428e+05
   2.2140714e-09  -5.3606800e-05   9.6988535e-01   9.6584798e-01  -1.8657407e+05
   2.2167389e-09  -5.3111406e-05   9.6986724e-01   9.6586718e-01  -1.8484994e+05
   2.2194065e-09  -5.2620590e-05   9.6984930e-01   9.6588620e-01  -1.8314175e+05
   2.2220740e-09  -5.2134310e-05   9.6983152e-01   9.6590504e-01  -1.8144933e+05
   2.2247416e-09  -5.1652524e-05   9.6981391e-01   9.6592371e-01  -1.7977256e+05
   2.2274091e-09  -5.1175190e-05   9.6979646e-01   9.6594221e-01  -1.7811128e+05
   2.2300767e-09  -5.0702267e-05   9.6977917e-01   9.6596054e-01  -1.7646535e+05
   2.2327442e-09  -5.0233714e-05   9.6976205e-01   9.6597870e-01  -1.7483463e+05
   2.2354118e-09  -4.9769491e-05   9.6974508e-01   9.6599669e-01  -1.7321897e+05
   2.2380794e-09  -4.9309558e-05   9.6972826e-01   9.6601452e-01  -1.7161825e+05
   2.2407469e-09  -4.8853875e-05   9.6971161e-01   9.6603218e-01  -1.7003232e+05
   2.2434145e-09  -4.8402404e-05   9.6969510e-01   9.6604968e-01  -1.6846105e+05
   2.2460820e-09  -4.7955104e-05   9.6967875e-01   9.6606701e-01  -1.6690429e+05
   2.2487496e-09  -4.7511938e-05   9.6966255e-01   9.6608419e-01  -1.6536192e+05
   2.2514171e-09  -4.7072867e-05   9.6964651e-01   9.6610121e-01  -1.6383380e+05
   2.2540847e-09  -4.6637854e-05   9.6963061e-01   9.6611807e-01  -1.6231980e+05
   2.2567523e-09  -4.6206860e-05   9.6961485e-01   9.6613477e-01  -1.6081980e+05
   2.2594198e-09  -4.5779850e-05   9.6959925e-01   9.6615132e-01  -1.5933365e+05
   2.2620874e-09  -4.5356785e-05   9.6958378e-01   9.6616772e-01  -1.5786124e+05
   2.2647549e-09  -4.4937630e-05   9.6956846e-01   9.6618397e-01  -1.5640243e+05
   2.2674225e-09  -4.4522349e-05   9.6955328e-01   9.6620007e-01  -1.5495710e+05
   2.2700900e-09  -4.4110905e-05   9.6953825e-01   9.6621602e-01  -1.5352513e+05
   2.2727576e-09  -4.3703263e-05   9.6952335e-01   9.6623182e-01  -1.5210639e+05
   2.2754251e-09  -4.3299389e-05   9.6950859e-01   9.6624747e-01  -1.5070077e+05
   2.2780927e-09  -4.2899246e-05   9.6949396e-01   9.6626298e-01  -1.4930813e+05
   2.2807603e-09  -4.2502802e-05   9.6947947e-01   9.6627835e-01  -1.4792836e+05
   2.2834278e-09  -4.2110021e-05   9.6946512e-01   9.6629358e-01  -1.4656134e+05
   2.2860954e-09  -4.1720869e-05   9.6945090e-01   9.6630866e-01  -1.4520695e+05
   2.2887629e-09  -4.1335314e-05   9.6943681e-01   9.6632361e-01  -1.4386507e+05
   2.2914305e-09  -4.0953322e-05   9.6942284e-01   9.6633842e-01  -1.4253560e+05
   2.2940980e-09  -4.0574860e-05   9.6940901e-01   9.6635309e-01  -1.4121841e+05
   2.2967656e-09  -4.0199895e-05   9.6939531e-01   9.6636763e-01  -1.3991340e+05
   2.2994331e-09  -3.9828396e-05   9.6938173e-01   9.6638203e-01  -1.3862044e+05
   2.3021007e-09  -3.9460329e-05   9.6936828e-01   9.6639630e-01  -1.3733943e+05
   2.3047683e-09  -3.9095664e-05   9.6935496e-01   9.6641043e-01  -1.3607026e+05
   2.3074358e-09  -3.8734369e-05   9.6934175e-01   9.6642444e-01  -1.3481282e+05
   2.3101034e-09  -3.8376412e-05   9.6932867e-01   9.6643832e-01  -1.3356700e+05
   2.3127709e-09  -3.8021764e-05   9.6931571e-01   9.6645207e-01  -1.3233268e+05
   2.3154385e-09  -3.7670392e-05   9.6930287e-01   9.6646569e-01  -1.3110978e+05
   2.3181060e-09  -3.7322268e-05   9.6929015e-01   9.6647919e-01  -1.2989818e+05
   2.3207736e-09  -3.6977361e-05   9.6927755e-01   9.6649256e-01  -1.2869777e+05
   2.3234411e-09  -3.6635641e-05   9.6926506e-01   9.6650581e-01  -1.2750845e+05
   2.3261087e-09  -3.6297079e-05   9.6925269e-01   9.6651894e-01  -1.2633013e+05
   2.3287763e-09  -3.5961646e-05   9.6924043e-01   9.6653194e-01  -1.2516269e+05
   2.3314438e-09  -3.5629313e-05   9.6922829e-01   9.6654483e-01  -1.2400604e+05
   2.3341114e-09  -3.5300051e-05   9.6921626e-01   9.6655759e-01  -1.2286008e+05
   2.3367789e-09  -3.4973831e-05   9.6920434e-01   9.6657024e-01  -1.2172471e+05
   2.3394465e-09  -3.4650626e-05   9.6919253e-01   9.6658277e-01  -1.2059983e+05
   2.3421140e-09  -3.4330408e-05   9.6918083e-01   9.6659519e-01  -1.1948535e+05
   2.3447816e-09  -3.4013150e-05   9.6916924e-01   9.6660749e-01  -1.1838116e+05
   2.3474491e-09  -3.3698823e-05   9.6915775e-01   9.6661968e-01  -1.1728718e+05
   2.3501167e-09  -3.3387400e-05   9.6914637e-01   9.6663175e-01  -1.1620331e+05
   2.3527843e-09  -3.3078856e-05   9.6913510e-01   9.6664372e-01  -1.1512945e+05
   2.3554518e-09  -3.2773163e-05   9.6912393e-01   9.6665557e-01  -1.1406552e+05
   2.3581194e-09  -3.2470295e-05   9.6911286e-01   9.6666732e-01  -1.1301142e+05
   2.3607869e-09  -3.2170226e-05   9.6910190e-01   9.6667895e-01  -1.1196706e+05
   2.3634545e-09  -3.1872930e-05   9.6909104e-01   9.6669048e-01  -1.1093235e+05
   2.3661220e-09  -3.1578381e-05   9.6908027e-01   9.6670190e-01  -1.0990720e+05
   2.3687896e-09  -3.1286554e-05   9.6906961e-01   9.6671322e-01  -1.0889153e+05
   2.3714572e-09  -3.0997424e-05   9.6905905e-01   9.6672443e-01  -1.0788524e+05
   2.3741247e-09  -3.0710966e-05   9.6904858e-01   9.6673554e-01  -1.0688825e+05
   2.3767923e-09  -3.0427155e-05   9.6903821e-01   9.6674654e-01  -1.0590047e+05
   2.3794598e-09  -3.0145967e-05   9.6902794e-01   9.6675745e-01  -1.0492182e+05
   2.3821274e-09  -2.9867377e-05   9.6901776e-01   9.6676825e-01  -1.0395222e+05
   2.3847949e-09  -2.9591362e-05   9.6900768e-01   9.6677895e-01  -1.0299157e+05
   2.3874625e-09  -2.9317898e-05   9.6899769e-01   9.6678956e-01  -1.0203981e+05
   2.3901300e-09  -2.9046961e-05   9.6898779e-01   9.6680007e-01  -1.0109683e+05
   2.3927976e-09  -2.8778527e-05   9.6897798e-01   9.6681048e-01  -1.0016258e+05
   2.3954652e-09  -2.8512575e-05   9.6896827e-01   9.6682079e-01  -9.9236951e+04
   2.3981327e-09  -2.8249080e-05   9.6895864e-01   9.6683101e-01  -9.8319880e+04
   2.4008003e-09  -2.7988019e-05   9.6894910e-01   9.6684113e-01  -9.7411283e+04
   2.4034678e-09  -2.7729372e-05   9.6893965e-01   9.6685116e-01  -9.6511082e+04
   2.4061354e-09  -2.7473115e-05   9.6893029e-01   9.6686110e-01  -9.5619201e+04
   2.4088029e-09  -2.7219226e-05   9.6892102e-01   9.6687095e-01  -9.4735561e+04
   2.4114705e-09  -2.6967683e-05   9.6891183e-01   9.6688070e-01  -9.3860087e+04
   2.4141380e-09  -2.6718464e-05   9.6890272e-01   9.6689037e-01  -9.2992703e+04
   2.4168056e-09  -2.6471549e-05   9.6889370e-01   9.6689994e-01  -9.2133334e+04
   2.4194732e-09  -2.6226916e-05   9.6888476e-01   9.6690943e-01  -9.1281907e+04
   2.4221407e-09  -2.5984543e-05   9.6887591e-01   9.6691883e-01  -9.0438348e+04
   2.4248083e-09  -2.5744410e-05   9.6886714e-01   9.6692815e-01  -8.9602585e+04
   2.4274758e-09  -2.5506496e-05   9.6885845e-01   9.6693737e-01  -8.8774544e+04
   2.4301434e-09  -2.5270781e-05   9.6884984e-01   9.6694651e-01  -8.7954156e+04
   2.4328109e-09  -2.5037244e-05   9.6884131e-01   9.6695557e-01  -8.7141349e+04
   2.4354785e-09  -2.4805866e-05   9.6883285e-01   9.6696455e-01  -8.6336053e+04
   2.4381460e-09  -2.4576625e-05   9.6882448e-01   9.6697344e-01  -8.5538199e+04
   2.4408136e-09  -2.4349503e-05   9.6881618e-01   9.6698225e-01  -8.4747717e+04
   2.4434812e-09  -2.4124480e-05   9.6880796e-01   9.6699097e-01  -8.3964541e+04
   2.4461487e-09  -2.3901536e-05   9.6879982e-01   9.6699962e-01  -8.3188602e+04
   2.4488163e-09  -2.3680653e-05   9.6879175e-01   9.6700819e-01  -8.2419833e+04
   2.4514838e-09  -2.3461811e-05   9.6878376e-01   9.6701668e-01  -8.1658169e+04
   2.4541514e-09  -2.3244991e-05   9.6877584e-01   9.6702509e-01  -8.0903543e+04
   2.4568189e-09  -2.3030176e-05   9.6876799e-01   9.6703342e-01  -8.0155891e+04
   2.4594865e-09  -2.2817345e-05   9.6876021e-01   9.6704167e-01  -7.9415148e+04
   2.4621541e-09  -2.2606481e-05   9.6875251e-01   9.6704985e-01  -7.8681250e+04
   2.4648216e-09  -2.2397565e-05   9.6874488e-01   9.6705796e-01  -7.7954135e+04
   2.4674892e-09  -2.2190581e-05   9.6873732e-01   9.6706598e-01  -7.7233738e+04
   2.4701567e-09  -2.1985509e-05   9.6872983e-01   9.6707394e-01  -7.6519999e+04
   2.4728243e-09  -2.1782332e-05   9.6872241e-01   9.6708182e-01  -7.5812855e+04
   2.4754918e-09  -2.1581033e-05   9.6871506e-01   9.6708963e-01  -7.5112247e+04
   2.4781594e-09  -2.1381594e-05   9.6870777e-01   9.6709736e-01  -7.4418112e+04
   2.4808269e-09  -2.1183998e-05   9.6870055e-01   9.6710503e-01  -7.3730392e+04
   2.4834945e-09  -2.0988229e-05   9.6869340e-01   9.6711262e-01  -7.3049028e+04
   2.4861621e-09  -2.0794268e-05   9.6868632e-01   9.6712015e-01  -7.2373960e+04
   2.4888296e-09  -2.0602100e-05   9.6867930e-01   9.6712760e-01  -7.1705130e+04
   2.4914972e-09  -2.0411708e-05   9.6867234e-01   9.6713499e-01  -7.1042482e+04
   2.4941647e-09  -2.0223075e-05   9.6866545e-01   9.6714230e-01  -7.0385956e+04
   2.4968323e-09  -2.0036185e-05   9.6865863e-01   9.6714955e-01  -6.9735498e+04
   2.4994998e-09  -1.9851023e-05   9.6865187e-01   9.6715673e-01  -6.9091051e+04
   2.5021674e-09  -1.9667572e-05   9.6864516e-01   9.6716385e-01  -6.8452559e+04
   2.5048349e-09  -1.9485816e-05   9.6863853e-01   9.6717090e-01  -6.7819968e+04
   2.5075025e-09  -1.9305739e-05   9.6863195e-01   9.6717789e-01  -6.7193222e+04
   2.5101701e-09  -1.9127327e-05   9.6862543e-01   9.6718481e-01  -6.6572268e+04
   2.5128376e-09  -1.8950564e-05   9.6861898e-01   9.6719166e-01  -6.5957053e+04
   2.5155052e-09  -1.8775434e-05   9.6861258e-01   9.6719846e-01  -6.5347523e+04
   2.5181727e-09  -1.8601922e-05   9.6860624e-01   9.6720519e-01  -6.4743625e+04
   2.5208403e-09  -1.8430014e-05   9.6859996e-01   9.6721186e-01  -6.4145309e+04
   2.5235078e-09  -1.8259695e-05   9.6859374e-01   9.6721846e-01  -6.3552521e+04
   2.5261754e-09  -1.8090950e-05   9.6858758e-01   9.6722501e-01  -6.2965212e+04
   2.5288429e-09  -1.7923764e-05   9.6858147e-01   9.6723150e-01  -6.2383329e+04
   2.5315105e-09  -1.7758123e-05   9.6857542e-01   9.6723792e-01  -6.1806825e+04
   2.5341781e-09  -1.7594013e-05   9.6856943e-01   9.6724429e-01  -6.1235647e+04
   2.5368456e-09  -1.7431419e-05   9.6856349e-01   9.6725060e-01  -6.0669749e+04
   2.5395132e-09  -1.7270328e-05   9.6855761e-01   9.6725685e-01  -6.0109079e+04
   2.5421807e-09  -1.7110726e-05   9.6855178e-01   9.6726304e-01  -5.9553591e+04
   2.5448483e-09  -1.6952599e-05   9.6854600e-01   9.6726917e-01  -5.9003236e+04
   2.5475158e-09  -1.6795933e-05   9.6854028e-01   9.6727525e-01  -5.8457968e+04
   2.5501834e-09  -1.6640714e-05   9.6853461e-01   9.6728127e-01  -5.7917738e+04
   2.5528510e-09  -1.6486930e-05   9.6852900e-01   9.6728724e-01  -5.7382500e+04
   2.5555185e-09  -1.6334568e-05   9.6852343e-01   9.6729315e-01  -5.6852209e+04
   2.5581861e-09  -1.6183613e-05   9.6851792e-01   9.6729900e-01  -5.6326818e+04
   2.5608536e-09  -1.6034054e-05   9.6851246e-01   9.6730481e-01  -5.5806283e+04
   2.5635212e-09  -1.5885876e-05   9.6850705e-01   9.6731055e-01  -5.5290557e+04
   2.5661887e-09  -1.5739068e-05   9.6850168e-01   9.6731625e-01  -5.4779598e+04
   2.5688563e-09  -1.5593617e-05   9.6849637e-01   9.6732189e-01  -5.4273361e+04
   2.5715238e-09  -1.5449510e-05   9.6849111e-01   9.6732748e-01  -5.3771802e+04
   2.5741914e-09  -1.5306734e-05   9.6848590e-01   9.6733302e-01  -5.3274877e+04
   2.5768590e-09  -1.5165278e-05   9.6848073e-01   9.6733851e-01  -5.2782546e+04
   2.5795265e-09  -1.5025129e-05   9.6847561e-01   9.6734395e-01  -5.2294763e+04
   2.5821941e-09  -1.4886276e-05   9.6847054e-01   9.6734934e-01  -5.1811489e+04
   2.5848616e-09  -1.4748705e-05   9.6846552e-01   9.6735467e-01  -5.1332680e+04
   2.5875292e-09  -1.4612406e-05   9.6846054e-01   9.6735996e-01  -5.0858297e+04
   2.5901967e-09  -1.4477367e-05   9.6845561e-01   9.6736520e-01  -5.0388297e+04
   2.5928643e-09  -1.4343575e-05   9.6845072e-01   9.6737039e-01  -4.9922640e+04
   2.5955318e-09  -1.4211020e-05   9.6844588e-01   9.6737553e-01  -4.9461287e+04
   2.5981994e-09  -1.4079690e-05   9.6844108e-01   9.6738063e-01  -4.9004198e+04
   2.6008670e-09  -1.3949573e-05   9.6843633e-01   9.6738568e-01  -4.8551332e+04
   2.6035345e-09  -1.3820659e-05   9.6843162e-01   9.6739068e-01  -4.8102651e+04
   2.6062021e-09  -1.3692937e-05   9.6842696e-01   9.6739563e-01  -4.7658117e+04
   2.6088696e-09  -1.3566394e-05   9.6842234e-01   9.6740054e-01  -4.7217691e+04
   2.6115372e-09  -1.3441021e-05   9.6841776e-01   9.6740541e-01  -4.6781335e+04
   2.6142047e-09  -1.3316807e-05   9.6841322e-01   9.6741023e-01  -4.6349011e+04
   2.6168723e-09  -1.3193741e-05   9.6840873e-01   9.6741500e-01  -4.5920683e+04
   2.6195398e-09  -1.3071812e-05   9.6840428e-01   9.6741973e-01  -4.5496313e+04
   2.6222074e-09  -1.2951009e-05   9.6839987e-01   9.6742442e-01  -4.5075864e+04
   2.6248750e-09  -1.2831323e-05   9.6839550e-01   9.6742906e-01  -4.4659301e+04
   2.6275425e-09  -1.2712743e-05   9.6839116e-01   9.6743366e-01  -4.4246588e+04
   2.6302101e-09  -1.2595259e-05   9.6838687e-01   9.6743822e-01  -4.3837688e+04
   2.6328776e-09  -1.2478861e-05   9.6838262e-01   9.6744274e-01  -4.3432568e+04
   2.6355452e-09  -1.2363538e-05   9.6837841e-01   9.6744721e-01  -4.3031191e+04
   2.6382127e-09  -1.2249282e-05   9.6837424e-01   9.6745165e-01  -4.2633523e+04
   2.6408803e-09  -1.2136081e-05   9.6837011e-01   9.6745604e-01  -4.2239531e+04
   2.6435478e-09  -1.2023926e-05   9.6836601e-01   9.6746039e-01  -4.1849179e+04
   2.6462154e-09  -1.1912807e-05   9.6836195e-01   9.6746470e-01  -4.1462435e+04
   2.6488830e-09  -1.1802716e-05   9.6835793e-01   9.6746897e-01  -4.1079264e+04
   2.6515505e-09  -1.1693642e-05   9.6835395e-01   9.6747320e-01  -4.0699635e+04
   2.6542181e-09  -1.1585576e-05   9.6835000e-01   9.6747740e-01  -4.0323514e+04
   2.6568856e-09  -1.1478508e-05   9.6834609e-01   9.6748155e-01  -3.9950869e+04
   2.6595532e-09  -1.1372430e-05   9.6834222e-01   9.6748567e-01  -3.9581667e+04
   2.6622207e-09  -1.1267333e-05   9.6833838e-01   9.6748975e-01  -3.9215878e+04
   2.6648883e-09  -1.1163206e-05   9.6833458e-01   9.6749379e-01  -3.8853468e+04
   2.6675559e-09  -1.1060042e-05   9.6833081e-01   9.6749779e-01  -3.8494408e+04
   2.6702234e-09  -1.0957831e-05   9.6832708e-01   9.6750175e-01  -3.8138666e+04
   2.6728910e-09  -1.0856565e-05   9.6832338e-01   9.6750568e-01  -3.7786212e+04
   2.6755585e-09  -1.0756235e-05   9.6831972e-01   9.6750958e-01  -3.7437014e+04
   2.6782261e-09  -1.0656831e-05   9.6831609e-01   9.6751343e-01  -3.7091044e+04
   2.6808936e-09  -1.0558347e-05   9.6831249e-01   9.6751725e-01  -3.6748271e+04
   2.6835612e-09  -1.0460773e-05   9.6830893e-01   9.6752104e-01  -3.6408666e+04
   2.6862287e-09  -1.0364100e-05   9.6830540e-01   9.6752479e-01  -3.6072199e+04
   2.6888963e-09  -1.0268321e-05   9.6830190e-01   9.6752851e-01  -3.5738841e+04
   2.6915639e-09  -1.0173426e-05   9.6829844e-01   9.6753219e-01  -3.5408564e+04
   2.6942314e-09  -1.0079409e-05   9.6829500e-01   9.6753584e-01  -3.5081340e+04
   2.6968990e-09  -9.9862608e-06   9.6829160e-01   9.6753945e-01  -3.4757139e+04
   2.6995665e-09  -9.8939733e-06   9.6828823e-01   9.6754303e-01  -3.4435934e+04
   2.7022341e-09  -9.8025386e-06   9.6828489e-01   9.6754658e-01  -3.4117698e+04
   2.7049016e-09  -9.7119490e-06   9.6828159e-01   9.6755010e-01  -3.3802402e+04
   2.7075692e-09  -9.6221965e-06   9.6827831e-01   9.6755358e-01  -3.3490021e+04
   2.7102367e-09  -9.5332734e-06   9.6827506e-01   9.6755703e-01  -3.3180526e+04
   2.7129043e-09  -9.4451721e-06   9.6827184e-01   9.6756045e-01  -3.2873891e+04
   2.7155719e-09  -9.3578850e-06   9.6826866e-01   9.6756384e-01  -3.2570090e+04
   2.7182394e-09  -9.2714045e-06   9.6826550e-01   9.6756719e-01  -3.2269096e+04
   2.7209070e-09  -9.1857233e-06   9.6826237e-01   9.6757052e-01  -3.1970884e+04
   2.7235745e-09  -9.1008339e-06   9.6825927e-01   9.6757381e-01  -3.1675428e+04
   2.7262421e-09  -9.0167289e-06   9.6825620e-01   9.6757707e-01  -3.1382703e+04
   2.7289096e-09  -8.9334012e-06   9.6825316e-01   9.6758031e-01  -3.1092682e+04
   2.7315772e-09  -8.8508436e-06   9.6825014e-01   9.6758351e-01  -3.0805342e+04
   2.7342447e-09  -8.7690489e-06   9.6824716e-01   9.6758668e-01  -3.0520657e+04
   2.7369123e-09  -8.6880101e-06   9.6824420e-01   9.6758983e-01  -3.0238603e+04
   2.7395799e-09  -8.6077203e-06   9.6824127e-01   9.6759294e-01  -2.9959155e+04
   2.7422474e-09  -8.5281724e-06   9.6823836e-01   9.6759603e-01  -2.9682290e+04
   2.7449150e-09  -8.4493597e-06   9.6823548e-01   9.6759909e-01  -2.9407984e+04
   2.7475825e-09  -8.3712753e-06   9.6823263e-01   9.6760212e-01  -2.9136213e+04
   2.7502501e-09  -8.2939125e-06   9.6822981e-01   9.6760512e-01  -2.8866953e+04
   2.7529176e-09  -8.2172646e-06   9.6822701e-01   9.6760810e-01  -2.8600181e+04
   2.7555852e-09  -8.1413251e-06   9.6822424e-01   9.6761104e-01  -2.8335875e+04
   2.7582528e-09  -8.0660874e-06   9.6822149e-01   9.6761396e-01  -2.8074011e+04
   2.7609203e-09  -7.9915450e-06   9.6821877e-01   9.6761685e-01  -2.7814567e+04
   2.7635879e-09  -7.9176915e-06   9.6821607e-01   9.6761972e-01  -2.7557521e+04
   2.7662554e-09  -7.8445204e-06   9.6821340e-01   9.6762256e-01  -2.7302850e+04
   2.7689230e-09  -7.7720256e-06   9.6821075e-01   9.6762537e-01  -2.7050533e+04
   2.7715905e-09  -7.7002007e-06   9.6820813e-01   9.6762816e-01  -2.6800548e+04
   2.7742581e-09  -7.6290396e-06   9.6820553e-01   9.6763092e-01  -2.6552873e+04
   2.7769256e-09  -7.5585362e-06   9.6820296e-01   9.6763366e-01  -2.6307486e+04
   2.7795932e-09  -7.4886842e-06   9.6820041e-01   9.6763637e-01  -2.6064368e+04
   2.7822608e-09  -7.4194779e-06   9.6819788e-01   9.6763905e-01  -2.5823496e+04
   2.7849283e-09  -7.3509110e-06   9.6819538e-01   9.6764171e-01  -2.5584850e+04
   2.7875959e-09  -7.2829779e-06   9.6819290e-01   9.6764435e-01  -2.5348409e+04
   2.7902634e-09  -7.2156725e-06   9.6819044e-01   9.6764696e-01  -2.5114154e+04
   2.7929310e-09  -7.1489891e-06   9.6818800e-01   9.6764955e-01  -2.4882063e+04
   2.7955985e-09  -7.0829220e-06   9.6818559e-01   9.6765211e-01  -2.4652117e+04
   2.7982661e-09  -7.0174654e-06   9.6818320e-01   9.6765465e-01  -2.4424296e+04
   2.8009336e-09  -6.9526138e-06   9.6818083e-01   9.6765717e-01  -2.4198581e+04
   2.8036012e-09  -6.8883615e-06   9.6817849e-01   9.6765966e-01  -2.3974951e+04
   2.8062688e-09  -6.8247029e-06   9.6817616e-01   9.6766213e-01  -2.3753388e+04
   2.8089363e-09  -6.7616327e-06   9.6817386e-01   9.6766458e-01  -2.3533873e+04
   2.8116039e-09  -6.6991453e-06   9.6817158e-01   9.6766701e-01  -2.3316386e+04
   2.8142714e-09  -6.6372353e-06   9.6816932e-01   9.6766941e-01  -2.3100910e+04
   2.8169390e-09  -6.5758976e-06   9.6816708e-01   9.6767179e-01  -2.2887424e+04
   2.8196065e-09  -6.5151266e-06   9.6816486e-01   9.6767415e-01  -2.2675911e+04
   2.8222741e-09  -6.4549173e-06   9.6816266e-01   9.6767648e-01  -2.2466353e+04
   2.8249416e-09  -6.3952644e-06   9.6816048e-01   9.6767880e-01  -2.2258732e+04
   2.8276092e-09  -6.3361628e-06   9.6815832e-01   9.6768109e-01  -2.2053029e+04
   2.8302768e-09  -6.2776073e-06   9.6815619e-01   9.6768336e-01  -2.1849228e+04
   2.8329443e-09  -6.2195930e-06   9.6815407e-01   9.6768562e-01  -2.1647309e+04
   2.8356119e-09  -6.1621149e-06   9.6815197e-01   9.6768785e-01  -2.1447257e+04
   2.8382794e-09  -6.1051679e-06   9.6814989e-01   9.6769006e-01  -2.1249054e+04
   2.8409470e-09  -6.0487472e-06   9.6814783e-01   9.6769225e-01  -2.1052682e+04
   2.8436145e-09  -5.9928478e-06   9.6814579e-01   9.6769442e-01  -2.0858125e+04
   2.8462821e-09  -5.9374651e-06   9.6814377e-01   9.6769656e-01  -2.0665365e+04
   2.8489496e-09  -5.8825942e-06   9.6814176e-01   9.6769869e-01  -2.0474388e+04
   2.8516172e-09  -5.8282304e-06   9.6813978e-01   9.6770080e-01  -2.0285175e+04
   2.8542848e-09  -5.7743690e-06   9.6813781e-01   9.6770289e-01  -2.0097711e+04
   2.8569523e-09  -5.7210053e-06   9.6813586e-01   9.6770496e-01  -1.9911979e+04
   2.8596199e-09  -5.6681348e-06   9.6813393e-01   9.6770702e-01  -1.9727963e+04
   2.8622874e-09  -5.6157529e-06   9.6813202e-01   9.6770905e-01  -1.9545648e+04
   2.8649550e-09  -5.5638551e-06   9.6813013e-01   9.6771106e-01  -1.9365018e+04
   2.8676225e-09  -5.5124369e-06   9.6812825e-01   9.6771306e-01  -1.9186058e+04
   2.8702901e-09  -5.4614939e-06   9.6812639e-01   9.6771504e-01  -1.9008751e+04
   2.8729577e-09  -5.4110217e-06   9.6812455e-01   9.6771699e-01  -1.8833082e+04
   2.8756252e-09  -5.3610159e-06   9.6812272e-01   9.6771894e-01  -1.8659038e+04
   2.8782928e-09  -5.3114722e-06   9.6812091e-01   9.6772086e-01  -1.8486601e+04
   2.8809603e-09  -5.2623864e-06   9.6811912e-01   9.6772276e-01  -1.8315758e+04
   2.8836279e-09  -5.2137542e-06   9.6811734e-01   9.6772465e-01  -1.8146494e+04
   2.8862954e-09  -5.1655714e-06   9.6811559e-01   9.6772652e-01  -1.7978794e+04
   2.8889630e-09  -5.1178339e-06   9.6811384e-01   9.6772837e-01  -1.7812644e+04
   2.8916305e-09  -5.0705376e-06   9.6811212e-01   9.6773021e-01  -1.7648029e+04
   2.8942981e-09  -5.0236783e-06   9.6811040e-01   9.6773203e-01  -1.7484936e+04
   2.8969657e-09  -4.9772522e-06   9.6810871e-01   9.6773383e-01  -1.7323350e+04
   2.8996332e-09  -4.9312550e-06   9.6810703e-01   9.6773561e-01  -1.7163257e+04
   2.9023008e-09  -4.8856829e-06   9.6810537e-01   9.6773738e-01  -1.7004644e+04
   2.9049683e-09  -4.8405320e-06   9.6810372e-01   9.6773913e-01  -1.6847496e+04
   2.9076359e-09  -4.7957984e-06   9.6810208e-01   9.6774087e-01  -1.6691801e+04
   2.9103034e-09  -4.7514781e-06   9.6810047e-01   9.6774259e-01  -1.6537544e+04
   2.9129710e-09  -4.7075675e-06   9.6809886e-01   9.6774429e-01  -1.6384713e+04
   2.9156385e-09  -4.6640626e-06   9.6809727e-01   9.6774598e-01  -1.6233295e+04
   2.9183061e-09  -4.6209598e-06   9.6809570e-01   9.6774766e-01  -1.6083276e+04
   2.9209737e-09  -4.5782553e-06   9.6809414e-01   9.6774931e-01  -1.5934643e+04
   2.9236412e-09  -4.5359455e-06   9.6809260e-01   9.6775095e-01  -1.5787383e+04
   2.9263088e-09  -4.4940266e-06   9.6809107e-01   9.6775258e-01  -1.5641485e+04
   2.9289763e-09  -4.4524952e-06   9.6808955e-01   9.6775419e-01  -1.5496935e+04
   2.9316439e-09  -4.4113476e-06   9.6808805e-01   9.6775579e-01  -1.5353721e+04
   2.9343114e-09  -4.3705802e-06   9.6808656e-01   9.6775737e-01  -1.5211830e+04
   2.9369790e-09  -4.3301896e-06   9.6808509e-01   9.6775894e-01  -1.5071251e+04
   2.9396465e-09  -4.2901722e-06   9.6808362e-01   9.6776049e-01  -1.4931970e+04
   2.9423141e-09  -4.2505247e-06   9.6808218e-01   9.6776203e-01  -1.4793977e+04
   2.9449817e-09  -4.2112436e-06   9.6808074e-01   9.6776356e-01  -1.4657259e+04
   2.9476492e-09  -4.1723255e-06   9.6807932e-01   9.6776507e-01  -1.4521805e+04
   2.9503168e-09  -4.1337670e-06   9.6807791e-01   9.6776656e-01  -1.4387602e+04
   2.9529843e-09  -4.0955649e-06   9.6807652e-01   9.6776805e-01  -1.4254640e+04
   2.9556519e-09  -4.0577158e-06   9.6807514e-01   9.6776951e-01  -1.4122906e+04
   2.9583194e-09  -4.0202165e-06   9.6807377e-01   9.6777097e-01  -1.3992390e+04
   2.9609870e-09  -3.9830638e-06   9.6807241e-01   9.6777241e-01  -1.3863080e+04
   2.9636546e-09  -3.9462544e-06   9.6807107e-01   9.6777384e-01  -1.3734965e+04
   2.9663221e-09  -3.9097852e-06   9.6806974e-01   9.6777526e-01  -1.3608033e+04
   2.9689897e-09  -3.8736530e-06   9.6806842e-01   9.6777666e-01  -1.3482275e+04
   2.9716572e-09  -3.8378547e-06   9.6806711e-01   9.6777805e-01  -1.3357679e+04
   2.9743248e-09  -3.8023872e-06   9.6806582e-01   9.6777942e-01  -1.3234235e+04
   2.9769923e-09  -3.7672476e-06   9.6806453e-01   9.6778079e-01  -1.3111931e+04
   2.9796599e-09  -3.7324326e-06   9.6806326e-01   9.6778214e-01  -1.2990758e+04
   2.9823274e-09  -3.6979394e-06   9.6806200e-01   9.6778348e-01  -1.2870704e+04
   2.9849950e-09  -3.6637650e-06   9.6806075e-01   9.6778480e-01  -1.2751760e+04
   2.9876626e-09  -3.6299064e-06   9.6805952e-01   9.6778612e-01  -1.2633915e+04
   2.9903301e-09  -3.5963607e-06   9.6805829e-01   9.6778742e-01  -1.2517159e+04
   2.9929977e-09  -3.5631250e-06   9.6805708e-01   9.6778871e-01  -1.2401483e+04
   2.9956652e-09  -3.5301964e-06   9.6805588e-01   9.6778999e-01  -1.2286875e+04
   2.9983328e-09  -3.4975722e-06   9.6805469e-01   9.6779125e-01  -1.2173326e+04
   3.0010003e-09  -3.4652494e-06   9.6805351e-01   9.6779251e-01  -1.2060827e+04
   3.0036679e-09  -3.4332254e-06   9.6805234e-01   9.6779375e-01  -1.1949367e+04
   3.0063354e-09  -3.4014973e-06   9.6805118e-01   9.6779498e-01  -1.1838937e+04
   3.0090030e-09  -3.3700624e-06   9.6805003e-01   9.6779620e-01  -1.1729528e+04
   3.0116706e-09  -3.3389181e-06   9.6804889e-01   9.6779741e-01  -1.1621130e+04
   3.0143381e-09  -3.3080615e-06   9.6804777e-01   9.6779861e-01  -1.1513734e+04
   3.0170057e-09  -3.2774901e-06   9.6804665e-01   9.6779979e-01  -1.1407330e+04
   3.0196732e-09  -3.2472013e-06   9.6804555e-01   9.6780097e-01  -1.1301910e+04
   3.0223408e-09  -3.2171923e-06   9.6804445e-01   9.6780213e-01  -1.1197463e+04
   3.0250083e-09  -3.1874607e-06   9.6804336e-01   9.6780329e-01  -1.1093982e+04
   3.0276759e-09  -3.1580038e-06   9.6804229e-01   9.6780443e-01  -1.0991458e+04
   3.0303434e-09  -3.1288192e-06   9.6804122e-01   9.6780556e-01  -1.0889881e+04
   3.0330110e-09  -3.0999043e-06   9.6804017e-01   9.6780669e-01  -1.0789242e+04
   3.0356786e-09  -3.0712566e-06   9.6803912e-01   9.6780780e-01  -1.0689534e+04
   3.0383461e-09  -3.0428736e-06   9.6803809e-01   9.6780890e-01  -1.0590747e+04
   3.0410137e-09  -3.0147529e-06   9.6803706e-01   9.6780999e-01  -1.0492873e+04
   3.0436812e-09  -2.9868921e-06   9.6803604e-01   9.6781107e-01  -1.0395903e+04
   3.0463488e-09  -2.9592888e-06   9.6803503e-01   9.6781214e-01  -1.0299830e+04
   3.0490163e-09  -2.9319406e-06   9.6803404e-01   9.6781321e-01  -1.0204644e+04
   3.0516839e-09  -2.9048451e-06   9.6803305e-01   9.6781426e-01  -1.0110338e+04
   3.0543515e-09  -2.8780001e-06   9.6803207e-01   9.6781530e-01  -1.0016904e+04
   3.0570190e-09  -2.8514031e-06   9.6803110e-01   9.6781633e-01  -9.9243329e+03
   3.0596866e-09  -2.8250519e-06   9.6803013e-01   9.6781735e-01  -9.8326174e+03
   3.0623541e-09  -2.7989442e-06   9.6802918e-01   9.6781837e-01  -9.7417496e+03
   3.0650217e-09  -2.7730778e-06   9.6802824e-01   9.6781937e-01  -9.6517215e+03
   3.0676892e-09  -2.7474504e-06   9.6802730e-01   9.6782037e-01  -9.5625254e+03
   3.0703568e-09  -2.7220599e-06   9.6802637e-01   9.6782135e-01  -9.4741536e+03
   3.0730243e-09  -2.6969041e-06   9.6802546e-01   9.6782233e-01  -9.3865985e+03
   3.0756919e-09  -2.6719807e-06   9.6802455e-01   9.6782329e-01  -9.2998525e+03
   3.0783595e-09  -2.6472876e-06   9.6802364e-01   9.6782425e-01  -9.2139082e+03
   3.0810270e-09  -2.6228227e-06   9.6802275e-01   9.6782520e-01  -9.1287581e+03
   3.0836946e-09  -2.5985839e-06   9.6802187e-01   9.6782614e-01  -9.0443949e+03
   3.0863621e-09  -2.5745692e-06   9.6802099e-01   9.6782708e-01  -8.9608114e+03
   3.0890297e-09  -2.5507763e-06   9.6802012e-01   9.6782800e-01  -8.8780003e+03
   3.0916972e-09  -2.5272034e-06   9.6801926e-01   9.6782891e-01  -8.7959545e+03
   3.0943648e-09  -2.5038483e-06   9.6801841e-01   9.6782982e-01  -8.7146669e+03
   3.0970323e-09  -2.4807090e-06   9.6801756e-01   9.6783072e-01  -8.6341306e+03
   3.0996999e-09  -2.4577835e-06   9.6801673e-01   9.6783161e-01  -8.5543385e+03
   3.1023675e-09  -2.4350700e-06   9.6801590e-01   9.6783249e-01  -8.4752838e+03
   3.1050350e-09  -2.4125663e-06   9.6801507e-01   9.6783336e-01  -8.3969597e+03
   3.1077026e-09  -2.3902706e-06   9.6801426e-01   9.6783423e-01  -8.3193594e+03
   3.1103701e-09  -2.3681810e-06   9.6801345e-01   9.6783509e-01  -8.2424762e+03
   3.1130377e-09  -2.3462954e-06   9.6801266e-01   9.6783593e-01  -8.1663036e+03
   3.1157052e-09  -2.3246122e-06   9.6801186e-01   9.6783678e-01  -8.0908349e+03
   3.1183728e-09  -2.3031293e-06   9.6801108e-01   9.6783761e-01  -8.0160636e+03
   3.1210403e-09  -2.2818450e-06   9.6801030e-01   9.6783844e-01  -7.9419834e+03
   3.1237079e-09  -2.2607573e-06   9.6800953e-01   9.6783925e-01  -7.8685877e+03
   3.1263755e-09  -2.2398646e-06   9.6800877e-01   9.6784007e-01  -7.7958704e+03
   3.1290430e-09  -2.2191649e-06   9.6800801e-01   9.6784087e-01  -7.7238250e+03
   3.1317106e-09  -2.1986565e-06   9.6800727e-01   9.6784166e-01  -7.6524455e+03
   3.1343781e-09  -2.1783377e-06   9.6800652e-01   9.6784245e-01  -7.5817256e+03
   3.1370457e-09  -2.1582066e-06   9.6800579e-01   9.6784323e-01  -7.5116593e+03
   3.1397132e-09  -2.1382615e-06   9.6800506e-01   9.6784401e-01  -7.4422404e+03
   3.1423808e-09  -2.1185008e-06   9.6800434e-01   9.6784478e-01  -7.3734631e+03
   3.1450483e-09  -2.0989227e-06   9.6800362e-01   9.6784554e-01  -7.3053214e+03
   3.1477159e-09  -2.0795256e-06   9.6800292e-01   9.6784629e-01  -7.2378095e+03
   3.1503835e-09  -2.0603077e-06   9.6800221e-01   9.6784703e-01  -7.1709214e+03
   3.1530510e-09  -2.0412674e-06   9.6800152e-01   9.6784777e-01  -7.1046515e+03
   3.1557186e-09  -2.0224030e-06   9.6800083e-01   9.6784851e-01  -7.0389940e+03
   3.1583861e-09  -2.0037130e-06   9.6800015e-01   9.6784923e-01  -6.9739433e+03
   3.1610537e-09  -1.9851957e-06   9.6799947e-01   9.6784995e-01  -6.9094938e+03
   3.1637212e-09  -1.9668495e-06   9.6799880e-01   9.6785066e-01  -6.8456398e+03
   3.1663888e-09  -1.9486729e-06   9.6799814e-01   9.6785137e-01  -6.7823760e+03
   3.1690564e-09  -1.9306643e-06   9.6799748e-01   9.6785207e-01  -6.7196968e+03
   3.1717239e-09  -1.9128221e-06   9.6799683e-01   9.6785276e-01  -6.6575969e+03
   3.1743915e-09  -1.8951448e-06   9.6799619e-01   9.6785344e-01  -6.5960708e+03
   3.1770590e-09  -1.8776308e-06   9.6799555e-01   9.6785412e-01  -6.5351134e+03
   3.1797266e-09  -1.8602787e-06   9.6799491e-01   9.6785480e-01  -6.4747193e+03
   3.1823941e-09  -1.8430869e-06   9.6799428e-01   9.6785546e-01  -6.4148833e+03
   3.1850617e-09  -1.8260541e-06   9.6799366e-01   9.6785613e-01  -6.3556003e+03
   3.1877292e-09  -1.8091786e-06   9.6799305e-01   9.6785678e-01  -6.2968651e+03
   3.1903968e-09  -1.7924591e-06   9.6799244e-01   9.6785743e-01  -6.2386728e+03
   3.1930644e-09  -1.7758941e-06   9.6799183e-01   9.6785807e-01  -6.1810182e+03
   3.1957319e-09  -1.7594822e-06   9.6799123e-01   9.6785871e-01  -6.1238964e+03
   3.1983995e-09  -1.7432220e-06   9.6799064e-01   9.6785934e-01  -6.0673026e+03
   3.2010670e-09  -1.7271120e-06   9.6799005e-01   9.6785997e-01  -6.0112317e+03
   3.2037346e-09  -1.7111509e-06   9.6798947e-01   9.6786059e-01  -5.9556790e+03
   3.2064021e-09  -1.6953374e-06   9.6798889e-01   9.6786120e-01  -5.9006397e+03
   3.2090697e-09  -1.6796699e-06   9.6798832e-01   9.6786181e-01  -5.8461091e+03
   3.2117372e-09  -1.6641473e-06   9.6798775e-01   9.6786241e-01  -5.7920824e+03
   3.2144048e-09  -1.6487681e-06   9.6798719e-01   9.6786301e-01  -5.7385550e+03
   3.2170724e-09  -1.6335310e-06   9.6798663e-01   9.6786360e-01  -5.6855222e+03
   3.2197399e-09  -1.6184347e-06   9.6798608e-01   9.6786418e-01  -5.6329796e+03
   3.2224075e-09  -1.6034780e-06   9.6798554e-01   9.6786476e-01  -5.5809225e+03
   3.2250750e-09  -1.5886595e-06   9.6798500e-01   9.6786534e-01  -5.5293465e+03
   3.2277426e-09  -1.5739779e-06   9.6798446e-01   9.6786591e-01  -5.4782471e+03
   3.2304101e-09  -1.5594320e-06   9.6798393e-01   9.6786647e-01  -5.4276200e+03
   3.2330777e-09  -1.5450205e-06   9.6798340e-01   9.6786703e-01  -5.3774607e+03
   3.2357452e-09  -1.5307422e-06   9.6798288e-01   9.6786759e-01  -5.3277650e+03
   3.2384128e-09  -1.5165959e-06   9.6798237e-01   9.6786814e-01  -5.2785286e+03
   3.2410804e-09  -1.5025803e-06   9.6798185e-01   9.6786868e-01  -5.2297472e+03
   3.2437479e-09  -1.4886942e-06   9.6798135e-01   9.6786922e-01  -5.1814165e+03
   3.2464155e-09  -1.4749364e-06   9.6798084e-01   9.6786975e-01  -5.1335326e+03
   3.2490830e-09  -1.4613058e-06   9.6798035e-01   9.6787028e-01  -5.0860911e+03
   3.2517506e-09  -1.4478012e-06   9.6797985e-01   9.6787081e-01  -5.0390881e+03
   3.2544181e-09  -1.4344213e-06   9.6797937e-01   9.6787133e-01  -4.9925194e+03
   3.2570857e-09  -1.4211651e-06   9.6797888e-01   9.6787184e-01  -4.9463811e+03
   3.2597533e-09  -1.4080315e-06   9.6797840e-01   9.6787235e-01  -4.9006692e+03
   3.2624208e-09  -1.3950192e-06   9.6797793e-01   9.6787286e-01  -4.8553798e+03
   3.2650884e-09  -1.3821271e-06   9.6797746e-01   9.6787336e-01  -4.8105089e+03
   3.2677559e-09  -1.3693542e-06   9.6797699e-01   9.6787385e-01  -4.7660526e+03
   3.2704235e-09  -1.3566993e-06   9.6797653e-01   9.6787434e-01  -4.7220072e+03
   3.2730910e-09  -1.3441614e-06   9.6797607e-01   9.6787483e-01  -4.6783689e+03
   3.2757586e-09  -1.3317393e-06   9.6797562e-01   9.6787531e-01  -4.6351338e+03
   3.2784261e-09  -1.3194321e-06   9.6797517e-01   9.6787579e-01  -4.5922983e+03
   3.2810937e-09  -1.3072386e-06   9.6797472e-01   9.6787626e-01  -4.5498586e+03
   3.2837613e-09  -1.2951577e-06   9.6797428e-01   9.6787673e-01  -4.5078112e+03
   3.2864288e-09  -1.2831885e-06   9.6797384e-01   9.6787720e-01  -4.4661523e+03
   3.2890964e-09  -1.2713300e-06   9.6797341e-01   9.6787766e-01  -4.4248784e+03
   3.2917639e-09  -1.2595810e-06   9.6797298e-01   9.6787811e-01  -4.3839860e+03
   3.2944315e-09  -1.2479406e-06   9.6797256e-01   9.6787856e-01  -4.3434714e+03
   3.2970990e-09  -1.2364077e-06   9.6797214e-01   9.6787901e-01  -4.3033313e+03
   3.2997666e-09  -1.2249815e-06   9.6797172e-01   9.6787945e-01  -4.2635621e+03
   3.3024341e-09  -1.2136608e-06   9.6797131e-01   9.6787989e-01  -4.2241605e+03
   3.3051017e-09  -1.2024448e-06   9.6797090e-01   9.6788033e-01  -4.1851230e+03
   3.3077693e-09  -1.1913324e-06   9.6797049e-01   9.6788076e-01  -4.1464462e+03
   3.3104368e-09  -1.1803227e-06   9.6797009e-01   9.6788119e-01  -4.1081269e+03
   3.3131044e-09  -1.1694148e-06   9.6796969e-01   9.6788161e-01  -4.0701617e+03
   3.3157719e-09  -1.1586076e-06   9.6796930e-01   9.6788203e-01  -4.0325473e+03
   3.3184395e-09  -1.1479004e-06   9.6796891e-01   9.6788245e-01  -3.9952806e+03
   3.3211070e-09  -1.1372921e-06   9.6796852e-01   9.6788286e-01  -3.9583583e+03
   3.3237746e-09  -1.1267818e-06   9.6796813e-01   9.6788327e-01  -3.9217772e+03
   3.3264421e-09  -1.1163686e-06   9.6796775e-01   9.6788367e-01  -3.8855341e+03
   3.3291097e-09  -1.1060517e-06   9.6796738e-01   9.6788407e-01  -3.8496260e+03
   3.3317773e-09  -1.0958302e-06   9.6796700e-01   9.6788447e-01  -3.8140497e+03
   3.3344448e-09  -1.0857031e-06   9.6796663e-01   9.6788486e-01  -3.7788022e+03
   3.3371124e-09  -1.0756695e-06   9.6796627e-01   9.6788525e-01  -3.7438805e+03
   3.3397799e-09  -1.0657288e-06   9.6796591e-01   9.6788564e-01  -3.7092815e+03
   3.3424475e-09  -1.0558798e-06   9.6796555e-01   9.6788602e-01  -3.6750022e+03
   3.3451150e-09  -1.0461219e-06   9.6796519e-01   9.6788640e-01  -3.6410397e+03
   3.3477826e-09  -1.0364542e-06   9.6796484e-01   9.6788677e-01  -3.6073911e+03
   3.3504502e-09  -1.0268758e-06   9.6796449e-01   9.6788714e-01  -3.5740534e+03
   3.3531177e-09  -1.0173859e-06   9.6796414e-01   9.6788751e-01  -3.5410238e+03
   3.3557853e-09  -1.0079838e-06   9.6796380e-01   9.6788788e-01  -3.5082995e+03
   3.3584528e-09  -9.9866851e-07   9.6796346e-01   9.6788824e-01  -3.4758776e+03
   3.3611204e-09  -9.8943932e-07   9.6796312e-01   9.6788860e-01  -3.4437553e+03
   3.3637879e-09  -9.8029543e-07   9.6796279e-01   9.6788895e-01  -3.4119299e+03
   3.3664555e-09  -9.7123603e-07   9.6796246e-01   9.6788930e-01  -3.3803986e+03
   3.3691230e-09  -9.6226036e-07   9.6796213e-01   9.6788965e-01  -3.3491587e+03
   3.3717906e-09  -9.5336764e-07   9.6796180e-01   9.6789000e-01  -3.3182075e+03
   3.3744582e-09  -9.4455710e-07   9.6796148e-01   9.6789034e-01  -3.2875423e+03
   3.3771257e-09  -9.3582798e-07   9.6796116e-01   9.6789068e-01  -3.2571605e+03
   3.3797933e-09  -9.2717954e-07   9.6796085e-01   9.6789101e-01  -3.2270595e+03
   3.3824608e-09  -9.1861101e-07   9.6796053e-01   9.6789135e-01  -3.1972367e+03
   3.3851284e-09  -9.1012168e-07   9.6796022e-01   9.6789168e-01  -3.1676894e+03
   3.3877959e-09  -9.0171079e-07   9.6795992e-01   9.6789200e-01  -3.1384153e+03
   3.3904635e-09  -8.9337764e-07   9.6795961e-01   9.6789233e-01  -3.1094116e+03
   3.3931310e-09  -8.8512150e-07   9.6795931e-01   9.6789265e-01  -3.0806761e+03
   3.3957986e-09  -8.7694165e-07   9.6795901e-01   9.6789296e-01  -3.0522060e+03
   3.3984662e-09  -8.6883740e-07   9.6795872e-01   9.6789328e-01  -3.0239991e+03
   3.4011337e-09  -8.6080805e-07   9.6795842e-01   9.6789359e-01  -2.9960528e+03
   3.4038013e-09  -8.5285290e-07   9.6795813e-01   9.6789390e-01  -2.9683649e+03
   3.4064688e-09  -8.4497126e-07   9.6795785e-01   9.6789420e-01  -2.9409328e+03
   3.4091364e-09  -8.3716247e-07   9.6795756e-01   9.6789451e-01  -2.9137542e+03
   3.4118039e-09  -8.2942584e-07   9.6795728e-01   9.6789481e-01  -2.8868267e+03
   3.4144715e-09  -8.2176070e-07   9.6795700e-01   9.6789510e-01  -2.8601481e+03
   3.4171390e-09  -8.1416641e-07   9.6795672e-01   9.6789540e-01  -2.8337161e+03
   3.4198066e-09  -8.0664229e-07   9.6795645e-01   9.6789569e-01  -2.8075284e+03
   3.4224742e-09  -7.9918771e-07   9.6795618e-01   9.6789598e-01  -2.7815826e+03
   3.4251417e-09  -7.9180203e-07   9.6795591e-01   9.6789627e-01  -2.7558766e+03
   3.4278093e-09  -7.8448459e-07   9.6795564e-01   9.6789655e-01  -2.7304082e+03
   3.4304768e-09  -7.7723478e-07   9.6795537e-01   9.6789683e-01  -2.7051752e+03
   3.4331444e-09  -7.7005197e-07   9.6795511e-01   9.6789711e-01  -2.6801754e+03
   3.4358119e-09  -7.6293554e-07   9.6795485e-01   9.6789739e-01  -2.6554065e+03
   3.4384795e-09  -7.5588488e-07   9.6795459e-01   9.6789766e-01  -2.6308666e+03
   3.4411470e-09  -7.4889937e-07   9.6795434e-01   9.6789793e-01  -2.6065535e+03
   3.4438146e-09  -7.4197843e-07   9.6795409e-01   9.6789820e-01  -2.5824651e+03
   3.4464822e-09  -7.3512144e-07   9.6795384e-01   9.6789847e-01  -2.5585992e+03
   3.4491497e-09  -7.2832782e-07   9.6795359e-01   9.6789873e-01  -2.5349540e+03
   3.4518173e-09  -7.2159698e-07   9.6795334e-01   9.6789899e-01  -2.5115272e+03
   3.4544848e-09  -7.1492835e-07   9.6795310e-01   9.6789925e-01  -2.4883170e+03
   3.4571524e-09  -7.0832134e-07   9.6795286e-01   9.6789951e-01  -2.4653212e+03
   3.4598199e-09  -7.0177539e-07   9.6795262e-01   9.6789976e-01  -2.4425380e+03
   3.4624875e-09  -6.9528994e-07   9.6795238e-01   9.6790001e-01  -2.4199653e+03
   3.4651551e-09  -6.8886442e-07   9.6795215e-01   9.6790026e-01  -2.3976012e+03
   3.4678226e-09  -6.8249829e-07   9.6795192e-01   9.6790051e-01  -2.3754438e+03
   3.4704902e-09  -6.7619098e-07   9.6795168e-01   9.6790075e-01  -2.3534911e+03
   3.4731577e-09  -6.6994197e-07   9.6795146e-01   9.6790100e-01  -2.3317414e+03
   3.4758253e-09  -6.6375070e-07   9.6795123e-01   9.6790124e-01  -2.3101926e+03
   3.4784928e-09  -6.5761666e-07   9.6795101e-01   9.6790148e-01  -2.2888430e+03
   3.4811604e-09  -6.5153930e-07   9.6795079e-01   9.6790171e-01  -2.2676906e+03
   3.4838279e-09  -6.4551810e-07   9.6795057e-01   9.6790195e-01  -2.2467338e+03
   3.4864955e-09  -6.3955255e-07   9.6795035e-01   9.6790218e-01  -2.2259706e+03
   3.4891631e-09  -6.3364213e-07   9.6795013e-01   9.6790241e-01  -2.2053993e+03
   3.4918306e-09  -6.2778633e-07   9.6794992e-01   9.6790263e-01  -2.1850181e+03
   3.4944982e-09  -6.2198464e-07   9.6794971e-01   9.6790286e-01  -2.1648253e+03
   3.4971657e-09  -6.1623658e-07   9.6794950e-01   9.6790308e-01  -2.1448191e+03
   3.4998333e-09  -6.1054163e-07   9.6794929e-01   9.6790330e-01  -2.1249978e+03
   3.5025008e-09  -6.0489931e-07   9.6794908e-01   9.6790352e-01  -2.1053596e+03
   3.5051684e-09  -5.9930914e-07   9.6794888e-01   9.6790374e-01  -2.0859030e+03
   3.5078359e-09  -5.9377063e-07   9.6794868e-01   9.6790395e-01  -2.0666261e+03
   3.5105035e-09  -5.8828330e-07   9.6794848e-01   9.6790417e-01  -2.0475274e+03
   3.5131711e-09  -5.8284668e-07   9.6794828e-01   9.6790438e-01  -2.0286052e+03
   3.5158386e-09  -5.7746031e-07   9.6794808e-01   9.6790459e-01  -2.0098579e+03
   3.5185062e-09  -5.7212371e-07   9.6794789e-01   9.6790479e-01  -1.9912838e+03
   3.5211737e-09  -5.6683643e-07   9.6794769e-01   9.6790500e-01  -1.9728813e+03
   3.5238413e-09  -5.6159802e-07   9.6794750e-01   9.6790520e-01  -1.9546490e+03
   3.5265088e-09  -5.5640801e-07   9.6794731e-01   9.6790540e-01  -1.9365851e+03
   3.5291764e-09  -5.5126597e-07   9.6794712e-01   9.6790560e-01  -1.9186882e+03
   3.5318439e-09  -5.4617145e-07   9.6794694e-01   9.6790580e-01  -1.9009566e+03
   3.5345115e-09  -5.4112401e-07   9.6794675e-01   9.6790600e-01  -1.8833890e+03
   3.5371791e-09  -5.3612322e-07   9.6794657e-01   9.6790619e-01  -1.8659836e+03
   3.5398466e-09  -5.3116864e-07   9.6794639e-01   9.6790638e-01  -1.8487392e+03
   3.5425142e-09  -5.2625984e-07   9.6794621e-01   9.6790657e-01  -1.8316541e+03
   3.5451817e-09  -5.2139642e-07   9.6794603e-01   9.6790676e-01  -1.8147269e+03
   3.5478493e-09  -5.1657794e-07   9.6794586e-01   9.6790695e-01  -1.7979561e+03
   3.5505168e-09  -5.1180398e-07   9.6794568e-01   9.6790714e-01  -1.7813403e+03
   3.5531844e-09  -5.0707415e-07   9.6794551e-01   9.6790732e-01  -1.7648780e+03
   3.5558520e-09  -5.0238803e-07   9.6794534e-01   9.6790750e-01  -1.7485679e+03
   3.5585195e-09  -4.9774521e-07   9.6794517e-01   9.6790768e-01  -1.7324085e+03
   3.5611871e-09  -4.9314530e-07   9.6794500e-01   9.6790786e-01  -1.7163985e+03
   3.5638546e-09  -4.8858790e-07   9.6794484e-01   9.6790804e-01  -1.7005364e+03
   3.5665222e-09  -4.8407262e-07   9.6794467e-01   9.6790821e-01  -1.6848209e+03
   3.5691897e-09  -4.7959906e-07   9.6794451e-01   9.6790839e-01  -1.6692507e+03
   3.5718573e-09  -4.7516685e-07   9.6794435e-01   9.6790856e-01  -1.6538243e+03
   3.5745248e-09  -4.7077560e-07   9.6794419e-01   9.6790873e-01  -1.6385405e+03
   3.5771924e-09  -4.6642493e-07   9.6794403e-01   9.6790890e-01  -1.6233979e+03
   3.5798600e-09  -4.6211447e-07   9.6794387e-01   9.6790906e-01  -1.6083953e+03
   3.5825275e-09  -4.5784384e-07   9.6794371e-01   9.6790923e-01  -1.5935313e+03
   3.5851951e-09  -4.5361268e-07   9.6794356e-01   9.6790939e-01  -1.5788047e+03
   3.5878626e-09  -4.4942062e-07   9.6794341e-01   9.6790956e-01  -1.5642142e+03
   3.5905302e-09  -4.4526730e-07   9.6794325e-01   9.6790972e-01  -1.5497585e+03
   3.5931977e-09  -4.4115236e-07   9.6794310e-01   9.6790988e-01  -1.5354364e+03
   3.5958653e-09  -4.3707546e-07   9.6794296e-01   9.6791004e-01  -1.5212467e+03
   3.5985328e-09  -4.3303623e-07   9.6794281e-01   9.6791019e-01  -1.5071881e+03
   3.6012004e-09  -4.2903432e-07   9.6794266e-01   9.6791035e-01  -1.4932595e+03
   3.6038680e-09  -4.2506941e-07   9.6794252e-01   9.6791050e-01  -1.4794595e+03
   3.6065355e-09  -4.2114113e-07   9.6794237e-01   9.6791065e-01  -1.4657871e+03
   3.6092031e-09  -4.1724916e-07   9.6794223e-01   9.6791081e-01  -1.4522410e+03
   3.6118706e-09  -4.1339315e-07   9.6794209e-01   9.6791095e-01  -1.4388202e+03
   3.6145382e-09  -4.0957278e-07   9.6794195e-01   9.6791110e-01  -1.4255233e+03
   3.6172057e-09  -4.0578771e-07   9.6794181e-01   9.6791125e-01  -1.4123494e+03
   3.6198733e-09  -4.0203763e-07   9.6794168e-01   9.6791140e-01  -1.3992972e+03
   3.6225408e-09  -3.9832220e-07   9.6794154e-01   9.6791154e-01  -1.3863656e+03
   3.6252084e-09  -3.9464111e-07   9.6794141e-01   9.6791168e-01  -1.3735535e+03
   3.6278760e-09  -3.9099403e-07   9.6794127e-01   9.6791182e-01  -1.3608598e+03
   3.6305435e-09  -3.8738066e-07   9.6794114e-01   9.6791196e-01  -1.3482834e+03
   3.6332111e-09  -3.8380069e-07   9.6794101e-01   9.6791210e-01  -1.3358233e+03
   3.6358786e-09  -3.8025380e-07   9.6794088e-01   9.6791224e-01  -1.3234783e+03
   3.6385462e-09  -3.7673968e-07   9.6794075e-01   9.6791238e-01  -1.3112474e+03
   3.6412137e-09  -3.7325804e-07   9.6794063e-01   9.6791251e-01  -1.2991295e+03
   3.6438813e-09  -3.6980858e-07   9.6794050e-01   9.6791265e-01  -1.2871236e+03
   3.6465488e-09  -3.6639100e-07   9.6794038e-01   9.6791278e-01  -1.2752286e+03
   3.6492164e-09  -3.6300500e-07   9.6794025e-01   9.6791291e-01  -1.2634436e+03
   3.6518840e-09  -3.5965029e-07   9.6794013e-01   9.6791304e-01  -1.2517675e+03
   3.6545515e-09  -3.5632658e-07   9.6794001e-01   9.6791317e-01  -1.2401993e+03
   3.6572191e-09  -3.5303359e-07   9.6793989e-01   9.6791330e-01  -1.2287380e+03
   3.6598866e-09  -3.4977103e-07   9.6793977e-01   9.6791342e-01  -1.2173827e+03
   3.6625542e-09  -3.4653862e-07   9.6793965e-01   9.6791355e-01  -1.2061322e+03
   3.6652217e-09  -3.4333609e-07   9.6793953e-01   9.6791367e-01  -1.1949858e+03
   3.6678893e-09  -3.4016315e-07   9.6793942e-01   9.6791380e-01  -1.1839423e+03
   3.6705569e-09  -3.3701953e-07   9.6793930e-01   9.6791392e-01  -1.1730009e+03
   3.6732244e-09  -3.3390497e-07   9.6793919e-01   9.6791404e-01  -1.1621606e+03
   3.6758920e-09  -3.3081919e-07   9.6793908e-01   9.6791416e-01  -1.1514205e+03
   3.6785595e-09  -3.2776192e-07   9.6793897e-01   9.6791428e-01  -1.1407797e+03
   3.6812271e-09  -3.2473291e-07   9.6793885e-01   9.6791440e-01  -1.1302372e+03
   3.6838946e-09  -3.2173190e-07   9.6793875e-01   9.6791451e-01  -1.1197921e+03
   3.6865622e-09  -3.1875861e-07   9.6793864e-01   9.6791463e-01  -1.1094436e+03
   3.6892297e-09  -3.1581281e-07   9.6793853e-01   9.6791474e-01  -1.0991907e+03
   3.6918973e-09  -3.1289422e-07   9.6793842e-01   9.6791486e-01  -1.0890325e+03
   3.6945649e-09  -3.1000261e-07   9.6793832e-01   9.6791497e-01  -1.0789682e+03
   3.6972324e-09  -3.0713772e-07   9.6793821e-01   9.6791508e-01  -1.0689969e+03
   3.6999000e-09  -3.0429931e-07   9.6793811e-01   9.6791519e-01  -1.0591178e+03
   3.7025675e-09  -3.0148713e-07   9.6793801e-01   9.6791530e-01  -1.0493300e+03
   3.7052351e-09  -2.9870094e-07   9.6793790e-01   9.6791541e-01  -1.0396326e+03
   3.7079026e-09  -2.9594050e-07   9.6793780e-01   9.6791551e-01  -1.0300248e+03
   3.7105702e-09  -2.9320556e-07   9.6793770e-01   9.6791562e-01  -1.0205059e+03
   3.7132377e-09  -2.9049590e-07   9.6793760e-01   9.6791572e-01  -1.0110749e+03
   3.7159053e-09  -2.8781129e-07   9.6793751e-01   9.6791583e-01  -1.0017310e+03
   3.7185729e-09  -2.8515148e-07   9.6793741e-01   9.6791593e-01  -9.9247353e+02
   3.7212404e-09  -2.8251625e-07   9.6793731e-01   9.6791603e-01  -9.8330159e+02
   3.7239080e-09  -2.7990538e-07   9.6793722e-01   9.6791614e-01  -9.7421442e+02
   3.7265755e-09  -2.7731864e-07   9.6793712e-01   9.6791624e-01  -9.6521122e+02
   3.7292431e-09  -2.7475580e-07   9.6793703e-01   9.6791634e-01  -9.5629123e+02
   3.7319106e-09  -2.7221664e-07   9.6793694e-01   9.6791643e-01  -9.4745367e+02
   3.7345782e-09  -2.6970095e-07   9.6793685e-01   9.6791653e-01  -9.3869778e+02
   3.7372457e-09  -2.6720851e-07   9.6793675e-01   9.6791663e-01  -9.3002281e+02
   3.7399133e-09  -2.6473911e-07   9.6793666e-01   9.6791672e-01  -9.2142800e+02
   3.7425809e-09  -2.6229252e-07   9.6793658e-01   9.6791682e-01  -9.1291263e+02
   3.7452484e-09  -2.5986855e-07   9.6793649e-01   9.6791691e-01  -9.0447595e+02
   3.7479160e-09  -2.5746697e-07   9.6793640e-01   9.6791701e-01  -8.9611725e+02
   3.7505835e-09  -2.5508759e-07   9.6793631e-01   9.6791710e-01  -8.8783579e+02
   3.7532511e-09  -2.5273020e-07   9.6793623e-01   9.6791719e-01  -8.7963086e+02
   3.7559186e-09  -2.5039460e-07   9.6793614e-01   9.6791728e-01  -8.7150176e+02
   3.7585862e-09  -2.4808058e-07   9.6793606e-01   9.6791737e-01  -8.6344777e+02
   3.7612538e-09  -2.4578794e-07   9.6793597e-01   9.6791746e-01  -8.5546822e+02
   3.7639213e-09  -2.4351649e-07   9.6793589e-01   9.6791755e-01  -8.4756242e+02
   3.7665889e-09  -2.4126603e-07   9.6793581e-01   9.6791764e-01  -8.3972968e+02
   3.7692564e-09  -2.3903637e-07   9.6793573e-01   9.6791772e-01  -8.3196932e+02
   3.7719240e-09  -2.3682732e-07   9.6793565e-01   9.6791781e-01  -8.2428068e+02
   3.7745915e-09  -2.3463868e-07   9.6793557e-01   9.6791789e-01  -8.1666309e+02
   3.7772591e-09  -2.3247027e-07   9.6793549e-01   9.6791798e-01  -8.0911591e+02
   3.7799266e-09  -2.3032190e-07   9.6793541e-01   9.6791806e-01  -8.0163847e+02
   3.7825942e-09  -2.2819338e-07   9.6793533e-01   9.6791814e-01  -7.9423012e+02
   3.7852618e-09  -2.2608453e-07   9.6793525e-01   9.6791822e-01  -7.8689025e+02
   3.7879293e-09  -2.2399517e-07   9.6793518e-01   9.6791831e-01  -7.7961821e+02
   3.7905969e-09  -2.2192512e-07   9.6793510e-01   9.6791839e-01  -7.7241337e+02
   3.7932644e-09  -2.1987420e-07   9.6793503e-01   9.6791847e-01  -7.6527511e+02
   3.7959320e-09  -2.1784223e-07   9.6793495e-01   9.6791854e-01  -7.5820283e+02
   3.7985995e-09  -2.1582904e-07   9.6793488e-01   9.6791862e-01  -7.5119591e+02
   3.8012671e-09  -2.1383446e-07   9.6793481e-01   9.6791870e-01  -7.4425373e+02
   3.8039346e-09  -2.1185831e-07   9.6793473e-01   9.6791878e-01  -7.3737571e+02
   3.8066022e-09  -2.0990042e-07   9.6793466e-01   9.6791885e-01  -7.3056126e+02
   3.8092698e-09  -2.0796063e-07   9.6793459e-01   9.6791893e-01  -7.2380978e+02
   3.8119373e-09  -2.0603876e-07   9.6793452e-01   9.6791900e-01  -7.1712070e+02
   3.8146049e-09  -2.0413465e-07   9.6793445e-01   9.6791908e-01  -7.1049343e+02
   3.8172724e-09  -2.0224814e-07   9.6793438e-01   9.6791915e-01  -7.0392740e+02
   3.8199400e-09  -2.0037907e-07   9.6793431e-01   9.6791922e-01  -6.9742206e+02
   3.8226075e-09  -1.9852727e-07   9.6793425e-01   9.6791929e-01  -6.9097683e+02
   3.8252751e-09  -1.9669258e-07   9.6793418e-01   9.6791937e-01  -6.8459116e+02
   3.8279426e-09  -1.9487484e-07   9.6793411e-01   9.6791944e-01  -6.7826452e+02
   3.8306102e-09  -1.9307391e-07   9.6793405e-01   9.6791951e-01  -6.7199635e+02
   3.8332778e-09  -1.9128962e-07   9.6793398e-01   9.6791958e-01  -6.6578610e+02
   3.8359453e-09  -1.8952181e-07   9.6793392e-01   9.6791964e-01  -6.5963324e+02
   3.8386129e-09  -1.8777035e-07   9.6793385e-01   9.6791971e-01  -6.5353725e+02
   3.8412804e-09  -1.8603507e-07   9.6793379e-01   9.6791978e-01  -6.4749759e+02
   3.8439480e-09  -1.8431583e-07   9.6793373e-01   9.6791985e-01  -6.4151374e+02
   3.8466155e-09  -1.8261247e-07   9.6793367e-01   9.6791991e-01  -6.3558519e+02
   3.8492831e-09  -1.8092486e-07   9.6793360e-01   9.6791998e-01  -6.2971143e+02
   3.8519507e-09  -1.7925284e-07   9.6793354e-01   9.6792004e-01  -6.2389196e+02
   3.8546182e-09  -1.7759628e-07   9.6793348e-01   9.6792011e-01  -6.1812627e+02
   3.8572858e-09  -1.7595502e-07   9.6793342e-01   9.6792017e-01  -6.1241386e+02
   3.8599533e-09  -1.7432894e-07   9.6793336e-01   9.6792023e-01  -6.0675424e+02
   3.8626209e-09  -1.7271788e-07   9.6793331e-01   9.6792030e-01  -6.0114692e+02
   3.8652884e-09  -1.7112170e-07   9.6793325e-01   9.6792036e-01  -5.9559142e+02
   3.8679560e-09  -1.6954028e-07   9.6793319e-01   9.6792042e-01  -5.9008727e+02
   3.8706235e-09  -1.6797348e-07   9.6793313e-01   9.6792048e-01  -5.8463399e+02
   3.8732911e-09  -1.6642115e-07   9.6793308e-01   9.6792054e-01  -5.7923109e+02
   3.8759587e-09  -1.6488317e-07   9.6793302e-01   9.6792060e-01  -5.7387813e+02
   3.8786262e-09  -1.6335940e-07   9.6793296e-01   9.6792066e-01  -5.6857463e+02
   3.8812938e-09  -1.6184972e-07   9.6793291e-01   9.6792072e-01  -5.6332015e+02
   3.8839613e-09  -1.6035398e-07   9.6793285e-01   9.6792078e-01  -5.5811422e+02
   3.8866289e-09  -1.5887207e-07   9.6793280e-01   9.6792083e-01  -5.5295641e+02
   3.8892964e-09  -1.5740386e-07   9.6793275e-01   9.6792089e-01  -5.4784626e+02
   3.8919640e-09  -1.5594921e-07   9.6793269e-01   9.6792095e-01  -5.4278334e+02
   3.8946315e-09  -1.5450801e-07   9.6793264e-01   9.6792100e-01  -5.3776721e+02
   3.8972991e-09  -1.5308012e-07   9.6793259e-01   9.6792106e-01  -5.3279744e+02
   3.8999667e-09  -1.5166543e-07   9.6793254e-01   9.6792111e-01  -5.2787359e+02
