   0.0000000e+00  -1.3534650e-01   6.2804884e+00   1.6749504e-04  -5.1942885e+08
   1.0003334e-12  -1.3482763e-01   6.2782183e+00   1.7433319e-04  -5.1801616e+08
   2.0006669e-12  -1.3431017e-01   6.2759099e+00   1.8142943e-04  -5.1660324e+08
   3.0010003e-12  -1.3379412e-01   6.2735626e+00   1.8879256e-04  -5.1519010e+08
   4.0013338e-12  -1.3327949e-01   6.2711761e+00   1.9643164e-04  -5.1377674e+08
   5.0016672e-12  -1.3276627e-01   6.2687498e+00   2.0435600e-04  -5.1236317e+08
   6.0020007e-12  -1.3225447e-01   6.2662832e+00   2.1257526e-04  -5.1094939e+08
   7.0023341e-12  -1.3174408e-01   6.2637759e+00   2.2109928e-04  -5.0953539e+08
   8.0026676e-12  -1.3123511e-01   6.2612274e+00   2.2993825e-04  -5.0812120e+08
   9.0030010e-12  -1.3072755e-01   6.2586373e+00   2.3910261e-04  -5.0670680e+08
   1.0003334e-11  -1.3022140e-01   6.2560049e+00   2.4860314e-04  -5.0529221e+08
   1.1003668e-11  -1.2971667e-01   6.2533299e+00   2.5845088e-04  -5.0387743e+08
   1.2004001e-11  -1.2921336e-01   6.2506117e+00   2.6865722e-04  -5.0246247e+08
   1.3004335e-11  -1.2871146e-01   6.2478500e+00   2.7923385e-04  -5.0104733e+08
   1.4004668e-11  -1.2821098e-01   6.2450441e+00   2.9019278e-04  -4.9963201e+08
   1.5005002e-11  -1.2771191e-01   6.2421937e+00   3.0154638e-04  -4.9821652e+08
   1.6005335e-11  -1.2721426e-01   6.2392981e+00   3.1330731e-04  -4.9680087e+08
   1.7005669e-11  -1.2671803e-01   6.2363570e+00   3.2548863e-04  -4.9538506e+08
   1.8006002e-11  -1.2622321e-01   6.2333699e+00   3.3810371e-04  -4.9396910e+08
   1.9006335e-11  -1.2572981e-01   6.2303363e+00   3.5116630e-04  -4.9255300e+08
   2.0006669e-11  -1.2523783e-01   6.2272556e+00   3.6469052e-04  -4.9113675e+08
   2.1007002e-11  -1.2474726e-01   6.2241274e+00   3.7869085e-04  -4.8972038e+08
   2.2007336e-11  -1.2425811e-01   6.2209513e+00   3.9318215e-04  -4.8830388e+08
   2.3007669e-11  -1.2377038e-01   6.2177267e+00   4.0817969e-04  -4.8688727e+08
   2.4008003e-11  -1.2328406e-01   6.2144531e+00   4.2369912e-04  -4.8547054e+08
   2.5008336e-11  -1.2279917e-01   6.2111301e+00   4.3975649e-04  -4.8405372e+08
   2.6008670e-11  -1.2231568e-01   6.2077573e+00   4.5636826e-04  -4.8263680e+08
   2.7009003e-11  -1.2183362e-01   6.2043340e+00   4.7355131e-04  -4.8121979e+08
   2.8009336e-11  -1.2135298e-01   6.2008599e+00   4.9132296e-04  -4.7980271e+08
   2.9009670e-11  -1.2087375e-01   6.1973345e+00   5.0970094e-04  -4.7838556e+08
   3.0010003e-11  -1.2039594e-01   6.1937572e+00   5.2870342e-04  -4.7696836e+08
   3.1010337e-11  -1.1991954e-01   6.1901277e+00   5.4834904e-04  -4.7555110e+08
   3.2010670e-11  -1.1944457e-01   6.1864455e+00   5.6865686e-04  -4.7413380e+08
   3.3011004e-11  -1.1897101e-01   6.1827101e+00   5.8964643e-04  -4.7271647e+08
   3.4011337e-11  -1.1849887e-01   6.1789210e+00   6.1133775e-04  -4.7129913e+08
   3.5011671e-11  -1.1802815e-01   6.1750778e+00   6.3375131e-04  -4.6988177e+08
   3.6012004e-11  -1.1755885e-01   6.1711800e+00   6.5690807e-04  -4.6846441e+08
   3.7012337e-11  -1.1709097e-01   6.1672271e+00   6.8082949e-04  -4.6704707e+08
   3.8012671e-11  -1.1662450e-01   6.1632188e+00   7.0553753e-04  -4.6562975e+08
   3.9013004e-11  -1.1615945e-01   6.1591546e+00   7.3105464e-04  -4.6421247e+08
   4.0013338e-11  -1.1569582e-01   6.1550340e+00   7.5740379e-04  -4.6279523e+08
   4.1013671e-11  -1.1523360e-01   6.1508566e+00   7.8460847e-04  -4.6137805e+08
   4.2014005e-11  -1.1477281e-01   6.1466220e+00   8.1269270e-04  -4.5996094e+08
   4.3014338e-11  -1.1431343e-01   6.1423297e+00   8.4168101e-04  -4.5854391e+08
   4.4014672e-11  -1.1385547e-01   6.1379793e+00   8.7159851e-04  -4.5712698e+08
   4.5015005e-11  -1.1339892e-01   6.1335704e+00   9.0247081e-04  -4.5571016e+08
   4.6015338e-11  -1.1294380e-01   6.1291025e+00   9.3432411e-04  -4.5429346e+08
   4.7015672e-11  -1.1249009e-01   6.1245754e+00   9.6718514e-04  -4.5287690e+08
   4.8016005e-11  -1.1203779e-01   6.1199884e+00   1.0010812e-03  -4.5146049e+08
   4.9016339e-11  -1.1158692e-01   6.1153414e+00   1.0360402e-03  -4.5004425e+08
   5.0016672e-11  -1.1113746e-01   6.1106338e+00   1.0720906e-03  -4.4862818e+08
   5.1017006e-11  -1.1068942e-01   6.1058653e+00   1.1092614e-03  -4.4721231e+08
   5.2017339e-11  -1.1024279e-01   6.1010355e+00   1.1475822e-03  -4.4579666e+08
   5.3017673e-11  -1.0979758e-01   6.0961440e+00   1.1870834e-03  -4.4438122e+08
   5.4018006e-11  -1.0935379e-01   6.0911905e+00   1.2277956e-03  -4.4296603e+08
   5.5018339e-11  -1.0891141e-01   6.0861746e+00   1.2697503e-03  -4.4155110e+08
   5.6018673e-11  -1.0847044e-01   6.0810959e+00   1.3129797e-03  -4.4013644e+08
   5.7019006e-11  -1.0803090e-01   6.0759541e+00   1.3575162e-03  -4.3872207e+08
   5.8019340e-11  -1.0759276e-01   6.0707489e+00   1.4033933e-03  -4.3730801e+08
   5.9019673e-11  -1.0715604e-01   6.0654799e+00   1.4506448e-03  -4.3589428e+08
   6.0020007e-11  -1.0672074e-01   6.0601468e+00   1.4993053e-03  -4.3448089e+08
   6.1020340e-11  -1.0628685e-01   6.0547493e+00   1.5494099e-03  -4.3306787e+08
   6.2020674e-11  -1.0585437e-01   6.0492870e+00   1.6009944e-03  -4.3165522e+08
   6.3021007e-11  -1.0542330e-01   6.0437598e+00   1.6540953e-03  -4.3024297e+08
   6.4021340e-11  -1.0499365e-01   6.0381672e+00   1.7087497e-03  -4.2883114e+08
   6.5021674e-11  -1.0456541e-01   6.0325090e+00   1.7649953e-03  -4.2741975e+08
   6.6022007e-11  -1.0413858e-01   6.0267849e+00   1.8228706e-03  -4.2600881e+08
   6.7022341e-11  -1.0371316e-01   6.0209947e+00   1.8824145e-03  -4.2459835e+08
   6.8022674e-11  -1.0328915e-01   6.0151381e+00   1.9436667e-03  -4.2318838e+08
   6.9023008e-11  -1.0286656e-01   6.0092149e+00   2.0066677e-03  -4.2177894e+08
   7.0023341e-11  -1.0244537e-01   6.0032248e+00   2.0714585e-03  -4.2037003e+08
   7.1023675e-11  -1.0202559e-01   5.9971676e+00   2.1380807e-03  -4.1896168e+08
   7.2024008e-11  -1.0160722e-01   5.9910431e+00   2.2065767e-03  -4.1755391e+08
   7.3024341e-11  -1.0119026e-01   5.9848510e+00   2.2769895e-03  -4.1614674e+08
   7.4024675e-11  -1.0077470e-01   5.9785912e+00   2.3493628e-03  -4.1474020e+08
   7.5025008e-11  -1.0036056e-01   5.9722636e+00   2.4237409e-03  -4.1333430e+08
   7.6025342e-11  -9.9947814e-02   5.9658678e+00   2.5001688e-03  -4.1192907e+08
   7.7025675e-11  -9.9536477e-02   5.9594038e+00   2.5786922e-03  -4.1052453e+08
   7.8026009e-11  -9.9126545e-02   5.9528714e+00   2.6593575e-03  -4.0912071e+08
   7.9026342e-11  -9.8718017e-02   5.9462705e+00   2.7422116e-03  -4.0771763e+08
   8.0026676e-11  -9.8310892e-02   5.9396008e+00   2.8273022e-03  -4.0631530e+08
   8.1027009e-11  -9.7905169e-02   5.9328624e+00   2.9146775e-03  -4.0491377e+08
   8.2027342e-11  -9.7500848e-02   5.9260551e+00   3.0043867e-03  -4.0351304e+08
   8.3027676e-11  -9.7097927e-02   5.9191788e+00   3.0964792e-03  -4.0211315e+08
   8.4028009e-11  -9.6696407e-02   5.9122335e+00   3.1910054e-03  -4.0071412e+08
   8.5028343e-11  -9.6296285e-02   5.9052189e+00   3.2880162e-03  -3.9931598e+08
   8.6028676e-11  -9.5897562e-02   5.8981352e+00   3.3875631e-03  -3.9791874e+08
   8.7029010e-11  -9.5500236e-02   5.8909822e+00   3.4896984e-03  -3.9652244e+08
   8.8029343e-11  -9.5104306e-02   5.8837599e+00   3.5944749e-03  -3.9512710e+08
   8.9029677e-11  -9.4709771e-02   5.8764682e+00   3.7019460e-03  -3.9373275e+08
   9.0030010e-11  -9.4316630e-02   5.8691073e+00   3.8121659e-03  -3.9233941e+08
   9.1030343e-11  -9.3924883e-02   5.8616770e+00   3.9251893e-03  -3.9094711e+08
   9.2030677e-11  -9.3534528e-02   5.8541774e+00   4.0410714e-03  -3.8955588e+08
   9.3031010e-11  -9.3145564e-02   5.8466085e+00   4.1598683e-03  -3.8816575e+08
   9.4031344e-11  -9.2757990e-02   5.8389704e+00   4.2816363e-03  -3.8677673e+08
   9.5031677e-11  -9.2371805e-02   5.8312630e+00   4.4064327e-03  -3.8538887e+08
   9.6032011e-11  -9.1987007e-02   5.8234866e+00   4.5343151e-03  -3.8400218e+08
   9.7032344e-11  -9.1603596e-02   5.8156410e+00   4.6653418e-03  -3.8261670e+08
   9.8032678e-11  -9.1221570e-02   5.8077265e+00   4.7995716e-03  -3.8123245e+08
   9.9033011e-11  -9.0840928e-02   5.7997432e+00   4.9370639e-03  -3.7984946e+08
   1.0003334e-10  -9.0461669e-02   5.7916911e+00   5.0778787e-03  -3.7846776e+08
   1.0103368e-10  -9.0083791e-02   5.7835704e+00   5.2220763e-03  -3.7708738e+08
   1.0203401e-10  -8.9707294e-02   5.7753813e+00   5.3697178e-03  -3.7570835e+08
   1.0303434e-10  -8.9332175e-02   5.7671238e+00   5.5208646e-03  -3.7433069e+08
   1.0403468e-10  -8.8958433e-02   5.7587982e+00   5.6755789e-03  -3.7295444e+08
   1.0503501e-10  -8.8586067e-02   5.7504047e+00   5.8339230e-03  -3.7157963e+08
   1.0603535e-10  -8.8215076e-02   5.7419434e+00   5.9959599e-03  -3.7020628e+08
   1.0703568e-10  -8.7845458e-02   5.7334145e+00   6.1617530e-03  -3.6883442e+08
   1.0803601e-10  -8.7477211e-02   5.7248183e+00   6.3313663e-03  -3.6746409e+08
   1.0903635e-10  -8.7110334e-02   5.7161551e+00   6.5048640e-03  -3.6609532e+08
   1.1003668e-10  -8.6744826e-02   5.7074250e+00   6.6823109e-03  -3.6472813e+08
   1.1103701e-10  -8.6380684e-02   5.6986284e+00   6.8637721e-03  -3.6336255e+08
   1.1203735e-10  -8.6017907e-02   5.6897655e+00   7.0493132e-03  -3.6199862e+08
   1.1303768e-10  -8.5656494e-02   5.6808365e+00   7.2390001e-03  -3.6063637e+08
   1.1403801e-10  -8.5296442e-02   5.6718419e+00   7.4328990e-03  -3.5927582e+08
   1.1503835e-10  -8.4937751e-02   5.6627819e+00   7.6310766e-03  -3.5791701e+08
   1.1603868e-10  -8.4580417e-02   5.6536568e+00   7.8335999e-03  -3.5655996e+08
   1.1703901e-10  -8.4224441e-02   5.6444671e+00   8.0405362e-03  -3.5520472e+08
   1.1803935e-10  -8.3869818e-02   5.6352130e+00   8.2519529e-03  -3.5385131e+08
   1.1903968e-10  -8.3516549e-02   5.6258949e+00   8.4679179e-03  -3.5249975e+08
   1.2004001e-10  -8.3164631e-02   5.6165132e+00   8.6884995e-03  -3.5115009e+08
   1.2104035e-10  -8.2814061e-02   5.6070683e+00   8.9137658e-03  -3.4980235e+08
   1.2204068e-10  -8.2464839e-02   5.5975606e+00   9.1437855e-03  -3.4845657e+08
   1.2304101e-10  -8.2116962e-02   5.5879905e+00   9.3786274e-03  -3.4711277e+08
   1.2404135e-10  -8.1770428e-02   5.5783585e+00   9.6183604e-03  -3.4577099e+08
   1.2504168e-10  -8.1425235e-02   5.5686649e+00   9.8630537e-03  -3.4443125e+08
   1.2604201e-10  -8.1081381e-02   5.5589103e+00   1.0112777e-02  -3.4309360e+08
   1.2704235e-10  -8.0738864e-02   5.5490952e+00   1.0367598e-02  -3.4175805e+08
   1.2804268e-10  -8.0397682e-02   5.5392199e+00   1.0627589e-02  -3.4042465e+08
   1.2904301e-10  -8.0057833e-02   5.5292849e+00   1.0892817e-02  -3.3909342e+08
   1.3004335e-10  -7.9719313e-02   5.5192909e+00   1.1163353e-02  -3.3776439e+08
   1.3104368e-10  -7.9382123e-02   5.5092383e+00   1.1439267e-02  -3.3643760e+08
   1.3204401e-10  -7.9046258e-02   5.4991276e+00   1.1720628e-02  -3.3511307e+08
   1.3304435e-10  -7.8711716e-02   5.4889593e+00   1.2007506e-02  -3.3379084e+08
   1.3404468e-10  -7.8378497e-02   5.4787341e+00   1.2299971e-02  -3.3247094e+08
   1.3504502e-10  -7.8046596e-02   5.4684524e+00   1.2598092e-02  -3.3115340e+08
   1.3604535e-10  -7.7716011e-02   5.4581149e+00   1.2901940e-02  -3.2983824e+08
   1.3704568e-10  -7.7386742e-02   5.4477220e+00   1.3211583e-02  -3.2852551e+08
   1.3804602e-10  -7.7058783e-02   5.4372745e+00   1.3527091e-02  -3.2721523e+08
   1.3904635e-10  -7.6732135e-02   5.4267728e+00   1.3848533e-02  -3.2590743e+08
   1.4004668e-10  -7.6406793e-02   5.4162177e+00   1.4175979e-02  -3.2460215e+08
   1.4104702e-10  -7.6082755e-02   5.4056096e+00   1.4509498e-02  -3.2329940e+08
   1.4204735e-10  -7.5760019e-02   5.3949494e+00   1.4849159e-02  -3.2199923e+08
   1.4304768e-10  -7.5438582e-02   5.3842375e+00   1.5195029e-02  -3.2070166e+08
   1.4404802e-10  -7.5118442e-02   5.3734746e+00   1.5547178e-02  -3.1940673e+08
   1.4504835e-10  -7.4799596e-02   5.3626614e+00   1.5905673e-02  -3.1811446e+08
   1.4604868e-10  -7.4482041e-02   5.3517986e+00   1.6270583e-02  -3.1682488e+08
   1.4704902e-10  -7.4165774e-02   5.3408868e+00   1.6641974e-02  -3.1553802e+08
   1.4804935e-10  -7.3850793e-02   5.3299267e+00   1.7019915e-02  -3.1425391e+08
   1.4904968e-10  -7.3537095e-02   5.3189189e+00   1.7404471e-02  -3.1297258e+08
   1.5005002e-10  -7.3224678e-02   5.3078643e+00   1.7795710e-02  -3.1169406e+08
   1.5105035e-10  -7.2913537e-02   5.2967634e+00   1.8193698e-02  -3.1041838e+08
   1.5205068e-10  -7.2603672e-02   5.2856170e+00   1.8598500e-02  -3.0914557e+08
   1.5305102e-10  -7.2295077e-02   5.2744259e+00   1.9010181e-02  -3.0787565e+08
   1.5405135e-10  -7.1987752e-02   5.2631906e+00   1.9428806e-02  -3.0660865e+08
   1.5505168e-10  -7.1681693e-02   5.2519120e+00   1.9854440e-02  -3.0534460e+08
   1.5605202e-10  -7.1376896e-02   5.2405908e+00   2.0287146e-02  -3.0408353e+08
   1.5705235e-10  -7.1073359e-02   5.2292277e+00   2.0726988e-02  -3.0282547e+08
   1.5805268e-10  -7.0771079e-02   5.2178235e+00   2.1174028e-02  -3.0157044e+08
   1.5905302e-10  -7.0470052e-02   5.2063790e+00   2.1628329e-02  -3.0031847e+08
   1.6005335e-10  -7.0170277e-02   5.1948948e+00   2.2089952e-02  -2.9906958e+08
   1.6105368e-10  -6.9871749e-02   5.1833718e+00   2.2558958e-02  -2.9782381e+08
   1.6205402e-10  -6.9574465e-02   5.1718107e+00   2.3035407e-02  -2.9658117e+08
   1.6305435e-10  -6.9278423e-02   5.1602122e+00   2.3519360e-02  -2.9534170e+08
   1.6405468e-10  -6.8983619e-02   5.1485773e+00   2.4010874e-02  -2.9410542e+08
   1.6505502e-10  -6.8690050e-02   5.1369066e+00   2.4510010e-02  -2.9287235e+08
   1.6605535e-10  -6.8397712e-02   5.1252009e+00   2.5016823e-02  -2.9164252e+08
   1.6705569e-10  -6.8106603e-02   5.1134611e+00   2.5531372e-02  -2.9041596e+08
   1.6805602e-10  -6.7816719e-02   5.1016878e+00   2.6053712e-02  -2.8919268e+08
   1.6905635e-10  -6.7528057e-02   5.0898819e+00   2.6583899e-02  -2.8797272e+08
   1.7005669e-10  -6.7240614e-02   5.0780443e+00   2.7121988e-02  -2.8675609e+08
   1.7105702e-10  -6.6954386e-02   5.0661756e+00   2.7668031e-02  -2.8554283e+08
   1.7205735e-10  -6.6669369e-02   5.0542767e+00   2.8222084e-02  -2.8433294e+08
   1.7305769e-10  -6.6385561e-02   5.0423484e+00   2.8784197e-02  -2.8312646e+08
   1.7405802e-10  -6.6102958e-02   5.0303915e+00   2.9354421e-02  -2.8192341e+08
   1.7505835e-10  -6.5821557e-02   5.0184068e+00   2.9932809e-02  -2.8072380e+08
   1.7605869e-10  -6.5541354e-02   5.0063952e+00   3.0519408e-02  -2.7952767e+08
   1.7705902e-10  -6.5262345e-02   4.9943573e+00   3.1114269e-02  -2.7833503e+08
   1.7805935e-10  -6.4984528e-02   4.9822941e+00   3.1717438e-02  -2.7714590e+08
   1.7905969e-10  -6.4707898e-02   4.9702062e+00   3.2328963e-02  -2.7596031e+08
   1.8006002e-10  -6.4432452e-02   4.9580947e+00   3.2948889e-02  -2.7477826e+08
   1.8106035e-10  -6.4158187e-02   4.9459602e+00   3.3577262e-02  -2.7359979e+08
   1.8206069e-10  -6.3885098e-02   4.9338035e+00   3.4214126e-02  -2.7242492e+08
   1.8306102e-10  -6.3613183e-02   4.9216255e+00   3.4859524e-02  -2.7125365e+08
   1.8406135e-10  -6.3342438e-02   4.9094270e+00   3.5513497e-02  -2.7008602e+08
   1.8506169e-10  -6.3072859e-02   4.8972087e+00   3.6176088e-02  -2.6892203e+08
   1.8606202e-10  -6.2804442e-02   4.8849716e+00   3.6847335e-02  -2.6776171e+08
   1.8706235e-10  -6.2537184e-02   4.8727163e+00   3.7527279e-02  -2.6660507e+08
   1.8806269e-10  -6.2271080e-02   4.8604437e+00   3.8215957e-02  -2.6545213e+08
   1.8906302e-10  -6.2006128e-02   4.8481546e+00   3.8913406e-02  -2.6430291e+08
   1.9006335e-10  -6.1742324e-02   4.8358498e+00   3.9619663e-02  -2.6315743e+08
   1.9106369e-10  -6.1479664e-02   4.8235301e+00   4.0334761e-02  -2.6201569e+08
   1.9206402e-10  -6.1218143e-02   4.8111962e+00   4.1058735e-02  -2.6087772e+08
   1.9306435e-10  -6.0957759e-02   4.7988491e+00   4.1791617e-02  -2.5974353e+08
   1.9406469e-10  -6.0698508e-02   4.7864893e+00   4.2533439e-02  -2.5861313e+08
   1.9506502e-10  -6.0440385e-02   4.7741179e+00   4.3284232e-02  -2.5748654e+08
   1.9606536e-10  -6.0183387e-02   4.7617354e+00   4.4044025e-02  -2.5636378e+08
   1.9706569e-10  -5.9927511e-02   4.7493428e+00   4.4812846e-02  -2.5524485e+08
   1.9806602e-10  -5.9672751e-02   4.7369407e+00   4.5590723e-02  -2.5412977e+08
   1.9906636e-10  -5.9419105e-02   4.7245300e+00   4.6377681e-02  -2.5301855e+08
   2.0006669e-10  -5.9166568e-02   4.7121114e+00   4.7173746e-02  -2.5191121e+08
   2.0106702e-10  -5.8915137e-02   4.6996857e+00   4.7978941e-02  -2.5080775e+08
   2.0206736e-10  -5.8664808e-02   4.6872536e+00   4.8793289e-02  -2.4970819e+08
   2.0306769e-10  -5.8415577e-02   4.6748160e+00   4.9616812e-02  -2.4861254e+08
   2.0406802e-10  -5.8167439e-02   4.6623734e+00   5.0449530e-02  -2.4752080e+08
   2.0506836e-10  -5.7920392e-02   4.6499268e+00   5.1291461e-02  -2.4643300e+08
   2.0606869e-10  -5.7674430e-02   4.6374768e+00   5.2142626e-02  -2.4534913e+08
   2.0706902e-10  -5.7429551e-02   4.6250242e+00   5.3003039e-02  -2.4426922e+08
   2.0806936e-10  -5.7185750e-02   4.6125697e+00   5.3872717e-02  -2.4319326e+08
   2.0906969e-10  -5.6943023e-02   4.6001140e+00   5.4751675e-02  -2.4212126e+08
   2.1007002e-10  -5.6701366e-02   4.5876578e+00   5.5639927e-02  -2.4105324e+08
   2.1107036e-10  -5.6460776e-02   4.5752019e+00   5.6537484e-02  -2.3998920e+08
   2.1207069e-10  -5.6221247e-02   4.5627470e+00   5.7444357e-02  -2.3892915e+08
   2.1307102e-10  -5.5982777e-02   4.5502937e+00   5.8360558e-02  -2.3787310e+08
   2.1407136e-10  -5.5745362e-02   4.5378428e+00   5.9286094e-02  -2.3682105e+08
   2.1507169e-10  -5.5508996e-02   4.5253950e+00   6.0220973e-02  -2.3577301e+08
   2.1607202e-10  -5.5273677e-02   4.5129509e+00   6.1165203e-02  -2.3472898e+08
   2.1707236e-10  -5.5039400e-02   4.5005112e+00   6.2118788e-02  -2.3368897e+08
   2.1807269e-10  -5.4806162e-02   4.4880766e+00   6.3081733e-02  -2.3265299e+08
   2.1907302e-10  -5.4573957e-02   4.4756478e+00   6.4054041e-02  -2.3162104e+08
   2.2007336e-10  -5.4342783e-02   4.4632254e+00   6.5035714e-02  -2.3059312e+08
   2.2107369e-10  -5.4112635e-02   4.4508101e+00   6.6026753e-02  -2.2956924e+08
   2.2207402e-10  -5.3883509e-02   4.4384025e+00   6.7027157e-02  -2.2854940e+08
   2.2307436e-10  -5.3655401e-02   4.4260033e+00   6.8036926e-02  -2.2753361e+08
   2.2407469e-10  -5.3428307e-02   4.4136130e+00   6.9056057e-02  -2.2652186e+08
   2.2507503e-10  -5.3202223e-02   4.4012324e+00   7.0084546e-02  -2.2551416e+08
   2.2607536e-10  -5.2977144e-02   4.3888620e+00   7.1122388e-02  -2.2451051e+08
   2.2707569e-10  -5.2753068e-02   4.3765024e+00   7.2169579e-02  -2.2351092e+08
   2.2807603e-10  -5.2529989e-02   4.3641543e+00   7.3226111e-02  -2.2251537e+08
   2.2907636e-10  -5.2307905e-02   4.3518183e+00   7.4291975e-02  -2.2152389e+08
   2.3007669e-10  -5.2086809e-02   4.3394948e+00   7.5367164e-02  -2.2053646e+08
   2.3107703e-10  -5.1866700e-02   4.3271846e+00   7.6451666e-02  -2.1955309e+08
   2.3207736e-10  -5.1647572e-02   4.3148882e+00   7.7545471e-02  -2.1857377e+08
   2.3307769e-10  -5.1429421e-02   4.3026062e+00   7.8648567e-02  -2.1759851e+08
   2.3407803e-10  -5.1212244e-02   4.2903391e+00   7.9760939e-02  -2.1662730e+08
   2.3507836e-10  -5.0996037e-02   4.2780875e+00   8.0882575e-02  -2.1566014e+08
   2.3607869e-10  -5.0780794e-02   4.2658518e+00   8.2013458e-02  -2.1469704e+08
   2.3707903e-10  -5.0566513e-02   4.2536328e+00   8.3153572e-02  -2.1373798e+08
   2.3807936e-10  -5.0353190e-02   4.2414308e+00   8.4302899e-02  -2.1278298e+08
   2.3907969e-10  -5.0140819e-02   4.2292465e+00   8.5461422e-02  -2.1183202e+08
   2.4008003e-10  -4.9929398e-02   4.2170803e+00   8.6629120e-02  -2.1088510e+08
   2.4108036e-10  -4.9718921e-02   4.2049327e+00   8.7805974e-02  -2.0994222e+08
   2.4208069e-10  -4.9509386e-02   4.1928043e+00   8.8991962e-02  -2.0900338e+08
   2.4308103e-10  -4.9300788e-02   4.1806955e+00   9.0187061e-02  -2.0806857e+08
   2.4408136e-10  -4.9093123e-02   4.1686068e+00   9.1391249e-02  -2.0713779e+08
   2.4508169e-10  -4.8886387e-02   4.1565388e+00   9.2604500e-02  -2.0621103e+08
   2.4608203e-10  -4.8680575e-02   4.1444918e+00   9.3826791e-02  -2.0528829e+08
   2.4708236e-10  -4.8475685e-02   4.1324663e+00   9.5058094e-02  -2.0436957e+08
   2.4808269e-10  -4.8271712e-02   4.1204628e+00   9.6298383e-02  -2.0345486e+08
   2.4908303e-10  -4.8068651e-02   4.1084818e+00   9.7547629e-02  -2.0254415e+08
   2.5008336e-10  -4.7866500e-02   4.0965236e+00   9.8805805e-02  -2.0163744e+08
   2.5108369e-10  -4.7665253e-02   4.0845887e+00   1.0007288e-01  -2.0073472e+08
   2.5208403e-10  -4.7464908e-02   4.0726776e+00   1.0134882e-01  -1.9983598e+08
   2.5308436e-10  -4.7265459e-02   4.0607906e+00   1.0263360e-01  -1.9894123e+08
   2.5408469e-10  -4.7066903e-02   4.0489282e+00   1.0392719e-01  -1.9805045e+08
   2.5508503e-10  -4.6869237e-02   4.0370907e+00   1.0522955e-01  -1.9716364e+08
   2.5608536e-10  -4.6672455e-02   4.0252786e+00   1.0654064e-01  -1.9628078e+08
   2.5708570e-10  -4.6476554e-02   4.0134922e+00   1.0786044e-01  -1.9540187e+08
   2.5808603e-10  -4.6281531e-02   4.0017319e+00   1.0918891e-01  -1.9452691e+08
   2.5908636e-10  -4.6087381e-02   3.9899982e+00   1.1052600e-01  -1.9365589e+08
   2.6008670e-10  -4.5894100e-02   3.9782913e+00   1.1187169e-01  -1.9278879e+08
   2.6108703e-10  -4.5701684e-02   3.9666116e+00   1.1322594e-01  -1.9192561e+08
   2.6208736e-10  -4.5510130e-02   3.9549596e+00   1.1458870e-01  -1.9106634e+08
   2.6308770e-10  -4.5319433e-02   3.9433354e+00   1.1595995e-01  -1.9021097e+08
   2.6408803e-10  -4.5129590e-02   3.9317395e+00   1.1733963e-01  -1.8935949e+08
   2.6508836e-10  -4.4940597e-02   3.9201721e+00   1.1872771e-01  -1.8851190e+08
   2.6608870e-10  -4.4752450e-02   3.9086337e+00   1.2012414e-01  -1.8766818e+08
   2.6708903e-10  -4.4565144e-02   3.8971245e+00   1.2152889e-01  -1.8682832e+08
   2.6808936e-10  -4.4378677e-02   3.8856448e+00   1.2294191e-01  -1.8599232e+08
   2.6908970e-10  -4.4193044e-02   3.8741949e+00   1.2436315e-01  -1.8516016e+08
   2.7009003e-10  -4.4008241e-02   3.8627752e+00   1.2579258e-01  -1.8433184e+08
   2.7109036e-10  -4.3824265e-02   3.8513858e+00   1.2723015e-01  -1.8350734e+08
   2.7209070e-10  -4.3641112e-02   3.8400272e+00   1.2867581e-01  -1.8268665e+08
   2.7309103e-10  -4.3458778e-02   3.8286995e+00   1.3012952e-01  -1.8186977e+08
   2.7409136e-10  -4.3277259e-02   3.8174031e+00   1.3159123e-01  -1.8105667e+08
   2.7509170e-10  -4.3096552e-02   3.8061382e+00   1.3306089e-01  -1.8024736e+08
   2.7609203e-10  -4.2916652e-02   3.7949050e+00   1.3453845e-01  -1.7944181e+08
   2.7709236e-10  -4.2737556e-02   3.7837038e+00   1.3602388e-01  -1.7864002e+08
   2.7809270e-10  -4.2559260e-02   3.7725348e+00   1.3751711e-01  -1.7784198e+08
   2.7909303e-10  -4.2381760e-02   3.7613984e+00   1.3901810e-01  -1.7704767e+08
   2.8009336e-10  -4.2205053e-02   3.7502946e+00   1.4052680e-01  -1.7625709e+08
   2.8109370e-10  -4.2029135e-02   3.7392237e+00   1.4204316e-01  -1.7547021e+08
   2.8209403e-10  -4.1854003e-02   3.7281860e+00   1.4356712e-01  -1.7468703e+08
   2.8309436e-10  -4.1679651e-02   3.7171816e+00   1.4509864e-01  -1.7390754e+08
   2.8409470e-10  -4.1506078e-02   3.7062108e+00   1.4663767e-01  -1.7313172e+08
   2.8509503e-10  -4.1333279e-02   3.6952738e+00   1.4818414e-01  -1.7235957e+08
   2.8609537e-10  -4.1161250e-02   3.6843706e+00   1.4973802e-01  -1.7159106e+08
   2.8709570e-10  -4.0989988e-02   3.6735016e+00   1.5129924e-01  -1.7082619e+08
   2.8809603e-10  -4.0819490e-02   3.6626670e+00   1.5286775e-01  -1.7006494e+08
   2.8909637e-10  -4.0649751e-02   3.6518668e+00   1.5444350e-01  -1.6930731e+08
   2.9009670e-10  -4.0480768e-02   3.6411012e+00   1.5602643e-01  -1.6855327e+08
   2.9109703e-10  -4.0312538e-02   3.6303705e+00   1.5761650e-01  -1.6780281e+08
   2.9209737e-10  -4.0145056e-02   3.6196747e+00   1.5921363e-01  -1.6705592e+08
   2.9309770e-10  -3.9978320e-02   3.6090140e+00   1.6081779e-01  -1.6631260e+08
   2.9409803e-10  -3.9812325e-02   3.5983887e+00   1.6242890e-01  -1.6557281e+08
   2.9509837e-10  -3.9647069e-02   3.5877987e+00   1.6404692e-01  -1.6483656e+08
   2.9609870e-10  -3.9482548e-02   3.5772442e+00   1.6567179e-01  -1.6410382e+08
   2.9709903e-10  -3.9318757e-02   3.5667255e+00   1.6730345e-01  -1.6337459e+08
   2.9809937e-10  -3.9155694e-02   3.5562425e+00   1.6894185e-01  -1.6264885e+08
   2.9909970e-10  -3.8993356e-02   3.5457955e+00   1.7058692e-01  -1.6192659e+08
   3.0010003e-10  -3.8831738e-02   3.5353845e+00   1.7223862e-01  -1.6120778e+08
   3.0110037e-10  -3.8670838e-02   3.5250096e+00   1.7389687e-01  -1.6049243e+08
   3.0210070e-10  -3.8510651e-02   3.5146710e+00   1.7556163e-01  -1.5978051e+08
   3.0310103e-10  -3.8351175e-02   3.5043688e+00   1.7723283e-01  -1.5907200e+08
   3.0410137e-10  -3.8192405e-02   3.4941029e+00   1.7891041e-01  -1.5836691e+08
   3.0510170e-10  -3.8034340e-02   3.4838737e+00   1.8059432e-01  -1.5766521e+08
   3.0610203e-10  -3.7876974e-02   3.4736810e+00   1.8228450e-01  -1.5696688e+08
   3.0710237e-10  -3.7720305e-02   3.4635250e+00   1.8398089e-01  -1.5627192e+08
   3.0810270e-10  -3.7564330e-02   3.4534058e+00   1.8568343e-01  -1.5558031e+08
   3.0910303e-10  -3.7409045e-02   3.4433235e+00   1.8739205e-01  -1.5489204e+08
   3.1010337e-10  -3.7254447e-02   3.4332781e+00   1.8910670e-01  -1.5420708e+08
   3.1110370e-10  -3.7100532e-02   3.4232696e+00   1.9082732e-01  -1.5352543e+08
   3.1210403e-10  -3.6947297e-02   3.4132982e+00   1.9255384e-01  -1.5284707e+08
   3.1310437e-10  -3.6794740e-02   3.4033639e+00   1.9428621e-01  -1.5217199e+08
   3.1410470e-10  -3.6642855e-02   3.3934668e+00   1.9602437e-01  -1.5150018e+08
   3.1510504e-10  -3.6491642e-02   3.3836068e+00   1.9776825e-01  -1.5083161e+08
   3.1610537e-10  -3.6341095e-02   3.3737841e+00   1.9951780e-01  -1.5016627e+08
   3.1710570e-10  -3.6191213e-02   3.3639987e+00   2.0127295e-01  -1.4950416e+08
   3.1810604e-10  -3.6041991e-02   3.3542505e+00   2.0303364e-01  -1.4884525e+08
   3.1910637e-10  -3.5893426e-02   3.3445397e+00   2.0479981e-01  -1.4818953e+08
   3.2010670e-10  -3.5745516e-02   3.3348663e+00   2.0657140e-01  -1.4753698e+08
   3.2110704e-10  -3.5598257e-02   3.3252303e+00   2.0834835e-01  -1.4688760e+08
   3.2210737e-10  -3.5451646e-02   3.3156317e+00   2.1013059e-01  -1.4624136e+08
   3.2310770e-10  -3.5305680e-02   3.3060705e+00   2.1191807e-01  -1.4559826e+08
   3.2410804e-10  -3.5160355e-02   3.2965468e+00   2.1371073e-01  -1.4495827e+08
   3.2510837e-10  -3.5015669e-02   3.2870605e+00   2.1550849e-01  -1.4432138e+08
   3.2610870e-10  -3.4871619e-02   3.2776116e+00   2.1731130e-01  -1.4368758e+08
   3.2710904e-10  -3.4728201e-02   3.2682003e+00   2.1911911e-01  -1.4305686e+08
   3.2810937e-10  -3.4585413e-02   3.2588264e+00   2.2093183e-01  -1.4242919e+08
   3.2910970e-10  -3.4443251e-02   3.2494899e+00   2.2274943e-01  -1.4180457e+08
   3.3011004e-10  -3.4301712e-02   3.2401909e+00   2.2457182e-01  -1.4118298e+08
   3.3111037e-10  -3.4160793e-02   3.2309294e+00   2.2639896e-01  -1.4056440e+08
   3.3211070e-10  -3.4020492e-02   3.2217053e+00   2.2823078e-01  -1.3994883e+08
   3.3311104e-10  -3.3880805e-02   3.2125185e+00   2.3006721e-01  -1.3933623e+08
   3.3411137e-10  -3.3741729e-02   3.2033692e+00   2.3190820e-01  -1.3872661e+08
   3.3511170e-10  -3.3603261e-02   3.1942573e+00   2.3375369e-01  -1.3811995e+08
   3.3611204e-10  -3.3465399e-02   3.1851827e+00   2.3560360e-01  -1.3751623e+08
   3.3711237e-10  -3.3328139e-02   3.1761454e+00   2.3745789e-01  -1.3691543e+08
   3.3811270e-10  -3.3191479e-02   3.1671455e+00   2.3931649e-01  -1.3631755e+08
   3.3911304e-10  -3.3055415e-02   3.1581827e+00   2.4117934e-01  -1.3572257e+08
   3.4011337e-10  -3.2919945e-02   3.1492572e+00   2.4304637e-01  -1.3513047e+08
   3.4111370e-10  -3.2785066e-02   3.1403689e+00   2.4491753e-01  -1.3454125e+08
   3.4211404e-10  -3.2650775e-02   3.1315178e+00   2.4679276e-01  -1.3395487e+08
   3.4311437e-10  -3.2517069e-02   3.1227037e+00   2.4867199e-01  -1.3337134e+08
   3.4411470e-10  -3.2383946e-02   3.1139267e+00   2.5055515e-01  -1.3279064e+08
   3.4511504e-10  -3.2251401e-02   3.1051867e+00   2.5244221e-01  -1.3221274e+08
   3.4611537e-10  -3.2119434e-02   3.0964837e+00   2.5433308e-01  -1.3163765e+08
   3.4711571e-10  -3.1988040e-02   3.0878176e+00   2.5622771e-01  -1.3106534e+08
   3.4811604e-10  -3.1857217e-02   3.0791884e+00   2.5812604e-01  -1.3049580e+08
   3.4911637e-10  -3.1726963e-02   3.0705959e+00   2.6002801e-01  -1.2992901e+08
   3.5011671e-10  -3.1597274e-02   3.0620402e+00   2.6193356e-01  -1.2936497e+08
   3.5111704e-10  -3.1468149e-02   3.0535212e+00   2.6384262e-01  -1.2880365e+08
   3.5211737e-10  -3.1339583e-02   3.0450388e+00   2.6575514e-01  -1.2824505e+08
   3.5311771e-10  -3.1211575e-02   3.0365929e+00   2.6767107e-01  -1.2768915e+08
   3.5411804e-10  -3.1084121e-02   3.0281835e+00   2.6959032e-01  -1.2713593e+08
   3.5511837e-10  -3.0957219e-02   3.0198106e+00   2.7151286e-01  -1.2658539e+08
   3.5611871e-10  -3.0830867e-02   3.0114740e+00   2.7343862e-01  -1.2603750e+08
   3.5711904e-10  -3.0705062e-02   3.0031737e+00   2.7536754e-01  -1.2549225e+08
   3.5811937e-10  -3.0579800e-02   2.9949095e+00   2.7729955e-01  -1.2494964e+08
   3.5911971e-10  -3.0455080e-02   2.9866816e+00   2.7923461e-01  -1.2440964e+08
   3.6012004e-10  -3.0330899e-02   2.9784896e+00   2.8117265e-01  -1.2387224e+08
   3.6112037e-10  -3.0207255e-02   2.9703337e+00   2.8311362e-01  -1.2333744e+08
   3.6212071e-10  -3.0084144e-02   2.9622136e+00   2.8505745e-01  -1.2280520e+08
   3.6312104e-10  -2.9961564e-02   2.9541294e+00   2.8700409e-01  -1.2227553e+08
   3.6412137e-10  -2.9839512e-02   2.9460808e+00   2.8895348e-01  -1.2174841e+08
   3.6512171e-10  -2.9717987e-02   2.9380680e+00   2.9090555e-01  -1.2122383e+08
   3.6612204e-10  -2.9596985e-02   2.9300906e+00   2.9286027e-01  -1.2070176e+08
   3.6712237e-10  -2.9476504e-02   2.9221488e+00   2.9481755e-01  -1.2018220e+08
   3.6812271e-10  -2.9356541e-02   2.9142423e+00   2.9677736e-01  -1.1966514e+08
   3.6912304e-10  -2.9237095e-02   2.9063711e+00   2.9873963e-01  -1.1915056e+08
   3.7012337e-10  -2.9118162e-02   2.8985352e+00   3.0070430e-01  -1.1863845e+08
   3.7112371e-10  -2.8999740e-02   2.8907343e+00   3.0267133e-01  -1.1812879e+08
   3.7212404e-10  -2.8881826e-02   2.8829685e+00   3.0464064e-01  -1.1762158e+08
   3.7312437e-10  -2.8764419e-02   2.8752375e+00   3.0661219e-01  -1.1711679e+08
   3.7412471e-10  -2.8647516e-02   2.8675414e+00   3.0858592e-01  -1.1661442e+08
   3.7512504e-10  -2.8531113e-02   2.8598800e+00   3.1056177e-01  -1.1611445e+08
   3.7612538e-10  -2.8415210e-02   2.8522533e+00   3.1253969e-01  -1.1561688e+08
   3.7712571e-10  -2.8299803e-02   2.8446610e+00   3.1451963e-01  -1.1512168e+08
   3.7812604e-10  -2.8184891e-02   2.8371032e+00   3.1650152e-01  -1.1462884e+08
   3.7912638e-10  -2.8070470e-02   2.8295798e+00   3.1848532e-01  -1.1413836e+08
   3.8012671e-10  -2.7956539e-02   2.8220905e+00   3.2047096e-01  -1.1365022e+08
   3.8112704e-10  -2.7843094e-02   2.8146354e+00   3.2245840e-01  -1.1316440e+08
   3.8212738e-10  -2.7730135e-02   2.8072142e+00   3.2444758e-01  -1.1268090e+08
   3.8312771e-10  -2.7617658e-02   2.7998270e+00   3.2643845e-01  -1.1219970e+08
   3.8412804e-10  -2.7505662e-02   2.7924736e+00   3.2843095e-01  -1.1172079e+08
   3.8512838e-10  -2.7394143e-02   2.7851539e+00   3.3042503e-01  -1.1124415e+08
   3.8612871e-10  -2.7283100e-02   2.7778678e+00   3.3242063e-01  -1.1076979e+08
   3.8712904e-10  -2.7172530e-02   2.7706151e+00   3.3441771e-01  -1.1029767e+08
   3.8812938e-10  -2.7062431e-02   2.7633959e+00   3.3641621e-01  -1.0982779e+08
   3.8912971e-10  -2.6952802e-02   2.7562099e+00   3.3841609e-01  -1.0936015e+08
   3.9013004e-10  -2.6843639e-02   2.7490570e+00   3.4041727e-01  -1.0889472e+08
   3.9113038e-10  -2.6734940e-02   2.7419372e+00   3.4241973e-01  -1.0843149e+08
   3.9213071e-10  -2.6626704e-02   2.7348503e+00   3.4442340e-01  -1.0797045e+08
   3.9313104e-10  -2.6518928e-02   2.7277962e+00   3.4642823e-01  -1.0751160e+08
   3.9413138e-10  -2.6411610e-02   2.7207749e+00   3.4843417e-01  -1.0705491e+08
   3.9513171e-10  -2.6304747e-02   2.7137861e+00   3.5044117e-01  -1.0660038e+08
   3.9613204e-10  -2.6198338e-02   2.7068298e+00   3.5244919e-01  -1.0614800e+08
   3.9713238e-10  -2.6092381e-02   2.6999058e+00   3.5445816e-01  -1.0569775e+08
   3.9813271e-10  -2.5986873e-02   2.6930141e+00   3.5646805e-01  -1.0524962e+08
   3.9913304e-10  -2.5881812e-02   2.6861546e+00   3.5847880e-01  -1.0480360e+08
   4.0013338e-10  -2.5777196e-02   2.6793270e+00   3.6049036e-01  -1.0435968e+08
   4.0113371e-10  -2.5673023e-02   2.6725313e+00   3.6250269e-01  -1.0391785e+08
   4.0213404e-10  -2.5569291e-02   2.6657675e+00   3.6451573e-01  -1.0347810e+08
   4.0313438e-10  -2.5465998e-02   2.6590353e+00   3.6652944e-01  -1.0304041e+08
   4.0413471e-10  -2.5363142e-02   2.6523346e+00   3.6854376e-01  -1.0260477e+08
   4.0513505e-10  -2.5260721e-02   2.6456654e+00   3.7055866e-01  -1.0217118e+08
   4.0613538e-10  -2.5158732e-02   2.6390274e+00   3.7257408e-01  -1.0173961e+08
   4.0713571e-10  -2.5057174e-02   2.6324207e+00   3.7458998e-01  -1.0131007e+08
   4.0813605e-10  -2.4956044e-02   2.6258450e+00   3.7660630e-01  -1.0088254e+08
   4.0913638e-10  -2.4855342e-02   2.6193003e+00   3.7862301e-01  -1.0045701e+08
   4.1013671e-10  -2.4755064e-02   2.6127864e+00   3.8064005e-01  -1.0003346e+08
   4.1113705e-10  -2.4655208e-02   2.6063033e+00   3.8265739e-01  -9.9611891e+07
   4.1213738e-10  -2.4555774e-02   2.5998507e+00   3.8467496e-01  -9.9192289e+07
   4.1313771e-10  -2.4456758e-02   2.5934286e+00   3.8669274e-01  -9.8774642e+07
   4.1413805e-10  -2.4358159e-02   2.5870369e+00   3.8871067e-01  -9.8358940e+07
   4.1513838e-10  -2.4259974e-02   2.5806754e+00   3.9072871e-01  -9.7945172e+07
   4.1613871e-10  -2.4162203e-02   2.5743440e+00   3.9274682e-01  -9.7533328e+07
   4.1713905e-10  -2.4064843e-02   2.5680426e+00   3.9476494e-01  -9.7123398e+07
   4.1813938e-10  -2.3967892e-02   2.5617710e+00   3.9678304e-01  -9.6715371e+07
   4.1913971e-10  -2.3871348e-02   2.5555293e+00   3.9880108e-01  -9.6309237e+07
   4.2014005e-10  -2.3775209e-02   2.5493171e+00   4.0081900e-01  -9.5904986e+07
   4.2114038e-10  -2.3679474e-02   2.5431345e+00   4.0283677e-01  -9.5502607e+07
   4.2214071e-10  -2.3584140e-02   2.5369812e+00   4.0485434e-01  -9.5102090e+07
   4.2314105e-10  -2.3489206e-02   2.5308573e+00   4.0687167e-01  -9.4703426e+07
   4.2414138e-10  -2.3394670e-02   2.5247624e+00   4.0888873e-01  -9.4306604e+07
   4.2514171e-10  -2.3300530e-02   2.5186966e+00   4.1090546e-01  -9.3911614e+07
   4.2614205e-10  -2.3206785e-02   2.5126597e+00   4.1292182e-01  -9.3518446e+07
   4.2714238e-10  -2.3113431e-02   2.5066516e+00   4.1493778e-01  -9.3127091e+07
   4.2814271e-10  -2.3020468e-02   2.5006721e+00   4.1695329e-01  -9.2737539e+07
   4.2914305e-10  -2.2927894e-02   2.4947212e+00   4.1896831e-01  -9.2349780e+07
   4.3014338e-10  -2.2835707e-02   2.4887986e+00   4.2098281e-01  -9.1963804e+07
   4.3114371e-10  -2.2743905e-02   2.4829044e+00   4.2299673e-01  -9.1579602e+07
   4.3214405e-10  -2.2652487e-02   2.4770384e+00   4.2501005e-01  -9.1197164e+07
   4.3314438e-10  -2.2561450e-02   2.4712004e+00   4.2702273e-01  -9.0816481e+07
   4.3414471e-10  -2.2470794e-02   2.4653903e+00   4.2903471e-01  -9.0437543e+07
   4.3514505e-10  -2.2380515e-02   2.4596081e+00   4.3104597e-01  -9.0060340e+07
   4.3614538e-10  -2.2290613e-02   2.4538535e+00   4.3305647e-01  -8.9684865e+07
   4.3714572e-10  -2.2201085e-02   2.4481266e+00   4.3506616e-01  -8.9311107e+07
   4.3814605e-10  -2.2111931e-02   2.4424270e+00   4.3707502e-01  -8.8939057e+07
   4.3914638e-10  -2.2023148e-02   2.4367548e+00   4.3908300e-01  -8.8568705e+07
   4.4014672e-10  -2.1934735e-02   2.4311098e+00   4.4109006e-01  -8.8200044e+07
   4.4114705e-10  -2.1846689e-02   2.4254919e+00   4.4309617e-01  -8.7833063e+07
   4.4214738e-10  -2.1759010e-02   2.4199010e+00   4.4510129e-01  -8.7467755e+07
   4.4314772e-10  -2.1671695e-02   2.4143369e+00   4.4710538e-01  -8.7104109e+07
   4.4414805e-10  -2.1584743e-02   2.4087996e+00   4.4910841e-01  -8.6742117e+07
   4.4514838e-10  -2.1498153e-02   2.4032888e+00   4.5111035e-01  -8.6381770e+07
   4.4614872e-10  -2.1411922e-02   2.3978046e+00   4.5311115e-01  -8.6023059e+07
   4.4714905e-10  -2.1326049e-02   2.3923467e+00   4.5511078e-01  -8.5665976e+07
   4.4814938e-10  -2.1240533e-02   2.3869151e+00   4.5710921e-01  -8.5310512e+07
   4.4914972e-10  -2.1155371e-02   2.3815096e+00   4.5910640e-01  -8.4956659e+07
   4.5015005e-10  -2.1070563e-02   2.3761301e+00   4.6110232e-01  -8.4604407e+07
   4.5115038e-10  -2.0986106e-02   2.3707766e+00   4.6309694e-01  -8.4253749e+07
   4.5215072e-10  -2.0901999e-02   2.3654488e+00   4.6509021e-01  -8.3904675e+07
   4.5315105e-10  -2.0818241e-02   2.3601467e+00   4.6708210e-01  -8.3557178e+07
   4.5415138e-10  -2.0734829e-02   2.3548701e+00   4.6907259e-01  -8.3211249e+07
   4.5515172e-10  -2.0651763e-02   2.3496189e+00   4.7106164e-01  -8.2866879e+07
   4.5615205e-10  -2.0569040e-02   2.3443931e+00   4.7304922e-01  -8.2524061e+07
   4.5715238e-10  -2.0486659e-02   2.3391924e+00   4.7503529e-01  -8.2182787e+07
   4.5815272e-10  -2.0404619e-02   2.3340168e+00   4.7701982e-01  -8.1843047e+07
   4.5915305e-10  -2.0322918e-02   2.3288662e+00   4.7900278e-01  -8.1504835e+07
   4.6015338e-10  -2.0241555e-02   2.3237405e+00   4.8098415e-01  -8.1168142e+07
   4.6115372e-10  -2.0160528e-02   2.3186394e+00   4.8296388e-01  -8.0832959e+07
   4.6215405e-10  -2.0079835e-02   2.3135630e+00   4.8494194e-01  -8.0499280e+07
   4.6315438e-10  -1.9999476e-02   2.3085111e+00   4.8691832e-01  -8.0167096e+07
   4.6415472e-10  -1.9919447e-02   2.3034836e+00   4.8889296e-01  -7.9836399e+07
   4.6515505e-10  -1.9839749e-02   2.2984803e+00   4.9086586e-01  -7.9507182e+07
   4.6615539e-10  -1.9760380e-02   2.2935012e+00   4.9283697e-01  -7.9179436e+07
   4.6715572e-10  -1.9681338e-02   2.2885461e+00   4.9480626e-01  -7.8853155e+07
   4.6815605e-10  -1.9602621e-02   2.2836150e+00   4.9677372e-01  -7.8528330e+07
   4.6915639e-10  -1.9524228e-02   2.2787077e+00   4.9873930e-01  -7.8204953e+07
   4.7015672e-10  -1.9446159e-02   2.2738241e+00   5.0070298e-01  -7.7883018e+07
   4.7115705e-10  -1.9368410e-02   2.2689641e+00   5.0266473e-01  -7.7562517e+07
   4.7215739e-10  -1.9290982e-02   2.2641275e+00   5.0462452e-01  -7.7243442e+07
   4.7315772e-10  -1.9213872e-02   2.2593144e+00   5.0658233e-01  -7.6925785e+07
   4.7415805e-10  -1.9137079e-02   2.2545244e+00   5.0853813e-01  -7.6609540e+07
   4.7515839e-10  -1.9060601e-02   2.2497577e+00   5.1049188e-01  -7.6294699e+07
   4.7615872e-10  -1.8984438e-02   2.2450139e+00   5.1244357e-01  -7.5981255e+07
   4.7715905e-10  -1.8908588e-02   2.2402931e+00   5.1439316e-01  -7.5669201e+07
   4.7815939e-10  -1.8833049e-02   2.2355951e+00   5.1634064e-01  -7.5358528e+07
   4.7915972e-10  -1.8757820e-02   2.2309198e+00   5.1828596e-01  -7.5049231e+07
   4.8016005e-10  -1.8682900e-02   2.2262671e+00   5.2022912e-01  -7.4741303e+07
   4.8116039e-10  -1.8608288e-02   2.2216369e+00   5.2217007e-01  -7.4434735e+07
   4.8216072e-10  -1.8533981e-02   2.2170291e+00   5.2410880e-01  -7.4129521e+07
   4.8316105e-10  -1.8459979e-02   2.2124435e+00   5.2604528e-01  -7.3825654e+07
   4.8416139e-10  -1.8386280e-02   2.2078801e+00   5.2797949e-01  -7.3523128e+07
   4.8516172e-10  -1.8312884e-02   2.2033388e+00   5.2991140e-01  -7.3221934e+07
   4.8616205e-10  -1.8239787e-02   2.1988194e+00   5.3184098e-01  -7.2922067e+07
   4.8716239e-10  -1.8166991e-02   2.1943218e+00   5.3376822e-01  -7.2623520e+07
   4.8816272e-10  -1.8094492e-02   2.1898460e+00   5.3569308e-01  -7.2326286e+07
   4.8916305e-10  -1.8022290e-02   2.1853918e+00   5.3761555e-01  -7.2030357e+07
   4.9016339e-10  -1.7950383e-02   2.1809592e+00   5.3953560e-01  -7.1735728e+07
   4.9116372e-10  -1.7878770e-02   2.1765479e+00   5.4145321e-01  -7.1442392e+07
   4.9216405e-10  -1.7807450e-02   2.1721580e+00   5.4336836e-01  -7.1150342e+07
   4.9316439e-10  -1.7736422e-02   2.1677892e+00   5.4528102e-01  -7.0859572e+07
   4.9416472e-10  -1.7665683e-02   2.1634416e+00   5.4719116e-01  -7.0570075e+07
   4.9516506e-10  -1.7595234e-02   2.1591150e+00   5.4909878e-01  -7.0281844e+07
   4.9616539e-10  -1.7525073e-02   2.1548093e+00   5.5100384e-01  -6.9994874e+07
   4.9716572e-10  -1.7455198e-02   2.1505243e+00   5.5290633e-01  -6.9709158e+07
   4.9816606e-10  -1.7385608e-02   2.1462601e+00   5.5480622e-01  -6.9424689e+07
   4.9916639e-10  -1.7316302e-02   2.1420165e+00   5.5670350e-01  -6.9141461e+07
   5.0016672e-10  -1.7247278e-02   2.1377933e+00   5.5859813e-01  -6.8859468e+07
   5.0116706e-10  -1.7178537e-02   2.1335906e+00   5.6049011e-01  -6.8578704e+07
   5.0216739e-10  -1.7110075e-02   2.1294081e+00   5.6237940e-01  -6.8299163e+07
   5.0316772e-10  -1.7041892e-02   2.1252458e+00   5.6426600e-01  -6.8020837e+07
   5.0416806e-10  -1.6973988e-02   2.1211036e+00   5.6614987e-01  -6.7743722e+07
   5.0516839e-10  -1.6906360e-02   2.1169814e+00   5.6803101e-01  -6.7467811e+07
   5.0616872e-10  -1.6839007e-02   2.1128791e+00   5.6990939e-01  -6.7193098e+07
   5.0716906e-10  -1.6771928e-02   2.1087966e+00   5.7178499e-01  -6.6919578e+07
   5.0816939e-10  -1.6705123e-02   2.1047337e+00   5.7365779e-01  -6.6647243e+07
   5.0916972e-10  -1.6638589e-02   2.1006905e+00   5.7552777e-01  -6.6376088e+07
   5.1017006e-10  -1.6572326e-02   2.0966667e+00   5.7739492e-01  -6.6106108e+07
   5.1117039e-10  -1.6506333e-02   2.0926624e+00   5.7925922e-01  -6.5837296e+07
   5.1217072e-10  -1.6440607e-02   2.0886774e+00   5.8112065e-01  -6.5569647e+07
   5.1317106e-10  -1.6375149e-02   2.0847115e+00   5.8297919e-01  -6.5303155e+07
   5.1417139e-10  -1.6309957e-02   2.0807648e+00   5.8483482e-01  -6.5037813e+07
   5.1517172e-10  -1.6245030e-02   2.0768371e+00   5.8668753e-01  -6.4773617e+07
   5.1617206e-10  -1.6180367e-02   2.0729283e+00   5.8853730e-01  -6.4510561e+07
   5.1717239e-10  -1.6115966e-02   2.0690384e+00   5.9038411e-01  -6.4248638e+07
   5.1817272e-10  -1.6051826e-02   2.0651672e+00   5.9222794e-01  -6.3987844e+07
   5.1917306e-10  -1.5987947e-02   2.0613146e+00   5.9406878e-01  -6.3728173e+07
   5.2017339e-10  -1.5924327e-02   2.0574806e+00   5.9590662e-01  -6.3469619e+07
   5.2117372e-10  -1.5860965e-02   2.0536650e+00   5.9774143e-01  -6.3212176e+07
   5.2217406e-10  -1.5797860e-02   2.0498677e+00   5.9957321e-01  -6.2955840e+07
   5.2317439e-10  -1.5735011e-02   2.0460888e+00   6.0140193e-01  -6.2700605e+07
   5.2417472e-10  -1.5672417e-02   2.0423280e+00   6.0322757e-01  -6.2446465e+07
   5.2517506e-10  -1.5610077e-02   2.0385853e+00   6.0505014e-01  -6.2193415e+07
   5.2617539e-10  -1.5547989e-02   2.0348606e+00   6.0686960e-01  -6.1941450e+07
   5.2717573e-10  -1.5486152e-02   2.0311538e+00   6.0868595e-01  -6.1690565e+07
   5.2817606e-10  -1.5424566e-02   2.0274649e+00   6.1049916e-01  -6.1440753e+07
   5.2917639e-10  -1.5363229e-02   2.0237936e+00   6.1230924e-01  -6.1192010e+07
   5.3017673e-10  -1.5302141e-02   2.0201400e+00   6.1411615e-01  -6.0944331e+07
   5.3117706e-10  -1.5241300e-02   2.0165039e+00   6.1591989e-01  -6.0697710e+07
   5.3217739e-10  -1.5180705e-02   2.0128853e+00   6.1772045e-01  -6.0452142e+07
   5.3317773e-10  -1.5120355e-02   2.0092841e+00   6.1951780e-01  -6.0207623e+07
   5.3417806e-10  -1.5060249e-02   2.0057001e+00   6.2131195e-01  -5.9964147e+07
   5.3517839e-10  -1.5000387e-02   2.0021333e+00   6.2310286e-01  -5.9721708e+07
   5.3617873e-10  -1.4940766e-02   1.9985837e+00   6.2489054e-01  -5.9480303e+07
   5.3717906e-10  -1.4881386e-02   1.9950510e+00   6.2667496e-01  -5.9239926e+07
   5.3817939e-10  -1.4822246e-02   1.9915353e+00   6.2845613e-01  -5.9000571e+07
   5.3917973e-10  -1.4763345e-02   1.9880365e+00   6.3023401e-01  -5.8762235e+07
   5.4018006e-10  -1.4704682e-02   1.9845544e+00   6.3200860e-01  -5.8524911e+07
   5.4118039e-10  -1.4646256e-02   1.9810890e+00   6.3377990e-01  -5.8288596e+07
   5.4218073e-10  -1.4588066e-02   1.9776402e+00   6.3554788e-01  -5.8053285e+07
   5.4318106e-10  -1.4530111e-02   1.9742079e+00   6.3731253e-01  -5.7818972e+07
   5.4418139e-10  -1.4472389e-02   1.9707920e+00   6.3907386e-01  -5.7585652e+07
   5.4518173e-10  -1.4414901e-02   1.9673925e+00   6.4083183e-01  -5.7353322e+07
   5.4618206e-10  -1.4357644e-02   1.9640093e+00   6.4258644e-01  -5.7121976e+07
   5.4718239e-10  -1.4300618e-02   1.9606422e+00   6.4433769e-01  -5.6891609e+07
   5.4818273e-10  -1.4243823e-02   1.9572912e+00   6.4608556e-01  -5.6662217e+07
   5.4918306e-10  -1.4187256e-02   1.9539563e+00   6.4783003e-01  -5.6433796e+07
   5.5018339e-10  -1.4130917e-02   1.9506372e+00   6.4957111e-01  -5.6206340e+07
   5.5118373e-10  -1.4074806e-02   1.9473341e+00   6.5130877e-01  -5.5979845e+07
   5.5218406e-10  -1.4018920e-02   1.9440467e+00   6.5304302e-01  -5.5754306e+07
   5.5318439e-10  -1.3963259e-02   1.9407750e+00   6.5477383e-01  -5.5529720e+07
   5.5418473e-10  -1.3907823e-02   1.9375189e+00   6.5650121e-01  -5.5306080e+07
   5.5518506e-10  -1.3852610e-02   1.9342784e+00   6.5822513e-01  -5.5083384e+07
   5.5618540e-10  -1.3797619e-02   1.9310533e+00   6.5994560e-01  -5.4861625e+07
   5.5718573e-10  -1.3742850e-02   1.9278436e+00   6.6166260e-01  -5.4640801e+07
   5.5818606e-10  -1.3688301e-02   1.9246492e+00   6.6337612e-01  -5.4420906e+07
   5.5918640e-10  -1.3633972e-02   1.9214700e+00   6.6508616e-01  -5.4201937e+07
   5.6018673e-10  -1.3579861e-02   1.9183060e+00   6.6679270e-01  -5.3983888e+07
   5.6118706e-10  -1.3525968e-02   1.9151570e+00   6.6849574e-01  -5.3766755e+07
   5.6218740e-10  -1.3472291e-02   1.9120230e+00   6.7019527e-01  -5.3550534e+07
   5.6318773e-10  -1.3418831e-02   1.9089040e+00   6.7189128e-01  -5.3335222e+07
   5.6418806e-10  -1.3365585e-02   1.9057998e+00   6.7358377e-01  -5.3120813e+07
   5.6518840e-10  -1.3312553e-02   1.9027103e+00   6.7527272e-01  -5.2907303e+07
   5.6618873e-10  -1.3259735e-02   1.8996356e+00   6.7695813e-01  -5.2694688e+07
   5.6718906e-10  -1.3207129e-02   1.8965754e+00   6.7863998e-01  -5.2482964e+07
   5.6818940e-10  -1.3154734e-02   1.8935298e+00   6.8031829e-01  -5.2272127e+07
   5.6918973e-10  -1.3102549e-02   1.8904987e+00   6.8199303e-01  -5.2062172e+07
   5.7019006e-10  -1.3050574e-02   1.8874820e+00   6.8366420e-01  -5.1853096e+07
   5.7119040e-10  -1.2998808e-02   1.8844796e+00   6.8533179e-01  -5.1644894e+07
   5.7219073e-10  -1.2947250e-02   1.8814914e+00   6.8699579e-01  -5.1437562e+07
   5.7319106e-10  -1.2895899e-02   1.8785174e+00   6.8865621e-01  -5.1231097e+07
   5.7419140e-10  -1.2844753e-02   1.8755575e+00   6.9031303e-01  -5.1025494e+07
   5.7519173e-10  -1.2793813e-02   1.8726117e+00   6.9196625e-01  -5.0820749e+07
   5.7619206e-10  -1.2743078e-02   1.8696798e+00   6.9361585e-01  -5.0616858e+07
   5.7719240e-10  -1.2692546e-02   1.8667618e+00   6.9526185e-01  -5.0413818e+07
   5.7819273e-10  -1.2642216e-02   1.8638576e+00   6.9690422e-01  -5.0211624e+07
   5.7919306e-10  -1.2592089e-02   1.8609672e+00   6.9854296e-01  -5.0010272e+07
   5.8019340e-10  -1.2542162e-02   1.8580905e+00   7.0017808e-01  -4.9809759e+07
   5.8119373e-10  -1.2492436e-02   1.8552273e+00   7.0180955e-01  -4.9610080e+07
   5.8219406e-10  -1.2442909e-02   1.8523777e+00   7.0343739e-01  -4.9411232e+07
   5.8319440e-10  -1.2393580e-02   1.8495416e+00   7.0506157e-01  -4.9213212e+07
   5.8419473e-10  -1.2344449e-02   1.8467189e+00   7.0668211e-01  -4.9016014e+07
   5.8519507e-10  -1.2295515e-02   1.8439095e+00   7.0829899e-01  -4.8819636e+07
   5.8619540e-10  -1.2246777e-02   1.8411134e+00   7.0991220e-01  -4.8624073e+07
   5.8719573e-10  -1.2198234e-02   1.8383305e+00   7.1152175e-01  -4.8429323e+07
   5.8819607e-10  -1.2149886e-02   1.8355607e+00   7.1312763e-01  -4.8235380e+07
   5.8919640e-10  -1.2101731e-02   1.8328040e+00   7.1472984e-01  -4.8042242e+07
   5.9019673e-10  -1.2053769e-02   1.8300603e+00   7.1632836e-01  -4.7849905e+07
   5.9119707e-10  -1.2005999e-02   1.8273296e+00   7.1792321e-01  -4.7658365e+07
   5.9219740e-10  -1.1958420e-02   1.8246117e+00   7.1951437e-01  -4.7467618e+07
   5.9319773e-10  -1.1911032e-02   1.8219066e+00   7.2110183e-01  -4.7277662e+07
   5.9419807e-10  -1.1863833e-02   1.8192142e+00   7.2268561e-01  -4.7088491e+07
   5.9519840e-10  -1.1816823e-02   1.8165346e+00   7.2426569e-01  -4.6900103e+07
   5.9619873e-10  -1.1770002e-02   1.8138675e+00   7.2584206e-01  -4.6712495e+07
   5.9719907e-10  -1.1723367e-02   1.8112130e+00   7.2741474e-01  -4.6525662e+07
   5.9819940e-10  -1.1676919e-02   1.8085710e+00   7.2898370e-01  -4.6339601e+07
   5.9919973e-10  -1.1630657e-02   1.8059414e+00   7.3054896e-01  -4.6154309e+07
   6.0020007e-10  -1.1584579e-02   1.8033241e+00   7.3211051e-01  -4.5969782e+07
   6.0120040e-10  -1.1538686e-02   1.8007191e+00   7.3366834e-01  -4.5786016e+07
   6.0220073e-10  -1.1492977e-02   1.7981264e+00   7.3522245e-01  -4.5603009e+07
   6.0320107e-10  -1.1447450e-02   1.7955459e+00   7.3677285e-01  -4.5420757e+07
   6.0420140e-10  -1.1402105e-02   1.7929774e+00   7.3831952e-01  -4.5239256e+07
   6.0520173e-10  -1.1356941e-02   1.7904210e+00   7.3986247e-01  -4.5058503e+07
   6.0620207e-10  -1.1311957e-02   1.7878766e+00   7.4140169e-01  -4.4878494e+07
   6.0720240e-10  -1.1267154e-02   1.7853441e+00   7.4293718e-01  -4.4699227e+07
   6.0820273e-10  -1.1222529e-02   1.7828235e+00   7.4446894e-01  -4.4520698e+07
   6.0920307e-10  -1.1178082e-02   1.7803147e+00   7.4599697e-01  -4.4342903e+07
   6.1020340e-10  -1.1133813e-02   1.7778176e+00   7.4752127e-01  -4.4165840e+07
   6.1120373e-10  -1.1089721e-02   1.7753322e+00   7.4904183e-01  -4.3989505e+07
   6.1220407e-10  -1.1045805e-02   1.7728585e+00   7.5055866e-01  -4.3813895e+07
   6.1320440e-10  -1.1002064e-02   1.7703963e+00   7.5207175e-01  -4.3639006e+07
   6.1420473e-10  -1.0958497e-02   1.7679456e+00   7.5358110e-01  -4.3464835e+07
   6.1520507e-10  -1.0915105e-02   1.7655064e+00   7.5508671e-01  -4.3291380e+07
   6.1620540e-10  -1.0871886e-02   1.7630786e+00   7.5658858e-01  -4.3118637e+07
   6.1720574e-10  -1.0828839e-02   1.7606621e+00   7.5808671e-01  -4.2946602e+07
   6.1820607e-10  -1.0785964e-02   1.7582569e+00   7.5958109e-01  -4.2775273e+07
   6.1920640e-10  -1.0743259e-02   1.7558629e+00   7.6107173e-01  -4.2604647e+07
   6.2020674e-10  -1.0700726e-02   1.7534800e+00   7.6255863e-01  -4.2434720e+07
   6.2120707e-10  -1.0658361e-02   1.7511083e+00   7.6404178e-01  -4.2265489e+07
   6.2220740e-10  -1.0616166e-02   1.7487477e+00   7.6552119e-01  -4.2096951e+07
   6.2320774e-10  -1.0574139e-02   1.7463980e+00   7.6699686e-01  -4.1929104e+07
   6.2420807e-10  -1.0532280e-02   1.7440593e+00   7.6846878e-01  -4.1761943e+07
   6.2520840e-10  -1.0490587e-02   1.7417315e+00   7.6993695e-01  -4.1595467e+07
   6.2620874e-10  -1.0449061e-02   1.7394145e+00   7.7140138e-01  -4.1429671e+07
   6.2720907e-10  -1.0407700e-02   1.7371082e+00   7.7286207e-01  -4.1264554e+07
   6.2820940e-10  -1.0366504e-02   1.7348127e+00   7.7431901e-01  -4.1100111e+07
   6.2920974e-10  -1.0325472e-02   1.7325279e+00   7.7577221e-01  -4.0936340e+07
   6.3021007e-10  -1.0284604e-02   1.7302537e+00   7.7722166e-01  -4.0773239e+07
   6.3121040e-10  -1.0243898e-02   1.7279901e+00   7.7866738e-01  -4.0610803e+07
   6.3221074e-10  -1.0203355e-02   1.7257369e+00   7.8010934e-01  -4.0449031e+07
   6.3321107e-10  -1.0162973e-02   1.7234942e+00   7.8154757e-01  -4.0287919e+07
   6.3421140e-10  -1.0122752e-02   1.7212620e+00   7.8298206e-01  -4.0127464e+07
   6.3521174e-10  -1.0082691e-02   1.7190400e+00   7.8441280e-01  -3.9967664e+07
   6.3621207e-10  -1.0042790e-02   1.7168284e+00   7.8583981e-01  -3.9808515e+07
   6.3721240e-10  -1.0003048e-02   1.7146270e+00   7.8726308e-01  -3.9650015e+07
   6.3821274e-10  -9.9634633e-03   1.7124358e+00   7.8868261e-01  -3.9492161e+07
   6.3921307e-10  -9.9240367e-03   1.7102548e+00   7.9009841e-01  -3.9334949e+07
   6.4021340e-10  -9.8847670e-03   1.7080839e+00   7.9151047e-01  -3.9178379e+07
   6.4121374e-10  -9.8456536e-03   1.7059230e+00   7.9291880e-01  -3.9022445e+07
   6.4221407e-10  -9.8066959e-03   1.7037721e+00   7.9432340e-01  -3.8867147e+07
   6.4321440e-10  -9.7678932e-03   1.7016311e+00   7.9572426e-01  -3.8712480e+07
   6.4421474e-10  -9.7292449e-03   1.6995000e+00   7.9712140e-01  -3.8558442e+07
   6.4521507e-10  -9.6907504e-03   1.6973788e+00   7.9851482e-01  -3.8405031e+07
   6.4621541e-10  -9.6524090e-03   1.6952674e+00   7.9990451e-01  -3.8252243e+07
   6.4721574e-10  -9.6142202e-03   1.6931657e+00   8.0129047e-01  -3.8100077e+07
   6.4821607e-10  -9.5761833e-03   1.6910737e+00   8.0267272e-01  -3.7948529e+07
   6.4921641e-10  -9.5382977e-03   1.6889914e+00   8.0405125e-01  -3.7797596e+07
   6.5021674e-10  -9.5005627e-03   1.6869187e+00   8.0542606e-01  -3.7647276e+07
   6.5121707e-10  -9.4629778e-03   1.6848555e+00   8.0679716e-01  -3.7497567e+07
   6.5221741e-10  -9.4255424e-03   1.6828018e+00   8.0816454e-01  -3.7348465e+07
   6.5321774e-10  -9.3882558e-03   1.6807576e+00   8.0952821e-01  -3.7199968e+07
   6.5421807e-10  -9.3511174e-03   1.6787228e+00   8.1088818e-01  -3.7052073e+07
   6.5521841e-10  -9.3141267e-03   1.6766973e+00   8.1224445e-01  -3.6904779e+07
   6.5621874e-10  -9.2772831e-03   1.6746812e+00   8.1359701e-01  -3.6758081e+07
   6.5721907e-10  -9.2405859e-03   1.6726743e+00   8.1494587e-01  -3.6611978e+07
   6.5821941e-10  -9.2040345e-03   1.6706767e+00   8.1629103e-01  -3.6466467e+07
   6.5921974e-10  -9.1676284e-03   1.6686883e+00   8.1763250e-01  -3.6321546e+07
   6.6022007e-10  -9.1313670e-03   1.6667089e+00   8.1897028e-01  -3.6177212e+07
   6.6122041e-10  -9.0952497e-03   1.6647387e+00   8.2030437e-01  -3.6033462e+07
   6.6222074e-10  -9.0592759e-03   1.6627775e+00   8.2163478e-01  -3.5890294e+07
   6.6322107e-10  -9.0234450e-03   1.6608253e+00   8.2296150e-01  -3.5747705e+07
   6.6422141e-10  -8.9877565e-03   1.6588820e+00   8.2428455e-01  -3.5605693e+07
   6.6522174e-10  -8.9522097e-03   1.6569477e+00   8.2560392e-01  -3.5464256e+07
   6.6622207e-10  -8.9168041e-03   1.6550222e+00   8.2691961e-01  -3.5323391e+07
   6.6722241e-10  -8.8815392e-03   1.6531056e+00   8.2823164e-01  -3.5183095e+07
   6.6822274e-10  -8.8464143e-03   1.6511977e+00   8.2954000e-01  -3.5043367e+07
   6.6922307e-10  -8.8114289e-03   1.6492985e+00   8.3084470e-01  -3.4904203e+07
   6.7022341e-10  -8.7765824e-03   1.6474080e+00   8.3214574e-01  -3.4765601e+07
   6.7122374e-10  -8.7418743e-03   1.6455262e+00   8.3344313e-01  -3.4627559e+07
   6.7222407e-10  -8.7073040e-03   1.6436530e+00   8.3473686e-01  -3.4490075e+07
   6.7322441e-10  -8.6728710e-03   1.6417883e+00   8.3602694e-01  -3.4353146e+07
   6.7422474e-10  -8.6385747e-03   1.6399322e+00   8.3731339e-01  -3.4216769e+07
   6.7522508e-10  -8.6044145e-03   1.6380845e+00   8.3859619e-01  -3.4080943e+07
   6.7622541e-10  -8.5703899e-03   1.6362453e+00   8.3987535e-01  -3.3945665e+07
   6.7722574e-10  -8.5365003e-03   1.6344144e+00   8.4115088e-01  -3.3810932e+07
   6.7822608e-10  -8.5027453e-03   1.6325920e+00   8.4242278e-01  -3.3676743e+07
   6.7922641e-10  -8.4691242e-03   1.6307778e+00   8.4369106e-01  -3.3543095e+07
   6.8022674e-10  -8.4356366e-03   1.6289718e+00   8.4495572e-01  -3.3409986e+07
   6.8122708e-10  -8.4022818e-03   1.6271742e+00   8.4621676e-01  -3.3277413e+07
   6.8222741e-10  -8.3690594e-03   1.6253846e+00   8.4747418e-01  -3.3145375e+07
   6.8322774e-10  -8.3359688e-03   1.6236033e+00   8.4872800e-01  -3.3013868e+07
   6.8422808e-10  -8.3030094e-03   1.6218300e+00   8.4997822e-01  -3.2882891e+07
   6.8522841e-10  -8.2701809e-03   1.6200648e+00   8.5122484e-01  -3.2752441e+07
   6.8622874e-10  -8.2374826e-03   1.6183077e+00   8.5246786e-01  -3.2622517e+07
   6.8722908e-10  -8.2049139e-03   1.6165585e+00   8.5370729e-01  -3.2493116e+07
   6.8822941e-10  -8.1724745e-03   1.6148173e+00   8.5494314e-01  -3.2364235e+07
   6.8922974e-10  -8.1401637e-03   1.6130839e+00   8.5617540e-01  -3.2235873e+07
   6.9023008e-10  -8.1079811e-03   1.6113585e+00   8.5740409e-01  -3.2108027e+07
   6.9123041e-10  -8.0759261e-03   1.6096409e+00   8.5862920e-01  -3.1980696e+07
   6.9223074e-10  -8.0439982e-03   1.6079310e+00   8.5985075e-01  -3.1853876e+07
   6.9323108e-10  -8.0121969e-03   1.6062289e+00   8.6106874e-01  -3.1727567e+07
   6.9423141e-10  -7.9805217e-03   1.6045346e+00   8.6228316e-01  -3.1601765e+07
   6.9523174e-10  -7.9489722e-03   1.6028479e+00   8.6349404e-01  -3.1476468e+07
   6.9623208e-10  -7.9175477e-03   1.6011688e+00   8.6470136e-01  -3.1351676e+07
   6.9723241e-10  -7.8862477e-03   1.5994974e+00   8.6590514e-01  -3.1227384e+07
   6.9823274e-10  -7.8550719e-03   1.5978335e+00   8.6710539e-01  -3.1103592e+07
   6.9923308e-10  -7.8240197e-03   1.5961771e+00   8.6830210e-01  -3.0980297e+07
   7.0023341e-10  -7.7930905e-03   1.5945283e+00   8.6949528e-01  -3.0857497e+07
   7.0123374e-10  -7.7622839e-03   1.5928868e+00   8.7068494e-01  -3.0735189e+07
   7.0223408e-10  -7.7315995e-03   1.5912528e+00   8.7187108e-01  -3.0613373e+07
   7.0323441e-10  -7.7010366e-03   1.5896262e+00   8.7305371e-01  -3.0492046e+07
   7.0423474e-10  -7.6705949e-03   1.5880070e+00   8.7423283e-01  -3.0371205e+07
   7.0523508e-10  -7.6402738e-03   1.5863950e+00   8.7540845e-01  -3.0250849e+07
   7.0623541e-10  -7.6100728e-03   1.5847903e+00   8.7658057e-01  -3.0130976e+07
   7.0723575e-10  -7.5799916e-03   1.5831929e+00   8.7774920e-01  -3.0011584e+07
   7.0823608e-10  -7.5500295e-03   1.5816026e+00   8.7891434e-01  -2.9892670e+07
   7.0923641e-10  -7.5201862e-03   1.5800195e+00   8.8007600e-01  -2.9774233e+07
   7.1023675e-10  -7.4904610e-03   1.5784436e+00   8.8123419e-01  -2.9656271e+07
   7.1123708e-10  -7.4608537e-03   1.5768747e+00   8.8238890e-01  -2.9538781e+07
   7.1223741e-10  -7.4313636e-03   1.5753129e+00   8.8354016e-01  -2.9421762e+07
   7.1323775e-10  -7.4019904e-03   1.5737582e+00   8.8468795e-01  -2.9305212e+07
   7.1423808e-10  -7.3727335e-03   1.5722104e+00   8.8583229e-01  -2.9189129e+07
   7.1523841e-10  -7.3435925e-03   1.5706696e+00   8.8697318e-01  -2.9073511e+07
   7.1623875e-10  -7.3145669e-03   1.5691357e+00   8.8811063e-01  -2.8958355e+07
   7.1723908e-10  -7.2856563e-03   1.5676087e+00   8.8924464e-01  -2.8843661e+07
   7.1823941e-10  -7.2568602e-03   1.5660886e+00   8.9037523e-01  -2.8729426e+07
   7.1923975e-10  -7.2281782e-03   1.5645753e+00   8.9150239e-01  -2.8615647e+07
   7.2024008e-10  -7.1996097e-03   1.5630688e+00   8.9262613e-01  -2.8502325e+07
   7.2124041e-10  -7.1711544e-03   1.5615690e+00   8.9374645e-01  -2.8389455e+07
   7.2224075e-10  -7.1428117e-03   1.5600760e+00   8.9486337e-01  -2.8277038e+07
   7.2324108e-10  -7.1145813e-03   1.5585897e+00   8.9597689e-01  -2.8165069e+07
   7.2424141e-10  -7.0864627e-03   1.5571100e+00   8.9708701e-01  -2.8053549e+07
   7.2524175e-10  -7.0584554e-03   1.5556370e+00   8.9819374e-01  -2.7942474e+07
   7.2624208e-10  -7.0305589e-03   1.5541705e+00   8.9929709e-01  -2.7831844e+07
   7.2724241e-10  -7.0027730e-03   1.5527107e+00   9.0039707e-01  -2.7721656e+07
   7.2824275e-10  -6.9750970e-03   1.5512573e+00   9.0149367e-01  -2.7611908e+07
   7.2924308e-10  -6.9475306e-03   1.5498105e+00   9.0258690e-01  -2.7502599e+07
   7.3024341e-10  -6.9200733e-03   1.5483701e+00   9.0367678e-01  -2.7393727e+07
   7.3124375e-10  -6.8927247e-03   1.5469362e+00   9.0476330e-01  -2.7285289e+07
   7.3224408e-10  -6.8654844e-03   1.5455086e+00   9.0584647e-01  -2.7177285e+07
   7.3324441e-10  -6.8383519e-03   1.5440875e+00   9.0692631e-01  -2.7069712e+07
   7.3424475e-10  -6.8113268e-03   1.5426727e+00   9.0800281e-01  -2.6962569e+07
   7.3524508e-10  -6.7844086e-03   1.5412642e+00   9.0907598e-01  -2.6855853e+07
   7.3624542e-10  -6.7575970e-03   1.5398620e+00   9.1014583e-01  -2.6749564e+07
   7.3724575e-10  -6.7308915e-03   1.5384661e+00   9.1121236e-01  -2.6643699e+07
   7.3824608e-10  -6.7042917e-03   1.5370763e+00   9.1227558e-01  -2.6538256e+07
   7.3924642e-10  -6.6777972e-03   1.5356928e+00   9.1333551e-01  -2.6433234e+07
   7.4024675e-10  -6.6514075e-03   1.5343155e+00   9.1439213e-01  -2.6328632e+07
   7.4124708e-10  -6.6251222e-03   1.5329442e+00   9.1544546e-01  -2.6224446e+07
   7.4224742e-10  -6.5989410e-03   1.5315791e+00   9.1649551e-01  -2.6120676e+07
   7.4324775e-10  -6.5728633e-03   1.5302201e+00   9.1754228e-01  -2.6017321e+07
   7.4424808e-10  -6.5468888e-03   1.5288671e+00   9.1858578e-01  -2.5914377e+07
   7.4524842e-10  -6.5210171e-03   1.5275201e+00   9.1962602e-01  -2.5811844e+07
   7.4624875e-10  -6.4952478e-03   1.5261791e+00   9.2066299e-01  -2.5709720e+07
   7.4724908e-10  -6.4695804e-03   1.5248441e+00   9.2169672e-01  -2.5608003e+07
   7.4824942e-10  -6.4440146e-03   1.5235150e+00   9.2272720e-01  -2.5506691e+07
   7.4924975e-10  -6.4185499e-03   1.5221918e+00   9.2375444e-01  -2.5405784e+07
   7.5025008e-10  -6.3931860e-03   1.5208745e+00   9.2477845e-01  -2.5305278e+07
   7.5125042e-10  -6.3679223e-03   1.5195630e+00   9.2579923e-01  -2.5205173e+07
   7.5225075e-10  -6.3427587e-03   1.5182573e+00   9.2681679e-01  -2.5105467e+07
   7.5325108e-10  -6.3176945e-03   1.5169575e+00   9.2783114e-01  -2.5006158e+07
   7.5425142e-10  -6.2927295e-03   1.5156634e+00   9.2884229e-01  -2.4907244e+07
   7.5525175e-10  -6.2678633e-03   1.5143750e+00   9.2985024e-01  -2.4808725e+07
   7.5625208e-10  -6.2430954e-03   1.5130924e+00   9.3085499e-01  -2.4710598e+07
   7.5725242e-10  -6.2184255e-03   1.5118154e+00   9.3185656e-01  -2.4612862e+07
   7.5825275e-10  -6.1938532e-03   1.5105441e+00   9.3285495e-01  -2.4515515e+07
   7.5925308e-10  -6.1693780e-03   1.5092784e+00   9.3385016e-01  -2.4418555e+07
   7.6025342e-10  -6.1449996e-03   1.5080183e+00   9.3484221e-01  -2.4321982e+07
   7.6125375e-10  -6.1207177e-03   1.5067638e+00   9.3583111e-01  -2.4225793e+07
   7.6225408e-10  -6.0965318e-03   1.5055148e+00   9.3681685e-01  -2.4129987e+07
   7.6325442e-10  -6.0724415e-03   1.5042713e+00   9.3779944e-01  -2.4034562e+07
   7.6425475e-10  -6.0484465e-03   1.5030334e+00   9.3877890e-01  -2.3939517e+07
   7.6525509e-10  -6.0245464e-03   1.5018009e+00   9.3975522e-01  -2.3844850e+07
   7.6625542e-10  -6.0007408e-03   1.5005738e+00   9.4072842e-01  -2.3750559e+07
   7.6725575e-10  -5.9770293e-03   1.4993522e+00   9.4169850e-01  -2.3656644e+07
   7.6825609e-10  -5.9534116e-03   1.4981360e+00   9.4266547e-01  -2.3563102e+07
   7.6925642e-10  -5.9298873e-03   1.4969251e+00   9.4362934e-01  -2.3469933e+07
   7.7025675e-10  -5.9064559e-03   1.4957196e+00   9.4459010e-01  -2.3377134e+07
   7.7125709e-10  -5.8831173e-03   1.4945193e+00   9.4554778e-01  -2.3284704e+07
   7.7225742e-10  -5.8598709e-03   1.4933244e+00   9.4650237e-01  -2.3192641e+07
   7.7325775e-10  -5.8367164e-03   1.4921347e+00   9.4745389e-01  -2.3100945e+07
   7.7425809e-10  -5.8136535e-03   1.4909503e+00   9.4840234e-01  -2.3009613e+07
   7.7525842e-10  -5.7906817e-03   1.4897711e+00   9.4934772e-01  -2.2918644e+07
   7.7625875e-10  -5.7678008e-03   1.4885971e+00   9.5029005e-01  -2.2828036e+07
   7.7725909e-10  -5.7450103e-03   1.4874282e+00   9.5122933e-01  -2.2737789e+07
   7.7825942e-10  -5.7223099e-03   1.4862645e+00   9.5216556e-01  -2.2647900e+07
   7.7925975e-10  -5.6996993e-03   1.4851059e+00   9.5309877e-01  -2.2558369e+07
   7.8026009e-10  -5.6771780e-03   1.4839524e+00   9.5402894e-01  -2.2469193e+07
   7.8126042e-10  -5.6547458e-03   1.4828039e+00   9.5495609e-01  -2.2380372e+07
   7.8226075e-10  -5.6324022e-03   1.4816605e+00   9.5588023e-01  -2.2291903e+07
   7.8326109e-10  -5.6101470e-03   1.4805221e+00   9.5680136e-01  -2.2203786e+07
   7.8426142e-10  -5.5879797e-03   1.4793887e+00   9.5771949e-01  -2.2116019e+07
   7.8526175e-10  -5.5659001e-03   1.4782603e+00   9.5863463e-01  -2.2028601e+07
   7.8626209e-10  -5.5439077e-03   1.4771369e+00   9.5954678e-01  -2.1941529e+07
   7.8726242e-10  -5.5220023e-03   1.4760183e+00   9.6045595e-01  -2.1854804e+07
   7.8826275e-10  -5.5001834e-03   1.4749047e+00   9.6136215e-01  -2.1768422e+07
   7.8926309e-10  -5.4784508e-03   1.4737959e+00   9.6226539e-01  -2.1682384e+07
   7.9026342e-10  -5.4568041e-03   1.4726920e+00   9.6316566e-01  -2.1596687e+07
   7.9126375e-10  -5.4352429e-03   1.4715930e+00   9.6406299e-01  -2.1511331e+07
   7.9226409e-10  -5.4137670e-03   1.4704987e+00   9.6495737e-01  -2.1426313e+07
   7.9326442e-10  -5.3923759e-03   1.4694092e+00   9.6584882e-01  -2.1341633e+07
   7.9426475e-10  -5.3710694e-03   1.4683245e+00   9.6673733e-01  -2.1257289e+07
   7.9526509e-10  -5.3498471e-03   1.4672446e+00   9.6762292e-01  -2.1173279e+07
   7.9626542e-10  -5.3287086e-03   1.4661693e+00   9.6850560e-01  -2.1089603e+07
   7.9726576e-10  -5.3076537e-03   1.4650988e+00   9.6938537e-01  -2.1006259e+07
   7.9826609e-10  -5.2866820e-03   1.4640329e+00   9.7026224e-01  -2.0923245e+07
   7.9926642e-10  -5.2657931e-03   1.4629717e+00   9.7113621e-01  -2.0840561e+07
   8.0026676e-10  -5.2449868e-03   1.4619152e+00   9.7200730e-01  -2.0758205e+07
   8.0126709e-10  -5.2242628e-03   1.4608632e+00   9.7287551e-01  -2.0676176e+07
   8.0226742e-10  -5.2036206e-03   1.4598158e+00   9.7374084e-01  -2.0594472e+07
   8.0326776e-10  -5.1830600e-03   1.4587730e+00   9.7460331e-01  -2.0513092e+07
   8.0426809e-10  -5.1625806e-03   1.4577348e+00   9.7546292e-01  -2.0432034e+07
   8.0526842e-10  -5.1421822e-03   1.4567011e+00   9.7631967e-01  -2.0351299e+07
   8.0626876e-10  -5.1218643e-03   1.4556718e+00   9.7717359e-01  -2.0270883e+07
   8.0726909e-10  -5.1016268e-03   1.4546471e+00   9.7802466e-01  -2.0190786e+07
   8.0826942e-10  -5.0814692e-03   1.4536268e+00   9.7887291e-01  -2.0111007e+07
   8.0926976e-10  -5.0613913e-03   1.4526110e+00   9.7971833e-01  -2.0031544e+07
   8.1027009e-10  -5.0413926e-03   1.4515996e+00   9.8056094e-01  -1.9952396e+07
   8.1127042e-10  -5.0214731e-03   1.4505926e+00   9.8140074e-01  -1.9873562e+07
   8.1227076e-10  -5.0016322e-03   1.4495899e+00   9.8223774e-01  -1.9795040e+07
   8.1327109e-10  -4.9818697e-03   1.4485917e+00   9.8307194e-01  -1.9716830e+07
   8.1427142e-10  -4.9621853e-03   1.4475977e+00   9.8390335e-01  -1.9638929e+07
   8.1527176e-10  -4.9425786e-03   1.4466081e+00   9.8473199e-01  -1.9561337e+07
   8.1627209e-10  -4.9230494e-03   1.4456228e+00   9.8555785e-01  -1.9484053e+07
   8.1727242e-10  -4.9035974e-03   1.4446418e+00   9.8638095e-01  -1.9407075e+07
   8.1827276e-10  -4.8842222e-03   1.4436650e+00   9.8720128e-01  -1.9330402e+07
   8.1927309e-10  -4.8649236e-03   1.4426925e+00   9.8801887e-01  -1.9254033e+07
   8.2027342e-10  -4.8457012e-03   1.4417242e+00   9.8883371e-01  -1.9177966e+07
   8.2127376e-10  -4.8265548e-03   1.4407601e+00   9.8964581e-01  -1.9102201e+07
   8.2227409e-10  -4.8074840e-03   1.4398001e+00   9.9045519e-01  -1.9026735e+07
   8.2327442e-10  -4.7884885e-03   1.4388444e+00   9.9126184e-01  -1.8951569e+07
   8.2427476e-10  -4.7695681e-03   1.4378927e+00   9.9206577e-01  -1.8876701e+07
   8.2527509e-10  -4.7507224e-03   1.4369452e+00   9.9286700e-01  -1.8802129e+07
   8.2627543e-10  -4.7319512e-03   1.4360018e+00   9.9366552e-01  -1.8727852e+07
   8.2727576e-10  -4.7132542e-03   1.4350625e+00   9.9446135e-01  -1.8653869e+07
   8.2827609e-10  -4.6946310e-03   1.4341273e+00   9.9525449e-01  -1.8580180e+07
   8.2927643e-10  -4.6760813e-03   1.4331961e+00   9.9604495e-01  -1.8506782e+07
   8.3027676e-10  -4.6576049e-03   1.4322689e+00   9.9683274e-01  -1.8433675e+07
   8.3127709e-10  -4.6392016e-03   1.4313457e+00   9.9761786e-01  -1.8360858e+07
   8.3227743e-10  -4.6208709e-03   1.4304266e+00   9.9840033e-01  -1.8288328e+07
   8.3327776e-10  -4.6026126e-03   1.4295114e+00   9.9918014e-01  -1.8216086e+07
   8.3427809e-10  -4.5844265e-03   1.4286001e+00   9.9995731e-01  -1.8144130e+07
   8.3527843e-10  -4.5663122e-03   1.4276928e+00   1.0007318e+00  -1.8072459e+07
   8.3627876e-10  -4.5482694e-03   1.4267894e+00   1.0015037e+00  -1.8001071e+07
   8.3727909e-10  -4.5302979e-03   1.4258899e+00   1.0022730e+00  -1.7929966e+07
   8.3827943e-10  -4.5123974e-03   1.4249943e+00   1.0030397e+00  -1.7859143e+07
   8.3927976e-10  -4.4945676e-03   1.4241026e+00   1.0038037e+00  -1.7788599e+07
   8.4028009e-10  -4.4768083e-03   1.4232147e+00   1.0045652e+00  -1.7718335e+07
   8.4128043e-10  -4.4591191e-03   1.4223306e+00   1.0053240e+00  -1.7648349e+07
   8.4228076e-10  -4.4414997e-03   1.4214504e+00   1.0060803e+00  -1.7578640e+07
   8.4328109e-10  -4.4239500e-03   1.4205739e+00   1.0068340e+00  -1.7509207e+07
   8.4428143e-10  -4.4064695e-03   1.4197012e+00   1.0075851e+00  -1.7440049e+07
   8.4528176e-10  -4.3890582e-03   1.4188323e+00   1.0083336e+00  -1.7371164e+07
   8.4628209e-10  -4.3717155e-03   1.4179671e+00   1.0090796e+00  -1.7302552e+07
   8.4728243e-10  -4.3544414e-03   1.4171056e+00   1.0098230e+00  -1.7234211e+07
   8.4828276e-10  -4.3372355e-03   1.4162479e+00   1.0105639e+00  -1.7166141e+07
   8.4928309e-10  -4.3200976e-03   1.4153938e+00   1.0113023e+00  -1.7098340e+07
   8.5028343e-10  -4.3030274e-03   1.4145434e+00   1.0120381e+00  -1.7030807e+07
   8.5128376e-10  -4.2860245e-03   1.4136967e+00   1.0127714e+00  -1.6963541e+07
   8.5228409e-10  -4.2690889e-03   1.4128536e+00   1.0135022e+00  -1.6896542e+07
   8.5328443e-10  -4.2522201e-03   1.4120142e+00   1.0142304e+00  -1.6829807e+07
   8.5428476e-10  -4.2354180e-03   1.4111783e+00   1.0149562e+00  -1.6763336e+07
   8.5528510e-10  -4.2186822e-03   1.4103460e+00   1.0156795e+00  -1.6697129e+07
   8.5628543e-10  -4.2020125e-03   1.4095173e+00   1.0164002e+00  -1.6631183e+07
   8.5728576e-10  -4.1854086e-03   1.4086922e+00   1.0171185e+00  -1.6565498e+07
   8.5828610e-10  -4.1688703e-03   1.4078706e+00   1.0178343e+00  -1.6500073e+07
   8.5928643e-10  -4.1523974e-03   1.4070525e+00   1.0185477e+00  -1.6434906e+07
   8.6028676e-10  -4.1359895e-03   1.4062380e+00   1.0192586e+00  -1.6369997e+07
   8.6128710e-10  -4.1196464e-03   1.4054269e+00   1.0199670e+00  -1.6305345e+07
   8.6228743e-10  -4.1033678e-03   1.4046193e+00   1.0206730e+00  -1.6240949e+07
   8.6328776e-10  -4.0871536e-03   1.4038152e+00   1.0213766e+00  -1.6176807e+07
   8.6428810e-10  -4.0710033e-03   1.4030145e+00   1.0220777e+00  -1.6112919e+07
   8.6528843e-10  -4.0549169e-03   1.4022172e+00   1.0227764e+00  -1.6049283e+07
   8.6628876e-10  -4.0388940e-03   1.4014234e+00   1.0234726e+00  -1.5985899e+07
   8.6728910e-10  -4.0229344e-03   1.4006329e+00   1.0241665e+00  -1.5922765e+07
   8.6828943e-10  -4.0070378e-03   1.3998459e+00   1.0248579e+00  -1.5859882e+07
   8.6928976e-10  -3.9912039e-03   1.3990622e+00   1.0255470e+00  -1.5797246e+07
   8.7029010e-10  -3.9754327e-03   1.3982819e+00   1.0262336e+00  -1.5734859e+07
   8.7129043e-10  -3.9597237e-03   1.3975049e+00   1.0269179e+00  -1.5672718e+07
   8.7229076e-10  -3.9440767e-03   1.3967312e+00   1.0275998e+00  -1.5610822e+07
   8.7329110e-10  -3.9284915e-03   1.3959608e+00   1.0282793e+00  -1.5549171e+07
   8.7429143e-10  -3.9129679e-03   1.3951937e+00   1.0289565e+00  -1.5487764e+07
   8.7529176e-10  -3.8975056e-03   1.3944299e+00   1.0296313e+00  -1.5426600e+07
   8.7629210e-10  -3.8821043e-03   1.3936694e+00   1.0303038e+00  -1.5365677e+07
   8.7729243e-10  -3.8667639e-03   1.3929121e+00   1.0309739e+00  -1.5304996e+07
   8.7829276e-10  -3.8514840e-03   1.3921580e+00   1.0316416e+00  -1.5244554e+07
   8.7929310e-10  -3.8362645e-03   1.3914072e+00   1.0323071e+00  -1.5184350e+07
   8.8029343e-10  -3.8211051e-03   1.3906595e+00   1.0329702e+00  -1.5124385e+07
   8.8129376e-10  -3.8060056e-03   1.3899151e+00   1.0336310e+00  -1.5064657e+07
   8.8229410e-10  -3.7909657e-03   1.3891738e+00   1.0342895e+00  -1.5005165e+07
   8.8329443e-10  -3.7759852e-03   1.3884357e+00   1.0349457e+00  -1.4945908e+07
   8.8429476e-10  -3.7610638e-03   1.3877007e+00   1.0355996e+00  -1.4886885e+07
   8.8529510e-10  -3.7462014e-03   1.3869689e+00   1.0362512e+00  -1.4828095e+07
   8.8629543e-10  -3.7313977e-03   1.3862402e+00   1.0369005e+00  -1.4769538e+07
   8.8729577e-10  -3.7166524e-03   1.3855146e+00   1.0375476e+00  -1.4711211e+07
   8.8829610e-10  -3.7019654e-03   1.3847920e+00   1.0381924e+00  -1.4653116e+07
   8.8929643e-10  -3.6873363e-03   1.3840726e+00   1.0388349e+00  -1.4595250e+07
   8.9029677e-10  -3.6727651e-03   1.3833562e+00   1.0394751e+00  -1.4537612e+07
   8.9129710e-10  -3.6582513e-03   1.3826429e+00   1.0401132e+00  -1.4480203e+07
   8.9229743e-10  -3.6437949e-03   1.3819326e+00   1.0407489e+00  -1.4423020e+07
   8.9329777e-10  -3.6293956e-03   1.3812253e+00   1.0413825e+00  -1.4366063e+07
   8.9429810e-10  -3.6150532e-03   1.3805210e+00   1.0420138e+00  -1.4309331e+07
   8.9529843e-10  -3.6007673e-03   1.3798197e+00   1.0426429e+00  -1.4252823e+07
   8.9629877e-10  -3.5865379e-03   1.3791214e+00   1.0432697e+00  -1.4196538e+07
   8.9729910e-10  -3.5723647e-03   1.3784261e+00   1.0438944e+00  -1.4140476e+07
   8.9829943e-10  -3.5582475e-03   1.3777337e+00   1.0445169e+00  -1.4084635e+07
   8.9929977e-10  -3.5441860e-03   1.3770443e+00   1.0451371e+00  -1.4029015e+07
   9.0030010e-10  -3.5301800e-03   1.3763577e+00   1.0457552e+00  -1.3973614e+07
   9.0130043e-10  -3.5162294e-03   1.3756741e+00   1.0463711e+00  -1.3918432e+07
   9.0230077e-10  -3.5023338e-03   1.3749934e+00   1.0469848e+00  -1.3863468e+07
   9.0330110e-10  -3.4884931e-03   1.3743156e+00   1.0475964e+00  -1.3808722e+07
   9.0430143e-10  -3.4747071e-03   1.3736407e+00   1.0482057e+00  -1.3754191e+07
   9.0530177e-10  -3.4609755e-03   1.3729686e+00   1.0488130e+00  -1.3699876e+07
   9.0630210e-10  -3.4472981e-03   1.3722994e+00   1.0494181e+00  -1.3645775e+07
   9.0730243e-10  -3.4336748e-03   1.3716330e+00   1.0500210e+00  -1.3591888e+07
   9.0830277e-10  -3.4201052e-03   1.3709694e+00   1.0506218e+00  -1.3538214e+07
   9.0930310e-10  -3.4065892e-03   1.3703087e+00   1.0512205e+00  -1.3484752e+07
   9.1030343e-10  -3.3931266e-03   1.3696507e+00   1.0518170e+00  -1.3431501e+07
   9.1130377e-10  -3.3797172e-03   1.3689955e+00   1.0524115e+00  -1.3378461e+07
   9.1230410e-10  -3.3663607e-03   1.3683431e+00   1.0530038e+00  -1.3325629e+07
   9.1330443e-10  -3.3530570e-03   1.3676935e+00   1.0535940e+00  -1.3273007e+07
   9.1430477e-10  -3.3398058e-03   1.3670466e+00   1.0541822e+00  -1.3220592e+07
   9.1530510e-10  -3.3266069e-03   1.3664025e+00   1.0547682e+00  -1.3168384e+07
   9.1630544e-10  -3.3134602e-03   1.3657610e+00   1.0553521e+00  -1.3116382e+07
   9.1730577e-10  -3.3003653e-03   1.3651223e+00   1.0559340e+00  -1.3064586e+07
   9.1830610e-10  -3.2873222e-03   1.3644863e+00   1.0565138e+00  -1.3012994e+07
   9.1930644e-10  -3.2743306e-03   1.3638530e+00   1.0570916e+00  -1.2961606e+07
   9.2030677e-10  -3.2613903e-03   1.3632223e+00   1.0576672e+00  -1.2910421e+07
   9.2130710e-10  -3.2485011e-03   1.3625943e+00   1.0582409e+00  -1.2859438e+07
   9.2230744e-10  -3.2356628e-03   1.3619690e+00   1.0588124e+00  -1.2808656e+07
   9.2330777e-10  -3.2228752e-03   1.3613463e+00   1.0593820e+00  -1.2758075e+07
   9.2430810e-10  -3.2101380e-03   1.3607262e+00   1.0599495e+00  -1.2707693e+07
   9.2530844e-10  -3.1974512e-03   1.3601088e+00   1.0605150e+00  -1.2657510e+07
   9.2630877e-10  -3.1848145e-03   1.3594939e+00   1.0610784e+00  -1.2607526e+07
   9.2730910e-10  -3.1722277e-03   1.3588817e+00   1.0616399e+00  -1.2557739e+07
   9.2830944e-10  -3.1596906e-03   1.3582720e+00   1.0621993e+00  -1.2508148e+07
   9.2930977e-10  -3.1472030e-03   1.3576649e+00   1.0627568e+00  -1.2458753e+07
   9.3031010e-10  -3.1347647e-03   1.3570604e+00   1.0633122e+00  -1.2409553e+07
   9.3131044e-10  -3.1223756e-03   1.3564584e+00   1.0638657e+00  -1.2360548e+07
   9.3231077e-10  -3.1100353e-03   1.3558589e+00   1.0644172e+00  -1.2311736e+07
   9.3331110e-10  -3.0977438e-03   1.3552620e+00   1.0649667e+00  -1.2263116e+07
   9.3431144e-10  -3.0855008e-03   1.3546676e+00   1.0655142e+00  -1.2214689e+07
   9.3531177e-10  -3.0733062e-03   1.3540757e+00   1.0660597e+00  -1.2166452e+07
   9.3631210e-10  -3.0611598e-03   1.3534863e+00   1.0666034e+00  -1.2118407e+07
   9.3731244e-10  -3.0490613e-03   1.3528993e+00   1.0671450e+00  -1.2070550e+07
   9.3831277e-10  -3.0370106e-03   1.3523149e+00   1.0676847e+00  -1.2022883e+07
   9.3931310e-10  -3.0250074e-03   1.3517329e+00   1.0682225e+00  -1.1975404e+07
   9.4031344e-10  -3.0130517e-03   1.3511533e+00   1.0687583e+00  -1.1928112e+07
   9.4131377e-10  -3.0011432e-03   1.3505762e+00   1.0692922e+00  -1.1881007e+07
   9.4231410e-10  -2.9892817e-03   1.3500015e+00   1.0698242e+00  -1.1834088e+07
   9.4331444e-10  -2.9774671e-03   1.3494292e+00   1.0703543e+00  -1.1787354e+07
   9.4431477e-10  -2.9656991e-03   1.3488593e+00   1.0708825e+00  -1.1740805e+07
   9.4531511e-10  -2.9539776e-03   1.3482918e+00   1.0714087e+00  -1.1694439e+07
   9.4631544e-10  -2.9423023e-03   1.3477267e+00   1.0719331e+00  -1.1648256e+07
   9.4731577e-10  -2.9306732e-03   1.3471640e+00   1.0724556e+00  -1.1602256e+07
   9.4831611e-10  -2.9190900e-03   1.3466037e+00   1.0729762e+00  -1.1556437e+07
   9.4931644e-10  -2.9075526e-03   1.3460457e+00   1.0734949e+00  -1.1510799e+07
   9.5031677e-10  -2.8960607e-03   1.3454900e+00   1.0740117e+00  -1.1465341e+07
   9.5131711e-10  -2.8846142e-03   1.3449367e+00   1.0745267e+00  -1.1420063e+07
   9.5231744e-10  -2.8732129e-03   1.3443856e+00   1.0750398e+00  -1.1374963e+07
   9.5331777e-10  -2.8618566e-03   1.3438369e+00   1.0755511e+00  -1.1330042e+07
   9.5431811e-10  -2.8505452e-03   1.3432905e+00   1.0760605e+00  -1.1285297e+07
   9.5531844e-10  -2.8392784e-03   1.3427464e+00   1.0765681e+00  -1.1240729e+07
   9.5631877e-10  -2.8280562e-03   1.3422046e+00   1.0770738e+00  -1.1196337e+07
   9.5731911e-10  -2.8168782e-03   1.3416651e+00   1.0775777e+00  -1.1152121e+07
   9.5831944e-10  -2.8057444e-03   1.3411278e+00   1.0780798e+00  -1.1108079e+07
   9.5931977e-10  -2.7946546e-03   1.3405927e+00   1.0785801e+00  -1.1064210e+07
   9.6032011e-10  -2.7836086e-03   1.3400599e+00   1.0790786e+00  -1.1020515e+07
   9.6132044e-10  -2.7726062e-03   1.3395294e+00   1.0795752e+00  -1.0976992e+07
   9.6232077e-10  -2.7616472e-03   1.3390010e+00   1.0800700e+00  -1.0933641e+07
   9.6332111e-10  -2.7507315e-03   1.3384749e+00   1.0805631e+00  -1.0890462e+07
   9.6432144e-10  -2.7398590e-03   1.3379509e+00   1.0810544e+00  -1.0847452e+07
   9.6532177e-10  -2.7290293e-03   1.3374292e+00   1.0815438e+00  -1.0804612e+07
   9.6632211e-10  -2.7182425e-03   1.3369096e+00   1.0820315e+00  -1.0761942e+07
   9.6732244e-10  -2.7074982e-03   1.3363922e+00   1.0825175e+00  -1.0719439e+07
   9.6832277e-10  -2.6967964e-03   1.3358770e+00   1.0830016e+00  -1.0677105e+07
   9.6932311e-10  -2.6861368e-03   1.3353639e+00   1.0834840e+00  -1.0634938e+07
   9.7032344e-10  -2.6755194e-03   1.3348530e+00   1.0839647e+00  -1.0592937e+07
   9.7132377e-10  -2.6649439e-03   1.3343442e+00   1.0844436e+00  -1.0551101e+07
   9.7232411e-10  -2.6544101e-03   1.3338376e+00   1.0849207e+00  -1.0509431e+07
   9.7332444e-10  -2.6439179e-03   1.3333330e+00   1.0853962e+00  -1.0467925e+07
   9.7432477e-10  -2.6334672e-03   1.3328306e+00   1.0858698e+00  -1.0426583e+07
   9.7532511e-10  -2.6230578e-03   1.3323303e+00   1.0863418e+00  -1.0385405e+07
   9.7632544e-10  -2.6126894e-03   1.3318320e+00   1.0868121e+00  -1.0344388e+07
   9.7732578e-10  -2.6023620e-03   1.3313358e+00   1.0872806e+00  -1.0303534e+07
   9.7832611e-10  -2.5920754e-03   1.3308417e+00   1.0877474e+00  -1.0262841e+07
   9.7932644e-10  -2.5818294e-03   1.3303497e+00   1.0882125e+00  -1.0222308e+07
   9.8032678e-10  -2.5716239e-03   1.3298597e+00   1.0886759e+00  -1.0181936e+07
   9.8132711e-10  -2.5614587e-03   1.3293718e+00   1.0891377e+00  -1.0141722e+07
   9.8232744e-10  -2.5513337e-03   1.3288859e+00   1.0895977e+00  -1.0101668e+07
   9.8332778e-10  -2.5412486e-03   1.3284020e+00   1.0900561e+00  -1.0061771e+07
   9.8432811e-10  -2.5312034e-03   1.3279201e+00   1.0905128e+00  -1.0022032e+07
   9.8532844e-10  -2.5211978e-03   1.3274403e+00   1.0909678e+00  -9.9824497e+06
   9.8632878e-10  -2.5112318e-03   1.3269624e+00   1.0914211e+00  -9.9430236e+06
   9.8732911e-10  -2.5013051e-03   1.3264866e+00   1.0918728e+00  -9.9037530e+06
   9.8832944e-10  -2.4914176e-03   1.3260127e+00   1.0923229e+00  -9.8646375e+06
   9.8932978e-10  -2.4815692e-03   1.3255408e+00   1.0927713e+00  -9.8256763e+06
   9.9033011e-10  -2.4717596e-03   1.3250708e+00   1.0932180e+00  -9.7868689e+06
   9.9133044e-10  -2.4619889e-03   1.3246029e+00   1.0936631e+00  -9.7482145e+06
   9.9233078e-10  -2.4522567e-03   1.3241368e+00   1.0941066e+00  -9.7097128e+06
   9.9333111e-10  -2.4425629e-03   1.3236727e+00   1.0945485e+00  -9.6713629e+06
   9.9433144e-10  -2.4329074e-03   1.3232106e+00   1.0949887e+00  -9.6331644e+06
   9.9533178e-10  -2.4232901e-03   1.3227503e+00   1.0954273e+00  -9.5951167e+06
   9.9633211e-10  -2.4137108e-03   1.3222920e+00   1.0958643e+00  -9.5572190e+06
   9.9733244e-10  -2.4041692e-03   1.3218356e+00   1.0962997e+00  -9.5194709e+06
   9.9833278e-10  -2.3946654e-03   1.3213811e+00   1.0967336e+00  -9.4818718e+06
   9.9933311e-10  -2.3851991e-03   1.3209284e+00   1.0971658e+00  -9.4444211e+06
   1.0003334e-09  -2.3757702e-03   1.3204777e+00   1.0975964e+00  -9.4071181e+06
   1.0013338e-09  -2.3663786e-03   1.3200288e+00   1.0980254e+00  -9.3699623e+06
   1.0023341e-09  -2.3570240e-03   1.3195818e+00   1.0984529e+00  -9.3329531e+06
   1.0033344e-09  -2.3477064e-03   1.3191366e+00   1.0988788e+00  -9.2960900e+06
   1.0043348e-09  -2.3384256e-03   1.3186933e+00   1.0993031e+00  -9.2593724e+06
   1.0053351e-09  -2.3291814e-03   1.3182519e+00   1.0997259e+00  -9.2227996e+06
   1.0063354e-09  -2.3199738e-03   1.3178122e+00   1.1001471e+00  -9.1863712e+06
   1.0073358e-09  -2.3108025e-03   1.3173744e+00   1.1005668e+00  -9.1500865e+06
   1.0083361e-09  -2.3016675e-03   1.3169385e+00   1.1009849e+00  -9.1139449e+06
   1.0093364e-09  -2.2925685e-03   1.3165043e+00   1.1014015e+00  -9.0779460e+06
   1.0103368e-09  -2.2835055e-03   1.3160719e+00   1.1018165e+00  -9.0420892e+06
   1.0113371e-09  -2.2744782e-03   1.3156413e+00   1.1022300e+00  -9.0063738e+06
   1.0123374e-09  -2.2654867e-03   1.3152125e+00   1.1026420e+00  -8.9707994e+06
   1.0133378e-09  -2.2565306e-03   1.3147855e+00   1.1030525e+00  -8.9353653e+06
   1.0143381e-09  -2.2476099e-03   1.3143603e+00   1.1034614e+00  -8.9000711e+06
   1.0153384e-09  -2.2387245e-03   1.3139368e+00   1.1038689e+00  -8.8649161e+06
   1.0163388e-09  -2.2298741e-03   1.3135150e+00   1.1042748e+00  -8.8298999e+06
   1.0173391e-09  -2.2210587e-03   1.3130951e+00   1.1046793e+00  -8.7950218e+06
   1.0183394e-09  -2.2122782e-03   1.3126768e+00   1.1050822e+00  -8.7602814e+06
   1.0193398e-09  -2.2035323e-03   1.3122603e+00   1.1054837e+00  -8.7256781e+06
   1.0203401e-09  -2.1948210e-03   1.3118455e+00   1.1058836e+00  -8.6912113e+06
   1.0213404e-09  -2.1861440e-03   1.3114325e+00   1.1062821e+00  -8.6568805e+06
   1.0223408e-09  -2.1775014e-03   1.3110211e+00   1.1066791e+00  -8.6226851e+06
   1.0233411e-09  -2.1688929e-03   1.3106115e+00   1.1070747e+00  -8.5886247e+06
   1.0243414e-09  -2.1603184e-03   1.3102035e+00   1.1074688e+00  -8.5546988e+06
   1.0253418e-09  -2.1517777e-03   1.3097973e+00   1.1078614e+00  -8.5209066e+06
   1.0263421e-09  -2.1432708e-03   1.3093927e+00   1.1082526e+00  -8.4872479e+06
   1.0273424e-09  -2.1347975e-03   1.3089898e+00   1.1086423e+00  -8.4537219e+06
   1.0283428e-09  -2.1263577e-03   1.3085885e+00   1.1090306e+00  -8.4203283e+06
   1.0293431e-09  -2.1179512e-03   1.3081889e+00   1.1094174e+00  -8.3870664e+06
   1.0303434e-09  -2.1095779e-03   1.3077910e+00   1.1098029e+00  -8.3539357e+06
   1.0313438e-09  -2.1012377e-03   1.3073947e+00   1.1101868e+00  -8.3209359e+06
   1.0323441e-09  -2.0929305e-03   1.3070001e+00   1.1105694e+00  -8.2880662e+06
   1.0333444e-09  -2.0846560e-03   1.3066071e+00   1.1109505e+00  -8.2553262e+06
   1.0343448e-09  -2.0764143e-03   1.3062157e+00   1.1113302e+00  -8.2227154e+06
   1.0353451e-09  -2.0682051e-03   1.3058259e+00   1.1117086e+00  -8.1902333e+06
   1.0363454e-09  -2.0600283e-03   1.3054377e+00   1.1120855e+00  -8.1578794e+06
   1.0373458e-09  -2.0518838e-03   1.3050512e+00   1.1124610e+00  -8.1256532e+06
   1.0383461e-09  -2.0437715e-03   1.3046662e+00   1.1128351e+00  -8.0935541e+06
   1.0393464e-09  -2.0356913e-03   1.3042828e+00   1.1132078e+00  -8.0615817e+06
   1.0403468e-09  -2.0276429e-03   1.3039011e+00   1.1135792e+00  -8.0297354e+06
   1.0413471e-09  -2.0196264e-03   1.3035208e+00   1.1139491e+00  -7.9980148e+06
   1.0423474e-09  -2.0116415e-03   1.3031422e+00   1.1143177e+00  -7.9664194e+06
   1.0433478e-09  -2.0036882e-03   1.3027651e+00   1.1146849e+00  -7.9349487e+06
   1.0443481e-09  -1.9957663e-03   1.3023896e+00   1.1150508e+00  -7.9036022e+06
   1.0453484e-09  -1.9878757e-03   1.3020156e+00   1.1154152e+00  -7.8723793e+06
   1.0463488e-09  -1.9800162e-03   1.3016432e+00   1.1157784e+00  -7.8412797e+06
   1.0473491e-09  -1.9721879e-03   1.3012723e+00   1.1161401e+00  -7.8103028e+06
   1.0483494e-09  -1.9643904e-03   1.3009029e+00   1.1165006e+00  -7.7794481e+06
   1.0493498e-09  -1.9566237e-03   1.3005351e+00   1.1168596e+00  -7.7487152e+06
   1.0503501e-09  -1.9488878e-03   1.3001688e+00   1.1172174e+00  -7.7181036e+06
   1.0513505e-09  -1.9411823e-03   1.2998039e+00   1.1175738e+00  -7.6876128e+06
   1.0523508e-09  -1.9335074e-03   1.2994406e+00   1.1179289e+00  -7.6572423e+06
   1.0533511e-09  -1.9258627e-03   1.2990788e+00   1.1182826e+00  -7.6269916e+06
   1.0543515e-09  -1.9182483e-03   1.2987185e+00   1.1186351e+00  -7.5968603e+06
   1.0553518e-09  -1.9106639e-03   1.2983596e+00   1.1189862e+00  -7.5668480e+06
   1.0563521e-09  -1.9031095e-03   1.2980023e+00   1.1193360e+00  -7.5369540e+06
   1.0573525e-09  -1.8955849e-03   1.2976464e+00   1.1196845e+00  -7.5071780e+06
   1.0583528e-09  -1.8880901e-03   1.2972920e+00   1.1200317e+00  -7.4775196e+06
   1.0593531e-09  -1.8806248e-03   1.2969390e+00   1.1203777e+00  -7.4479782e+06
   1.0603535e-09  -1.8731891e-03   1.2965875e+00   1.1207223e+00  -7.4185533e+06
   1.0613538e-09  -1.8657827e-03   1.2962374e+00   1.1210656e+00  -7.3892446e+06
   1.0623541e-09  -1.8584057e-03   1.2958888e+00   1.1214076e+00  -7.3600515e+06
   1.0633545e-09  -1.8510577e-03   1.2955416e+00   1.1217484e+00  -7.3309737e+06
   1.0643548e-09  -1.8437388e-03   1.2951959e+00   1.1220879e+00  -7.3020106e+06
   1.0653551e-09  -1.8364488e-03   1.2948515e+00   1.1224261e+00  -7.2731618e+06
   1.0663555e-09  -1.8291876e-03   1.2945086e+00   1.1227631e+00  -7.2444268e+06
   1.0673558e-09  -1.8219550e-03   1.2941671e+00   1.1230988e+00  -7.2158052e+06
   1.0683561e-09  -1.8147511e-03   1.2938270e+00   1.1234332e+00  -7.1872966e+06
   1.0693565e-09  -1.8075756e-03   1.2934883e+00   1.1237664e+00  -7.1589005e+06
   1.0703568e-09  -1.8004285e-03   1.2931509e+00   1.1240984e+00  -7.1306165e+06
   1.0713571e-09  -1.7933096e-03   1.2928150e+00   1.1244291e+00  -7.1024441e+06
   1.0723575e-09  -1.7862188e-03   1.2924805e+00   1.1247585e+00  -7.0743829e+06
   1.0733578e-09  -1.7791561e-03   1.2921473e+00   1.1250868e+00  -7.0464324e+06
   1.0743581e-09  -1.7721212e-03   1.2918155e+00   1.1254137e+00  -7.0185922e+06
   1.0753585e-09  -1.7651142e-03   1.2914850e+00   1.1257395e+00  -6.9908619e+06
   1.0763588e-09  -1.7581348e-03   1.2911560e+00   1.1260641e+00  -6.9632410e+06
   1.0773591e-09  -1.7511830e-03   1.2908282e+00   1.1263874e+00  -6.9357291e+06
   1.0783595e-09  -1.7442587e-03   1.2905018e+00   1.1267095e+00  -6.9083258e+06
   1.0793598e-09  -1.7373617e-03   1.2901768e+00   1.1270304e+00  -6.8810307e+06
   1.0803601e-09  -1.7304920e-03   1.2898531e+00   1.1273501e+00  -6.8538433e+06
   1.0813605e-09  -1.7236494e-03   1.2895307e+00   1.1276686e+00  -6.8267632e+06
   1.0823608e-09  -1.7168339e-03   1.2892096e+00   1.1279859e+00  -6.7997899e+06
   1.0833611e-09  -1.7100453e-03   1.2888899e+00   1.1283021e+00  -6.7729231e+06
   1.0843615e-09  -1.7032835e-03   1.2885714e+00   1.1286170e+00  -6.7461624e+06
   1.0853618e-09  -1.6965484e-03   1.2882543e+00   1.1289307e+00  -6.7195073e+06
   1.0863621e-09  -1.6898400e-03   1.2879385e+00   1.1292433e+00  -6.6929573e+06
   1.0873625e-09  -1.6831580e-03   1.2876240e+00   1.1295547e+00  -6.6665122e+06
   1.0883628e-09  -1.6765025e-03   1.2873107e+00   1.1298649e+00  -6.6401714e+06
   1.0893631e-09  -1.6698732e-03   1.2869988e+00   1.1301740e+00  -6.6139346e+06
   1.0903635e-09  -1.6632701e-03   1.2866881e+00   1.1304819e+00  -6.5878013e+06
   1.0913638e-09  -1.6566932e-03   1.2863787e+00   1.1307886e+00  -6.5617712e+06
   1.0923641e-09  -1.6501422e-03   1.2860705e+00   1.1310942e+00  -6.5358438e+06
   1.0933645e-09  -1.6436171e-03   1.2857637e+00   1.1313986e+00  -6.5100187e+06
   1.0943648e-09  -1.6371178e-03   1.2854581e+00   1.1317019e+00  -6.4842956e+06
   1.0953651e-09  -1.6306441e-03   1.2851537e+00   1.1320040e+00  -6.4586740e+06
   1.0963655e-09  -1.6241961e-03   1.2848506e+00   1.1323050e+00  -6.4331535e+06
   1.0973658e-09  -1.6177735e-03   1.2845487e+00   1.1326049e+00  -6.4077337e+06
   1.0983661e-09  -1.6113763e-03   1.2842481e+00   1.1329037e+00  -6.3824143e+06
   1.0993665e-09  -1.6050044e-03   1.2839487e+00   1.1332013e+00  -6.3571948e+06
   1.1003668e-09  -1.5986576e-03   1.2836505e+00   1.1334978e+00  -6.3320748e+06
   1.1013671e-09  -1.5923360e-03   1.2833535e+00   1.1337931e+00  -6.3070540e+06
   1.1023675e-09  -1.5860393e-03   1.2830578e+00   1.1340874e+00  -6.2821320e+06
   1.1033678e-09  -1.5797675e-03   1.2827632e+00   1.1343805e+00  -6.2573083e+06
   1.1043681e-09  -1.5735205e-03   1.2824699e+00   1.1346726e+00  -6.2325826e+06
   1.1053685e-09  -1.5672981e-03   1.2821778e+00   1.1349635e+00  -6.2079545e+06
   1.1063688e-09  -1.5611004e-03   1.2818869e+00   1.1352534e+00  -6.1834236e+06
   1.1073691e-09  -1.5549271e-03   1.2815971e+00   1.1355421e+00  -6.1589895e+06
   1.1083695e-09  -1.5487783e-03   1.2813085e+00   1.1358298e+00  -6.1346519e+06
   1.1093698e-09  -1.5426537e-03   1.2810212e+00   1.1361164e+00  -6.1104103e+06
   1.1103701e-09  -1.5365534e-03   1.2807350e+00   1.1364019e+00  -6.0862644e+06
   1.1113705e-09  -1.5304771e-03   1.2804499e+00   1.1366863e+00  -6.0622139e+06
   1.1123708e-09  -1.5244248e-03   1.2801661e+00   1.1369696e+00  -6.0382582e+06
   1.1133711e-09  -1.5183965e-03   1.2798834e+00   1.1372519e+00  -6.0143971e+06
   1.1143715e-09  -1.5123920e-03   1.2796018e+00   1.1375331e+00  -5.9906302e+06
   1.1153718e-09  -1.5064112e-03   1.2793214e+00   1.1378132e+00  -5.9669572e+06
   1.1163721e-09  -1.5004541e-03   1.2790422e+00   1.1380923e+00  -5.9433775e+06
   1.1173725e-09  -1.4945205e-03   1.2787640e+00   1.1383703e+00  -5.9198910e+06
   1.1183728e-09  -1.4886103e-03   1.2784871e+00   1.1386473e+00  -5.8964971e+06
   1.1193731e-09  -1.4827235e-03   1.2782112e+00   1.1389232e+00  -5.8731956e+06
   1.1203735e-09  -1.4768600e-03   1.2779365e+00   1.1391981e+00  -5.8499861e+06
   1.1213738e-09  -1.4710196e-03   1.2776629e+00   1.1394720e+00  -5.8268681e+06
   1.1223741e-09  -1.4652023e-03   1.2773904e+00   1.1397448e+00  -5.8038415e+06
   1.1233745e-09  -1.4594080e-03   1.2771191e+00   1.1400166e+00  -5.7809057e+06
   1.1243748e-09  -1.4536366e-03   1.2768488e+00   1.1402873e+00  -5.7580605e+06
   1.1253751e-09  -1.4478880e-03   1.2765796e+00   1.1405570e+00  -5.7353054e+06
   1.1263755e-09  -1.4421622e-03   1.2763116e+00   1.1408257e+00  -5.7126402e+06
   1.1273758e-09  -1.4364589e-03   1.2760446e+00   1.1410934e+00  -5.6900645e+06
   1.1283761e-09  -1.4307782e-03   1.2757787e+00   1.1413601e+00  -5.6675778e+06
   1.1293765e-09  -1.4251200e-03   1.2755139e+00   1.1416257e+00  -5.6451800e+06
   1.1303768e-09  -1.4194841e-03   1.2752502e+00   1.1418904e+00  -5.6228705e+06
   1.1313771e-09  -1.4138704e-03   1.2749876e+00   1.1421540e+00  -5.6006491e+06
   1.1323775e-09  -1.4082790e-03   1.2747260e+00   1.1424166e+00  -5.5785155e+06
   1.1333778e-09  -1.4027097e-03   1.2744655e+00   1.1426783e+00  -5.5564692e+06
   1.1343781e-09  -1.3971623e-03   1.2742061e+00   1.1429389e+00  -5.5345099e+06
   1.1353785e-09  -1.3916369e-03   1.2739477e+00   1.1431986e+00  -5.5126374e+06
   1.1363788e-09  -1.3861334e-03   1.2736904e+00   1.1434573e+00  -5.4908512e+06
   1.1373791e-09  -1.3806515e-03   1.2734341e+00   1.1437150e+00  -5.4691509e+06
   1.1383795e-09  -1.3751914e-03   1.2731789e+00   1.1439717e+00  -5.4475364e+06
   1.1393798e-09  -1.3697528e-03   1.2729247e+00   1.1442275e+00  -5.4260072e+06
   1.1403801e-09  -1.3643357e-03   1.2726716e+00   1.1444822e+00  -5.4045630e+06
   1.1413805e-09  -1.3589400e-03   1.2724194e+00   1.1447360e+00  -5.3832034e+06
   1.1423808e-09  -1.3535657e-03   1.2721684e+00   1.1449889e+00  -5.3619281e+06
   1.1433811e-09  -1.3482126e-03   1.2719183e+00   1.1452408e+00  -5.3407369e+06
   1.1443815e-09  -1.3428806e-03   1.2716692e+00   1.1454917e+00  -5.3196293e+06
   1.1453818e-09  -1.3375697e-03   1.2714212e+00   1.1457417e+00  -5.2986050e+06
   1.1463821e-09  -1.3322799e-03   1.2711742e+00   1.1459907e+00  -5.2776638e+06
   1.1473825e-09  -1.3270109e-03   1.2709281e+00   1.1462388e+00  -5.2568052e+06
   1.1483828e-09  -1.3217627e-03   1.2706831e+00   1.1464859e+00  -5.2360290e+06
   1.1493831e-09  -1.3165353e-03   1.2704391e+00   1.1467321e+00  -5.2153348e+06
   1.1503835e-09  -1.3113285e-03   1.2701961e+00   1.1469773e+00  -5.1947223e+06
   1.1513838e-09  -1.3061424e-03   1.2699540e+00   1.1472217e+00  -5.1741911e+06
   1.1523841e-09  -1.3009767e-03   1.2697130e+00   1.1474650e+00  -5.1537411e+06
   1.1533845e-09  -1.2958314e-03   1.2694729e+00   1.1477075e+00  -5.1333717e+06
   1.1543848e-09  -1.2907065e-03   1.2692338e+00   1.1479491e+00  -5.1130828e+06
   1.1553851e-09  -1.2856018e-03   1.2689957e+00   1.1481897e+00  -5.0928740e+06
   1.1563855e-09  -1.2805173e-03   1.2687585e+00   1.1484294e+00  -5.0727450e+06
   1.1573858e-09  -1.2754529e-03   1.2685223e+00   1.1486682e+00  -5.0526954e+06
   1.1583861e-09  -1.2704085e-03   1.2682871e+00   1.1489061e+00  -5.0327250e+06
   1.1593865e-09  -1.2653841e-03   1.2680528e+00   1.1491430e+00  -5.0128335e+06
   1.1603868e-09  -1.2603795e-03   1.2678195e+00   1.1493791e+00  -4.9930205e+06
   1.1613871e-09  -1.2553947e-03   1.2675871e+00   1.1496143e+00  -4.9732857e+06
   1.1623875e-09  -1.2504296e-03   1.2673557e+00   1.1498486e+00  -4.9536289e+06
   1.1633878e-09  -1.2454841e-03   1.2671252e+00   1.1500820e+00  -4.9340496e+06
   1.1643881e-09  -1.2405582e-03   1.2668957e+00   1.1503145e+00  -4.9145477e+06
   1.1653885e-09  -1.2356517e-03   1.2666670e+00   1.1505461e+00  -4.8951227e+06
   1.1663888e-09  -1.2307646e-03   1.2664393e+00   1.1507768e+00  -4.8757745e+06
   1.1673891e-09  -1.2258969e-03   1.2662126e+00   1.1510067e+00  -4.8565026e+06
   1.1683895e-09  -1.2210484e-03   1.2659867e+00   1.1512356e+00  -4.8373069e+06
   1.1693898e-09  -1.2162190e-03   1.2657618e+00   1.1514637e+00  -4.8181869e+06
   1.1703901e-09  -1.2114087e-03   1.2655378e+00   1.1516910e+00  -4.7991424e+06
   1.1713905e-09  -1.2066175e-03   1.2653147e+00   1.1519173e+00  -4.7801732e+06
   1.1723908e-09  -1.2018452e-03   1.2650925e+00   1.1521428e+00  -4.7612788e+06
   1.1733911e-09  -1.1970917e-03   1.2648712e+00   1.1523674e+00  -4.7424590e+06
   1.1743915e-09  -1.1923571e-03   1.2646508e+00   1.1525912e+00  -4.7237136e+06
   1.1753918e-09  -1.1876411e-03   1.2644313e+00   1.1528141e+00  -4.7050421e+06
   1.1763921e-09  -1.1829438e-03   1.2642127e+00   1.1530362e+00  -4.6864444e+06
   1.1773925e-09  -1.1782651e-03   1.2639950e+00   1.1532574e+00  -4.6679202e+06
   1.1783928e-09  -1.1736049e-03   1.2637782e+00   1.1534778e+00  -4.6494690e+06
   1.1793931e-09  -1.1689630e-03   1.2635622e+00   1.1536974e+00  -4.6310908e+06
   1.1803935e-09  -1.1643396e-03   1.2633471e+00   1.1539161e+00  -4.6127851e+06
   1.1813938e-09  -1.1597344e-03   1.2631329e+00   1.1541339e+00  -4.5945517e+06
   1.1823941e-09  -1.1551474e-03   1.2629196e+00   1.1543509e+00  -4.5763902e+06
   1.1833945e-09  -1.1505785e-03   1.2627071e+00   1.1545671e+00  -4.5583005e+06
   1.1843948e-09  -1.1460277e-03   1.2624955e+00   1.1547825e+00  -4.5402823e+06
   1.1853951e-09  -1.1414949e-03   1.2622847e+00   1.1549971e+00  -4.5223352e+06
   1.1863955e-09  -1.1369800e-03   1.2620749e+00   1.1552108e+00  -4.5044589e+06
   1.1873958e-09  -1.1324829e-03   1.2618658e+00   1.1554237e+00  -4.4866533e+06
   1.1883961e-09  -1.1280037e-03   1.2616576e+00   1.1556358e+00  -4.4689179e+06
   1.1893965e-09  -1.1235421e-03   1.2614503e+00   1.1558471e+00  -4.4512526e+06
   1.1903968e-09  -1.1190982e-03   1.2612437e+00   1.1560576e+00  -4.4336571e+06
   1.1913971e-09  -1.1146718e-03   1.2610381e+00   1.1562672e+00  -4.4161310e+06
   1.1923975e-09  -1.1102629e-03   1.2608332e+00   1.1564761e+00  -4.3986741e+06
   1.1933978e-09  -1.1058715e-03   1.2606292e+00   1.1566842e+00  -4.3812862e+06
   1.1943981e-09  -1.1014974e-03   1.2604260e+00   1.1568914e+00  -4.3639670e+06
   1.1953985e-09  -1.0971406e-03   1.2602237e+00   1.1570979e+00  -4.3467161e+06
   1.1963988e-09  -1.0928011e-03   1.2600221e+00   1.1573036e+00  -4.3295334e+06
   1.1973991e-09  -1.0884787e-03   1.2598214e+00   1.1575085e+00  -4.3124185e+06
   1.1983995e-09  -1.0841733e-03   1.2596215e+00   1.1577126e+00  -4.2953712e+06
   1.1993998e-09  -1.0798850e-03   1.2594224e+00   1.1579160e+00  -4.2783913e+06
   1.2004001e-09  -1.0756137e-03   1.2592241e+00   1.1581185e+00  -4.2614784e+06
   1.2014005e-09  -1.0713592e-03   1.2590266e+00   1.1583203e+00  -4.2446323e+06
   1.2024008e-09  -1.0671216e-03   1.2588299e+00   1.1585213e+00  -4.2278527e+06
   1.2034011e-09  -1.0629007e-03   1.2586340e+00   1.1587215e+00  -4.2111394e+06
   1.2044015e-09  -1.0586965e-03   1.2584389e+00   1.1589210e+00  -4.1944920e+06
   1.2054018e-09  -1.0545089e-03   1.2582446e+00   1.1591197e+00  -4.1779105e+06
   1.2064021e-09  -1.0503378e-03   1.2580511e+00   1.1593176e+00  -4.1613944e+06
   1.2074025e-09  -1.0461833e-03   1.2578583e+00   1.1595148e+00  -4.1449436e+06
   1.2084028e-09  -1.0420451e-03   1.2576664e+00   1.1597112e+00  -4.1285577e+06
   1.2094031e-09  -1.0379234e-03   1.2574752e+00   1.1599069e+00  -4.1122365e+06
   1.2104035e-09  -1.0338179e-03   1.2572848e+00   1.1601018e+00  -4.0959798e+06
   1.2114038e-09  -1.0297287e-03   1.2570951e+00   1.1602960e+00  -4.0797873e+06
   1.2124041e-09  -1.0256556e-03   1.2569063e+00   1.1604894e+00  -4.0636587e+06
   1.2134045e-09  -1.0215986e-03   1.2567182e+00   1.1606821e+00  -4.0475939e+06
   1.2144048e-09  -1.0175577e-03   1.2565308e+00   1.1608741e+00  -4.0315925e+06
   1.2154051e-09  -1.0135327e-03   1.2563442e+00   1.1610653e+00  -4.0156543e+06
   1.2164055e-09  -1.0095237e-03   1.2561584e+00   1.1612557e+00  -3.9997790e+06
   1.2174058e-09  -1.0055305e-03   1.2559733e+00   1.1614455e+00  -3.9839665e+06
   1.2184061e-09  -1.0015531e-03   1.2557890e+00   1.1616345e+00  -3.9682164e+06
   1.2194065e-09  -9.9759138e-04   1.2556054e+00   1.1618228e+00  -3.9525285e+06
   1.2204068e-09  -9.9364535e-04   1.2554225e+00   1.1620103e+00  -3.9369025e+06
   1.2214071e-09  -9.8971493e-04   1.2552404e+00   1.1621972e+00  -3.9213383e+06
   1.2224075e-09  -9.8580004e-04   1.2550591e+00   1.1623833e+00  -3.9058356e+06
   1.2234078e-09  -9.8190063e-04   1.2548784e+00   1.1625687e+00  -3.8903941e+06
   1.2244081e-09  -9.7801664e-04   1.2546985e+00   1.1627534e+00  -3.8750136e+06
   1.2254085e-09  -9.7414800e-04   1.2545193e+00   1.1629374e+00  -3.8596938e+06
   1.2264088e-09  -9.7029466e-04   1.2543409e+00   1.1631207e+00  -3.8444345e+06
   1.2274091e-09  -9.6645655e-04   1.2541631e+00   1.1633033e+00  -3.8292355e+06
   1.2284095e-09  -9.6263361e-04   1.2539861e+00   1.1634851e+00  -3.8140966e+06
   1.2294098e-09  -9.5882579e-04   1.2538098e+00   1.1636663e+00  -3.7990174e+06
   1.2304101e-09  -9.5503302e-04   1.2536342e+00   1.1638468e+00  -3.7839978e+06
   1.2314105e-09  -9.5125525e-04   1.2534594e+00   1.1640266e+00  -3.7690376e+06
   1.2324108e-09  -9.4749242e-04   1.2532852e+00   1.1642057e+00  -3.7541364e+06
   1.2334111e-09  -9.4374446e-04   1.2531117e+00   1.1643841e+00  -3.7392941e+06
   1.2344115e-09  -9.4001131e-04   1.2529389e+00   1.1645618e+00  -3.7245104e+06
   1.2354118e-09  -9.3629293e-04   1.2527669e+00   1.1647388e+00  -3.7097851e+06
   1.2364121e-09  -9.3258925e-04   1.2525955e+00   1.1649152e+00  -3.6951179e+06
   1.2374125e-09  -9.2890021e-04   1.2524248e+00   1.1650908e+00  -3.6805087e+06
   1.2384128e-09  -9.2522576e-04   1.2522548e+00   1.1652658e+00  -3.6659573e+06
   1.2394131e-09  -9.2156583e-04   1.2520855e+00   1.1654401e+00  -3.6514632e+06
   1.2404135e-09  -9.1792038e-04   1.2519169e+00   1.1656138e+00  -3.6370265e+06
   1.2414138e-09  -9.1428934e-04   1.2517490e+00   1.1657868e+00  -3.6226468e+06
   1.2424141e-09  -9.1067265e-04   1.2515817e+00   1.1659591e+00  -3.6083238e+06
   1.2434145e-09  -9.0707026e-04   1.2514151e+00   1.1661307e+00  -3.5940575e+06
   1.2444148e-09  -9.0348212e-04   1.2512492e+00   1.1663017e+00  -3.5798475e+06
   1.2454151e-09  -8.9990816e-04   1.2510839e+00   1.1664721e+00  -3.5656936e+06
   1.2464155e-09  -8.9634834e-04   1.2509194e+00   1.1666417e+00  -3.5515957e+06
   1.2474158e-09  -8.9280258e-04   1.2507554e+00   1.1668108e+00  -3.5375534e+06
   1.2484161e-09  -8.8927085e-04   1.2505922e+00   1.1669791e+00  -3.5235666e+06
   1.2494165e-09  -8.8575308e-04   1.2504296e+00   1.1671468e+00  -3.5096351e+06
   1.2504168e-09  -8.8224922e-04   1.2502676e+00   1.1673139e+00  -3.4957586e+06
   1.2514171e-09  -8.7875922e-04   1.2501064e+00   1.1674803e+00  -3.4819369e+06
   1.2524175e-09  -8.7528301e-04   1.2499457e+00   1.1676461e+00  -3.4681698e+06
   1.2534178e-09  -8.7182055e-04   1.2497857e+00   1.1678113e+00  -3.4544571e+06
   1.2544181e-09  -8.6837177e-04   1.2496264e+00   1.1679758e+00  -3.4407986e+06
   1.2554185e-09  -8.6493664e-04   1.2494677e+00   1.1681397e+00  -3.4271940e+06
   1.2564188e-09  -8.6151508e-04   1.2493096e+00   1.1683029e+00  -3.4136432e+06
   1.2574191e-09  -8.5810706e-04   1.2491522e+00   1.1684655e+00  -3.4001459e+06
   1.2584195e-09  -8.5471250e-04   1.2489954e+00   1.1686275e+00  -3.3867020e+06
   1.2594198e-09  -8.5133138e-04   1.2488393e+00   1.1687889e+00  -3.3733111e+06
   1.2604201e-09  -8.4796361e-04   1.2486837e+00   1.1689496e+00  -3.3599731e+06
   1.2614205e-09  -8.4460917e-04   1.2485288e+00   1.1691097e+00  -3.3466879e+06
   1.2624208e-09  -8.4126799e-04   1.2483746e+00   1.1692692e+00  -3.3334551e+06
   1.2634211e-09  -8.3794002e-04   1.2482209e+00   1.1694281e+00  -3.3202746e+06
   1.2644215e-09  -8.3462521e-04   1.2480679e+00   1.1695864e+00  -3.3071462e+06
   1.2654218e-09  -8.3132350e-04   1.2479155e+00   1.1697441e+00  -3.2940696e+06
   1.2664221e-09  -8.2803486e-04   1.2477637e+00   1.1699011e+00  -3.2810447e+06
   1.2674225e-09  -8.2475921e-04   1.2476125e+00   1.1700576e+00  -3.2680713e+06
   1.2684228e-09  -8.2149652e-04   1.2474619e+00   1.1702134e+00  -3.2551491e+06
   1.2694231e-09  -8.1824672e-04   1.2473119e+00   1.1703687e+00  -3.2422779e+06
   1.2704235e-09  -8.1500978e-04   1.2471625e+00   1.1705233e+00  -3.2294577e+06
   1.2714238e-09  -8.1178564e-04   1.2470138e+00   1.1706773e+00  -3.2166880e+06
   1.2724241e-09  -8.0857424e-04   1.2468656e+00   1.1708308e+00  -3.2039688e+06
   1.2734245e-09  -8.0537555e-04   1.2467180e+00   1.1709836e+00  -3.1912999e+06
   1.2744248e-09  -8.0218950e-04   1.2465710e+00   1.1711359e+00  -3.1786810e+06
   1.2754251e-09  -7.9901605e-04   1.2464247e+00   1.1712876e+00  -3.1661120e+06
   1.2764255e-09  -7.9585515e-04   1.2462789e+00   1.1714387e+00  -3.1535927e+06
   1.2774258e-09  -7.9270674e-04   1.2461336e+00   1.1715892e+00  -3.1411228e+06
   1.2784261e-09  -7.8957079e-04   1.2459890e+00   1.1717391e+00  -3.1287021e+06
   1.2794265e-09  -7.8644724e-04   1.2458450e+00   1.1718884e+00  -3.1163306e+06
   1.2804268e-09  -7.8333603e-04   1.2457015e+00   1.1720372e+00  -3.1040079e+06
   1.2814271e-09  -7.8023713e-04   1.2455586e+00   1.1721854e+00  -3.0917339e+06
   1.2824275e-09  -7.7715049e-04   1.2454163e+00   1.1723330e+00  -3.0795084e+06
   1.2834278e-09  -7.7407605e-04   1.2452746e+00   1.1724801e+00  -3.0673312e+06
   1.2844281e-09  -7.7101376e-04   1.2451334e+00   1.1726266e+00  -3.0552021e+06
   1.2854285e-09  -7.6796359e-04   1.2449928e+00   1.1727725e+00  -3.0431210e+06
   1.2864288e-09  -7.6492548e-04   1.2448528e+00   1.1729178e+00  -3.0310876e+06
   1.2874291e-09  -7.6189938e-04   1.2447133e+00   1.1730626e+00  -3.0191017e+06
   1.2884295e-09  -7.5888524e-04   1.2445744e+00   1.1732068e+00  -3.0071632e+06
   1.2894298e-09  -7.5588303e-04   1.2444360e+00   1.1733505e+00  -2.9952718e+06
   1.2904301e-09  -7.5289269e-04   1.2442983e+00   1.1734936e+00  -2.9834275e+06
   1.2914305e-09  -7.4991417e-04   1.2441610e+00   1.1736362e+00  -2.9716299e+06
   1.2924308e-09  -7.4694743e-04   1.2440243e+00   1.1737782e+00  -2.9598790e+06
   1.2934311e-09  -7.4399242e-04   1.2438882e+00   1.1739196e+00  -2.9481745e+06
   1.2944315e-09  -7.4104910e-04   1.2437526e+00   1.1740605e+00  -2.9365162e+06
   1.2954318e-09  -7.3811742e-04   1.2436176e+00   1.1742009e+00  -2.9249040e+06
   1.2964321e-09  -7.3519733e-04   1.2434831e+00   1.1743407e+00  -2.9133377e+06
   1.2974325e-09  -7.3228878e-04   1.2433491e+00   1.1744800e+00  -2.9018171e+06
   1.2984328e-09  -7.2939174e-04   1.2432157e+00   1.1746187e+00  -2.8903420e+06
   1.2994331e-09  -7.2650616e-04   1.2430828e+00   1.1747569e+00  -2.8789122e+06
   1.3004335e-09  -7.2363198e-04   1.2429504e+00   1.1748946e+00  -2.8675277e+06
   1.3014338e-09  -7.2076917e-04   1.2428186e+00   1.1750317e+00  -2.8561881e+06
   1.3024341e-09  -7.1791769e-04   1.2426873e+00   1.1751683e+00  -2.8448933e+06
   1.3034345e-09  -7.1507747e-04   1.2425566e+00   1.1753044e+00  -2.8336431e+06
   1.3044348e-09  -7.1224850e-04   1.2424263e+00   1.1754399e+00  -2.8224374e+06
   1.3054351e-09  -7.0943070e-04   1.2422966e+00   1.1755750e+00  -2.8112760e+06
   1.3064355e-09  -7.0662405e-04   1.2421674e+00   1.1757095e+00  -2.8001587e+06
   1.3074358e-09  -7.0382850e-04   1.2420388e+00   1.1758434e+00  -2.7890853e+06
   1.3084361e-09  -7.0104401e-04   1.2419106e+00   1.1759769e+00  -2.7780557e+06
   1.3094365e-09  -6.9827053e-04   1.2417830e+00   1.1761098e+00  -2.7670696e+06
   1.3104368e-09  -6.9550801e-04   1.2416559e+00   1.1762422e+00  -2.7561270e+06
   1.3114371e-09  -6.9275642e-04   1.2415292e+00   1.1763742e+00  -2.7452276e+06
   1.3124375e-09  -6.9001571e-04   1.2414031e+00   1.1765055e+00  -2.7343713e+06
   1.3134378e-09  -6.8728584e-04   1.2412775e+00   1.1766364e+00  -2.7235579e+06
   1.3144381e-09  -6.8456676e-04   1.2411524e+00   1.1767668e+00  -2.7127872e+06
   1.3154385e-09  -6.8185844e-04   1.2410279e+00   1.1768967e+00  -2.7020591e+06
   1.3164388e-09  -6.7916083e-04   1.2409038e+00   1.1770261e+00  -2.6913734e+06
   1.3174391e-09  -6.7647388e-04   1.2407802e+00   1.1771549e+00  -2.6807299e+06
   1.3184395e-09  -6.7379757e-04   1.2406571e+00   1.1772833e+00  -2.6701284e+06
   1.3194398e-09  -6.7113183e-04   1.2405345e+00   1.1774112e+00  -2.6595689e+06
   1.3204401e-09  -6.6847664e-04   1.2404124e+00   1.1775385e+00  -2.6490511e+06
   1.3214405e-09  -6.6583195e-04   1.2402907e+00   1.1776654e+00  -2.6385748e+06
   1.3224408e-09  -6.6319772e-04   1.2401696e+00   1.1777918e+00  -2.6281400e+06
   1.3234411e-09  -6.6057390e-04   1.2400490e+00   1.1779177e+00  -2.6177464e+06
   1.3244415e-09  -6.5796047e-04   1.2399288e+00   1.1780431e+00  -2.6073938e+06
   1.3254418e-09  -6.5535736e-04   1.2398091e+00   1.1781680e+00  -2.5970822e+06
   1.3264421e-09  -6.5276456e-04   1.2396899e+00   1.1782925e+00  -2.5868113e+06
   1.3274425e-09  -6.5018200e-04   1.2395712e+00   1.1784164e+00  -2.5765811e+06
   1.3284428e-09  -6.4760966e-04   1.2394530e+00   1.1785399e+00  -2.5663912e+06
   1.3294431e-09  -6.4504750e-04   1.2393352e+00   1.1786629e+00  -2.5562416e+06
   1.3304435e-09  -6.4249546e-04   1.2392179e+00   1.1787854e+00  -2.5461322e+06
   1.3314438e-09  -6.3995352e-04   1.2391011e+00   1.1789075e+00  -2.5360626e+06
   1.3324441e-09  -6.3742163e-04   1.2389847e+00   1.1790290e+00  -2.5260329e+06
   1.3334445e-09  -6.3489976e-04   1.2388688e+00   1.1791501e+00  -2.5160428e+06
   1.3344448e-09  -6.3238785e-04   1.2387534e+00   1.1792707e+00  -2.5060922e+06
   1.3354451e-09  -6.2988589e-04   1.2386385e+00   1.1793909e+00  -2.4961810e+06
   1.3364455e-09  -6.2739382e-04   1.2385240e+00   1.1795106e+00  -2.4863089e+06
   1.3374458e-09  -6.2491160e-04   1.2384099e+00   1.1796298e+00  -2.4764758e+06
   1.3384461e-09  -6.2243920e-04   1.2382963e+00   1.1797486e+00  -2.4666816e+06
   1.3394465e-09  -6.1997658e-04   1.2381832e+00   1.1798669e+00  -2.4569261e+06
   1.3404468e-09  -6.1752370e-04   1.2380706e+00   1.1799847e+00  -2.4472091e+06
   1.3414471e-09  -6.1508051e-04   1.2379583e+00   1.1801021e+00  -2.4375305e+06
   1.3424475e-09  -6.1264700e-04   1.2378466e+00   1.1802190e+00  -2.4278902e+06
   1.3434478e-09  -6.1022310e-04   1.2377352e+00   1.1803355e+00  -2.4182880e+06
   1.3444481e-09  -6.0780879e-04   1.2376244e+00   1.1804515e+00  -2.4087238e+06
   1.3454485e-09  -6.0540404e-04   1.2375139e+00   1.1805671e+00  -2.3991973e+06
   1.3464488e-09  -6.0300879e-04   1.2374040e+00   1.1806822e+00  -2.3897086e+06
   1.3474491e-09  -6.0062301e-04   1.2372944e+00   1.1807969e+00  -2.3802573e+06
   1.3484495e-09  -5.9824667e-04   1.2371853e+00   1.1809111e+00  -2.3708433e+06
   1.3494498e-09  -5.9587973e-04   1.2370766e+00   1.1810249e+00  -2.3614666e+06
   1.3504502e-09  -5.9352215e-04   1.2369684e+00   1.1811382e+00  -2.3521269e+06
   1.3514505e-09  -5.9117390e-04   1.2368606e+00   1.1812511e+00  -2.3428242e+06
   1.3524508e-09  -5.8883493e-04   1.2367532e+00   1.1813635e+00  -2.3335582e+06
   1.3534512e-09  -5.8650521e-04   1.2366463e+00   1.1814756e+00  -2.3243288e+06
   1.3544515e-09  -5.8418471e-04   1.2365398e+00   1.1815872e+00  -2.3151359e+06
   1.3554518e-09  -5.8187338e-04   1.2364337e+00   1.1816983e+00  -2.3059794e+06
   1.3564522e-09  -5.7957120e-04   1.2363281e+00   1.1818090e+00  -2.2968590e+06
   1.3574525e-09  -5.7727812e-04   1.2362228e+00   1.1819193e+00  -2.2877747e+06
   1.3584528e-09  -5.7499411e-04   1.2361180e+00   1.1820292e+00  -2.2787263e+06
   1.3594532e-09  -5.7271914e-04   1.2360136e+00   1.1821386e+00  -2.2697137e+06
   1.3604535e-09  -5.7045316e-04   1.2359096e+00   1.1822476e+00  -2.2607367e+06
   1.3614538e-09  -5.6819615e-04   1.2358061e+00   1.1823562e+00  -2.2517951e+06
   1.3624542e-09  -5.6594806e-04   1.2357030e+00   1.1824643e+00  -2.2428890e+06
   1.3634545e-09  -5.6370886e-04   1.2356002e+00   1.1825721e+00  -2.2340180e+06
   1.3644548e-09  -5.6147852e-04   1.2354979e+00   1.1826794e+00  -2.2251821e+06
   1.3654552e-09  -5.5925700e-04   1.2353960e+00   1.1827863e+00  -2.2163811e+06
   1.3664555e-09  -5.5704427e-04   1.2352945e+00   1.1828928e+00  -2.2076149e+06
   1.3674558e-09  -5.5484029e-04   1.2351934e+00   1.1829988e+00  -2.1988833e+06
   1.3684562e-09  -5.5264502e-04   1.2350927e+00   1.1831045e+00  -2.1901863e+06
   1.3694565e-09  -5.5045844e-04   1.2349924e+00   1.1832097e+00  -2.1815236e+06
   1.3704568e-09  -5.4828051e-04   1.2348926e+00   1.1833146e+00  -2.1728952e+06
   1.3714572e-09  -5.4611119e-04   1.2347931e+00   1.1834190e+00  -2.1643009e+06
   1.3724575e-09  -5.4395045e-04   1.2346940e+00   1.1835230e+00  -2.1557405e+06
   1.3734578e-09  -5.4179826e-04   1.2345953e+00   1.1836266e+00  -2.1472140e+06
   1.3744582e-09  -5.3965458e-04   1.2344970e+00   1.1837298e+00  -2.1387212e+06
   1.3754585e-09  -5.3751938e-04   1.2343991e+00   1.1838327e+00  -2.1302620e+06
   1.3764588e-09  -5.3539263e-04   1.2343016e+00   1.1839351e+00  -2.1218362e+06
   1.3774592e-09  -5.3327428e-04   1.2342045e+00   1.1840371e+00  -2.1134437e+06
   1.3784595e-09  -5.3116432e-04   1.2341078e+00   1.1841387e+00  -2.1050844e+06
   1.3794598e-09  -5.2906270e-04   1.2340115e+00   1.1842399e+00  -2.0967581e+06
   1.3804602e-09  -5.2696939e-04   1.2339155e+00   1.1843407e+00  -2.0884648e+06
   1.3814605e-09  -5.2488437e-04   1.2338199e+00   1.1844411e+00  -2.0802042e+06
   1.3824608e-09  -5.2280759e-04   1.2337248e+00   1.1845412e+00  -2.0719763e+06
   1.3834612e-09  -5.2073902e-04   1.2336299e+00   1.1846408e+00  -2.0637809e+06
   1.3844615e-09  -5.1867864e-04   1.2335355e+00   1.1847401e+00  -2.0556179e+06
   1.3854618e-09  -5.1662640e-04   1.2334415e+00   1.1848390e+00  -2.0474872e+06
   1.3864622e-09  -5.1458229e-04   1.2333478e+00   1.1849374e+00  -2.0393886e+06
   1.3874625e-09  -5.1254626e-04   1.2332545e+00   1.1850355e+00  -2.0313220e+06
   1.3884628e-09  -5.1051828e-04   1.2331616e+00   1.1851333e+00  -2.0232873e+06
   1.3894632e-09  -5.0849832e-04   1.2330690e+00   1.1852306e+00  -2.0152844e+06
   1.3904635e-09  -5.0648635e-04   1.2329769e+00   1.1853276e+00  -2.0073131e+06
   1.3914638e-09  -5.0448235e-04   1.2328851e+00   1.1854241e+00  -1.9993734e+06
   1.3924642e-09  -5.0248626e-04   1.2327936e+00   1.1855204e+00  -1.9914650e+06
   1.3934645e-09  -5.0049808e-04   1.2327025e+00   1.1856162e+00  -1.9835879e+06
   1.3944648e-09  -4.9851776e-04   1.2326118e+00   1.1857116e+00  -1.9757419e+06
   1.3954652e-09  -4.9654527e-04   1.2325215e+00   1.1858067e+00  -1.9679269e+06
   1.3964655e-09  -4.9458058e-04   1.2324315e+00   1.1859014e+00  -1.9601428e+06
   1.3974658e-09  -4.9262366e-04   1.2323419e+00   1.1859958e+00  -1.9523895e+06
   1.3984662e-09  -4.9067449e-04   1.2322526e+00   1.1860898e+00  -1.9446669e+06
   1.3994665e-09  -4.8873302e-04   1.2321637e+00   1.1861834e+00  -1.9369748e+06
   1.4004668e-09  -4.8679924e-04   1.2320751e+00   1.1862766e+00  -1.9293131e+06
   1.4014672e-09  -4.8487310e-04   1.2319869e+00   1.1863695e+00  -1.9216817e+06
   1.4024675e-09  -4.8295458e-04   1.2318991e+00   1.1864620e+00  -1.9140804e+06
   1.4034678e-09  -4.8104365e-04   1.2318116e+00   1.1865542e+00  -1.9065092e+06
   1.4044682e-09  -4.7914028e-04   1.2317244e+00   1.1866460e+00  -1.8989679e+06
   1.4054685e-09  -4.7724444e-04   1.2316376e+00   1.1867374e+00  -1.8914565e+06
   1.4064688e-09  -4.7535610e-04   1.2315512e+00   1.1868285e+00  -1.8839747e+06
   1.4074692e-09  -4.7347522e-04   1.2314651e+00   1.1869192e+00  -1.8765226e+06
   1.4084695e-09  -4.7160179e-04   1.2313793e+00   1.1870096e+00  -1.8690998e+06
   1.4094698e-09  -4.6973577e-04   1.2312939e+00   1.1870996e+00  -1.8617065e+06
   1.4104702e-09  -4.6787713e-04   1.2312088e+00   1.1871893e+00  -1.8543423e+06
   1.4114705e-09  -4.6602584e-04   1.2311241e+00   1.1872786e+00  -1.8470073e+06
   1.4124708e-09  -4.6418187e-04   1.2310397e+00   1.1873675e+00  -1.8397013e+06
   1.4134712e-09  -4.6234520e-04   1.2309556e+00   1.1874562e+00  -1.8324241e+06
   1.4144715e-09  -4.6051579e-04   1.2308719e+00   1.1875444e+00  -1.8251757e+06
   1.4154718e-09  -4.5869362e-04   1.2307885e+00   1.1876324e+00  -1.8179560e+06
   1.4164722e-09  -4.5687866e-04   1.2307054e+00   1.1877200e+00  -1.8107649e+06
   1.4174725e-09  -4.5507087e-04   1.2306227e+00   1.1878072e+00  -1.8036021e+06
   1.4184728e-09  -4.5327024e-04   1.2305403e+00   1.1878941e+00  -1.7964677e+06
   1.4194732e-09  -4.5147673e-04   1.2304583e+00   1.1879807e+00  -1.7893615e+06
   1.4204735e-09  -4.4969031e-04   1.2303765e+00   1.1880669e+00  -1.7822834e+06
   1.4214738e-09  -4.4791097e-04   1.2302951e+00   1.1881528e+00  -1.7752332e+06
   1.4224742e-09  -4.4613865e-04   1.2302140e+00   1.1882383e+00  -1.7682110e+06
   1.4234745e-09  -4.4437336e-04   1.2301333e+00   1.1883236e+00  -1.7612165e+06
   1.4244748e-09  -4.4261504e-04   1.2300528e+00   1.1884085e+00  -1.7542496e+06
   1.4254752e-09  -4.4086368e-04   1.2299727e+00   1.1884930e+00  -1.7473103e+06
   1.4264755e-09  -4.3911924e-04   1.2298929e+00   1.1885772e+00  -1.7403984e+06
   1.4274758e-09  -4.3738171e-04   1.2298134e+00   1.1886611e+00  -1.7335139e+06
   1.4284762e-09  -4.3565105e-04   1.2297343e+00   1.1887447e+00  -1.7266566e+06
   1.4294765e-09  -4.3392724e-04   1.2296554e+00   1.1888279e+00  -1.7198264e+06
   1.4304768e-09  -4.3221024e-04   1.2295769e+00   1.1889109e+00  -1.7130232e+06
   1.4314772e-09  -4.3050004e-04   1.2294987e+00   1.1889935e+00  -1.7062469e+06
   1.4324775e-09  -4.2879660e-04   1.2294208e+00   1.1890757e+00  -1.6994974e+06
   1.4334778e-09  -4.2709990e-04   1.2293432e+00   1.1891577e+00  -1.6927745e+06
   1.4344782e-09  -4.2540991e-04   1.2292659e+00   1.1892393e+00  -1.6860783e+06
   1.4354785e-09  -4.2372661e-04   1.2291890e+00   1.1893206e+00  -1.6794085e+06
   1.4364788e-09  -4.2204997e-04   1.2291123e+00   1.1894016e+00  -1.6727651e+06
   1.4374792e-09  -4.2037996e-04   1.2290359e+00   1.1894823e+00  -1.6661480e+06
   1.4384795e-09  -4.1871655e-04   1.2289599e+00   1.1895626e+00  -1.6595570e+06
   1.4394798e-09  -4.1705973e-04   1.2288841e+00   1.1896427e+00  -1.6529921e+06
   1.4404802e-09  -4.1540946e-04   1.2288087e+00   1.1897224e+00  -1.6464532e+06
   1.4414805e-09  -4.1376571e-04   1.2287335e+00   1.1898018e+00  -1.6399401e+06
   1.4424808e-09  -4.1212847e-04   1.2286587e+00   1.1898809e+00  -1.6334528e+06
   1.4434812e-09  -4.1049771e-04   1.2285842e+00   1.1899597e+00  -1.6269911e+06
   1.4444815e-09  -4.0887340e-04   1.2285099e+00   1.1900382e+00  -1.6205549e+06
   1.4454818e-09  -4.0725551e-04   1.2284360e+00   1.1901164e+00  -1.6141442e+06
   1.4464822e-09  -4.0564403e-04   1.2283623e+00   1.1901943e+00  -1.6077589e+06
   1.4474825e-09  -4.0403891e-04   1.2282889e+00   1.1902719e+00  -1.6013988e+06
   1.4484828e-09  -4.0244015e-04   1.2282159e+00   1.1903492e+00  -1.5950639e+06
   1.4494832e-09  -4.0084771e-04   1.2281431e+00   1.1904261e+00  -1.5887540e+06
   1.4504835e-09  -3.9926158e-04   1.2280706e+00   1.1905028e+00  -1.5824690e+06
   1.4514838e-09  -3.9768171e-04   1.2279984e+00   1.1905792e+00  -1.5762089e+06
   1.4524842e-09  -3.9610810e-04   1.2279265e+00   1.1906552e+00  -1.5699736e+06
   1.4534845e-09  -3.9454071e-04   1.2278549e+00   1.1907310e+00  -1.5637629e+06
   1.4544848e-09  -3.9297952e-04   1.2277835e+00   1.1908065e+00  -1.5575767e+06
   1.4554852e-09  -3.9142451e-04   1.2277125e+00   1.1908817e+00  -1.5514151e+06
   1.4564855e-09  -3.8987565e-04   1.2276417e+00   1.1909565e+00  -1.5452778e+06
   1.4574858e-09  -3.8833292e-04   1.2275712e+00   1.1910311e+00  -1.5391647e+06
   1.4584862e-09  -3.8679628e-04   1.2275010e+00   1.1911054e+00  -1.5330759e+06
   1.4594865e-09  -3.8526573e-04   1.2274311e+00   1.1911794e+00  -1.5270111e+06
   1.4604868e-09  -3.8374124e-04   1.2273615e+00   1.1912532e+00  -1.5209703e+06
   1.4614872e-09  -3.8222277e-04   1.2272921e+00   1.1913266e+00  -1.5149533e+06
   1.4624875e-09  -3.8071031e-04   1.2272230e+00   1.1913997e+00  -1.5089602e+06
