   0.0000000e+00  -1.4392903e-01   6.2519385e+00   8.5502602e-05  -5.1865127e+08
   2.6675559e-12  -1.4255063e-01   6.2443060e+00   9.5067385e-05  -5.1486482e+08
   5.3351117e-12  -1.4118232e-01   6.2363332e+00   1.0561314e-04  -5.1107646e+08
   8.0026676e-12  -1.3982413e-01   6.2280095e+00   1.1722968e-04  -5.0728628e+08
   1.0670223e-11  -1.3847605e-01   6.2193244e+00   1.3001379e-04  -5.0349439e+08
   1.3337779e-11  -1.3713809e-01   6.2102675e+00   1.4406964e-04  -4.9970089e+08
   1.6005335e-11  -1.3581025e-01   6.2008282e+00   1.5950920e-04  -4.9590593e+08
   1.8672891e-11  -1.3449254e-01   6.1909960e+00   1.7645269e-04  -4.9210962e+08
   2.1340447e-11  -1.3318496e-01   6.1807608e+00   1.9502896e-04  -4.8831214e+08
   2.4008003e-11  -1.3188750e-01   6.1701122e+00   2.1537597e-04  -4.8451364e+08
   2.6675559e-11  -1.3060018e-01   6.1590401e+00   2.3764122e-04  -4.8071430e+08
   2.9343114e-11  -1.2932300e-01   6.1475346e+00   2.6198216e-04  -4.7691434e+08
   3.2010670e-11  -1.2805595e-01   6.1355859e+00   2.8856669e-04  -4.7311395e+08
   3.4678226e-11  -1.2679905e-01   6.1231846e+00   3.1757353e-04  -4.6931336e+08
   3.7345782e-11  -1.2555228e-01   6.1103214e+00   3.4919272e-04  -4.6551283e+08
   4.0013338e-11  -1.2431564e-01   6.0969873e+00   3.8362597e-04  -4.6171261e+08
   4.2680894e-11  -1.2308915e-01   6.0831736e+00   4.2108711e-04  -4.5791298e+08
   4.5348449e-11  -1.2187279e-01   6.0688722e+00   4.6180247e-04  -4.5411423e+08
   4.8016005e-11  -1.2066656e-01   6.0540750e+00   5.0601128e-04  -4.5031669e+08
   5.0683561e-11  -1.1947046e-01   6.0387747e+00   5.5396598e-04  -4.4652068e+08
   5.3351117e-11  -1.1828448e-01   6.0229641e+00   6.0593257e-04  -4.4272654e+08
   5.6018673e-11  -1.1710862e-01   6.0066368e+00   6.6219091e-04  -4.3893465e+08
   5.8686229e-11  -1.1594287e-01   5.9897867e+00   7.2303500e-04  -4.3514538e+08
   6.1353785e-11  -1.1478722e-01   5.9724084e+00   7.8877316e-04  -4.3135914e+08
   6.4021340e-11  -1.1364167e-01   5.9544970e+00   8.5972828e-04  -4.2757635e+08
   6.6688896e-11  -1.1250621e-01   5.9360482e+00   9.3623793e-04  -4.2379745e+08
   6.9356452e-11  -1.1138082e-01   5.9170583e+00   1.0186544e-03  -4.2002288e+08
   7.2024008e-11  -1.1026549e-01   5.8975244e+00   1.1073450e-03  -4.1625312e+08
   7.4691564e-11  -1.0916021e-01   5.8774442e+00   1.2026917e-03  -4.1248865e+08
   7.7359120e-11  -1.0806496e-01   5.8568161e+00   1.3050913e-03  -4.0872998e+08
   8.0026676e-11  -1.0697973e-01   5.8356392e+00   1.4149553e-03  -4.0497762e+08
   8.2694231e-11  -1.0590450e-01   5.8139135e+00   1.5327096e-03  -4.0123211e+08
   8.5361787e-11  -1.0483926e-01   5.7916396e+00   1.6587944e-03  -3.9749400e+08
   8.8029343e-11  -1.0378397e-01   5.7688189e+00   1.7936637e-03  -3.9376385e+08
   9.0696899e-11  -1.0273862e-01   5.7454537e+00   1.9377854e-03  -3.9004222e+08
   9.3364455e-11  -1.0170318e-01   5.7215469e+00   2.0916402e-03  -3.8632971e+08
   9.6032011e-11  -1.0067764e-01   5.6971024e+00   2.2557215e-03  -3.8262692e+08
   9.8699567e-11  -9.9661960e-02   5.6721249e+00   2.4305348e-03  -3.7893445e+08
   1.0136712e-10  -9.8656114e-02   5.6466197e+00   2.6165970e-03  -3.7525292e+08
   1.0403468e-10  -9.7660073e-02   5.6205931e+00   2.8144357e-03  -3.7158294e+08
   1.0670223e-10  -9.6673805e-02   5.5940520e+00   3.0245885e-03  -3.6792517e+08
   1.0936979e-10  -9.5697276e-02   5.5670044e+00   3.2476021e-03  -3.6428022e+08
   1.1203735e-10  -9.4730453e-02   5.5394587e+00   3.4840315e-03  -3.6064875e+08
   1.1470490e-10  -9.3773298e-02   5.5114243e+00   3.7344388e-03  -3.5703139e+08
   1.1737246e-10  -9.2825772e-02   5.4829113e+00   3.9993928e-03  -3.5342880e+08
   1.2004001e-10  -9.1887835e-02   5.4539304e+00   4.2794672e-03  -3.4984162e+08
   1.2270757e-10  -9.0959446e-02   5.4244931e+00   4.5752401e-03  -3.4627050e+08
   1.2537513e-10  -9.0040560e-02   5.3946116e+00   4.8872927e-03  -3.4271609e+08
   1.2804268e-10  -8.9131133e-02   5.3642985e+00   5.2162082e-03  -3.3917903e+08
   1.3071024e-10  -8.8231116e-02   5.3335672e+00   5.5625704e-03  -3.3565995e+08
   1.3337779e-10  -8.7340462e-02   5.3024318e+00   5.9269628e-03  -3.3215949e+08
   1.3604535e-10  -8.6459120e-02   5.2709066e+00   6.3099672e-03  -3.2867827e+08
   1.3871290e-10  -8.5587038e-02   5.2390066e+00   6.7121626e-03  -3.2521691e+08
   1.4138046e-10  -8.4724161e-02   5.2067472e+00   7.1341239e-03  -3.2177601e+08
   1.4404802e-10  -8.3870436e-02   5.1741443e+00   7.5764207e-03  -3.1835617e+08
   1.4671557e-10  -8.3025803e-02   5.1412141e+00   8.0396160e-03  -3.1495798e+08
   1.4938313e-10  -8.2190207e-02   5.1079731e+00   8.5242651e-03  -3.1158200e+08
   1.5205068e-10  -8.1363585e-02   5.0744382e+00   9.0309144e-03  -3.0822879e+08
   1.5471824e-10  -8.0545877e-02   5.0406265e+00   9.5601004e-03  -3.0489889e+08
   1.5738580e-10  -7.9737020e-02   5.0065553e+00   1.0112348e-02  -3.0159282e+08
   1.6005335e-10  -7.8936950e-02   4.9722420e+00   1.0688171e-02  -2.9831109e+08
   1.6272091e-10  -7.8145600e-02   4.9377043e+00   1.1288067e-02  -2.9505419e+08
   1.6538846e-10  -7.7362905e-02   4.9029599e+00   1.1912524e-02  -2.9182258e+08
   1.6805602e-10  -7.6588796e-02   4.8680264e+00   1.2562010e-02  -2.8861671e+08
   1.7072357e-10  -7.5823205e-02   4.8329216e+00   1.3236979e-02  -2.8543702e+08
   1.7339113e-10  -7.5066059e-02   4.7976632e+00   1.3937869e-02  -2.8228391e+08
   1.7605869e-10  -7.4317289e-02   4.7622688e+00   1.4665098e-02  -2.7915775e+08
   1.7872624e-10  -7.3576821e-02   4.7267558e+00   1.5419067e-02  -2.7605893e+08
   1.8139380e-10  -7.2844583e-02   4.6911417e+00   1.6200158e-02  -2.7298777e+08
   1.8406135e-10  -7.2120500e-02   4.6554437e+00   1.7008732e-02  -2.6994459e+08
   1.8672891e-10  -7.1404497e-02   4.6196786e+00   1.7845130e-02  -2.6692970e+08
   1.8939647e-10  -7.0696498e-02   4.5838632e+00   1.8709673e-02  -2.6394335e+08
   1.9206402e-10  -6.9996427e-02   4.5480139e+00   1.9602660e-02  -2.6098580e+08
   1.9473158e-10  -6.9304206e-02   4.5121470e+00   2.0524370e-02  -2.5805727e+08
   1.9739913e-10  -6.8619758e-02   4.4762782e+00   2.1475059e-02  -2.5515797e+08
   2.0006669e-10  -6.7943005e-02   4.4404231e+00   2.2454961e-02  -2.5228806e+08
   2.0273424e-10  -6.7273868e-02   4.4045967e+00   2.3464288e-02  -2.4944772e+08
   2.0540180e-10  -6.6612268e-02   4.3688139e+00   2.4503230e-02  -2.4663706e+08
   2.0806936e-10  -6.5958125e-02   4.3330890e+00   2.5571956e-02  -2.4385620e+08
   2.1073691e-10  -6.5311360e-02   4.2974359e+00   2.6670610e-02  -2.4110522e+08
   2.1340447e-10  -6.4671893e-02   4.2618681e+00   2.7799317e-02  -2.3838420e+08
   2.1607202e-10  -6.4039645e-02   4.2263988e+00   2.8958178e-02  -2.3569317e+08
   2.1873958e-10  -6.3414534e-02   4.1910406e+00   3.0147274e-02  -2.3303216e+08
   2.2140714e-10  -6.2796481e-02   4.1558057e+00   3.1366662e-02  -2.3040118e+08
   2.2407469e-10  -6.2185406e-02   4.1207058e+00   3.2616381e-02  -2.2780021e+08
   2.2674225e-10  -6.1581229e-02   4.0857522e+00   3.3896446e-02  -2.2522921e+08
   2.2940980e-10  -6.0983869e-02   4.0509557e+00   3.5206853e-02  -2.2268813e+08
   2.3207736e-10  -6.0393248e-02   4.0163267e+00   3.6547578e-02  -2.2017690e+08
   2.3474491e-10  -5.9809285e-02   3.9818751e+00   3.7918577e-02  -2.1769542e+08
   2.3741247e-10  -5.9231902e-02   3.9476102e+00   3.9319787e-02  -2.1524361e+08
   2.4008003e-10  -5.8661018e-02   3.9135411e+00   4.0751125e-02  -2.1282132e+08
   2.4274758e-10  -5.8096557e-02   3.8796762e+00   4.2212492e-02  -2.1042844e+08
   2.4541514e-10  -5.7538439e-02   3.8460236e+00   4.3703768e-02  -2.0806480e+08
   2.4808269e-10  -5.6986586e-02   3.8125910e+00   4.5224818e-02  -2.0573025e+08
   2.5075025e-10  -5.6440922e-02   3.7793855e+00   4.6775491e-02  -2.0342460e+08
   2.5341781e-10  -5.5901369e-02   3.7464139e+00   4.8355617e-02  -2.0114767e+08
   2.5608536e-10  -5.5367851e-02   3.7136824e+00   4.9965014e-02  -1.9889926e+08
   2.5875292e-10  -5.4840292e-02   3.6811971e+00   5.1603480e-02  -1.9667916e+08
   2.6142047e-10  -5.4318618e-02   3.6489633e+00   5.3270804e-02  -1.9448713e+08
   2.6408803e-10  -5.3802752e-02   3.6169863e+00   5.4966758e-02  -1.9232296e+08
   2.6675559e-10  -5.3292622e-02   3.5852708e+00   5.6691102e-02  -1.9018640e+08
   2.6942314e-10  -5.2788154e-02   3.5538210e+00   5.8443581e-02  -1.8807720e+08
   2.7209070e-10  -5.2289276e-02   3.5226410e+00   6.0223931e-02  -1.8599511e+08
   2.7475825e-10  -5.1795914e-02   3.4917345e+00   6.2031875e-02  -1.8393986e+08
   2.7742581e-10  -5.1307999e-02   3.4611047e+00   6.3867124e-02  -1.8191118e+08
   2.8009336e-10  -5.0825460e-02   3.4307546e+00   6.5729381e-02  -1.7990881e+08
   2.8276092e-10  -5.0348227e-02   3.4006869e+00   6.7618338e-02  -1.7793245e+08
   2.8542848e-10  -4.9876230e-02   3.3709039e+00   6.9533675e-02  -1.7598183e+08
   2.8809603e-10  -4.9409402e-02   3.3414076e+00   7.1475068e-02  -1.7405666e+08
   2.9076359e-10  -4.8947675e-02   3.3121998e+00   7.3442182e-02  -1.7215664e+08
   2.9343114e-10  -4.8490982e-02   3.2832821e+00   7.5434675e-02  -1.7028147e+08
   2.9609870e-10  -4.8039258e-02   3.2546556e+00   7.7452196e-02  -1.6843086e+08
   2.9876626e-10  -4.7592437e-02   3.2263213e+00   7.9494391e-02  -1.6660452e+08
   3.0143381e-10  -4.7150455e-02   3.1982800e+00   8.1560895e-02  -1.6480213e+08
   3.0410137e-10  -4.6713249e-02   3.1705321e+00   8.3651342e-02  -1.6302339e+08
   3.0676892e-10  -4.6280755e-02   3.1430781e+00   8.5765356e-02  -1.6126800e+08
   3.0943648e-10  -4.5852913e-02   3.1159179e+00   8.7902561e-02  -1.5953565e+08
   3.1210403e-10  -4.5429660e-02   3.0890514e+00   9.0062571e-02  -1.5782604e+08
   3.1477159e-10  -4.5010938e-02   3.0624784e+00   9.2245002e-02  -1.5613887e+08
   3.1743915e-10  -4.4596685e-02   3.0361984e+00   9.4449461e-02  -1.5447382e+08
   3.2010670e-10  -4.4186844e-02   3.0102107e+00   9.6675555e-02  -1.5283059e+08
   3.2277426e-10  -4.3781357e-02   2.9845146e+00   9.8922886e-02  -1.5120889e+08
   3.2544181e-10  -4.3380167e-02   2.9591090e+00   1.0119106e-01  -1.4960840e+08
   3.2810937e-10  -4.2983218e-02   2.9339929e+00   1.0347966e-01  -1.4802883e+08
   3.3077693e-10  -4.2590454e-02   2.9091651e+00   1.0578830e-01  -1.4646988e+08
   3.3344448e-10  -4.2201821e-02   2.8846241e+00   1.0811657e-01  -1.4493124e+08
   3.3611204e-10  -4.1817264e-02   2.8603686e+00   1.1046405e-01  -1.4341264e+08
   3.3877959e-10  -4.1436732e-02   2.8363969e+00   1.1283036e-01  -1.4191376e+08
   3.4144715e-10  -4.1060171e-02   2.8127074e+00   1.1521506e-01  -1.4043433e+08
   3.4411470e-10  -4.0687530e-02   2.7892983e+00   1.1761777e-01  -1.3897406e+08
   3.4678226e-10  -4.0318759e-02   2.7661676e+00   1.2003806e-01  -1.3753265e+08
   3.4944982e-10  -3.9953807e-02   2.7433135e+00   1.2247553e-01  -1.3610983e+08
   3.5211737e-10  -3.9592626e-02   2.7207339e+00   1.2492978e-01  -1.3470531e+08
   3.5478493e-10  -3.9235167e-02   2.6984267e+00   1.2740039e-01  -1.3331883e+08
   3.5745248e-10  -3.8881382e-02   2.6763897e+00   1.2988695e-01  -1.3195010e+08
   3.6012004e-10  -3.8531224e-02   2.6546207e+00   1.3238907e-01  -1.3059886e+08
   3.6278760e-10  -3.8184647e-02   2.6331174e+00   1.3490634e-01  -1.2926484e+08
   3.6545515e-10  -3.7841605e-02   2.6118775e+00   1.3743834e-01  -1.2794777e+08
   3.6812271e-10  -3.7502054e-02   2.5908986e+00   1.3998469e-01  -1.2664740e+08
   3.7079026e-10  -3.7165949e-02   2.5701783e+00   1.4254498e-01  -1.2536347e+08
   3.7345782e-10  -3.6833247e-02   2.5497140e+00   1.4511882e-01  -1.2409572e+08
   3.7612538e-10  -3.6503904e-02   2.5295034e+00   1.4770580e-01  -1.2284391e+08
   3.7879293e-10  -3.6177880e-02   2.5095439e+00   1.5030553e-01  -1.2160778e+08
   3.8146049e-10  -3.5855132e-02   2.4898330e+00   1.5291762e-01  -1.2038710e+08
   3.8412804e-10  -3.5535619e-02   2.4703680e+00   1.5554168e-01  -1.1918163e+08
   3.8679560e-10  -3.5219302e-02   2.4511464e+00   1.5817733e-01  -1.1799113e+08
   3.8946315e-10  -3.4906140e-02   2.4321656e+00   1.6082418e-01  -1.1681537e+08
   3.9213071e-10  -3.4596095e-02   2.4134229e+00   1.6348184e-01  -1.1565411e+08
   3.9479827e-10  -3.4289128e-02   2.3949158e+00   1.6614994e-01  -1.1450714e+08
   3.9746582e-10  -3.3985201e-02   2.3766417e+00   1.6882811e-01  -1.1337423e+08
   4.0013338e-10  -3.3684277e-02   2.3585978e+00   1.7151596e-01  -1.1225517e+08
   4.0280093e-10  -3.3386320e-02   2.3407816e+00   1.7421314e-01  -1.1114974e+08
   4.0546849e-10  -3.3091294e-02   2.3231903e+00   1.7691927e-01  -1.1005772e+08
   4.0813605e-10  -3.2799162e-02   2.3058214e+00   1.7963399e-01  -1.0897892e+08
   4.1080360e-10  -3.2509891e-02   2.2886723e+00   1.8235694e-01  -1.0791313e+08
   4.1347116e-10  -3.2223445e-02   2.2717402e+00   1.8508776e-01  -1.0686014e+08
   4.1613871e-10  -3.1939791e-02   2.2550227e+00   1.8782610e-01  -1.0581976e+08
   4.1880627e-10  -3.1658895e-02   2.2385170e+00   1.9057161e-01  -1.0479179e+08
   4.2147382e-10  -3.1380724e-02   2.2222206e+00   1.9332395e-01  -1.0377605e+08
   4.2414138e-10  -3.1105247e-02   2.2061309e+00   1.9608277e-01  -1.0277235e+08
   4.2680894e-10  -3.0832431e-02   2.1902452e+00   1.9884773e-01  -1.0178050e+08
   4.2947649e-10  -3.0562245e-02   2.1745612e+00   2.0161850e-01  -1.0080032e+08
   4.3214405e-10  -3.0294658e-02   2.1590761e+00   2.0439474e-01  -9.9831632e+07
   4.3481160e-10  -3.0029639e-02   2.1437875e+00   2.0717613e-01  -9.8874265e+07
   4.3747916e-10  -2.9767159e-02   2.1286928e+00   2.0996234e-01  -9.7928045e+07
   4.4014672e-10  -2.9507189e-02   2.1137897e+00   2.1275305e-01  -9.6992804e+07
   4.4281427e-10  -2.9249698e-02   2.0990755e+00   2.1554795e-01  -9.6068376e+07
   4.4548183e-10  -2.8994659e-02   2.0845479e+00   2.1834672e-01  -9.5154598e+07
   4.4814938e-10  -2.8742043e-02   2.0702043e+00   2.2114905e-01  -9.4251310e+07
   4.5081694e-10  -2.8491823e-02   2.0560425e+00   2.2395464e-01  -9.3358357e+07
   4.5348449e-10  -2.8243971e-02   2.0420600e+00   2.2676319e-01  -9.2475582e+07
   4.5615205e-10  -2.7998460e-02   2.0282544e+00   2.2957440e-01  -9.1602836e+07
   4.5881961e-10  -2.7755264e-02   2.0146233e+00   2.3238797e-01  -9.0739970e+07
   4.6148716e-10  -2.7514356e-02   2.0011646e+00   2.3520361e-01  -8.9886836e+07
   4.6415472e-10  -2.7275711e-02   1.9878758e+00   2.3802104e-01  -8.9043293e+07
   4.6682227e-10  -2.7039303e-02   1.9747548e+00   2.4083998e-01  -8.8209200e+07
   4.6948983e-10  -2.6805108e-02   1.9617991e+00   2.4366015e-01  -8.7384417e+07
   4.7215739e-10  -2.6573101e-02   1.9490067e+00   2.4648127e-01  -8.6568810e+07
   4.7482494e-10  -2.6343256e-02   1.9363753e+00   2.4930308e-01  -8.5762246e+07
   4.7749250e-10  -2.6115552e-02   1.9239028e+00   2.5212530e-01  -8.4964593e+07
   4.8016005e-10  -2.5889963e-02   1.9115869e+00   2.5494768e-01  -8.4175722e+07
   4.8282761e-10  -2.5666467e-02   1.8994256e+00   2.5776995e-01  -8.3395509e+07
   4.8549517e-10  -2.5445040e-02   1.8874168e+00   2.6059186e-01  -8.2623828e+07
   4.8816272e-10  -2.5225661e-02   1.8755583e+00   2.6341315e-01  -8.1860558e+07
   4.9083028e-10  -2.5008306e-02   1.8638482e+00   2.6623359e-01  -8.1105581e+07
   4.9349783e-10  -2.4792955e-02   1.8522844e+00   2.6905292e-01  -8.0358778e+07
   4.9616539e-10  -2.4579584e-02   1.8408649e+00   2.7187091e-01  -7.9620034e+07
   4.9883294e-10  -2.4368174e-02   1.8295877e+00   2.7468732e-01  -7.8889236e+07
   5.0150050e-10  -2.4158702e-02   1.8184509e+00   2.7750192e-01  -7.8166274e+07
   5.0416806e-10  -2.3951148e-02   1.8074525e+00   2.8031447e-01  -7.7451037e+07
   5.0683561e-10  -2.3745492e-02   1.7965907e+00   2.8312476e-01  -7.6743419e+07
   5.0950317e-10  -2.3541714e-02   1.7858636e+00   2.8593256e-01  -7.6043315e+07
   5.1217072e-10  -2.3339793e-02   1.7752693e+00   2.8873766e-01  -7.5350622e+07
   5.1483828e-10  -2.3139710e-02   1.7648060e+00   2.9153983e-01  -7.4665237e+07
   5.1750584e-10  -2.2941445e-02   1.7544719e+00   2.9433888e-01  -7.3987061e+07
   5.2017339e-10  -2.2744980e-02   1.7442652e+00   2.9713459e-01  -7.3315997e+07
   5.2284095e-10  -2.2550296e-02   1.7341841e+00   2.9992675e-01  -7.2651947e+07
   5.2550850e-10  -2.2357373e-02   1.7242270e+00   3.0271518e-01  -7.1994818e+07
   5.2817606e-10  -2.2166194e-02   1.7143921e+00   3.0549967e-01  -7.1344517e+07
   5.3084361e-10  -2.1976741e-02   1.7046778e+00   3.0828002e-01  -7.0700952e+07
   5.3351117e-10  -2.1788996e-02   1.6950823e+00   3.1105606e-01  -7.0064034e+07
   5.3617873e-10  -2.1602941e-02   1.6856041e+00   3.1382760e-01  -6.9433675e+07
   5.3884628e-10  -2.1418558e-02   1.6762415e+00   3.1659445e-01  -6.8809788e+07
   5.4151384e-10  -2.1235832e-02   1.6669930e+00   3.1935643e-01  -6.8192289e+07
   5.4418139e-10  -2.1054744e-02   1.6578569e+00   3.2211337e-01  -6.7581094e+07
   5.4684895e-10  -2.0875277e-02   1.6488318e+00   3.2486509e-01  -6.6976120e+07
   5.4951651e-10  -2.0697417e-02   1.6399160e+00   3.2761144e-01  -6.6377287e+07
   5.5218406e-10  -2.0521146e-02   1.6311082e+00   3.3035223e-01  -6.5784516e+07
   5.5485162e-10  -2.0346447e-02   1.6224068e+00   3.3308731e-01  -6.5197729e+07
   5.5751917e-10  -2.0173307e-02   1.6138103e+00   3.3581652e-01  -6.4616850e+07
   5.6018673e-10  -2.0001708e-02   1.6053174e+00   3.3853971e-01  -6.4041802e+07
   5.6285428e-10  -1.9831635e-02   1.5969265e+00   3.4125671e-01  -6.3472513e+07
   5.6552184e-10  -1.9663073e-02   1.5886364e+00   3.4396739e-01  -6.2908908e+07
   5.6818940e-10  -1.9496007e-02   1.5804455e+00   3.4667159e-01  -6.2350918e+07
   5.7085695e-10  -1.9330422e-02   1.5723527e+00   3.4936917e-01  -6.1798470e+07
   5.7352451e-10  -1.9166303e-02   1.5643565e+00   3.5205999e-01  -6.1251497e+07
   5.7619206e-10  -1.9003636e-02   1.5564556e+00   3.5474391e-01  -6.0709930e+07
   5.7885962e-10  -1.8842406e-02   1.5486487e+00   3.5742081e-01  -6.0173703e+07
   5.8152718e-10  -1.8682600e-02   1.5409345e+00   3.6009054e-01  -5.9642749e+07
   5.8419473e-10  -1.8524203e-02   1.5333118e+00   3.6275297e-01  -5.9117003e+07
   5.8686229e-10  -1.8367202e-02   1.5257794e+00   3.6540800e-01  -5.8596403e+07
   5.8952984e-10  -1.8211583e-02   1.5183359e+00   3.6805548e-01  -5.8080886e+07
   5.9219740e-10  -1.8057332e-02   1.5109803e+00   3.7069530e-01  -5.7570389e+07
   5.9486495e-10  -1.7904436e-02   1.5037113e+00   3.7332735e-01  -5.7064853e+07
   5.9753251e-10  -1.7752882e-02   1.4965277e+00   3.7595150e-01  -5.6564218e+07
   6.0020007e-10  -1.7602657e-02   1.4894284e+00   3.7856765e-01  -5.6068425e+07
   6.0286762e-10  -1.7453748e-02   1.4824123e+00   3.8117570e-01  -5.5577417e+07
   6.0553518e-10  -1.7306142e-02   1.4754782e+00   3.8377552e-01  -5.5091136e+07
   6.0820273e-10  -1.7159828e-02   1.4686250e+00   3.8636702e-01  -5.4609527e+07
   6.1087029e-10  -1.7014792e-02   1.4618517e+00   3.8895010e-01  -5.4132535e+07
   6.1353785e-10  -1.6871022e-02   1.4551572e+00   3.9152467e-01  -5.3660105e+07
   6.1620540e-10  -1.6728507e-02   1.4485404e+00   3.9409061e-01  -5.3192185e+07
   6.1887296e-10  -1.6587233e-02   1.4420002e+00   3.9664785e-01  -5.2728722e+07
   6.2154051e-10  -1.6447190e-02   1.4355357e+00   3.9919629e-01  -5.2269664e+07
   6.2420807e-10  -1.6308366e-02   1.4291459e+00   4.0173584e-01  -5.1814961e+07
   6.2687563e-10  -1.6170749e-02   1.4228297e+00   4.0426642e-01  -5.1364562e+07
   6.2954318e-10  -1.6034328e-02   1.4165863e+00   4.0678794e-01  -5.0918418e+07
   6.3221074e-10  -1.5899091e-02   1.4104145e+00   4.0930032e-01  -5.0476480e+07
   6.3487829e-10  -1.5765027e-02   1.4043135e+00   4.1180349e-01  -5.0038702e+07
   6.3754585e-10  -1.5632126e-02   1.3982823e+00   4.1429737e-01  -4.9605035e+07
   6.4021340e-10  -1.5500376e-02   1.3923200e+00   4.1678188e-01  -4.9175433e+07
   6.4288096e-10  -1.5369767e-02   1.3864257e+00   4.1925696e-01  -4.8749851e+07
   6.4554852e-10  -1.5240287e-02   1.3805986e+00   4.2172253e-01  -4.8328243e+07
   6.4821607e-10  -1.5111927e-02   1.3748376e+00   4.2417852e-01  -4.7910566e+07
   6.5088363e-10  -1.4984676e-02   1.3691420e+00   4.2662488e-01  -4.7496776e+07
   6.5355118e-10  -1.4858524e-02   1.3635109e+00   4.2906153e-01  -4.7086829e+07
   6.5621874e-10  -1.4733460e-02   1.3579435e+00   4.3148842e-01  -4.6680684e+07
   6.5888630e-10  -1.4609474e-02   1.3524389e+00   4.3390549e-01  -4.6278297e+07
   6.6155385e-10  -1.4486557e-02   1.3469963e+00   4.3631269e-01  -4.5879630e+07
   6.6422141e-10  -1.4364699e-02   1.3416149e+00   4.3870995e-01  -4.5484640e+07
   6.6688896e-10  -1.4243889e-02   1.3362939e+00   4.4109722e-01  -4.5093287e+07
   6.6955652e-10  -1.4124118e-02   1.3310325e+00   4.4347447e-01  -4.4705533e+07
   6.7222407e-10  -1.4005377e-02   1.3258300e+00   4.4584163e-01  -4.4321339e+07
   6.7489163e-10  -1.3887656e-02   1.3206855e+00   4.4819865e-01  -4.3940665e+07
   6.7755919e-10  -1.3770946e-02   1.3155985e+00   4.5054551e-01  -4.3563475e+07
   6.8022674e-10  -1.3655237e-02   1.3105680e+00   4.5288214e-01  -4.3189731e+07
   6.8289430e-10  -1.3540521e-02   1.3055934e+00   4.5520852e-01  -4.2819397e+07
   6.8556185e-10  -1.3426788e-02   1.3006739e+00   4.5752460e-01  -4.2452436e+07
   6.8822941e-10  -1.3314030e-02   1.2958090e+00   4.5983034e-01  -4.2088812e+07
   6.9089697e-10  -1.3202237e-02   1.2909978e+00   4.6212572e-01  -4.1728491e+07
   6.9356452e-10  -1.3091401e-02   1.2862396e+00   4.6441068e-01  -4.1371437e+07
   6.9623208e-10  -1.2981513e-02   1.2815339e+00   4.6668521e-01  -4.1017617e+07
   6.9889963e-10  -1.2872564e-02   1.2768799e+00   4.6894928e-01  -4.0666996e+07
   7.0156719e-10  -1.2764547e-02   1.2722770e+00   4.7120284e-01  -4.0319542e+07
   7.0423474e-10  -1.2657452e-02   1.2677245e+00   4.7344588e-01  -3.9975221e+07
   7.0690230e-10  -1.2551272e-02   1.2632218e+00   4.7567838e-01  -3.9634001e+07
   7.0956986e-10  -1.2445998e-02   1.2587683e+00   4.7790029e-01  -3.9295850e+07
   7.1223741e-10  -1.2341621e-02   1.2543633e+00   4.8011162e-01  -3.8960736e+07
   7.1490497e-10  -1.2238135e-02   1.2500063e+00   4.8231232e-01  -3.8628629e+07
   7.1757252e-10  -1.2135531e-02   1.2456966e+00   4.8450239e-01  -3.8299498e+07
   7.2024008e-10  -1.2033800e-02   1.2414337e+00   4.8668180e-01  -3.7973311e+07
   7.2290764e-10  -1.1932936e-02   1.2372169e+00   4.8885055e-01  -3.7650040e+07
   7.2557519e-10  -1.1832930e-02   1.2330457e+00   4.9100860e-01  -3.7329654e+07
   7.2824275e-10  -1.1733776e-02   1.2289196e+00   4.9315596e-01  -3.7012125e+07
   7.3091030e-10  -1.1635464e-02   1.2248379e+00   4.9529260e-01  -3.6697424e+07
   7.3357786e-10  -1.1537988e-02   1.2208001e+00   4.9741852e-01  -3.6385522e+07
   7.3624542e-10  -1.1441340e-02   1.2168057e+00   4.9953371e-01  -3.6076391e+07
   7.3891297e-10  -1.1345514e-02   1.2128541e+00   5.0163816e-01  -3.5770004e+07
   7.4158053e-10  -1.1250501e-02   1.2089448e+00   5.0373185e-01  -3.5466333e+07
   7.4424808e-10  -1.1156294e-02   1.2050773e+00   5.0581480e-01  -3.5165351e+07
   7.4691564e-10  -1.1062887e-02   1.2012511e+00   5.0788698e-01  -3.4867032e+07
   7.4958319e-10  -1.0970272e-02   1.1974657e+00   5.0994841e-01  -3.4571349e+07
   7.5225075e-10  -1.0878443e-02   1.1937205e+00   5.1199906e-01  -3.4278276e+07
   7.5491831e-10  -1.0787391e-02   1.1900151e+00   5.1403896e-01  -3.3987788e+07
   7.5758586e-10  -1.0697111e-02   1.1863490e+00   5.1606809e-01  -3.3699858e+07
   7.6025342e-10  -1.0607596e-02   1.1827216e+00   5.1808645e-01  -3.3414463e+07
   7.6292097e-10  -1.0518839e-02   1.1791327e+00   5.2009406e-01  -3.3131577e+07
   7.6558853e-10  -1.0430833e-02   1.1755816e+00   5.2209091e-01  -3.2851176e+07
   7.6825609e-10  -1.0343572e-02   1.1720680e+00   5.2407700e-01  -3.2573235e+07
   7.7092364e-10  -1.0257049e-02   1.1685913e+00   5.2605235e-01  -3.2297732e+07
   7.7359120e-10  -1.0171257e-02   1.1651511e+00   5.2801696e-01  -3.2024641e+07
   7.7625875e-10  -1.0086191e-02   1.1617470e+00   5.2997084e-01  -3.1753941e+07
   7.7892631e-10  -1.0001844e-02   1.1583786e+00   5.3191399e-01  -3.1485607e+07
   7.8159386e-10  -9.9182095e-03   1.1550454e+00   5.3384643e-01  -3.1219618e+07
   7.8426142e-10  -9.8352815e-03   1.1517470e+00   5.3576817e-01  -3.0955950e+07
   7.8692898e-10  -9.7530537e-03   1.1484830e+00   5.3767921e-01  -3.0694582e+07
   7.8959653e-10  -9.6715200e-03   1.1452530e+00   5.3957958e-01  -3.0435491e+07
   7.9226409e-10  -9.5906746e-03   1.1420565e+00   5.4146928e-01  -3.0178656e+07
   7.9493164e-10  -9.5105112e-03   1.1388932e+00   5.4334833e-01  -2.9924056e+07
   7.9759920e-10  -9.4310240e-03   1.1357627e+00   5.4521674e-01  -2.9671669e+07
   8.0026676e-10  -9.3522072e-03   1.1326646e+00   5.4707454e-01  -2.9421474e+07
   8.0293431e-10  -9.2740549e-03   1.1295986e+00   5.4892173e-01  -2.9173451e+07
   8.0560187e-10  -9.1965613e-03   1.1265641e+00   5.5075833e-01  -2.8927578e+07
   8.0826942e-10  -9.1197207e-03   1.1235609e+00   5.5258437e-01  -2.8683837e+07
   8.1093698e-10  -9.0435275e-03   1.1205887e+00   5.5439986e-01  -2.8442206e+07
   8.1360453e-10  -8.9679761e-03   1.1176469e+00   5.5620483e-01  -2.8202667e+07
   8.1627209e-10  -8.8930609e-03   1.1147354e+00   5.5799928e-01  -2.7965199e+07
   8.1893965e-10  -8.8187764e-03   1.1118536e+00   5.5978325e-01  -2.7729783e+07
   8.2160720e-10  -8.7451172e-03   1.1090014e+00   5.6155676e-01  -2.7496400e+07
   8.2427476e-10  -8.6720779e-03   1.1061783e+00   5.6331983e-01  -2.7265031e+07
   8.2694231e-10  -8.5996530e-03   1.1033840e+00   5.6507248e-01  -2.7035657e+07
   8.2960987e-10  -8.5278374e-03   1.1006181e+00   5.6681474e-01  -2.6808261e+07
   8.3227743e-10  -8.4566258e-03   1.0978804e+00   5.6854663e-01  -2.6582823e+07
   8.3494498e-10  -8.3860130e-03   1.0951705e+00   5.7026818e-01  -2.6359325e+07
   8.3761254e-10  -8.3159937e-03   1.0924882e+00   5.7197941e-01  -2.6137750e+07
   8.4028009e-10  -8.2465630e-03   1.0898329e+00   5.7368036e-01  -2.5918080e+07
   8.4294765e-10  -8.1777158e-03   1.0872046e+00   5.7537104e-01  -2.5700298e+07
   8.4561521e-10  -8.1094470e-03   1.0846028e+00   5.7705148e-01  -2.5484386e+07
   8.4828276e-10  -8.0417517e-03   1.0820273e+00   5.7872173e-01  -2.5270326e+07
   8.5095032e-10  -7.9746249e-03   1.0794777e+00   5.8038179e-01  -2.5058103e+07
   8.5361787e-10  -7.9080618e-03   1.0769538e+00   5.8203171e-01  -2.4847698e+07
   8.5628543e-10  -7.8420576e-03   1.0744552e+00   5.8367151e-01  -2.4639097e+07
   8.5895298e-10  -7.7766075e-03   1.0719817e+00   5.8530122e-01  -2.4432282e+07
   8.6162054e-10  -7.7117067e-03   1.0695331e+00   5.8692088e-01  -2.4227236e+07
   8.6428810e-10  -7.6473505e-03   1.0671089e+00   5.8853051e-01  -2.4023945e+07
   8.6695565e-10  -7.5835343e-03   1.0647090e+00   5.9013015e-01  -2.3822392e+07
   8.6962321e-10  -7.5202534e-03   1.0623330e+00   5.9171983e-01  -2.3622561e+07
   8.7229076e-10  -7.4575034e-03   1.0599807e+00   5.9329958e-01  -2.3424437e+07
   8.7495832e-10  -7.3952795e-03   1.0576519e+00   5.9486944e-01  -2.3228004e+07
   8.7762588e-10  -7.3335774e-03   1.0553462e+00   5.9642944e-01  -2.3033247e+07
   8.8029343e-10  -7.2723927e-03   1.0530635e+00   5.9797962e-01  -2.2840151e+07
   8.8296099e-10  -7.2117208e-03   1.0508034e+00   5.9952000e-01  -2.2648702e+07
   8.8562854e-10  -7.1515575e-03   1.0485657e+00   6.0105062e-01  -2.2458883e+07
   8.8829610e-10  -7.0918983e-03   1.0463501e+00   6.0257152e-01  -2.2270682e+07
   8.9096365e-10  -7.0327390e-03   1.0441565e+00   6.0408274e-01  -2.2084082e+07
   8.9363121e-10  -6.9740754e-03   1.0419845e+00   6.0558430e-01  -2.1899071e+07
   8.9629877e-10  -6.9159032e-03   1.0398339e+00   6.0707626e-01  -2.1715633e+07
   8.9896632e-10  -6.8582183e-03   1.0377045e+00   6.0855863e-01  -2.1533755e+07
   9.0163388e-10  -6.8010165e-03   1.0355961e+00   6.1003147e-01  -2.1353423e+07
   9.0430143e-10  -6.7442936e-03   1.0335084e+00   6.1149480e-01  -2.1174622e+07
   9.0696899e-10  -6.6880457e-03   1.0314412e+00   6.1294866e-01  -2.0997341e+07
   9.0963655e-10  -6.6322687e-03   1.0293942e+00   6.1439310e-01  -2.0821564e+07
   9.1230410e-10  -6.5769586e-03   1.0273673e+00   6.1582814e-01  -2.0647278e+07
   9.1497166e-10  -6.5221115e-03   1.0253602e+00   6.1725384e-01  -2.0474471e+07
   9.1763921e-10  -6.4677233e-03   1.0233727e+00   6.1867022e-01  -2.0303130e+07
   9.2030677e-10  -6.4137903e-03   1.0214047e+00   6.2007732e-01  -2.0133240e+07
   9.2297432e-10  -6.3603085e-03   1.0194558e+00   6.2147519e-01  -1.9964791e+07
   9.2564188e-10  -6.3072742e-03   1.0175258e+00   6.2286387e-01  -1.9797768e+07
   9.2830944e-10  -6.2546836e-03   1.0156147e+00   6.2424338e-01  -1.9632159e+07
   9.3097699e-10  -6.2025328e-03   1.0137221e+00   6.2561378e-01  -1.9467952e+07
   9.3364455e-10  -6.1508183e-03   1.0118479e+00   6.2697511e-01  -1.9305135e+07
   9.3631210e-10  -6.0995362e-03   1.0099918e+00   6.2832739e-01  -1.9143694e+07
   9.3897966e-10  -6.0486829e-03   1.0081537e+00   6.2967068e-01  -1.8983619e+07
   9.4164722e-10  -5.9982548e-03   1.0063334e+00   6.3100501e-01  -1.8824898e+07
   9.4431477e-10  -5.9482484e-03   1.0045307e+00   6.3233042e-01  -1.8667517e+07
   9.4698233e-10  -5.8986600e-03   1.0027454e+00   6.3364696e-01  -1.8511467e+07
   9.4964988e-10  -5.8494861e-03   1.0009773e+00   6.3495467e-01  -1.8356734e+07
   9.5231744e-10  -5.8007232e-03   9.9922621e-01   6.3625358e-01  -1.8203308e+07
   9.5498499e-10  -5.7523679e-03   9.9749197e-01   6.3754374e-01  -1.8051177e+07
   9.5765255e-10  -5.7044166e-03   9.9577440e-01   6.3882518e-01  -1.7900329e+07
   9.6032011e-10  -5.6568661e-03   9.9407332e-01   6.4009796e-01  -1.7750754e+07
   9.6298766e-10  -5.6097129e-03   9.9238855e-01   6.4136211e-01  -1.7602441e+07
   9.6565522e-10  -5.5629536e-03   9.9071992e-01   6.4261767e-01  -1.7455379e+07
   9.6832277e-10  -5.5165850e-03   9.8906726e-01   6.4386469e-01  -1.7309556e+07
   9.7099033e-10  -5.4706038e-03   9.8743040e-01   6.4510320e-01  -1.7164962e+07
   9.7365789e-10  -5.4250066e-03   9.8580917e-01   6.4633325e-01  -1.7021586e+07
   9.7632544e-10  -5.3797903e-03   9.8420342e-01   6.4755488e-01  -1.6879418e+07
   9.7899300e-10  -5.3349516e-03   9.8261296e-01   6.4876814e-01  -1.6738447e+07
   9.8166055e-10  -5.2904874e-03   9.8103765e-01   6.4997306e-01  -1.6598663e+07
   9.8432811e-10  -5.2463945e-03   9.7947733e-01   6.5116968e-01  -1.6460055e+07
   9.8699567e-10  -5.2026697e-03   9.7793183e-01   6.5235805e-01  -1.6322615e+07
   9.8966322e-10  -5.1593101e-03   9.7640101e-01   6.5353822e-01  -1.6186330e+07
   9.9233078e-10  -5.1163125e-03   9.7488471e-01   6.5471022e-01  -1.6051192e+07
   9.9499833e-10  -5.0736738e-03   9.7338277e-01   6.5587409e-01  -1.5917190e+07
   9.9766589e-10  -5.0313912e-03   9.7189505e-01   6.5702988e-01  -1.5784315e+07
   1.0003334e-09  -4.9894614e-03   9.7042141e-01   6.5817763e-01  -1.5652557e+07
   1.0030010e-09  -4.9478817e-03   9.6896168e-01   6.5931739e-01  -1.5521906e+07
   1.0056686e-09  -4.9066490e-03   9.6751574e-01   6.6044919e-01  -1.5392353e+07
   1.0083361e-09  -4.8657605e-03   9.6608343e-01   6.6157308e-01  -1.5263889e+07
   1.0110037e-09  -4.8252132e-03   9.6466462e-01   6.6268909e-01  -1.5136503e+07
   1.0136712e-09  -4.7850042e-03   9.6325917e-01   6.6379728e-01  -1.5010188e+07
   1.0163388e-09  -4.7451309e-03   9.6186693e-01   6.6489768e-01  -1.4884933e+07
   1.0190063e-09  -4.7055902e-03   9.6048778e-01   6.6599034e-01  -1.4760729e+07
   1.0216739e-09  -4.6663795e-03   9.5912157e-01   6.6707530e-01  -1.4637568e+07
   1.0243414e-09  -4.6274959e-03   9.5776818e-01   6.6815261e-01  -1.4515440e+07
   1.0270090e-09  -4.5889367e-03   9.5642747e-01   6.6922229e-01  -1.4394338e+07
   1.0296766e-09  -4.5506993e-03   9.5509932e-01   6.7028440e-01  -1.4274251e+07
   1.0323441e-09  -4.5127808e-03   9.5378359e-01   6.7133898e-01  -1.4155171e+07
   1.0350117e-09  -4.4751787e-03   9.5248016e-01   6.7238607e-01  -1.4037090e+07
   1.0376792e-09  -4.4378902e-03   9.5118889e-01   6.7342572e-01  -1.3919999e+07
   1.0403468e-09  -4.4009127e-03   9.4990968e-01   6.7445795e-01  -1.3803890e+07
   1.0430143e-09  -4.3642437e-03   9.4864240e-01   6.7548283e-01  -1.3688754e+07
   1.0456819e-09  -4.3278805e-03   9.4738691e-01   6.7650038e-01  -1.3574583e+07
   1.0483494e-09  -4.2918206e-03   9.4614312e-01   6.7751066e-01  -1.3461368e+07
   1.0510170e-09  -4.2560615e-03   9.4491089e-01   6.7851370e-01  -1.3349102e+07
   1.0536846e-09  -4.2206006e-03   9.4369010e-01   6.7950954e-01  -1.3237777e+07
   1.0563521e-09  -4.1854354e-03   9.4248065e-01   6.8049823e-01  -1.3127384e+07
   1.0590197e-09  -4.1505634e-03   9.4128242e-01   6.8147981e-01  -1.3017916e+07
   1.0616872e-09  -4.1159822e-03   9.4009530e-01   6.8245431e-01  -1.2909364e+07
   1.0643548e-09  -4.0816894e-03   9.3891917e-01   6.8342179e-01  -1.2801722e+07
   1.0670223e-09  -4.0476825e-03   9.3775392e-01   6.8438228e-01  -1.2694980e+07
   1.0696899e-09  -4.0139592e-03   9.3659945e-01   6.8533583e-01  -1.2589132e+07
   1.0723575e-09  -3.9805170e-03   9.3545565e-01   6.8628247e-01  -1.2484170e+07
   1.0750250e-09  -3.9473537e-03   9.3432240e-01   6.8722225e-01  -1.2380086e+07
   1.0776926e-09  -3.9144668e-03   9.3319961e-01   6.8815520e-01  -1.2276873e+07
   1.0803601e-09  -3.8818541e-03   9.3208716e-01   6.8908138e-01  -1.2174524e+07
   1.0830277e-09  -3.8495133e-03   9.3098497e-01   6.9000081e-01  -1.2073031e+07
   1.0856952e-09  -3.8174421e-03   9.2989291e-01   6.9091354e-01  -1.1972387e+07
   1.0883628e-09  -3.7856383e-03   9.2881090e-01   6.9181962e-01  -1.1872585e+07
   1.0910303e-09  -3.7540996e-03   9.2773883e-01   6.9271907e-01  -1.1773617e+07
   1.0936979e-09  -3.7228237e-03   9.2667661e-01   6.9361195e-01  -1.1675477e+07
   1.0963655e-09  -3.6918086e-03   9.2562413e-01   6.9449829e-01  -1.1578158e+07
   1.0990330e-09  -3.6610520e-03   9.2458130e-01   6.9537813e-01  -1.1481652e+07
   1.1017006e-09  -3.6305517e-03   9.2354803e-01   6.9625152e-01  -1.1385953e+07
   1.1043681e-09  -3.6003057e-03   9.2252421e-01   6.9711849e-01  -1.1291054e+07
   1.1070357e-09  -3.5703117e-03   9.2150977e-01   6.9797908e-01  -1.1196947e+07
   1.1097032e-09  -3.5405678e-03   9.2050460e-01   6.9883333e-01  -1.1103628e+07
   1.1123708e-09  -3.5110717e-03   9.1950861e-01   6.9968128e-01  -1.1011088e+07
   1.1150383e-09  -3.4818215e-03   9.1852171e-01   7.0052298e-01  -1.0919322e+07
   1.1177059e-09  -3.4528150e-03   9.1754382e-01   7.0135846e-01  -1.0828322e+07
   1.1203735e-09  -3.4240502e-03   9.1657484e-01   7.0218775e-01  -1.0738082e+07
   1.1230410e-09  -3.3955252e-03   9.1561469e-01   7.0301091e-01  -1.0648597e+07
   1.1257086e-09  -3.3672379e-03   9.1466328e-01   7.0382797e-01  -1.0559858e+07
   1.1283761e-09  -3.3391863e-03   9.1372052e-01   7.0463896e-01  -1.0471861e+07
   1.1310437e-09  -3.3113684e-03   9.1278634e-01   7.0544393e-01  -1.0384599e+07
   1.1337112e-09  -3.2837824e-03   9.1186064e-01   7.0624291e-01  -1.0298065e+07
   1.1363788e-09  -3.2564262e-03   9.1094335e-01   7.0703594e-01  -1.0212254e+07
   1.1390463e-09  -3.2292980e-03   9.1003439e-01   7.0782307e-01  -1.0127160e+07
   1.1417139e-09  -3.2023958e-03   9.0913366e-01   7.0860432e-01  -1.0042776e+07
   1.1443815e-09  -3.1757178e-03   9.0824109e-01   7.0937974e-01  -9.9590965e+06
   1.1470490e-09  -3.1492621e-03   9.0735661e-01   7.1014937e-01  -9.8761155e+06
   1.1497166e-09  -3.1230268e-03   9.0648014e-01   7.1091324e-01  -9.7938272e+06
   1.1523841e-09  -3.0970101e-03   9.0561159e-01   7.1167139e-01  -9.7122258e+06
   1.1550517e-09  -3.0712102e-03   9.0475088e-01   7.1242386e-01  -9.6313054e+06
   1.1577192e-09  -3.0456252e-03   9.0389796e-01   7.1317068e-01  -9.5510603e+06
   1.1603868e-09  -3.0202534e-03   9.0305273e-01   7.1391189e-01  -9.4714849e+06
   1.1630544e-09  -2.9950930e-03   9.0221513e-01   7.1464753e-01  -9.3925735e+06
   1.1657219e-09  -2.9701422e-03   9.0138508e-01   7.1537764e-01  -9.3143206e+06
   1.1683895e-09  -2.9453993e-03   9.0056251e-01   7.1610225e-01  -9.2367206e+06
   1.1710570e-09  -2.9208625e-03   8.9974734e-01   7.1682140e-01  -9.1597681e+06
   1.1737246e-09  -2.8965301e-03   8.9893951e-01   7.1753513e-01  -9.0834575e+06
   1.1763921e-09  -2.8724004e-03   8.9813895e-01   7.1824346e-01  -9.0077835e+06
   1.1790597e-09  -2.8484718e-03   8.9734558e-01   7.1894644e-01  -8.9327408e+06
   1.1817272e-09  -2.8247425e-03   8.9655934e-01   7.1964411e-01  -8.8583241e+06
   1.1843948e-09  -2.8012109e-03   8.9578016e-01   7.2033649e-01  -8.7845280e+06
   1.1870624e-09  -2.7778753e-03   8.9500797e-01   7.2102363e-01  -8.7113475e+06
   1.1897299e-09  -2.7547342e-03   8.9424270e-01   7.2170556e-01  -8.6387773e+06
   1.1923975e-09  -2.7317858e-03   8.9348430e-01   7.2238231e-01  -8.5668123e+06
   1.1950650e-09  -2.7090285e-03   8.9273268e-01   7.2305392e-01  -8.4954475e+06
   1.1977326e-09  -2.6864609e-03   8.9198780e-01   7.2372043e-01  -8.4246778e+06
   1.2004001e-09  -2.6640812e-03   8.9124958e-01   7.2438186e-01  -8.3544982e+06
   1.2030677e-09  -2.6418880e-03   8.9051796e-01   7.2503826e-01  -8.2849038e+06
   1.2057352e-09  -2.6198796e-03   8.8979288e-01   7.2568966e-01  -8.2158896e+06
   1.2084028e-09  -2.5980546e-03   8.8907427e-01   7.2633608e-01  -8.1474509e+06
   1.2110704e-09  -2.5764114e-03   8.8836208e-01   7.2697758e-01  -8.0795828e+06
   1.2137379e-09  -2.5549484e-03   8.8765625e-01   7.2761417e-01  -8.0122805e+06
   1.2164055e-09  -2.5336643e-03   8.8695671e-01   7.2824590e-01  -7.9455392e+06
   1.2190730e-09  -2.5125574e-03   8.8626340e-01   7.2887280e-01  -7.8793544e+06
   1.2217406e-09  -2.4916264e-03   8.8557627e-01   7.2949490e-01  -7.8137212e+06
   1.2244081e-09  -2.4708697e-03   8.8489526e-01   7.3011223e-01  -7.7486352e+06
   1.2270757e-09  -2.4502859e-03   8.8422031e-01   7.3072482e-01  -7.6840917e+06
   1.2297432e-09  -2.4298736e-03   8.8355137e-01   7.3133272e-01  -7.6200861e+06
   1.2324108e-09  -2.4096313e-03   8.8288837e-01   7.3193595e-01  -7.5566141e+06
   1.2350784e-09  -2.3895575e-03   8.8223126e-01   7.3253454e-01  -7.4936710e+06
   1.2377459e-09  -2.3696511e-03   8.8157998e-01   7.3312854e-01  -7.4312526e+06
   1.2404135e-09  -2.3499104e-03   8.8093449e-01   7.3371796e-01  -7.3693543e+06
   1.2430810e-09  -2.3303341e-03   8.8029473e-01   7.3430284e-01  -7.3079719e+06
   1.2457486e-09  -2.3109209e-03   8.7966063e-01   7.3488321e-01  -7.2471010e+06
   1.2484161e-09  -2.2916694e-03   8.7903216e-01   7.3545911e-01  -7.1867374e+06
   1.2510837e-09  -2.2725782e-03   8.7840926e-01   7.3603057e-01  -7.1268769e+06
   1.2537513e-09  -2.2536461e-03   8.7779187e-01   7.3659761e-01  -7.0675151e+06
   1.2564188e-09  -2.2348717e-03   8.7717994e-01   7.3716027e-01  -7.0086480e+06
   1.2590864e-09  -2.2162536e-03   8.7657343e-01   7.3771858e-01  -6.9502713e+06
   1.2617539e-09  -2.1977906e-03   8.7597228e-01   7.3827258e-01  -6.8923811e+06
   1.2644215e-09  -2.1794814e-03   8.7537645e-01   7.3882228e-01  -6.8349733e+06
   1.2670890e-09  -2.1613247e-03   8.7478588e-01   7.3936772e-01  -6.7780437e+06
   1.2697566e-09  -2.1433192e-03   8.7420052e-01   7.3990894e-01  -6.7215885e+06
   1.2724241e-09  -2.1254637e-03   8.7362033e-01   7.4044596e-01  -6.6656036e+06
   1.2750917e-09  -2.1077569e-03   8.7304525e-01   7.4097881e-01  -6.6100852e+06
   1.2777593e-09  -2.0901976e-03   8.7247525e-01   7.4150752e-01  -6.5550293e+06
   1.2804268e-09  -2.0727845e-03   8.7191027e-01   7.4203212e-01  -6.5004321e+06
   1.2830944e-09  -2.0555165e-03   8.7135027e-01   7.4255265e-01  -6.4462897e+06
   1.2857619e-09  -2.0383923e-03   8.7079520e-01   7.4306912e-01  -6.3925983e+06
   1.2884295e-09  -2.0214108e-03   8.7024502e-01   7.4358157e-01  -6.3393542e+06
   1.2910970e-09  -2.0045706e-03   8.6969967e-01   7.4409003e-01  -6.2865537e+06
   1.2937646e-09  -1.9878708e-03   8.6915913e-01   7.4459453e-01  -6.2341930e+06
   1.2964321e-09  -1.9713100e-03   8.6862333e-01   7.4509509e-01  -6.1822685e+06
   1.2990997e-09  -1.9548872e-03   8.6809224e-01   7.4559175e-01  -6.1307765e+06
   1.3017673e-09  -1.9386011e-03   8.6756582e-01   7.4608453e-01  -6.0797134e+06
   1.3044348e-09  -1.9224507e-03   8.6704402e-01   7.4657345e-01  -6.0290757e+06
   1.3071024e-09  -1.9064348e-03   8.6652680e-01   7.4705856e-01  -5.9788598e+06
   1.3097699e-09  -1.8905523e-03   8.6601411e-01   7.4753987e-01  -5.9290621e+06
   1.3124375e-09  -1.8748021e-03   8.6550593e-01   7.4801742e-01  -5.8796792e+06
   1.3151050e-09  -1.8591831e-03   8.6500219e-01   7.4849122e-01  -5.8307076e+06
   1.3177726e-09  -1.8436941e-03   8.6450287e-01   7.4896132e-01  -5.7821439e+06
   1.3204401e-09  -1.8283342e-03   8.6400792e-01   7.4942773e-01  -5.7339847e+06
   1.3231077e-09  -1.8131022e-03   8.6351731e-01   7.4989048e-01  -5.6862266e+06
   1.3257753e-09  -1.7979971e-03   8.6303099e-01   7.5034960e-01  -5.6388663e+06
   1.3284428e-09  -1.7830178e-03   8.6254892e-01   7.5080512e-01  -5.5919004e+06
   1.3311104e-09  -1.7681632e-03   8.6207107e-01   7.5125705e-01  -5.5453257e+06
   1.3337779e-09  -1.7534324e-03   8.6159740e-01   7.5170544e-01  -5.4991389e+06
   1.3364455e-09  -1.7388242e-03   8.6112786e-01   7.5215030e-01  -5.4533367e+06
   1.3391130e-09  -1.7243377e-03   8.6066243e-01   7.5259166e-01  -5.4079160e+06
   1.3417806e-09  -1.7099719e-03   8.6020106e-01   7.5302955e-01  -5.3628736e+06
   1.3444481e-09  -1.6957258e-03   8.5974371e-01   7.5346399e-01  -5.3182063e+06
   1.3471157e-09  -1.6815983e-03   8.5929036e-01   7.5389500e-01  -5.2739109e+06
   1.3497833e-09  -1.6675884e-03   8.5884096e-01   7.5432262e-01  -5.2299845e+06
   1.3524508e-09  -1.6536953e-03   8.5839548e-01   7.5474687e-01  -5.1864239e+06
   1.3551184e-09  -1.6399178e-03   8.5795388e-01   7.5516777e-01  -5.1432261e+06
   1.3577859e-09  -1.6262552e-03   8.5751613e-01   7.5558534e-01  -5.1003880e+06
   1.3604535e-09  -1.6127063e-03   8.5708219e-01   7.5599962e-01  -5.0579066e+06
   1.3631210e-09  -1.5992702e-03   8.5665203e-01   7.5641063e-01  -5.0157790e+06
   1.3657886e-09  -1.5859461e-03   8.5622561e-01   7.5681838e-01  -4.9740023e+06
   1.3684562e-09  -1.5727330e-03   8.5580290e-01   7.5722291e-01  -4.9325734e+06
   1.3711237e-09  -1.5596299e-03   8.5538387e-01   7.5762425e-01  -4.8914896e+06
   1.3737913e-09  -1.5466359e-03   8.5496848e-01   7.5802240e-01  -4.8507478e+06
   1.3764588e-09  -1.5337502e-03   8.5455670e-01   7.5841740e-01  -4.8103454e+06
   1.3791264e-09  -1.5209718e-03   8.5414850e-01   7.5880927e-01  -4.7702793e+06
   1.3817939e-09  -1.5082998e-03   8.5374384e-01   7.5919804e-01  -4.7305470e+06
   1.3844615e-09  -1.4957334e-03   8.5334270e-01   7.5958372e-01  -4.6911455e+06
   1.3871290e-09  -1.4832716e-03   8.5294504e-01   7.5996634e-01  -4.6520720e+06
   1.3897966e-09  -1.4709137e-03   8.5255083e-01   7.6034593e-01  -4.6133240e+06
   1.3924642e-09  -1.4586587e-03   8.5216004e-01   7.6072250e-01  -4.5748987e+06
   1.3951317e-09  -1.4465057e-03   8.5177264e-01   7.6109608e-01  -4.5367933e+06
   1.3977993e-09  -1.4344540e-03   8.5138859e-01   7.6146670e-01  -4.4990052e+06
   1.4004668e-09  -1.4225026e-03   8.5100787e-01   7.6183436e-01  -4.4615317e+06
   1.4031344e-09  -1.4106509e-03   8.5063046e-01   7.6219911e-01  -4.4243704e+06
   1.4058019e-09  -1.3988978e-03   8.5025631e-01   7.6256095e-01  -4.3875184e+06
   1.4084695e-09  -1.3872426e-03   8.4988539e-01   7.6291991e-01  -4.3509734e+06
   1.4111370e-09  -1.3756845e-03   8.4951769e-01   7.6327601e-01  -4.3147326e+06
   1.4138046e-09  -1.3642226e-03   8.4915317e-01   7.6362928e-01  -4.2787936e+06
   1.4164722e-09  -1.3528563e-03   8.4879181e-01   7.6397973e-01  -4.2431539e+06
   1.4191397e-09  -1.3415846e-03   8.4843357e-01   7.6432739e-01  -4.2078110e+06
   1.4218073e-09  -1.3304068e-03   8.4807842e-01   7.6467227e-01  -4.1727623e+06
   1.4244748e-09  -1.3193221e-03   8.4772634e-01   7.6501440e-01  -4.1380055e+06
   1.4271424e-09  -1.3083297e-03   8.4737731e-01   7.6535381e-01  -4.1035381e+06
   1.4298099e-09  -1.2974289e-03   8.4703129e-01   7.6569050e-01  -4.0693578e+06
   1.4324775e-09  -1.2866189e-03   8.4668826e-01   7.6602451e-01  -4.0354620e+06
   1.4351450e-09  -1.2758989e-03   8.4634819e-01   7.6635584e-01  -4.0018485e+06
   1.4378126e-09  -1.2652683e-03   8.4601105e-01   7.6668453e-01  -3.9685149e+06
   1.4404802e-09  -1.2547262e-03   8.4567682e-01   7.6701059e-01  -3.9354588e+06
   1.4431477e-09  -1.2442718e-03   8.4534548e-01   7.6733404e-01  -3.9026780e+06
   1.4458153e-09  -1.2339046e-03   8.4501699e-01   7.6765490e-01  -3.8701701e+06
   1.4484828e-09  -1.2236237e-03   8.4469133e-01   7.6797320e-01  -3.8379330e+06
   1.4511504e-09  -1.2134285e-03   8.4436848e-01   7.6828895e-01  -3.8059643e+06
   1.4538179e-09  -1.2033182e-03   8.4404841e-01   7.6860217e-01  -3.7742618e+06
   1.4564855e-09  -1.1932921e-03   8.4373110e-01   7.6891287e-01  -3.7428232e+06
   1.4591531e-09  -1.1833495e-03   8.4341651e-01   7.6922109e-01  -3.7116465e+06
   1.4618206e-09  -1.1734897e-03   8.4310464e-01   7.6952684e-01  -3.6807293e+06
   1.4644882e-09  -1.1637121e-03   8.4279545e-01   7.6983014e-01  -3.6500696e+06
   1.4671557e-09  -1.1540159e-03   8.4248892e-01   7.7013100e-01  -3.6196652e+06
   1.4698233e-09  -1.1444005e-03   8.4218503e-01   7.7042945e-01  -3.5895140e+06
   1.4724908e-09  -1.1348651e-03   8.4188375e-01   7.7072550e-01  -3.5596138e+06
   1.4751584e-09  -1.1254092e-03   8.4158507e-01   7.7101917e-01  -3.5299626e+06
   1.4778259e-09  -1.1160321e-03   8.4128894e-01   7.7131049e-01  -3.5005583e+06
   1.4804935e-09  -1.1067331e-03   8.4099537e-01   7.7159946e-01  -3.4713989e+06
   1.4831611e-09  -1.0975115e-03   8.4070431e-01   7.7188611e-01  -3.4424822e+06
   1.4858286e-09  -1.0883668e-03   8.4041576e-01   7.7217046e-01  -3.4138064e+06
   1.4884962e-09  -1.0792982e-03   8.4012968e-01   7.7245252e-01  -3.3853693e+06
   1.4911637e-09  -1.0703052e-03   8.3984606e-01   7.7273231e-01  -3.3571690e+06
   1.4938313e-09  -1.0613870e-03   8.3956487e-01   7.7300984e-01  -3.3292036e+06
   1.4964988e-09  -1.0525432e-03   8.3928610e-01   7.7328515e-01  -3.3014710e+06
   1.4991664e-09  -1.0437731e-03   8.3900971e-01   7.7355823e-01  -3.2739694e+06
   1.5018339e-09  -1.0350759e-03   8.3873570e-01   7.7382912e-01  -3.2466967e+06
   1.5045015e-09  -1.0264513e-03   8.3846404e-01   7.7409783e-01  -3.2196512e+06
   1.5071691e-09  -1.0178985e-03   8.3819470e-01   7.7436436e-01  -3.1928309e+06
   1.5098366e-09  -1.0094169e-03   8.3792768e-01   7.7462875e-01  -3.1662339e+06
   1.5125042e-09  -1.0010060e-03   8.3766294e-01   7.7489101e-01  -3.1398584e+06
   1.5151717e-09  -9.9266517e-04   8.3740047e-01   7.7515115e-01  -3.1137025e+06
   1.5178393e-09  -9.8439381e-04   8.3714024e-01   7.7540920e-01  -3.0877644e+06
   1.5205068e-09  -9.7619135e-04   8.3688225e-01   7.7566516e-01  -3.0620423e+06
   1.5231744e-09  -9.6805722e-04   8.3662646e-01   7.7591905e-01  -3.0365344e+06
   1.5258419e-09  -9.5999085e-04   8.3637287e-01   7.7617089e-01  -3.0112389e+06
   1.5285095e-09  -9.5199168e-04   8.3612144e-01   7.7642070e-01  -2.9861541e+06
   1.5311771e-09  -9.4405914e-04   8.3587217e-01   7.7666849e-01  -2.9612781e+06
   1.5338446e-09  -9.3619269e-04   8.3562502e-01   7.7691428e-01  -2.9366093e+06
   1.5365122e-09  -9.2839176e-04   8.3537999e-01   7.7715808e-01  -2.9121459e+06
   1.5391797e-09  -9.2065582e-04   8.3513706e-01   7.7739991e-01  -2.8878863e+06
   1.5418473e-09  -9.1298433e-04   8.3489620e-01   7.7763979e-01  -2.8638286e+06
   1.5445148e-09  -9.0537674e-04   8.3465740e-01   7.7787772e-01  -2.8399713e+06
   1.5471824e-09  -8.9783253e-04   8.3442064e-01   7.7811373e-01  -2.8163127e+06
   1.5498499e-09  -8.9035117e-04   8.3418590e-01   7.7834782e-01  -2.7928510e+06
   1.5525175e-09  -8.8293213e-04   8.3395317e-01   7.7858002e-01  -2.7695848e+06
   1.5551851e-09  -8.7557490e-04   8.3372243e-01   7.7881035e-01  -2.7465123e+06
   1.5578526e-09  -8.6827896e-04   8.3349365e-01   7.7903880e-01  -2.7236319e+06
   1.5605202e-09  -8.6104380e-04   8.3326683e-01   7.7926541e-01  -2.7009421e+06
   1.5631877e-09  -8.5386891e-04   8.3304195e-01   7.7949017e-01  -2.6784412e+06
   1.5658553e-09  -8.4675380e-04   8.3281898e-01   7.7971312e-01  -2.6561277e+06
   1.5685228e-09  -8.3969796e-04   8.3259792e-01   7.7993426e-01  -2.6340001e+06
   1.5711904e-09  -8.3270090e-04   8.3237874e-01   7.8015360e-01  -2.6120567e+06
   1.5738580e-09  -8.2576213e-04   8.3216143e-01   7.8037117e-01  -2.5902960e+06
   1.5765255e-09  -8.1888117e-04   8.3194597e-01   7.8058697e-01  -2.5687166e+06
   1.5791931e-09  -8.1205753e-04   8.3173235e-01   7.8080102e-01  -2.5473168e+06
   1.5818606e-09  -8.0529074e-04   8.3152055e-01   7.8101333e-01  -2.5260953e+06
   1.5845282e-09  -7.9858032e-04   8.3131055e-01   7.8122391e-01  -2.5050505e+06
   1.5871957e-09  -7.9192581e-04   8.3110235e-01   7.8143279e-01  -2.4841810e+06
   1.5898633e-09  -7.8532674e-04   8.3089592e-01   7.8163997e-01  -2.4634852e+06
   1.5925308e-09  -7.7878264e-04   8.3069124e-01   7.8184547e-01  -2.4429619e+06
   1.5951984e-09  -7.7229306e-04   8.3048831e-01   7.8204929e-01  -2.4226094e+06
   1.5978660e-09  -7.6585755e-04   8.3028711e-01   7.8225146e-01  -2.4024264e+06
   1.6005335e-09  -7.5947566e-04   8.3008762e-01   7.8245199e-01  -2.3824115e+06
   1.6032011e-09  -7.5314693e-04   8.2988983e-01   7.8265089e-01  -2.3625633e+06
   1.6058686e-09  -7.4687092e-04   8.2969372e-01   7.8284817e-01  -2.3428804e+06
   1.6085362e-09  -7.4064721e-04   8.2949928e-01   7.8304384e-01  -2.3233615e+06
   1.6112037e-09  -7.3447534e-04   8.2930649e-01   7.8323792e-01  -2.3040050e+06
   1.6138713e-09  -7.2835490e-04   8.2911534e-01   7.8343042e-01  -2.2848098e+06
   1.6165388e-09  -7.2228544e-04   8.2892582e-01   7.8362136e-01  -2.2657745e+06
   1.6192064e-09  -7.1626655e-04   8.2873791e-01   7.8381074e-01  -2.2468977e+06
   1.6218740e-09  -7.1029781e-04   8.2855160e-01   7.8399857e-01  -2.2281780e+06
   1.6245415e-09  -7.0437879e-04   8.2836687e-01   7.8418488e-01  -2.2096143e+06
   1.6272091e-09  -6.9850909e-04   8.2818371e-01   7.8436967e-01  -2.1912052e+06
   1.6298766e-09  -6.9268829e-04   8.2800211e-01   7.8455296e-01  -2.1729494e+06
   1.6325442e-09  -6.8691599e-04   8.2782205e-01   7.8473475e-01  -2.1548457e+06
   1.6352117e-09  -6.8119177e-04   8.2764352e-01   7.8491506e-01  -2.1368927e+06
   1.6378793e-09  -6.7551525e-04   8.2746650e-01   7.8509389e-01  -2.1190893e+06
   1.6405468e-09  -6.6988602e-04   8.2729099e-01   7.8527127e-01  -2.1014341e+06
   1.6432144e-09  -6.6430370e-04   8.2711697e-01   7.8544721e-01  -2.0839260e+06
   1.6458820e-09  -6.5876788e-04   8.2694442e-01   7.8562171e-01  -2.0665637e+06
   1.6485495e-09  -6.5327818e-04   8.2677335e-01   7.8579478e-01  -2.0493460e+06
   1.6512171e-09  -6.4783422e-04   8.2660372e-01   7.8596644e-01  -2.0322717e+06
   1.6538846e-09  -6.4243562e-04   8.2643553e-01   7.8613671e-01  -2.0153396e+06
   1.6565522e-09  -6.3708200e-04   8.2626877e-01   7.8630558e-01  -1.9985485e+06
   1.6592197e-09  -6.3177298e-04   8.2610342e-01   7.8647307e-01  -1.9818973e+06
   1.6618873e-09  -6.2650819e-04   8.2593948e-01   7.8663920e-01  -1.9653848e+06
   1.6645549e-09  -6.2128727e-04   8.2577693e-01   7.8680396e-01  -1.9490098e+06
   1.6672224e-09  -6.1610985e-04   8.2561575e-01   7.8696739e-01  -1.9327711e+06
   1.6698900e-09  -6.1097557e-04   8.2545594e-01   7.8712947e-01  -1.9166678e+06
   1.6725575e-09  -6.0588406e-04   8.2529749e-01   7.8729024e-01  -1.9006985e+06
   1.6752251e-09  -6.0083497e-04   8.2514038e-01   7.8744968e-01  -1.8848623e+06
   1.6778926e-09  -5.9582796e-04   8.2498460e-01   7.8760783e-01  -1.8691580e+06
   1.6805602e-09  -5.9086266e-04   8.2483014e-01   7.8776468e-01  -1.8535844e+06
   1.6832277e-09  -5.8593873e-04   8.2467698e-01   7.8792025e-01  -1.8381406e+06
   1.6858953e-09  -5.8105582e-04   8.2452513e-01   7.8807455e-01  -1.8228254e+06
   1.6885629e-09  -5.7621360e-04   8.2437456e-01   7.8822758e-01  -1.8076378e+06
   1.6912304e-09  -5.7141173e-04   8.2422527e-01   7.8837937e-01  -1.7925767e+06
   1.6938980e-09  -5.6664986e-04   8.2407724e-01   7.8852991e-01  -1.7776410e+06
   1.6965655e-09  -5.6192767e-04   8.2393047e-01   7.8867922e-01  -1.7628297e+06
   1.6992331e-09  -5.5724483e-04   8.2378493e-01   7.8882731e-01  -1.7481418e+06
   1.7019006e-09  -5.5260100e-04   8.2364063e-01   7.8897418e-01  -1.7335763e+06
   1.7045682e-09  -5.4799586e-04   8.2349755e-01   7.8911985e-01  -1.7191320e+06
   1.7072357e-09  -5.4342910e-04   8.2335569e-01   7.8926433e-01  -1.7048081e+06
   1.7099033e-09  -5.3890039e-04   8.2321502e-01   7.8940763e-01  -1.6906035e+06
   1.7125709e-09  -5.3440941e-04   8.2307554e-01   7.8954975e-01  -1.6765172e+06
   1.7152384e-09  -5.2995585e-04   8.2293724e-01   7.8969071e-01  -1.6625482e+06
   1.7179060e-09  -5.2553939e-04   8.2280011e-01   7.8983051e-01  -1.6486956e+06
   1.7205735e-09  -5.2115974e-04   8.2266414e-01   7.8996917e-01  -1.6349584e+06
   1.7232411e-09  -5.1681658e-04   8.2252933e-01   7.9010669e-01  -1.6213356e+06
   1.7259086e-09  -5.1250960e-04   8.2239565e-01   7.9024309e-01  -1.6078262e+06
   1.7285762e-09  -5.0823851e-04   8.2226310e-01   7.9037836e-01  -1.5944294e+06
   1.7312437e-09  -5.0400301e-04   8.2213167e-01   7.9051253e-01  -1.5811442e+06
   1.7339113e-09  -4.9980281e-04   8.2200135e-01   7.9064560e-01  -1.5679697e+06
   1.7365789e-09  -4.9563760e-04   8.2187213e-01   7.9077757e-01  -1.5549049e+06
   1.7392464e-09  -4.9150709e-04   8.2174401e-01   7.9090846e-01  -1.5419489e+06
   1.7419140e-09  -4.8741100e-04   8.2161697e-01   7.9103828e-01  -1.5291009e+06
   1.7445815e-09  -4.8334904e-04   8.2149100e-01   7.9116704e-01  -1.5163598e+06
   1.7472491e-09  -4.7932093e-04   8.2136610e-01   7.9129473e-01  -1.5037249e+06
   1.7499166e-09  -4.7532638e-04   8.2124225e-01   7.9142138e-01  -1.4911953e+06
   1.7525842e-09  -4.7136512e-04   8.2111944e-01   7.9154699e-01  -1.4787700e+06
   1.7552518e-09  -4.6743686e-04   8.2099768e-01   7.9167157e-01  -1.4664482e+06
   1.7579193e-09  -4.6354134e-04   8.2087694e-01   7.9179513e-01  -1.4542291e+06
   1.7605869e-09  -4.5967827e-04   8.2075722e-01   7.9191767e-01  -1.4421117e+06
   1.7632544e-09  -4.5584739e-04   8.2063851e-01   7.9203920e-01  -1.4300953e+06
   1.7659220e-09  -4.5204844e-04   8.2052080e-01   7.9215974e-01  -1.4181790e+06
   1.7685895e-09  -4.4828114e-04   8.2040409e-01   7.9227928e-01  -1.4063620e+06
   1.7712571e-09  -4.4454523e-04   8.2028836e-01   7.9239785e-01  -1.3946434e+06
   1.7739246e-09  -4.4084045e-04   8.2017361e-01   7.9251544e-01  -1.3830224e+06
   1.7765922e-09  -4.3716654e-04   8.2005983e-01   7.9263206e-01  -1.3714982e+06
   1.7792598e-09  -4.3352324e-04   8.1994701e-01   7.9274773e-01  -1.3600700e+06
   1.7819273e-09  -4.2991031e-04   8.1983514e-01   7.9286244e-01  -1.3487370e+06
   1.7845949e-09  -4.2632747e-04   8.1972421e-01   7.9297621e-01  -1.3374985e+06
   1.7872624e-09  -4.2277449e-04   8.1961422e-01   7.9308905e-01  -1.3263535e+06
   1.7899300e-09  -4.1925112e-04   8.1950515e-01   7.9320096e-01  -1.3153014e+06
   1.7925975e-09  -4.1575711e-04   8.1939701e-01   7.9331195e-01  -1.3043414e+06
   1.7952651e-09  -4.1229221e-04   8.1928977e-01   7.9342202e-01  -1.2934727e+06
   1.7979326e-09  -4.0885619e-04   8.1918344e-01   7.9353119e-01  -1.2826945e+06
   1.8006002e-09  -4.0544879e-04   8.1907801e-01   7.9363947e-01  -1.2720061e+06
   1.8032678e-09  -4.0206979e-04   8.1897347e-01   7.9374685e-01  -1.2614067e+06
   1.8059353e-09  -3.9871895e-04   8.1886981e-01   7.9385334e-01  -1.2508956e+06
   1.8086029e-09  -3.9539602e-04   8.1876702e-01   7.9395897e-01  -1.2404721e+06
   1.8112704e-09  -3.9210079e-04   8.1866509e-01   7.9406372e-01  -1.2301355e+06
   1.8139380e-09  -3.8883302e-04   8.1856403e-01   7.9416761e-01  -1.2198849e+06
   1.8166055e-09  -3.8559247e-04   8.1846382e-01   7.9427064e-01  -1.2097198e+06
   1.8192731e-09  -3.8237893e-04   8.1836445e-01   7.9437283e-01  -1.1996393e+06
   1.8219406e-09  -3.7919217e-04   8.1826592e-01   7.9447418e-01  -1.1896428e+06
   1.8246082e-09  -3.7603196e-04   8.1816822e-01   7.9457469e-01  -1.1797296e+06
   1.8272758e-09  -3.7289808e-04   8.1807134e-01   7.9467437e-01  -1.1698990e+06
   1.8299433e-09  -3.6979032e-04   8.1797528e-01   7.9477323e-01  -1.1601502e+06
   1.8326109e-09  -3.6670846e-04   8.1788002e-01   7.9487128e-01  -1.1504827e+06
   1.8352784e-09  -3.6365228e-04   8.1778557e-01   7.9496852e-01  -1.1408957e+06
   1.8379460e-09  -3.6062156e-04   8.1769192e-01   7.9506496e-01  -1.1313886e+06
   1.8406135e-09  -3.5761610e-04   8.1759905e-01   7.9516061e-01  -1.1219607e+06
   1.8432811e-09  -3.5463569e-04   8.1750696e-01   7.9525546e-01  -1.1126114e+06
   1.8459486e-09  -3.5168011e-04   8.1741565e-01   7.9534954e-01  -1.1033399e+06
   1.8486162e-09  -3.4874916e-04   8.1732511e-01   7.9544284e-01  -1.0941457e+06
   1.8512838e-09  -3.4584263e-04   8.1723533e-01   7.9553537e-01  -1.0850281e+06
   1.8539513e-09  -3.4296033e-04   8.1714631e-01   7.9562714e-01  -1.0759864e+06
   1.8566189e-09  -3.4010204e-04   8.1705803e-01   7.9571815e-01  -1.0670201e+06
   1.8592864e-09  -3.3726757e-04   8.1697050e-01   7.9580841e-01  -1.0581284e+06
   1.8619540e-09  -3.3445672e-04   8.1688370e-01   7.9589793e-01  -1.0493109e+06
   1.8646215e-09  -3.3166930e-04   8.1679764e-01   7.9598671e-01  -1.0405668e+06
   1.8672891e-09  -3.2890510e-04   8.1671229e-01   7.9607475e-01  -1.0318955e+06
   1.8699567e-09  -3.2616394e-04   8.1662767e-01   7.9616207e-01  -1.0232965e+06
   1.8726242e-09  -3.2344562e-04   8.1654376e-01   7.9624867e-01  -1.0147692e+06
   1.8752918e-09  -3.2074995e-04   8.1646055e-01   7.9633456e-01  -1.0063129e+06
   1.8779593e-09  -3.1807675e-04   8.1637804e-01   7.9641974e-01  -9.9792699e+05
   1.8806269e-09  -3.1542582e-04   8.1629623e-01   7.9650421e-01  -9.8961099e+05
   1.8832944e-09  -3.1279699e-04   8.1621511e-01   7.9658799e-01  -9.8136428e+05
   1.8859620e-09  -3.1019006e-04   8.1613466e-01   7.9667108e-01  -9.7318628e+05
   1.8886295e-09  -3.0760485e-04   8.1605490e-01   7.9675348e-01  -9.6507641e+05
   1.8912971e-09  -3.0504119e-04   8.1597580e-01   7.9683520e-01  -9.5703411e+05
   1.8939647e-09  -3.0249889e-04   8.1589737e-01   7.9691625e-01  -9.4905881e+05
   1.8966322e-09  -2.9997778e-04   8.1581960e-01   7.9699662e-01  -9.4114996e+05
   1.8992998e-09  -2.9747768e-04   8.1574248e-01   7.9707634e-01  -9.3330701e+05
   1.9019673e-09  -2.9499841e-04   8.1566601e-01   7.9715539e-01  -9.2552940e+05
   1.9046349e-09  -2.9253980e-04   8.1559018e-01   7.9723380e-01  -9.1781659e+05
   1.9073024e-09  -2.9010169e-04   8.1551499e-01   7.9731155e-01  -9.1016804e+05
   1.9099700e-09  -2.8768388e-04   8.1544043e-01   7.9738867e-01  -9.0258322e+05
   1.9126375e-09  -2.8528623e-04   8.1536650e-01   7.9746514e-01  -8.9506159e+05
   1.9153051e-09  -2.8290856e-04   8.1529319e-01   7.9754099e-01  -8.8760263e+05
   1.9179727e-09  -2.8055070e-04   8.1522050e-01   7.9761621e-01  -8.8020582e+05
   1.9206402e-09  -2.7821249e-04   8.1514841e-01   7.9769080e-01  -8.7287064e+05
   1.9233078e-09  -2.7589377e-04   8.1507693e-01   7.9776478e-01  -8.6559657e+05
   1.9259753e-09  -2.7359437e-04   8.1500605e-01   7.9783815e-01  -8.5838311e+05
   1.9286429e-09  -2.7131414e-04   8.1493577e-01   7.9791092e-01  -8.5122975e+05
   1.9313104e-09  -2.6905290e-04   8.1486608e-01   7.9798308e-01  -8.4413600e+05
   1.9339780e-09  -2.6681051e-04   8.1479697e-01   7.9805465e-01  -8.3710135e+05
   1.9366455e-09  -2.6458681e-04   8.1472844e-01   7.9812562e-01  -8.3012531e+05
   1.9393131e-09  -2.6238163e-04   8.1466049e-01   7.9819601e-01  -8.2320739e+05
   1.9419807e-09  -2.6019484e-04   8.1459311e-01   7.9826582e-01  -8.1634712e+05
   1.9446482e-09  -2.5802627e-04   8.1452630e-01   7.9833505e-01  -8.0954400e+05
   1.9473158e-09  -2.5587577e-04   8.1446004e-01   7.9840370e-01  -8.0279757e+05
   1.9499833e-09  -2.5374319e-04   8.1439434e-01   7.9847179e-01  -7.9610736e+05
   1.9526509e-09  -2.5162838e-04   8.1432919e-01   7.9853932e-01  -7.8947288e+05
   1.9553184e-09  -2.4953120e-04   8.1426459e-01   7.9860629e-01  -7.8289369e+05
   1.9579860e-09  -2.4745150e-04   8.1420054e-01   7.9867270e-01  -7.7636931e+05
   1.9606536e-09  -2.4538912e-04   8.1413702e-01   7.9873857e-01  -7.6989930e+05
   1.9633211e-09  -2.4334394e-04   8.1407403e-01   7.9880389e-01  -7.6348320e+05
   1.9659887e-09  -2.4131580e-04   8.1401157e-01   7.9886867e-01  -7.5712055e+05
   1.9686562e-09  -2.3930456e-04   8.1394964e-01   7.9893291e-01  -7.5081093e+05
   1.9713238e-09  -2.3731008e-04   8.1388822e-01   7.9899663e-01  -7.4455387e+05
   1.9739913e-09  -2.3533222e-04   8.1382732e-01   7.9905981e-01  -7.3834896e+05
   1.9766589e-09  -2.3337085e-04   8.1376693e-01   7.9912248e-01  -7.3219574e+05
   1.9793264e-09  -2.3142582e-04   8.1370705e-01   7.9918462e-01  -7.2609379e+05
   1.9819940e-09  -2.2949700e-04   8.1364767e-01   7.9924625e-01  -7.2004269e+05
   1.9846616e-09  -2.2758425e-04   8.1358879e-01   7.9930737e-01  -7.1404201e+05
   1.9873291e-09  -2.2568745e-04   8.1353040e-01   7.9936799e-01  -7.0809133e+05
   1.9899967e-09  -2.2380645e-04   8.1347250e-01   7.9942810e-01  -7.0219023e+05
   1.9926642e-09  -2.2194113e-04   8.1341509e-01   7.9948772e-01  -6.9633830e+05
   1.9953318e-09  -2.2009135e-04   8.1335816e-01   7.9954684e-01  -6.9053514e+05
   1.9979993e-09  -2.1825699e-04   8.1330171e-01   7.9960547e-01  -6.8478033e+05
   2.0006669e-09  -2.1643792e-04   8.1324573e-01   7.9966362e-01  -6.7907347e+05
   2.0033344e-09  -2.1463401e-04   8.1319022e-01   7.9972129e-01  -6.7341416e+05
   2.0060020e-09  -2.1284513e-04   8.1313517e-01   7.9977848e-01  -6.6780201e+05
   2.0086696e-09  -2.1107116e-04   8.1308059e-01   7.9983520e-01  -6.6223663e+05
   2.0113371e-09  -2.0931197e-04   8.1302646e-01   7.9989144e-01  -6.5671761e+05
   2.0140047e-09  -2.0756745e-04   8.1297279e-01   7.9994722e-01  -6.5124459e+05
   2.0166722e-09  -2.0583746e-04   8.1291957e-01   8.0000254e-01  -6.4581717e+05
   2.0193398e-09  -2.0412189e-04   8.1286679e-01   8.0005740e-01  -6.4043498e+05
   2.0220073e-09  -2.0242062e-04   8.1281446e-01   8.0011181e-01  -6.3509763e+05
   2.0246749e-09  -2.0073352e-04   8.1276256e-01   8.0016577e-01  -6.2980476e+05
   2.0273424e-09  -1.9906049e-04   8.1271110e-01   8.0021928e-01  -6.2455599e+05
   2.0300100e-09  -1.9740140e-04   8.1266008e-01   8.0027234e-01  -6.1935096e+05
   2.0326776e-09  -1.9575614e-04   8.1260948e-01   8.0032497e-01  -6.1418930e+05
   2.0353451e-09  -1.9412458e-04   8.1255930e-01   8.0037716e-01  -6.0907066e+05
   2.0380127e-09  -1.9250663e-04   8.1250954e-01   8.0042892e-01  -6.0399466e+05
   2.0406802e-09  -1.9090216e-04   8.1246020e-01   8.0048025e-01  -5.9896096e+05
   2.0433478e-09  -1.8931106e-04   8.1241128e-01   8.0053115e-01  -5.9396921e+05
   2.0460153e-09  -1.8773322e-04   8.1236276e-01   8.0058163e-01  -5.8901906e+05
   2.0486829e-09  -1.8616853e-04   8.1231465e-01   8.0063170e-01  -5.8411015e+05
   2.0513505e-09  -1.8461688e-04   8.1226695e-01   8.0068135e-01  -5.7924215e+05
   2.0540180e-09  -1.8307817e-04   8.1221964e-01   8.0073059e-01  -5.7441471e+05
   2.0566856e-09  -1.8155227e-04   8.1217273e-01   8.0077942e-01  -5.6962750e+05
   2.0593531e-09  -1.8003909e-04   8.1212621e-01   8.0082784e-01  -5.6488018e+05
   2.0620207e-09  -1.7853853e-04   8.1208008e-01   8.0087587e-01  -5.6017242e+05
   2.0646882e-09  -1.7705047e-04   8.1203434e-01   8.0092349e-01  -5.5550389e+05
   2.0673558e-09  -1.7557481e-04   8.1198898e-01   8.0097072e-01  -5.5087426e+05
   2.0700233e-09  -1.7411145e-04   8.1194401e-01   8.0101756e-01  -5.4628321e+05
   2.0726909e-09  -1.7266029e-04   8.1189940e-01   8.0106402e-01  -5.4173042e+05
   2.0753585e-09  -1.7122122e-04   8.1185518e-01   8.0111008e-01  -5.3721557e+05
   2.0780260e-09  -1.6979414e-04   8.1181132e-01   8.0115577e-01  -5.3273834e+05
   2.0806936e-09  -1.6837896e-04   8.1176783e-01   8.0120107e-01  -5.2829842e+05
   2.0833611e-09  -1.6697557e-04   8.1172470e-01   8.0124600e-01  -5.2389549e+05
   2.0860287e-09  -1.6558388e-04   8.1168194e-01   8.0129056e-01  -5.1952926e+05
   2.0886962e-09  -1.6420378e-04   8.1163953e-01   8.0133475e-01  -5.1519941e+05
   2.0913638e-09  -1.6283519e-04   8.1159748e-01   8.0137857e-01  -5.1090565e+05
   2.0940313e-09  -1.6147801e-04   8.1155578e-01   8.0142203e-01  -5.0664766e+05
   2.0966989e-09  -1.6013213e-04   8.1151443e-01   8.0146513e-01  -5.0242516e+05
   2.0993665e-09  -1.5879747e-04   8.1147343e-01   8.0150787e-01  -4.9823784e+05
   2.1020340e-09  -1.5747394e-04   8.1143276e-01   8.0155026e-01  -4.9408542e+05
   2.1047016e-09  -1.5616143e-04   8.1139244e-01   8.0159229e-01  -4.8996760e+05
   2.1073691e-09  -1.5485987e-04   8.1135246e-01   8.0163398e-01  -4.8588410e+05
   2.1100367e-09  -1.5356915e-04   8.1131281e-01   8.0167532e-01  -4.8183462e+05
   2.1127042e-09  -1.5228919e-04   8.1127350e-01   8.0171632e-01  -4.7781889e+05
   2.1153718e-09  -1.5101990e-04   8.1123451e-01   8.0175698e-01  -4.7383662e+05
   2.1180393e-09  -1.4976118e-04   8.1119585e-01   8.0179730e-01  -4.6988754e+05
   2.1207069e-09  -1.4851296e-04   8.1115751e-01   8.0183728e-01  -4.6597137e+05
   2.1233745e-09  -1.4727514e-04   8.1111949e-01   8.0187694e-01  -4.6208784e+05
   2.1260420e-09  -1.4604763e-04   8.1108180e-01   8.0191626e-01  -4.5823666e+05
   2.1287096e-09  -1.4483036e-04   8.1104441e-01   8.0195526e-01  -4.5441758e+05
   2.1313771e-09  -1.4362323e-04   8.1100734e-01   8.0199394e-01  -4.5063033e+05
   2.1340447e-09  -1.4242616e-04   8.1097058e-01   8.0203229e-01  -4.4687463e+05
   2.1367122e-09  -1.4123907e-04   8.1093413e-01   8.0207033e-01  -4.4315024e+05
   2.1393798e-09  -1.4006187e-04   8.1089799e-01   8.0210805e-01  -4.3945688e+05
   2.1420473e-09  -1.3889448e-04   8.1086214e-01   8.0214546e-01  -4.3579430e+05
   2.1447149e-09  -1.3773683e-04   8.1082660e-01   8.0218256e-01  -4.3216224e+05
   2.1473825e-09  -1.3658882e-04   8.1079135e-01   8.0221935e-01  -4.2856045e+05
   2.1500500e-09  -1.3545038e-04   8.1075640e-01   8.0225583e-01  -4.2498867e+05
   2.1527176e-09  -1.3432142e-04   8.1072174e-01   8.0229201e-01  -4.2144666e+05
   2.1553851e-09  -1.3320188e-04   8.1068737e-01   8.0232789e-01  -4.1793417e+05
   2.1580527e-09  -1.3209167e-04   8.1065328e-01   8.0236348e-01  -4.1445095e+05
   2.1607202e-09  -1.3099071e-04   8.1061949e-01   8.0239876e-01  -4.1099675e+05
   2.1633878e-09  -1.2989892e-04   8.1058597e-01   8.0243376e-01  -4.0757134e+05
   2.1660554e-09  -1.2881624e-04   8.1055274e-01   8.0246846e-01  -4.0417448e+05
   2.1687229e-09  -1.2774258e-04   8.1051978e-01   8.0250288e-01  -4.0080593e+05
   2.1713905e-09  -1.2667786e-04   8.1048710e-01   8.0253701e-01  -3.9746545e+05
   2.1740580e-09  -1.2562202e-04   8.1045470e-01   8.0257086e-01  -3.9415280e+05
   2.1767256e-09  -1.2457498e-04   8.1042256e-01   8.0260443e-01  -3.9086777e+05
   2.1793931e-09  -1.2353667e-04   8.1039069e-01   8.0263771e-01  -3.8761010e+05
   2.1820607e-09  -1.2250701e-04   8.1035909e-01   8.0267073e-01  -3.8437959e+05
   2.1847282e-09  -1.2148593e-04   8.1032776e-01   8.0270346e-01  -3.8117600e+05
   2.1873958e-09  -1.2047337e-04   8.1029668e-01   8.0273593e-01  -3.7799911e+05
   2.1900634e-09  -1.1946924e-04   8.1026587e-01   8.0276812e-01  -3.7484869e+05
   2.1927309e-09  -1.1847348e-04   8.1023531e-01   8.0280005e-01  -3.7172453e+05
   2.1953985e-09  -1.1748602e-04   8.1020501e-01   8.0283172e-01  -3.6862640e+05
   2.1980660e-09  -1.1650679e-04   8.1017496e-01   8.0286312e-01  -3.6555409e+05
   2.2007336e-09  -1.1553572e-04   8.1014517e-01   8.0289426e-01  -3.6250738e+05
   2.2034011e-09  -1.1457274e-04   8.1011562e-01   8.0292514e-01  -3.5948607e+05
   2.2060687e-09  -1.1361779e-04   8.1008632e-01   8.0295576e-01  -3.5648994e+05
   2.2087362e-09  -1.1267080e-04   8.1005726e-01   8.0298613e-01  -3.5351877e+05
   2.2114038e-09  -1.1173170e-04   8.1002845e-01   8.0301625e-01  -3.5057236e+05
   2.2140714e-09  -1.1080043e-04   8.0999988e-01   8.0304612e-01  -3.4765051e+05
   2.2167389e-09  -1.0987692e-04   8.0997155e-01   8.0307574e-01  -3.4475301e+05
   2.2194065e-09  -1.0896111e-04   8.0994345e-01   8.0310512e-01  -3.4187966e+05
   2.2220740e-09  -1.0805293e-04   8.0991559e-01   8.0313425e-01  -3.3903025e+05
   2.2247416e-09  -1.0715232e-04   8.0988796e-01   8.0316313e-01  -3.3620459e+05
   2.2274091e-09  -1.0625922e-04   8.0986057e-01   8.0319178e-01  -3.3340248e+05
   2.2300767e-09  -1.0537356e-04   8.0983340e-01   8.0322019e-01  -3.3062372e+05
   2.2327442e-09  -1.0449528e-04   8.0980646e-01   8.0324837e-01  -3.2786812e+05
   2.2354118e-09  -1.0362432e-04   8.0977974e-01   8.0327631e-01  -3.2513548e+05
   2.2380794e-09  -1.0276062e-04   8.0975325e-01   8.0330401e-01  -3.2242562e+05
   2.2407469e-09  -1.0190412e-04   8.0972698e-01   8.0333149e-01  -3.1973834e+05
   2.2434145e-09  -1.0105476e-04   8.0970093e-01   8.0335874e-01  -3.1707346e+05
   2.2460820e-09  -1.0021247e-04   8.0967509e-01   8.0338577e-01  -3.1443078e+05
   2.2487496e-09  -9.9377208e-05   8.0964948e-01   8.0341256e-01  -3.1181013e+05
   2.2514171e-09  -9.8548906e-05   8.0962407e-01   8.0343914e-01  -3.0921132e+05
   2.2540847e-09  -9.7727508e-05   8.0959888e-01   8.0346549e-01  -3.0663417e+05
   2.2567523e-09  -9.6912956e-05   8.0957390e-01   8.0349163e-01  -3.0407849e+05
   2.2594198e-09  -9.6105193e-05   8.0954913e-01   8.0351755e-01  -3.0154412e+05
   2.2620874e-09  -9.5304162e-05   8.0952457e-01   8.0354325e-01  -2.9903086e+05
   2.2647549e-09  -9.4509807e-05   8.0950021e-01   8.0356874e-01  -2.9653855e+05
   2.2674225e-09  -9.3722074e-05   8.0947605e-01   8.0359402e-01  -2.9406702e+05
   2.2700900e-09  -9.2940905e-05   8.0945210e-01   8.0361909e-01  -2.9161608e+05
   2.2727576e-09  -9.2166247e-05   8.0942834e-01   8.0364395e-01  -2.8918556e+05
   2.2754251e-09  -9.1398046e-05   8.0940479e-01   8.0366860e-01  -2.8677530e+05
   2.2780927e-09  -9.0636248e-05   8.0938143e-01   8.0369305e-01  -2.8438513e+05
   2.2807603e-09  -8.9880799e-05   8.0935827e-01   8.0371730e-01  -2.8201488e+05
   2.2834278e-09  -8.9131646e-05   8.0933530e-01   8.0374134e-01  -2.7966439e+05
   2.2860954e-09  -8.8388737e-05   8.0931252e-01   8.0376518e-01  -2.7733348e+05
   2.2887629e-09  -8.7652020e-05   8.0928993e-01   8.0378883e-01  -2.7502200e+05
   2.2914305e-09  -8.6921444e-05   8.0926753e-01   8.0381228e-01  -2.7272978e+05
   2.2940980e-09  -8.6196956e-05   8.0924532e-01   8.0383553e-01  -2.7045667e+05
   2.2967656e-09  -8.5478507e-05   8.0922330e-01   8.0385859e-01  -2.6820250e+05
   2.2994331e-09  -8.4766046e-05   8.0920146e-01   8.0388146e-01  -2.6596711e+05
   2.3021007e-09  -8.4059523e-05   8.0917980e-01   8.0390414e-01  -2.6375036e+05
   2.3047683e-09  -8.3358889e-05   8.0915832e-01   8.0392663e-01  -2.6155208e+05
   2.3074358e-09  -8.2664094e-05   8.0913702e-01   8.0394894e-01  -2.5937212e+05
   2.3101034e-09  -8.1975090e-05   8.0911590e-01   8.0397105e-01  -2.5721034e+05
   2.3127709e-09  -8.1291829e-05   8.0909495e-01   8.0399299e-01  -2.5506656e+05
   2.3154385e-09  -8.0614263e-05   8.0907418e-01   8.0401474e-01  -2.5294066e+05
   2.3181060e-09  -7.9942344e-05   8.0905359e-01   8.0403631e-01  -2.5083247e+05
   2.3207736e-09  -7.9276025e-05   8.0903316e-01   8.0405770e-01  -2.4874185e+05
   2.3234411e-09  -7.8615260e-05   8.0901291e-01   8.0407892e-01  -2.4666866e+05
   2.3261087e-09  -7.7960002e-05   8.0899283e-01   8.0409995e-01  -2.4461274e+05
   2.3287763e-09  -7.7310206e-05   8.0897291e-01   8.0412082e-01  -2.4257396e+05
   2.3314438e-09  -7.6665825e-05   8.0895316e-01   8.0414151e-01  -2.4055217e+05
   2.3341114e-09  -7.6026815e-05   8.0893357e-01   8.0416202e-01  -2.3854723e+05
   2.3367789e-09  -7.5393131e-05   8.0891415e-01   8.0418237e-01  -2.3655900e+05
   2.3394465e-09  -7.4764729e-05   8.0889489e-01   8.0420255e-01  -2.3458734e+05
   2.3421140e-09  -7.4141564e-05   8.0887580e-01   8.0422256e-01  -2.3263211e+05
   2.3447816e-09  -7.3523594e-05   8.0885686e-01   8.0424240e-01  -2.3069318e+05
   2.3474491e-09  -7.2910774e-05   8.0883808e-01   8.0426208e-01  -2.2877041e+05
   2.3501167e-09  -7.2303061e-05   8.0881945e-01   8.0428159e-01  -2.2686366e+05
   2.3527843e-09  -7.1700414e-05   8.0880098e-01   8.0430094e-01  -2.2497280e+05
   2.3554518e-09  -7.1102790e-05   8.0878267e-01   8.0432014e-01  -2.2309770e+05
   2.3581194e-09  -7.0510146e-05   8.0876451e-01   8.0433917e-01  -2.2123823e+05
   2.3607869e-09  -6.9922443e-05   8.0874650e-01   8.0435804e-01  -2.1939426e+05
   2.3634545e-09  -6.9339637e-05   8.0872864e-01   8.0437676e-01  -2.1756566e+05
   2.3661220e-09  -6.8761690e-05   8.0871093e-01   8.0439532e-01  -2.1575229e+05
   2.3687896e-09  -6.8188559e-05   8.0869337e-01   8.0441372e-01  -2.1395404e+05
   2.3714572e-09  -6.7620205e-05   8.0867595e-01   8.0443198e-01  -2.1217078e+05
   2.3741247e-09  -6.7056589e-05   8.0865868e-01   8.0445008e-01  -2.1040238e+05
   2.3767923e-09  -6.6497670e-05   8.0864156e-01   8.0446803e-01  -2.0864872e+05
   2.3794598e-09  -6.5943409e-05   8.0862458e-01   8.0448583e-01  -2.0690967e+05
   2.3821274e-09  -6.5393768e-05   8.0860773e-01   8.0450349e-01  -2.0518512e+05
   2.3847949e-09  -6.4848709e-05   8.0859103e-01   8.0452099e-01  -2.0347494e+05
   2.3874625e-09  -6.4308192e-05   8.0857447e-01   8.0453835e-01  -2.0177901e+05
   2.3901300e-09  -6.3772180e-05   8.0855805e-01   8.0455557e-01  -2.0009722e+05
   2.3927976e-09  -6.3240636e-05   8.0854177e-01   8.0457264e-01  -1.9842944e+05
   2.3954652e-09  -6.2713523e-05   8.0852562e-01   8.0458957e-01  -1.9677557e+05
   2.3981327e-09  -6.2190802e-05   8.0850960e-01   8.0460637e-01  -1.9513548e+05
   2.4008003e-09  -6.1672439e-05   8.0849372e-01   8.0462302e-01  -1.9350905e+05
   2.4034678e-09  -6.1158396e-05   8.0847797e-01   8.0463953e-01  -1.9189619e+05
   2.4061354e-09  -6.0648637e-05   8.0846236e-01   8.0465590e-01  -1.9029676e+05
   2.4088029e-09  -6.0143128e-05   8.0844687e-01   8.0467214e-01  -1.8871067e+05
   2.4114705e-09  -5.9641831e-05   8.0843151e-01   8.0468825e-01  -1.8713779e+05
   2.4141380e-09  -5.9144713e-05   8.0841628e-01   8.0470422e-01  -1.8557803e+05
   2.4168056e-09  -5.8651738e-05   8.0840118e-01   8.0472005e-01  -1.8403126e+05
   2.4194732e-09  -5.8162872e-05   8.0838621e-01   8.0473576e-01  -1.8249739e+05
   2.4221407e-09  -5.7678081e-05   8.0837136e-01   8.0475133e-01  -1.8097630e+05
   2.4248083e-09  -5.7197330e-05   8.0835663e-01   8.0476678e-01  -1.7946788e+05
   2.4274758e-09  -5.6720587e-05   8.0834203e-01   8.0478209e-01  -1.7797204e+05
   2.4301434e-09  -5.6247817e-05   8.0832755e-01   8.0479728e-01  -1.7648867e+05
   2.4328109e-09  -5.5778987e-05   8.0831318e-01   8.0481235e-01  -1.7501766e+05
   2.4354785e-09  -5.5314065e-05   8.0829894e-01   8.0482728e-01  -1.7355891e+05
   2.4381460e-09  -5.4853019e-05   8.0828482e-01   8.0484210e-01  -1.7211231e+05
   2.4408136e-09  -5.4395814e-05   8.0827082e-01   8.0485679e-01  -1.7067778e+05
   2.4434812e-09  -5.3942421e-05   8.0825693e-01   8.0487135e-01  -1.6925520e+05
   2.4461487e-09  -5.3492807e-05   8.0824316e-01   8.0488580e-01  -1.6784448e+05
   2.4488163e-09  -5.3046940e-05   8.0822950e-01   8.0490013e-01  -1.6644551e+05
   2.4514838e-09  -5.2604789e-05   8.0821596e-01   8.0491433e-01  -1.6505820e+05
   2.4541514e-09  -5.2166324e-05   8.0820253e-01   8.0492842e-01  -1.6368246e+05
   2.4568189e-09  -5.1731513e-05   8.0818921e-01   8.0494239e-01  -1.6231818e+05
   2.4594865e-09  -5.1300327e-05   8.0817601e-01   8.0495625e-01  -1.6096528e+05
   2.4621541e-09  -5.0872734e-05   8.0816291e-01   8.0496999e-01  -1.5962365e+05
   2.4648216e-09  -5.0448705e-05   8.0814993e-01   8.0498361e-01  -1.5829320e+05
   2.4674892e-09  -5.0028211e-05   8.0813705e-01   8.0499713e-01  -1.5697384e+05
   2.4701567e-09  -4.9611221e-05   8.0812428e-01   8.0501053e-01  -1.5566547e+05
   2.4728243e-09  -4.9197707e-05   8.0811161e-01   8.0502381e-01  -1.5436802e+05
   2.4754918e-09  -4.8787639e-05   8.0809906e-01   8.0503699e-01  -1.5308137e+05
   2.4781594e-09  -4.8380990e-05   8.0808660e-01   8.0505006e-01  -1.5180545e+05
   2.4808269e-09  -4.7977730e-05   8.0807425e-01   8.0506302e-01  -1.5054016e+05
   2.4834945e-09  -4.7577830e-05   8.0806201e-01   8.0507587e-01  -1.4928542e+05
   2.4861621e-09  -4.7181264e-05   8.0804986e-01   8.0508861e-01  -1.4804114e+05
   2.4888296e-09  -4.6788004e-05   8.0803782e-01   8.0510125e-01  -1.4680722e+05
   2.4914972e-09  -4.6398021e-05   8.0802588e-01   8.0511379e-01  -1.4558359e+05
   2.4941647e-09  -4.6011289e-05   8.0801403e-01   8.0512621e-01  -1.4437016e+05
   2.4968323e-09  -4.5627780e-05   8.0800229e-01   8.0513854e-01  -1.4316685e+05
   2.4994998e-09  -4.5247467e-05   8.0799064e-01   8.0515076e-01  -1.4197356e+05
   2.5021674e-09  -4.4870325e-05   8.0797910e-01   8.0516288e-01  -1.4079022e+05
   2.5048349e-09  -4.4496326e-05   8.0796764e-01   8.0517490e-01  -1.3961674e+05
   2.5075025e-09  -4.4125444e-05   8.0795629e-01   8.0518682e-01  -1.3845304e+05
   2.5101701e-09  -4.3757654e-05   8.0794502e-01   8.0519864e-01  -1.3729904e+05
   2.5128376e-09  -4.3392929e-05   8.0793386e-01   8.0521037e-01  -1.3615466e+05
   2.5155052e-09  -4.3031244e-05   8.0792278e-01   8.0522199e-01  -1.3501981e+05
   2.5181727e-09  -4.2672573e-05   8.0791180e-01   8.0523352e-01  -1.3389443e+05
   2.5208403e-09  -4.2316892e-05   8.0790091e-01   8.0524495e-01  -1.3277842e+05
   2.5235078e-09  -4.1964176e-05   8.0789011e-01   8.0525629e-01  -1.3167172e+05
   2.5261754e-09  -4.1614400e-05   8.0787940e-01   8.0526753e-01  -1.3057424e+05
   2.5288429e-09  -4.1267539e-05   8.0786878e-01   8.0527868e-01  -1.2948591e+05
   2.5315105e-09  -4.0923569e-05   8.0785825e-01   8.0528974e-01  -1.2840665e+05
   2.5341781e-09  -4.0582466e-05   8.0784780e-01   8.0530070e-01  -1.2733638e+05
   2.5368456e-09  -4.0244206e-05   8.0783745e-01   8.0531157e-01  -1.2627503e+05
   2.5395132e-09  -3.9908765e-05   8.0782718e-01   8.0532236e-01  -1.2522253e+05
   2.5421807e-09  -3.9576121e-05   8.0781699e-01   8.0533305e-01  -1.2417881e+05
   2.5448483e-09  -3.9246249e-05   8.0780689e-01   8.0534365e-01  -1.2314378e+05
   2.5475158e-09  -3.8919126e-05   8.0779688e-01   8.0535417e-01  -1.2211738e+05
   2.5501834e-09  -3.8594730e-05   8.0778695e-01   8.0536460e-01  -1.2109953e+05
   2.5528510e-09  -3.8273038e-05   8.0777710e-01   8.0537494e-01  -1.2009017e+05
   2.5555185e-09  -3.7954027e-05   8.0776733e-01   8.0538519e-01  -1.1908922e+05
   2.5581861e-09  -3.7637675e-05   8.0775765e-01   8.0539536e-01  -1.1809661e+05
   2.5608536e-09  -3.7323960e-05   8.0774804e-01   8.0540545e-01  -1.1711227e+05
   2.5635212e-09  -3.7012860e-05   8.0773852e-01   8.0541545e-01  -1.1613614e+05
   2.5661887e-09  -3.6704353e-05   8.0772907e-01   8.0542537e-01  -1.1516815e+05
   2.5688563e-09  -3.6398417e-05   8.0771971e-01   8.0543520e-01  -1.1420822e+05
   2.5715238e-09  -3.6095031e-05   8.0771042e-01   8.0544495e-01  -1.1325629e+05
   2.5741914e-09  -3.5794174e-05   8.0770121e-01   8.0545463e-01  -1.1231230e+05
   2.5768590e-09  -3.5495825e-05   8.0769208e-01   8.0546422e-01  -1.1137618e+05
   2.5795265e-09  -3.5199962e-05   8.0768302e-01   8.0547373e-01  -1.1044786e+05
   2.5821941e-09  -3.4906565e-05   8.0767404e-01   8.0548316e-01  -1.0952727e+05
   2.5848616e-09  -3.4615614e-05   8.0766513e-01   8.0549252e-01  -1.0861436e+05
   2.5875292e-09  -3.4327088e-05   8.0765630e-01   8.0550179e-01  -1.0770906e+05
   2.5901967e-09  -3.4040967e-05   8.0764754e-01   8.0551099e-01  -1.0681130e+05
   2.5928643e-09  -3.3757230e-05   8.0763885e-01   8.0552011e-01  -1.0592103e+05
   2.5955318e-09  -3.3475859e-05   8.0763024e-01   8.0552916e-01  -1.0503817e+05
   2.5981994e-09  -3.3196833e-05   8.0762170e-01   8.0553813e-01  -1.0416268e+05
   2.6008670e-09  -3.2920132e-05   8.0761323e-01   8.0554703e-01  -1.0329448e+05
   2.6035345e-09  -3.2645738e-05   8.0760483e-01   8.0555585e-01  -1.0243352e+05
   2.6062021e-09  -3.2373631e-05   8.0759650e-01   8.0556460e-01  -1.0157973e+05
   2.6088696e-09  -3.2103792e-05   8.0758824e-01   8.0557327e-01  -1.0073306e+05
   2.6115372e-09  -3.1836202e-05   8.0758005e-01   8.0558188e-01  -9.9893446e+04
   2.6142047e-09  -3.1570842e-05   8.0757193e-01   8.0559041e-01  -9.9060831e+04
   2.6168723e-09  -3.1307694e-05   8.0756387e-01   8.0559887e-01  -9.8235155e+04
   2.6195398e-09  -3.1046740e-05   8.0755588e-01   8.0560726e-01  -9.7416361e+04
   2.6222074e-09  -3.0787960e-05   8.0754796e-01   8.0561558e-01  -9.6604392e+04
   2.6248750e-09  -3.0531338e-05   8.0754011e-01   8.0562383e-01  -9.5799191e+04
   2.6275425e-09  -3.0276854e-05   8.0753232e-01   8.0563201e-01  -9.5000700e+04
   2.6302101e-09  -3.0024492e-05   8.0752459e-01   8.0564013e-01  -9.4208865e+04
   2.6328776e-09  -2.9774233e-05   8.0751694e-01   8.0564818e-01  -9.3423630e+04
   2.6355452e-09  -2.9526060e-05   8.0750934e-01   8.0565616e-01  -9.2644939e+04
   2.6382127e-09  -2.9279955e-05   8.0750181e-01   8.0566407e-01  -9.1872739e+04
   2.6408803e-09  -2.9035902e-05   8.0749434e-01   8.0567192e-01  -9.1106975e+04
   2.6435478e-09  -2.8793883e-05   8.0748693e-01   8.0567970e-01  -9.0347593e+04
   2.6462154e-09  -2.8553881e-05   8.0747958e-01   8.0568742e-01  -8.9594541e+04
   2.6488830e-09  -2.8315880e-05   8.0747230e-01   8.0569507e-01  -8.8847765e+04
   2.6515505e-09  -2.8079862e-05   8.0746508e-01   8.0570266e-01  -8.8107214e+04
   2.6542181e-09  -2.7845812e-05   8.0745791e-01   8.0571019e-01  -8.7372835e+04
   2.6568856e-09  -2.7613713e-05   8.0745081e-01   8.0571765e-01  -8.6644577e+04
   2.6595532e-09  -2.7383548e-05   8.0744376e-01   8.0572505e-01  -8.5922389e+04
   2.6622207e-09  -2.7155301e-05   8.0743678e-01   8.0573239e-01  -8.5206221e+04
   2.6648883e-09  -2.6928957e-05   8.0742985e-01   8.0573967e-01  -8.4496021e+04
   2.6675559e-09  -2.6704500e-05   8.0742298e-01   8.0574689e-01  -8.3791741e+04
   2.6702234e-09  -2.6481913e-05   8.0741617e-01   8.0575404e-01  -8.3093331e+04
   2.6728910e-09  -2.6261182e-05   8.0740941e-01   8.0576114e-01  -8.2400742e+04
   2.6755585e-09  -2.6042290e-05   8.0740271e-01   8.0576818e-01  -8.1713926e+04
   2.6782261e-09  -2.5825223e-05   8.0739607e-01   8.0577516e-01  -8.1032835e+04
   2.6808936e-09  -2.5609965e-05   8.0738948e-01   8.0578209e-01  -8.0357420e+04
   2.6835612e-09  -2.5396502e-05   8.0738295e-01   8.0578895e-01  -7.9687635e+04
   2.6862287e-09  -2.5184818e-05   8.0737647e-01   8.0579576e-01  -7.9023432e+04
   2.6888963e-09  -2.4974898e-05   8.0737005e-01   8.0580251e-01  -7.8364766e+04
   2.6915639e-09  -2.4766727e-05   8.0736368e-01   8.0580920e-01  -7.7711589e+04
   2.6942314e-09  -2.4560292e-05   8.0735736e-01   8.0581584e-01  -7.7063857e+04
   2.6968990e-09  -2.4355578e-05   8.0735109e-01   8.0582243e-01  -7.6421523e+04
   2.6995665e-09  -2.4152570e-05   8.0734488e-01   8.0582895e-01  -7.5784543e+04
   2.7022341e-09  -2.3951254e-05   8.0733872e-01   8.0583543e-01  -7.5152872e+04
   2.7049016e-09  -2.3751616e-05   8.0733261e-01   8.0584185e-01  -7.4526467e+04
   2.7075692e-09  -2.3553642e-05   8.0732655e-01   8.0584822e-01  -7.3905282e+04
   2.7102367e-09  -2.3357318e-05   8.0732054e-01   8.0585453e-01  -7.3289275e+04
   2.7129043e-09  -2.3162630e-05   8.0731459e-01   8.0586079e-01  -7.2678402e+04
   2.7155719e-09  -2.2969565e-05   8.0730868e-01   8.0586700e-01  -7.2072621e+04
   2.7182394e-09  -2.2778110e-05   8.0730282e-01   8.0587316e-01  -7.1471889e+04
   2.7209070e-09  -2.2588250e-05   8.0729701e-01   8.0587926e-01  -7.0876164e+04
   2.7235745e-09  -2.2399973e-05   8.0729125e-01   8.0588532e-01  -7.0285404e+04
   2.7262421e-09  -2.2213265e-05   8.0728553e-01   8.0589132e-01  -6.9699568e+04
   2.7289096e-09  -2.2028113e-05   8.0727987e-01   8.0589728e-01  -6.9118616e+04
   2.7315772e-09  -2.1844505e-05   8.0727425e-01   8.0590318e-01  -6.8542505e+04
   2.7342447e-09  -2.1662427e-05   8.0726868e-01   8.0590904e-01  -6.7971196e+04
   2.7369123e-09  -2.1481866e-05   8.0726315e-01   8.0591485e-01  -6.7404650e+04
   2.7395799e-09  -2.1302811e-05   8.0725767e-01   8.0592061e-01  -6.6842825e+04
   2.7422474e-09  -2.1125248e-05   8.0725224e-01   8.0592632e-01  -6.6285683e+04
   2.7449150e-09  -2.0949165e-05   8.0724685e-01   8.0593198e-01  -6.5733185e+04
   2.7475825e-09  -2.0774549e-05   8.0724151e-01   8.0593760e-01  -6.5185292e+04
   2.7502501e-09  -2.0601390e-05   8.0723621e-01   8.0594317e-01  -6.4641965e+04
   2.7529176e-09  -2.0429673e-05   8.0723096e-01   8.0594869e-01  -6.4103167e+04
   2.7555852e-09  -2.0259388e-05   8.0722575e-01   8.0595417e-01  -6.3568860e+04
   2.7582528e-09  -2.0090522e-05   8.0722058e-01   8.0595960e-01  -6.3039007e+04
   2.7609203e-09  -1.9923063e-05   8.0721545e-01   8.0596499e-01  -6.2513570e+04
   2.7635879e-09  -1.9757001e-05   8.0721037e-01   8.0597033e-01  -6.1992512e+04
   2.7662554e-09  -1.9592322e-05   8.0720533e-01   8.0597562e-01  -6.1475797e+04
   2.7689230e-09  -1.9429016e-05   8.0720034e-01   8.0598088e-01  -6.0963389e+04
   2.7715905e-09  -1.9267072e-05   8.0719538e-01   8.0598608e-01  -6.0455252e+04
   2.7742581e-09  -1.9106477e-05   8.0719047e-01   8.0599125e-01  -5.9951351e+04
   2.7769256e-09  -1.8947220e-05   8.0718559e-01   8.0599637e-01  -5.9451649e+04
   2.7795932e-09  -1.8789292e-05   8.0718076e-01   8.0600145e-01  -5.8956112e+04
   2.7822608e-09  -1.8632679e-05   8.0717597e-01   8.0600649e-01  -5.8464706e+04
   2.7849283e-09  -1.8477372e-05   8.0717122e-01   8.0601149e-01  -5.7977396e+04
   2.7875959e-09  -1.8323359e-05   8.0716651e-01   8.0601644e-01  -5.7494147e+04
   2.7902634e-09  -1.8170630e-05   8.0716183e-01   8.0602135e-01  -5.7014926e+04
   2.7929310e-09  -1.8019175e-05   8.0715720e-01   8.0602622e-01  -5.6539699e+04
   2.7955985e-09  -1.7868981e-05   8.0715260e-01   8.0603106e-01  -5.6068434e+04
   2.7982661e-09  -1.7720040e-05   8.0714805e-01   8.0603585e-01  -5.5601096e+04
   2.8009336e-09  -1.7572339e-05   8.0714353e-01   8.0604060e-01  -5.5137654e+04
   2.8036012e-09  -1.7425870e-05   8.0713905e-01   8.0604531e-01  -5.4678075e+04
   2.8062688e-09  -1.7280622e-05   8.0713460e-01   8.0604998e-01  -5.4222326e+04
   2.8089363e-09  -1.7136585e-05   8.0713019e-01   8.0605461e-01  -5.3770376e+04
   2.8116039e-09  -1.6993748e-05   8.0712582e-01   8.0605921e-01  -5.3322192e+04
   2.8142714e-09  -1.6852101e-05   8.0712149e-01   8.0606377e-01  -5.2877745e+04
   2.8169390e-09  -1.6711635e-05   8.0711719e-01   8.0606828e-01  -5.2437002e+04
   2.8196065e-09  -1.6572341e-05   8.0711293e-01   8.0607277e-01  -5.1999932e+04
   2.8222741e-09  -1.6434207e-05   8.0710870e-01   8.0607721e-01  -5.1566506e+04
   2.8249416e-09  -1.6297224e-05   8.0710451e-01   8.0608161e-01  -5.1136692e+04
   2.8276092e-09  -1.6161383e-05   8.0710036e-01   8.0608598e-01  -5.0710461e+04
   2.8302768e-09  -1.6026675e-05   8.0709623e-01   8.0609032e-01  -5.0287782e+04
   2.8329443e-09  -1.5893089e-05   8.0709215e-01   8.0609462e-01  -4.9868626e+04
   2.8356119e-09  -1.5760617e-05   8.0708809e-01   8.0609888e-01  -4.9452964e+04
   2.8382794e-09  -1.5629249e-05   8.0708408e-01   8.0610310e-01  -4.9040767e+04
   2.8409470e-09  -1.5498976e-05   8.0708009e-01   8.0610729e-01  -4.8632005e+04
   2.8436145e-09  -1.5369788e-05   8.0707614e-01   8.0611145e-01  -4.8226650e+04
   2.8462821e-09  -1.5241678e-05   8.0707222e-01   8.0611557e-01  -4.7824674e+04
   2.8489496e-09  -1.5114635e-05   8.0706833e-01   8.0611966e-01  -4.7426049e+04
   2.8516172e-09  -1.4988652e-05   8.0706448e-01   8.0612371e-01  -4.7030746e+04
   2.8542848e-09  -1.4863718e-05   8.0706065e-01   8.0612773e-01  -4.6638738e+04
   2.8569523e-09  -1.4739826e-05   8.0705686e-01   8.0613171e-01  -4.6249997e+04
   2.8596199e-09  -1.4616966e-05   8.0705310e-01   8.0613567e-01  -4.5864496e+04
   2.8622874e-09  -1.4495131e-05   8.0704938e-01   8.0613959e-01  -4.5482209e+04
   2.8649550e-09  -1.4374310e-05   8.0704568e-01   8.0614347e-01  -4.5103108e+04
   2.8676225e-09  -1.4254497e-05   8.0704201e-01   8.0614733e-01  -4.4727167e+04
   2.8702901e-09  -1.4135683e-05   8.0703838e-01   8.0615115e-01  -4.4354359e+04
   2.8729577e-09  -1.4017859e-05   8.0703478e-01   8.0615494e-01  -4.3984659e+04
   2.8756252e-09  -1.3901017e-05   8.0703120e-01   8.0615870e-01  -4.3618040e+04
   2.8782928e-09  -1.3785149e-05   8.0702766e-01   8.0616243e-01  -4.3254477e+04
   2.8809603e-09  -1.3670247e-05   8.0702414e-01   8.0616612e-01  -4.2893944e+04
   2.8836279e-09  -1.3556302e-05   8.0702065e-01   8.0616979e-01  -4.2536417e+04
   2.8862954e-09  -1.3443308e-05   8.0701720e-01   8.0617342e-01  -4.2181869e+04
   2.8889630e-09  -1.3331255e-05   8.0701377e-01   8.0617703e-01  -4.1830277e+04
   2.8916305e-09  -1.3220136e-05   8.0701037e-01   8.0618060e-01  -4.1481615e+04
   2.8942981e-09  -1.3109943e-05   8.0700700e-01   8.0618415e-01  -4.1135859e+04
   2.8969657e-09  -1.3000669e-05   8.0700366e-01   8.0618766e-01  -4.0792985e+04
   2.8996332e-09  -1.2892305e-05   8.0700034e-01   8.0619115e-01  -4.0452969e+04
   2.9023008e-09  -1.2784845e-05   8.0699705e-01   8.0619461e-01  -4.0115787e+04
   2.9049683e-09  -1.2678281e-05   8.0699379e-01   8.0619804e-01  -3.9781415e+04
   2.9076359e-09  -1.2572604e-05   8.0699056e-01   8.0620144e-01  -3.9449831e+04
   2.9103034e-09  -1.2467809e-05   8.0698735e-01   8.0620481e-01  -3.9121010e+04
   2.9129710e-09  -1.2363887e-05   8.0698417e-01   8.0620815e-01  -3.8794930e+04
   2.9156385e-09  -1.2260831e-05   8.0698102e-01   8.0621147e-01  -3.8471568e+04
   2.9183061e-09  -1.2158634e-05   8.0697790e-01   8.0621475e-01  -3.8150901e+04
   2.9209737e-09  -1.2057289e-05   8.0697480e-01   8.0621801e-01  -3.7832907e+04
   2.9236412e-09  -1.1956789e-05   8.0697172e-01   8.0622125e-01  -3.7517564e+04
   2.9263088e-09  -1.1857127e-05   8.0696867e-01   8.0622445e-01  -3.7204849e+04
   2.9289763e-09  -1.1758295e-05   8.0696565e-01   8.0622763e-01  -3.6894740e+04
   2.9316439e-09  -1.1660287e-05   8.0696265e-01   8.0623079e-01  -3.6587216e+04
   2.9343114e-09  -1.1563095e-05   8.0695968e-01   8.0623391e-01  -3.6282256e+04
   2.9369790e-09  -1.1466714e-05   8.0695673e-01   8.0623702e-01  -3.5979837e+04
   2.9396465e-09  -1.1371137e-05   8.0695380e-01   8.0624009e-01  -3.5679939e+04
   2.9423141e-09  -1.1276356e-05   8.0695091e-01   8.0624314e-01  -3.5382541e+04
   2.9449817e-09  -1.1182365e-05   8.0694803e-01   8.0624616e-01  -3.5087621e+04
   2.9476492e-09  -1.1089157e-05   8.0694518e-01   8.0624916e-01  -3.4795160e+04
   2.9503168e-09  -1.0996726e-05   8.0694235e-01   8.0625214e-01  -3.4505136e+04
   2.9529843e-09  -1.0905066e-05   8.0693955e-01   8.0625509e-01  -3.4217530e+04
   2.9556519e-09  -1.0814170e-05   8.0693677e-01   8.0625801e-01  -3.3932321e+04
   2.9583194e-09  -1.0724031e-05   8.0693401e-01   8.0626091e-01  -3.3649489e+04
   2.9609870e-09  -1.0634644e-05   8.0693127e-01   8.0626379e-01  -3.3369015e+04
   2.9636546e-09  -1.0546002e-05   8.0692856e-01   8.0626664e-01  -3.3090878e+04
   2.9663221e-09  -1.0458098e-05   8.0692587e-01   8.0626947e-01  -3.2815060e+04
   2.9689897e-09  -1.0370928e-05   8.0692321e-01   8.0627227e-01  -3.2541541e+04
   2.9716572e-09  -1.0284484e-05   8.0692056e-01   8.0627505e-01  -3.2270301e+04
   2.9743248e-09  -1.0198760e-05   8.0691794e-01   8.0627781e-01  -3.2001323e+04
   2.9769923e-09  -1.0113751e-05   8.0691534e-01   8.0628054e-01  -3.1734586e+04
   2.9796599e-09  -1.0029451e-05   8.0691276e-01   8.0628326e-01  -3.1470073e+04
   2.9823274e-09  -9.9458528e-06   8.0691020e-01   8.0628595e-01  -3.1207764e+04
   2.9849950e-09  -9.8629517e-06   8.0690767e-01   8.0628861e-01  -3.0947642e+04
   2.9876626e-09  -9.7807417e-06   8.0690515e-01   8.0629126e-01  -3.0689688e+04
   2.9903301e-09  -9.6992169e-06   8.0690266e-01   8.0629388e-01  -3.0433883e+04
   2.9929977e-09  -9.6183717e-06   8.0690019e-01   8.0629648e-01  -3.0180212e+04
   2.9956652e-09  -9.5382003e-06   8.0689773e-01   8.0629906e-01  -2.9928654e+04
   2.9983328e-09  -9.4586971e-06   8.0689530e-01   8.0630162e-01  -2.9679193e+04
   3.0010003e-09  -9.3798566e-06   8.0689289e-01   8.0630416e-01  -2.9431812e+04
   3.0036679e-09  -9.3016733e-06   8.0689050e-01   8.0630667e-01  -2.9186492e+04
   3.0063354e-09  -9.2241416e-06   8.0688813e-01   8.0630917e-01  -2.8943218e+04
   3.0090030e-09  -9.1472562e-06   8.0688577e-01   8.0631164e-01  -2.8701971e+04
   3.0116706e-09  -9.0710116e-06   8.0688344e-01   8.0631410e-01  -2.8462734e+04
   3.0143381e-09  -8.9954026e-06   8.0688113e-01   8.0631653e-01  -2.8225492e+04
   3.0170057e-09  -8.9204238e-06   8.0687884e-01   8.0631894e-01  -2.7990227e+04
   3.0196732e-09  -8.8460699e-06   8.0687656e-01   8.0632133e-01  -2.7756924e+04
   3.0223408e-09  -8.7723358e-06   8.0687431e-01   8.0632371e-01  -2.7525565e+04
   3.0250083e-09  -8.6992163e-06   8.0687207e-01   8.0632606e-01  -2.7296134e+04
   3.0276759e-09  -8.6267062e-06   8.0686985e-01   8.0632839e-01  -2.7068616e+04
   3.0303434e-09  -8.5548005e-06   8.0686765e-01   8.0633070e-01  -2.6842994e+04
   3.0330110e-09  -8.4834942e-06   8.0686547e-01   8.0633300e-01  -2.6619252e+04
   3.0356786e-09  -8.4127822e-06   8.0686331e-01   8.0633527e-01  -2.6397376e+04
   3.0383461e-09  -8.3426596e-06   8.0686116e-01   8.0633753e-01  -2.6177349e+04
   3.0410137e-09  -8.2731215e-06   8.0685904e-01   8.0633977e-01  -2.5959155e+04
   3.0436812e-09  -8.2041631e-06   8.0685693e-01   8.0634199e-01  -2.5742781e+04
   3.0463488e-09  -8.1357794e-06   8.0685483e-01   8.0634419e-01  -2.5528210e+04
   3.0490163e-09  -8.0679657e-06   8.0685276e-01   8.0634637e-01  -2.5315428e+04
   3.0516839e-09  -8.0007172e-06   8.0685070e-01   8.0634853e-01  -2.5104419e+04
   3.0543515e-09  -7.9340293e-06   8.0684866e-01   8.0635068e-01  -2.4895168e+04
   3.0570190e-09  -7.8678972e-06   8.0684664e-01   8.0635281e-01  -2.4687662e+04
   3.0596866e-09  -7.8023164e-06   8.0684463e-01   8.0635492e-01  -2.4481886e+04
   3.0623541e-09  -7.7372821e-06   8.0684264e-01   8.0635701e-01  -2.4277825e+04
   3.0650217e-09  -7.6727900e-06   8.0684067e-01   8.0635908e-01  -2.4075465e+04
   3.0676892e-09  -7.6088354e-06   8.0683872e-01   8.0636114e-01  -2.3874791e+04
   3.0703568e-09  -7.5454139e-06   8.0683678e-01   8.0636318e-01  -2.3675790e+04
   3.0730243e-09  -7.4825210e-06   8.0683485e-01   8.0636521e-01  -2.3478448e+04
   3.0756919e-09  -7.4201523e-06   8.0683294e-01   8.0636721e-01  -2.3282750e+04
   3.0783595e-09  -7.3583035e-06   8.0683105e-01   8.0636920e-01  -2.3088684e+04
   3.0810270e-09  -7.2969703e-06   8.0682918e-01   8.0637118e-01  -2.2896235e+04
   3.0836946e-09  -7.2361482e-06   8.0682732e-01   8.0637313e-01  -2.2705391e+04
   3.0863621e-09  -7.1758331e-06   8.0682547e-01   8.0637507e-01  -2.2516137e+04
   3.0890297e-09  -7.1160208e-06   8.0682364e-01   8.0637700e-01  -2.2328460e+04
   3.0916972e-09  -7.0567070e-06   8.0682183e-01   8.0637891e-01  -2.2142348e+04
   3.0943648e-09  -6.9978876e-06   8.0682003e-01   8.0638080e-01  -2.1957787e+04
   3.0970323e-09  -6.9395584e-06   8.0681824e-01   8.0638268e-01  -2.1774765e+04
   3.0996999e-09  -6.8817155e-06   8.0681647e-01   8.0638454e-01  -2.1593268e+04
   3.1023675e-09  -6.8243546e-06   8.0681472e-01   8.0638638e-01  -2.1413284e+04
   3.1050350e-09  -6.7674719e-06   8.0681298e-01   8.0638822e-01  -2.1234800e+04
   3.1077026e-09  -6.7110634e-06   8.0681125e-01   8.0639003e-01  -2.1057803e+04
   3.1103701e-09  -6.6551250e-06   8.0680954e-01   8.0639183e-01  -2.0882282e+04
   3.1130377e-09  -6.5996528e-06   8.0680785e-01   8.0639362e-01  -2.0708224e+04
   3.1157052e-09  -6.5446431e-06   8.0680616e-01   8.0639539e-01  -2.0535617e+04
   3.1183728e-09  -6.4900918e-06   8.0680450e-01   8.0639714e-01  -2.0364449e+04
   3.1210403e-09  -6.4359953e-06   8.0680284e-01   8.0639888e-01  -2.0194707e+04
   3.1237079e-09  -6.3823496e-06   8.0680120e-01   8.0640061e-01  -2.0026380e+04
   3.1263755e-09  -6.3291511e-06   8.0679957e-01   8.0640232e-01  -1.9859456e+04
   3.1290430e-09  -6.2763960e-06   8.0679796e-01   8.0640402e-01  -1.9693924e+04
   3.1317106e-09  -6.2240807e-06   8.0679636e-01   8.0640570e-01  -1.9529771e+04
   3.1343781e-09  -6.1722014e-06   8.0679477e-01   8.0640737e-01  -1.9366986e+04
   3.1370457e-09  -6.1207545e-06   8.0679320e-01   8.0640903e-01  -1.9205558e+04
   3.1397132e-09  -6.0697365e-06   8.0679164e-01   8.0641067e-01  -1.9045476e+04
   3.1423808e-09  -6.0191437e-06   8.0679009e-01   8.0641229e-01  -1.8886728e+04
   3.1450483e-09  -5.9689726e-06   8.0678856e-01   8.0641391e-01  -1.8729303e+04
   3.1477159e-09  -5.9192197e-06   8.0678703e-01   8.0641551e-01  -1.8573191e+04
   3.1503835e-09  -5.8698815e-06   8.0678553e-01   8.0641710e-01  -1.8418380e+04
   3.1530510e-09  -5.8209545e-06   8.0678403e-01   8.0641867e-01  -1.8264859e+04
   3.1557186e-09  -5.7724354e-06   8.0678254e-01   8.0642023e-01  -1.8112617e+04
   3.1583861e-09  -5.7243206e-06   8.0678107e-01   8.0642178e-01  -1.7961645e+04
   3.1610537e-09  -5.6766070e-06   8.0677961e-01   8.0642332e-01  -1.7811931e+04
   3.1637212e-09  -5.6292910e-06   8.0677817e-01   8.0642484e-01  -1.7663465e+04
   3.1663888e-09  -5.5823694e-06   8.0677673e-01   8.0642635e-01  -1.7516236e+04
   3.1690564e-09  -5.5358389e-06   8.0677531e-01   8.0642785e-01  -1.7370235e+04
   3.1717239e-09  -5.4896963e-06   8.0677390e-01   8.0642933e-01  -1.7225450e+04
   3.1743915e-09  -5.4439382e-06   8.0677250e-01   8.0643080e-01  -1.7081872e+04
   3.1770590e-09  -5.3985616e-06   8.0677111e-01   8.0643226e-01  -1.6939492e+04
   3.1797266e-09  -5.3535632e-06   8.0676973e-01   8.0643371e-01  -1.6798297e+04
   3.1823941e-09  -5.3089398e-06   8.0676837e-01   8.0643515e-01  -1.6658280e+04
   3.1850617e-09  -5.2646884e-06   8.0676701e-01   8.0643657e-01  -1.6519430e+04
   3.1877292e-09  -5.2208059e-06   8.0676567e-01   8.0643798e-01  -1.6381737e+04
   3.1903968e-09  -5.1772891e-06   8.0676434e-01   8.0643938e-01  -1.6245192e+04
   3.1930644e-09  -5.1341351e-06   8.0676302e-01   8.0644077e-01  -1.6109785e+04
   3.1957319e-09  -5.0913407e-06   8.0676171e-01   8.0644215e-01  -1.5975506e+04
   3.1983995e-09  -5.0489031e-06   8.0676041e-01   8.0644352e-01  -1.5842347e+04
   3.2010670e-09  -5.0068191e-06   8.0675913e-01   8.0644487e-01  -1.5710298e+04
   3.2037346e-09  -4.9650860e-06   8.0675785e-01   8.0644621e-01  -1.5579349e+04
   3.2064021e-09  -4.9237007e-06   8.0675659e-01   8.0644755e-01  -1.5449492e+04
   3.2090697e-09  -4.8826604e-06   8.0675533e-01   8.0644887e-01  -1.5320717e+04
   3.2117372e-09  -4.8419621e-06   8.0675409e-01   8.0645018e-01  -1.5193016e+04
   3.2144048e-09  -4.8016031e-06   8.0675285e-01   8.0645147e-01  -1.5066379e+04
   3.2170724e-09  -4.7615805e-06   8.0675163e-01   8.0645276e-01  -1.4940797e+04
   3.2197399e-09  -4.7218914e-06   8.0675041e-01   8.0645404e-01  -1.4816263e+04
   3.2224075e-09  -4.6825332e-06   8.0674921e-01   8.0645531e-01  -1.4692766e+04
   3.2250750e-09  -4.6435031e-06   8.0674802e-01   8.0645656e-01  -1.4570299e+04
   3.2277426e-09  -4.6047982e-06   8.0674683e-01   8.0645781e-01  -1.4448852e+04
   3.2304101e-09  -4.5664160e-06   8.0674566e-01   8.0645904e-01  -1.4328418e+04
   3.2330777e-09  -4.5283537e-06   8.0674449e-01   8.0646027e-01  -1.4208987e+04
   3.2357452e-09  -4.4906087e-06   8.0674334e-01   8.0646148e-01  -1.4090552e+04
   3.2384128e-09  -4.4531783e-06   8.0674219e-01   8.0646269e-01  -1.3973105e+04
   3.2410804e-09  -4.4160599e-06   8.0674106e-01   8.0646388e-01  -1.3856636e+04
   3.2437479e-09  -4.3792508e-06   8.0673993e-01   8.0646507e-01  -1.3741138e+04
   3.2464155e-09  -4.3427486e-06   8.0673882e-01   8.0646624e-01  -1.3626602e+04
   3.2490830e-09  -4.3065506e-06   8.0673771e-01   8.0646740e-01  -1.3513022e+04
   3.2517506e-09  -4.2706544e-06   8.0673661e-01   8.0646856e-01  -1.3400388e+04
   3.2544181e-09  -4.2350573e-06   8.0673552e-01   8.0646971e-01  -1.3288693e+04
   3.2570857e-09  -4.1997570e-06   8.0673444e-01   8.0647084e-01  -1.3177929e+04
   3.2597533e-09  -4.1647509e-06   8.0673337e-01   8.0647197e-01  -1.3068088e+04
   3.2624208e-09  -4.1300366e-06   8.0673231e-01   8.0647309e-01  -1.2959162e+04
   3.2650884e-09  -4.0956116e-06   8.0673126e-01   8.0647419e-01  -1.2851145e+04
   3.2677559e-09  -4.0614736e-06   8.0673021e-01   8.0647529e-01  -1.2744028e+04
   3.2704235e-09  -4.0276201e-06   8.0672918e-01   8.0647638e-01  -1.2637804e+04
   3.2730910e-09  -3.9940488e-06   8.0672815e-01   8.0647746e-01  -1.2532465e+04
   3.2757586e-09  -3.9607574e-06   8.0672713e-01   8.0647853e-01  -1.2428004e+04
   3.2784261e-09  -3.9277434e-06   8.0672612e-01   8.0647960e-01  -1.2324414e+04
   3.2810937e-09  -3.8950046e-06   8.0672512e-01   8.0648065e-01  -1.2221687e+04
   3.2837613e-09  -3.8625386e-06   8.0672413e-01   8.0648169e-01  -1.2119817e+04
   3.2864288e-09  -3.8303433e-06   8.0672314e-01   8.0648273e-01  -1.2018796e+04
   3.2890964e-09  -3.7984164e-06   8.0672217e-01   8.0648376e-01  -1.1918616e+04
   3.2917639e-09  -3.7667556e-06   8.0672120e-01   8.0648478e-01  -1.1819272e+04
   3.2944315e-09  -3.7353586e-06   8.0672024e-01   8.0648579e-01  -1.1720756e+04
   3.2970990e-09  -3.7042234e-06   8.0671929e-01   8.0648679e-01  -1.1623061e+04
   3.2997666e-09  -3.6733477e-06   8.0671834e-01   8.0648778e-01  -1.1526180e+04
   3.3024341e-09  -3.6427293e-06   8.0671741e-01   8.0648877e-01  -1.1430107e+04
   3.3051017e-09  -3.6123662e-06   8.0671648e-01   8.0648974e-01  -1.1334834e+04
   3.3077693e-09  -3.5822561e-06   8.0671556e-01   8.0649071e-01  -1.1240356e+04
   3.3104368e-09  -3.5523970e-06   8.0671464e-01   8.0649167e-01  -1.1146665e+04
   3.3131044e-09  -3.5227868e-06   8.0671374e-01   8.0649263e-01  -1.1053755e+04
   3.3157719e-09  -3.4934234e-06   8.0671284e-01   8.0649357e-01  -1.0961620e+04
   3.3184395e-09  -3.4643048e-06   8.0671195e-01   8.0649451e-01  -1.0870252e+04
   3.3211070e-09  -3.4354289e-06   8.0671107e-01   8.0649544e-01  -1.0779646e+04
   3.3237746e-09  -3.4067936e-06   8.0671019e-01   8.0649636e-01  -1.0689796e+04
   3.3264421e-09  -3.3783971e-06   8.0670932e-01   8.0649727e-01  -1.0600694e+04
   3.3291097e-09  -3.3502372e-06   8.0670846e-01   8.0649818e-01  -1.0512335e+04
   3.3317773e-09  -3.3223120e-06   8.0670761e-01   8.0649908e-01  -1.0424712e+04
   3.3344448e-09  -3.2946196e-06   8.0670676e-01   8.0649997e-01  -1.0337820e+04
   3.3371124e-09  -3.2671581e-06   8.0670592e-01   8.0650085e-01  -1.0251652e+04
   3.3397799e-09  -3.2399254e-06   8.0670509e-01   8.0650173e-01  -1.0166202e+04
   3.3424475e-09  -3.2129197e-06   8.0670426e-01   8.0650260e-01  -1.0081464e+04
   3.3451150e-09  -3.1861391e-06   8.0670344e-01   8.0650346e-01  -9.9974331e+03
   3.3477826e-09  -3.1595818e-06   8.0670263e-01   8.0650432e-01  -9.9141023e+03
   3.3504502e-09  -3.1332458e-06   8.0670182e-01   8.0650516e-01  -9.8314660e+03
   3.3531177e-09  -3.1071293e-06   8.0670103e-01   8.0650600e-01  -9.7495185e+03
   3.3557853e-09  -3.0812305e-06   8.0670023e-01   8.0650684e-01  -9.6682541e+03
   3.3584528e-09  -3.0555476e-06   8.0669945e-01   8.0650766e-01  -9.5876671e+03
   3.3611204e-09  -3.0300788e-06   8.0669867e-01   8.0650848e-01  -9.5077517e+03
   3.3637879e-09  -3.0048222e-06   8.0669790e-01   8.0650930e-01  -9.4285025e+03
   3.3664555e-09  -2.9797762e-06   8.0669713e-01   8.0651010e-01  -9.3499138e+03
   3.3691230e-09  -2.9549389e-06   8.0669637e-01   8.0651090e-01  -9.2719802e+03
   3.3717906e-09  -2.9303087e-06   8.0669562e-01   8.0651169e-01  -9.1946962e+03
   3.3744582e-09  -2.9058837e-06   8.0669487e-01   8.0651248e-01  -9.1180563e+03
   3.3771257e-09  -2.8816623e-06   8.0669413e-01   8.0651326e-01  -9.0420553e+03
   3.3797933e-09  -2.8576429e-06   8.0669339e-01   8.0651403e-01  -8.9666877e+03
   3.3824608e-09  -2.8338236e-06   8.0669267e-01   8.0651480e-01  -8.8919483e+03
   3.3851284e-09  -2.8102029e-06   8.0669194e-01   8.0651556e-01  -8.8178319e+03
   3.3877959e-09  -2.7867791e-06   8.0669123e-01   8.0651631e-01  -8.7443333e+03
   3.3904635e-09  -2.7635505e-06   8.0669052e-01   8.0651706e-01  -8.6714473e+03
   3.3931310e-09  -2.7405155e-06   8.0668981e-01   8.0651780e-01  -8.5991689e+03
   3.3957986e-09  -2.7176725e-06   8.0668911e-01   8.0651854e-01  -8.5274929e+03
   3.3984662e-09  -2.6950199e-06   8.0668842e-01   8.0651927e-01  -8.4564143e+03
   3.4011337e-09  -2.6725562e-06   8.0668773e-01   8.0651999e-01  -8.3859282e+03
   3.4038013e-09  -2.6502797e-06   8.0668705e-01   8.0652071e-01  -8.3160295e+03
   3.4064688e-09  -2.6281888e-06   8.0668638e-01   8.0652142e-01  -8.2467136e+03
   3.4091364e-09  -2.6062821e-06   8.0668571e-01   8.0652212e-01  -8.1779753e+03
   3.4118039e-09  -2.5845580e-06   8.0668504e-01   8.0652282e-01  -8.1098101e+03
   3.4144715e-09  -2.5630150e-06   8.0668438e-01   8.0652351e-01  -8.0422129e+03
   3.4171390e-09  -2.5416515e-06   8.0668373e-01   8.0652420e-01  -7.9751793e+03
   3.4198066e-09  -2.5204661e-06   8.0668308e-01   8.0652488e-01  -7.9087043e+03
   3.4224742e-09  -2.4994573e-06   8.0668244e-01   8.0652556e-01  -7.8427835e+03
   3.4251417e-09  -2.4786236e-06   8.0668180e-01   8.0652623e-01  -7.7774121e+03
   3.4278093e-09  -2.4579636e-06   8.0668117e-01   8.0652689e-01  -7.7125856e+03
   3.4304768e-09  -2.4374757e-06   8.0668054e-01   8.0652755e-01  -7.6482994e+03
   3.4331444e-09  -2.4171587e-06   8.0667992e-01   8.0652821e-01  -7.5845491e+03
   3.4358119e-09  -2.3970110e-06   8.0667931e-01   8.0652886e-01  -7.5213302e+03
   3.4384795e-09  -2.3770312e-06   8.0667870e-01   8.0652950e-01  -7.4586382e+03
   3.4411470e-09  -2.3572179e-06   8.0667809e-01   8.0653014e-01  -7.3964687e+03
   3.4438146e-09  -2.3375698e-06   8.0667749e-01   8.0653077e-01  -7.3348175e+03
   3.4464822e-09  -2.3180855e-06   8.0667689e-01   8.0653140e-01  -7.2736801e+03
   3.4491497e-09  -2.2987636e-06   8.0667630e-01   8.0653202e-01  -7.2130523e+03
   3.4518173e-09  -2.2796027e-06   8.0667572e-01   8.0653263e-01  -7.1529298e+03
   3.4544848e-09  -2.2606016e-06   8.0667514e-01   8.0653325e-01  -7.0933085e+03
   3.4571524e-09  -2.2417588e-06   8.0667456e-01   8.0653385e-01  -7.0341842e+03
   3.4598199e-09  -2.2230731e-06   8.0667399e-01   8.0653445e-01  -6.9755526e+03
   3.4624875e-09  -2.2045431e-06   8.0667342e-01   8.0653505e-01  -6.9174098e+03
   3.4651551e-09  -2.1861676e-06   8.0667286e-01   8.0653564e-01  -6.8597516e+03
   3.4678226e-09  -2.1679453e-06   8.0667230e-01   8.0653623e-01  -6.8025740e+03
   3.4704902e-09  -2.1498748e-06   8.0667175e-01   8.0653681e-01  -6.7458730e+03
   3.4731577e-09  -2.1319550e-06   8.0667120e-01   8.0653739e-01  -6.6896446e+03
   3.4758253e-09  -2.1141845e-06   8.0667066e-01   8.0653796e-01  -6.6338848e+03
   3.4784928e-09  -2.0965621e-06   8.0667012e-01   8.0653853e-01  -6.5785899e+03
   3.4811604e-09  -2.0790867e-06   8.0666958e-01   8.0653909e-01  -6.5237558e+03
   3.4838279e-09  -2.0617569e-06   8.0666905e-01   8.0653965e-01  -6.4693788e+03
   3.4864955e-09  -2.0445715e-06   8.0666853e-01   8.0654020e-01  -6.4154550e+03
   3.4891631e-09  -2.0275294e-06   8.0666801e-01   8.0654075e-01  -6.3619807e+03
   3.4918306e-09  -2.0106293e-06   8.0666749e-01   8.0654129e-01  -6.3089521e+03
   3.4944982e-09  -1.9938701e-06   8.0666698e-01   8.0654183e-01  -6.2563656e+03
   3.4971657e-09  -1.9772506e-06   8.0666647e-01   8.0654237e-01  -6.2042173e+03
   3.4998333e-09  -1.9607697e-06   8.0666597e-01   8.0654290e-01  -6.1525037e+03
   3.5025008e-09  -1.9444261e-06   8.0666547e-01   8.0654342e-01  -6.1012212e+03
   3.5051684e-09  -1.9282187e-06   8.0666497e-01   8.0654394e-01  -6.0503661e+03
   3.5078359e-09  -1.9121464e-06   8.0666448e-01   8.0654446e-01  -5.9999349e+03
   3.5105035e-09  -1.8962081e-06   8.0666399e-01   8.0654497e-01  -5.9499240e+03
   3.5131711e-09  -1.8804026e-06   8.0666351e-01   8.0654548e-01  -5.9003300e+03
   3.5158386e-09  -1.8647289e-06   8.0666303e-01   8.0654599e-01  -5.8511494e+03
   3.5185062e-09  -1.8491858e-06   8.0666255e-01   8.0654649e-01  -5.8023787e+03
   3.5211737e-09  -1.8337723e-06   8.0666208e-01   8.0654698e-01  -5.7540145e+03
   3.5238413e-09  -1.8184873e-06   8.0666161e-01   8.0654747e-01  -5.7060534e+03
   3.5265088e-09  -1.8033296e-06   8.0666115e-01   8.0654796e-01  -5.6584922e+03
   3.5291764e-09  -1.7882983e-06   8.0666069e-01   8.0654845e-01  -5.6113273e+03
   3.5318439e-09  -1.7733923e-06   8.0666023e-01   8.0654893e-01  -5.5645556e+03
   3.5345115e-09  -1.7586106e-06   8.0665978e-01   8.0654940e-01  -5.5181737e+03
   3.5371791e-09  -1.7439520e-06   8.0665933e-01   8.0654987e-01  -5.4721784e+03
   3.5398466e-09  -1.7294156e-06   8.0665889e-01   8.0655034e-01  -5.4265665e+03
   3.5425142e-09  -1.7150004e-06   8.0665845e-01   8.0655080e-01  -5.3813348e+03
   3.5451817e-09  -1.7007054e-06   8.0665801e-01   8.0655127e-01  -5.3364801e+03
   3.5478493e-09  -1.6865295e-06   8.0665758e-01   8.0655172e-01  -5.2919993e+03
   3.5505168e-09  -1.6724717e-06   8.0665715e-01   8.0655217e-01  -5.2478893e+03
   3.5531844e-09  -1.6585312e-06   8.0665672e-01   8.0655262e-01  -5.2041469e+03
   3.5558520e-09  -1.6447068e-06   8.0665630e-01   8.0655307e-01  -5.1607691e+03
   3.5585195e-09  -1.6309977e-06   8.0665588e-01   8.0655351e-01  -5.1177529e+03
   3.5611871e-09  -1.6174028e-06   8.0665546e-01   8.0655395e-01  -5.0750952e+03
   3.5638546e-09  -1.6039213e-06   8.0665505e-01   8.0655438e-01  -5.0327931e+03
   3.5665222e-09  -1.5905521e-06   8.0665464e-01   8.0655481e-01  -4.9908435e+03
   3.5691897e-09  -1.5772943e-06   8.0665424e-01   8.0655524e-01  -4.9492437e+03
   3.5718573e-09  -1.5641471e-06   8.0665384e-01   8.0655566e-01  -4.9079906e+03
   3.5745248e-09  -1.5511095e-06   8.0665344e-01   8.0655608e-01  -4.8670813e+03
   3.5771924e-09  -1.5381805e-06   8.0665304e-01   8.0655650e-01  -4.8265130e+03
   3.5798600e-09  -1.5253593e-06   8.0665265e-01   8.0655691e-01  -4.7862829e+03
   3.5825275e-09  -1.5126449e-06   8.0665226e-01   8.0655732e-01  -4.7463881e+03
   3.5851951e-09  -1.5000366e-06   8.0665187e-01   8.0655772e-01  -4.7068258e+03
   3.5878626e-09  -1.4875333e-06   8.0665149e-01   8.0655813e-01  -4.6675933e+03
   3.5905302e-09  -1.4751342e-06   8.0665111e-01   8.0655852e-01  -4.6286878e+03
   3.5931977e-09  -1.4628385e-06   8.0665074e-01   8.0655892e-01  -4.5901066e+03
   3.5958653e-09  -1.4506453e-06   8.0665036e-01   8.0655931e-01  -4.5518470e+03
   3.5985328e-09  -1.4385537e-06   8.0664999e-01   8.0655970e-01  -4.5139062e+03
   3.6012004e-09  -1.4265629e-06   8.0664963e-01   8.0656009e-01  -4.4762818e+03
   3.6038680e-09  -1.4146721e-06   8.0664926e-01   8.0656047e-01  -4.4389709e+03
   3.6065355e-09  -1.4028803e-06   8.0664890e-01   8.0656085e-01  -4.4019710e+03
   3.6092031e-09  -1.3911869e-06   8.0664855e-01   8.0656123e-01  -4.3652795e+03
   3.6118706e-09  -1.3795909e-06   8.0664819e-01   8.0656160e-01  -4.3288939e+03
   3.6145382e-09  -1.3680916e-06   8.0664784e-01   8.0656197e-01  -4.2928115e+03
   3.6172057e-09  -1.3566881e-06   8.0664749e-01   8.0656234e-01  -4.2570299e+03
   3.6198733e-09  -1.3453797e-06   8.0664714e-01   8.0656270e-01  -4.2215465e+03
   3.6225408e-09  -1.3341655e-06   8.0664680e-01   8.0656306e-01  -4.1863589e+03
   3.6252084e-09  -1.3230448e-06   8.0664646e-01   8.0656342e-01  -4.1514646e+03
   3.6278760e-09  -1.3120168e-06   8.0664612e-01   8.0656377e-01  -4.1168612e+03
   3.6305435e-09  -1.3010807e-06   8.0664579e-01   8.0656413e-01  -4.0825461e+03
   3.6332111e-09  -1.2902358e-06   8.0664546e-01   8.0656448e-01  -4.0485171e+03
   3.6358786e-09  -1.2794813e-06   8.0664513e-01   8.0656482e-01  -4.0147718e+03
   3.6385462e-09  -1.2688164e-06   8.0664480e-01   8.0656516e-01  -3.9813077e+03
   3.6412137e-09  -1.2582404e-06   8.0664448e-01   8.0656550e-01  -3.9481225e+03
   3.6438813e-09  -1.2477526e-06   8.0664416e-01   8.0656584e-01  -3.9152140e+03
   3.6465488e-09  -1.2373522e-06   8.0664384e-01   8.0656618e-01  -3.8825797e+03
   3.6492164e-09  -1.2270384e-06   8.0664353e-01   8.0656651e-01  -3.8502175e+03
   3.6518840e-09  -1.2168107e-06   8.0664321e-01   8.0656684e-01  -3.8181250e+03
   3.6545515e-09  -1.2066682e-06   8.0664290e-01   8.0656716e-01  -3.7863000e+03
   3.6572191e-09  -1.1966102e-06   8.0664259e-01   8.0656749e-01  -3.7547403e+03
   3.6598866e-09  -1.1866361e-06   8.0664229e-01   8.0656781e-01  -3.7234436e+03
   3.6625542e-09  -1.1767451e-06   8.0664199e-01   8.0656813e-01  -3.6924078e+03
   3.6652217e-09  -1.1669365e-06   8.0664169e-01   8.0656844e-01  -3.6616307e+03
   3.6678893e-09  -1.1572097e-06   8.0664139e-01   8.0656876e-01  -3.6311101e+03
   3.6705569e-09  -1.1475640e-06   8.0664109e-01   8.0656907e-01  -3.6008439e+03
   3.6732244e-09  -1.1379987e-06   8.0664080e-01   8.0656937e-01  -3.5708300e+03
   3.6758920e-09  -1.1285131e-06   8.0664051e-01   8.0656968e-01  -3.5410663e+03
   3.6785595e-09  -1.1191065e-06   8.0664022e-01   8.0656998e-01  -3.5115506e+03
   3.6812271e-09  -1.1097784e-06   8.0663994e-01   8.0657028e-01  -3.4822810e+03
   3.6838946e-09  -1.1005281e-06   8.0663966e-01   8.0657058e-01  -3.4532553e+03
   3.6865622e-09  -1.0913548e-06   8.0663938e-01   8.0657088e-01  -3.4244716e+03
   3.6892297e-09  -1.0822580e-06   8.0663910e-01   8.0657117e-01  -3.3959278e+03
   3.6918973e-09  -1.0732370e-06   8.0663882e-01   8.0657146e-01  -3.3676219e+03
   3.6945649e-09  -1.0642912e-06   8.0663855e-01   8.0657175e-01  -3.3395520e+03
   3.6972324e-09  -1.0554200e-06   8.0663828e-01   8.0657203e-01  -3.3117160e+03
   3.6999000e-09  -1.0466227e-06   8.0663801e-01   8.0657232e-01  -3.2841120e+03
   3.7025675e-09  -1.0378988e-06   8.0663774e-01   8.0657260e-01  -3.2567381e+03
   3.7052351e-09  -1.0292475e-06   8.0663748e-01   8.0657287e-01  -3.2295924e+03
   3.7079026e-09  -1.0206684e-06   8.0663721e-01   8.0657315e-01  -3.2026730e+03
   3.7105702e-09  -1.0121608e-06   8.0663695e-01   8.0657342e-01  -3.1759779e+03
   3.7132377e-09  -1.0037241e-06   8.0663670e-01   8.0657370e-01  -3.1495054e+03
   3.7159053e-09  -9.9535774e-07   8.0663644e-01   8.0657397e-01  -3.1232534e+03
   3.7185729e-09  -9.8706110e-07   8.0663619e-01   8.0657423e-01  -3.0972204e+03
   3.7212404e-09  -9.7883361e-07   8.0663593e-01   8.0657450e-01  -3.0714043e+03
   3.7239080e-09  -9.7067470e-07   8.0663569e-01   8.0657476e-01  -3.0458034e+03
   3.7265755e-09  -9.6258380e-07   8.0663544e-01   8.0657502e-01  -3.0204158e+03
   3.7292431e-09  -9.5456034e-07   8.0663519e-01   8.0657528e-01  -2.9952399e+03
   3.7319106e-09  -9.4660376e-07   8.0663495e-01   8.0657553e-01  -2.9702739e+03
   3.7345782e-09  -9.3871349e-07   8.0663471e-01   8.0657579e-01  -2.9455159e+03
   3.7372457e-09  -9.3088900e-07   8.0663447e-01   8.0657604e-01  -2.9209643e+03
   3.7399133e-09  -9.2312972e-07   8.0663423e-01   8.0657629e-01  -2.8966173e+03
   3.7425809e-09  -9.1543512e-07   8.0663400e-01   8.0657654e-01  -2.8724733e+03
   3.7452484e-09  -9.0780466e-07   8.0663376e-01   8.0657678e-01  -2.8485305e+03
   3.7479160e-09  -9.0023779e-07   8.0663353e-01   8.0657703e-01  -2.8247873e+03
   3.7505835e-09  -8.9273400e-07   8.0663330e-01   8.0657727e-01  -2.8012420e+03
   3.7532511e-09  -8.8529276e-07   8.0663307e-01   8.0657751e-01  -2.7778929e+03
   3.7559186e-09  -8.7791354e-07   8.0663285e-01   8.0657775e-01  -2.7547385e+03
   3.7585862e-09  -8.7059583e-07   8.0663262e-01   8.0657798e-01  -2.7317771e+03
   3.7612538e-09  -8.6333911e-07   8.0663240e-01   8.0657821e-01  -2.7090070e+03
   3.7639213e-09  -8.5614288e-07   8.0663218e-01   8.0657845e-01  -2.6864268e+03
   3.7665889e-09  -8.4900663e-07   8.0663196e-01   8.0657868e-01  -2.6640347e+03
   3.7692564e-09  -8.4192987e-07   8.0663175e-01   8.0657890e-01  -2.6418293e+03
   3.7719240e-09  -8.3491209e-07   8.0663153e-01   8.0657913e-01  -2.6198090e+03
   3.7745915e-09  -8.2795281e-07   8.0663132e-01   8.0657935e-01  -2.5979723e+03
   3.7772591e-09  -8.2105153e-07   8.0663111e-01   8.0657958e-01  -2.5763175e+03
   3.7799266e-09  -8.1420778e-07   8.0663090e-01   8.0657980e-01  -2.5548433e+03
   3.7825942e-09  -8.0742107e-07   8.0663069e-01   8.0658001e-01  -2.5335480e+03
   3.7852618e-09  -8.0069094e-07   8.0663049e-01   8.0658023e-01  -2.5124302e+03
   3.7879293e-09  -7.9401690e-07   8.0663028e-01   8.0658045e-01  -2.4914885e+03
   3.7905969e-09  -7.8739849e-07   8.0663008e-01   8.0658066e-01  -2.4707213e+03
   3.7932644e-09  -7.8083524e-07   8.0662988e-01   8.0658087e-01  -2.4501272e+03
   3.7959320e-09  -7.7432671e-07   8.0662968e-01   8.0658108e-01  -2.4297048e+03
   3.7985995e-09  -7.6787242e-07   8.0662948e-01   8.0658129e-01  -2.4094526e+03
   3.8012671e-09  -7.6147193e-07   8.0662929e-01   8.0658149e-01  -2.3893692e+03
   3.8039346e-09  -7.5512479e-07   8.0662909e-01   8.0658170e-01  -2.3694532e+03
   3.8066022e-09  -7.4883056e-07   8.0662890e-01   8.0658190e-01  -2.3497032e+03
   3.8092698e-09  -7.4258879e-07   8.0662871e-01   8.0658210e-01  -2.3301178e+03
   3.8119373e-09  -7.3639904e-07   8.0662852e-01   8.0658230e-01  -2.3106957e+03
   3.8146049e-09  -7.3026090e-07   8.0662833e-01   8.0658250e-01  -2.2914355e+03
   3.8172724e-09  -7.2417391e-07   8.0662815e-01   8.0658269e-01  -2.2723358e+03
   3.8199400e-09  -7.1813766e-07   8.0662796e-01   8.0658289e-01  -2.2533953e+03
   3.8226075e-09  -7.1215172e-07   8.0662778e-01   8.0658308e-01  -2.2346126e+03
   3.8252751e-09  -7.0621568e-07   8.0662760e-01   8.0658327e-01  -2.2159866e+03
   3.8279426e-09  -7.0032912e-07   8.0662742e-01   8.0658346e-01  -2.1975158e+03
   3.8306102e-09  -6.9449162e-07   8.0662724e-01   8.0658365e-01  -2.1791989e+03
   3.8332778e-09  -6.8870279e-07   8.0662706e-01   8.0658383e-01  -2.1610347e+03
   3.8359453e-09  -6.8296220e-07   8.0662689e-01   8.0658402e-01  -2.1430219e+03
   3.8386129e-09  -6.7726946e-07   8.0662671e-01   8.0658420e-01  -2.1251593e+03
   3.8412804e-09  -6.7162417e-07   8.0662654e-01   8.0658438e-01  -2.1074455e+03
   3.8439480e-09  -6.6602594e-07   8.0662637e-01   8.0658456e-01  -2.0898794e+03
   3.8466155e-09  -6.6047437e-07   8.0662620e-01   8.0658474e-01  -2.0724598e+03
   3.8492831e-09  -6.5496907e-07   8.0662603e-01   8.0658492e-01  -2.0551853e+03
   3.8519507e-09  -6.4950967e-07   8.0662586e-01   8.0658510e-01  -2.0380548e+03
   3.8546182e-09  -6.4409576e-07   8.0662570e-01   8.0658527e-01  -2.0210671e+03
   3.8572858e-09  -6.3872699e-07   8.0662553e-01   8.0658544e-01  -2.0042209e+03
   3.8599533e-09  -6.3340296e-07   8.0662537e-01   8.0658561e-01  -1.9875152e+03
   3.8626209e-09  -6.2812332e-07   8.0662521e-01   8.0658578e-01  -1.9709488e+03
   3.8652884e-09  -6.2288767e-07   8.0662505e-01   8.0658595e-01  -1.9545204e+03
   3.8679560e-09  -6.1769567e-07   8.0662489e-01   8.0658612e-01  -1.9382290e+03
   3.8706235e-09  -6.1254695e-07   8.0662473e-01   8.0658629e-01  -1.9220733e+03
   3.8732911e-09  -6.0744114e-07   8.0662458e-01   8.0658645e-01  -1.9060523e+03
   3.8759587e-09  -6.0237790e-07   8.0662442e-01   8.0658661e-01  -1.8901649e+03
   3.8786262e-09  -5.9735685e-07   8.0662427e-01   8.0658677e-01  -1.8744099e+03
   3.8812938e-09  -5.9237766e-07   8.0662412e-01   8.0658693e-01  -1.8587862e+03
   3.8839613e-09  -5.8743997e-07   8.0662397e-01   8.0658709e-01  -1.8432927e+03
   3.8866289e-09  -5.8254343e-07   8.0662382e-01   8.0658725e-01  -1.8279284e+03
   3.8892964e-09  -5.7768771e-07   8.0662367e-01   8.0658741e-01  -1.8126921e+03
   3.8919640e-09  -5.7287247e-07   8.0662352e-01   8.0658756e-01  -1.7975829e+03
   3.8946315e-09  -5.6809736e-07   8.0662337e-01   8.0658772e-01  -1.7825995e+03
   3.8972991e-09  -5.6336205e-07   8.0662323e-01   8.0658787e-01  -1.7677411e+03
   3.8999667e-09  -5.5866622e-07   8.0662309e-01   8.0658802e-01  -1.7530065e+03
