   0.0000000e+00  -1.5036532e-01   6.2361983e+00   5.1685919e-05  -5.1822204e+08
   2.6675559e-12  -1.4898811e-01   6.2277504e+00   5.7454726e-05  -5.1442563e+08
   5.3351117e-12  -1.4762104e-01   6.2189292e+00   6.3813123e-05  -5.1062716e+08
   8.0026676e-12  -1.4626410e-01   6.2097232e+00   7.0814775e-05  -5.0682672e+08
   1.0670223e-11  -1.4491731e-01   6.2001215e+00   7.8517475e-05  -5.0302444e+08
   1.3337779e-11  -1.4358066e-01   6.1901128e+00   8.6983377e-05  -4.9922044e+08
   1.6005335e-11  -1.4225416e-01   6.1796861e+00   9.6279237e-05  -4.9541487e+08
   1.8672891e-11  -1.4093782e-01   6.1688304e+00   1.0647665e-04  -4.9160788e+08
   2.1340447e-11  -1.3963164e-01   6.1575349e+00   1.1765231e-04  -4.8779965e+08
   2.4008003e-11  -1.3833562e-01   6.1457889e+00   1.2988823e-04  -4.8399036e+08
   2.6675559e-11  -1.3704976e-01   6.1335819e+00   1.4327204e-04  -4.8018023e+08
   2.9343114e-11  -1.3577407e-01   6.1209036e+00   1.5789717e-04  -4.7636946e+08
   3.2010670e-11  -1.3450855e-01   6.1077441e+00   1.7386316e-04  -4.7255831e+08
   3.4678226e-11  -1.3325319e-01   6.0940936e+00   1.9127586e-04  -4.6874702e+08
   3.7345782e-11  -1.3200801e-01   6.0799427e+00   2.1024768e-04  -4.6493587e+08
   4.0013338e-11  -1.3077299e-01   6.0652825e+00   2.3089783e-04  -4.6112514e+08
   4.2680894e-11  -1.2954813e-01   6.0501044e+00   2.5335252e-04  -4.5731516e+08
   4.5348449e-11  -1.2833344e-01   6.0344001e+00   2.7774519e-04  -4.5350624e+08
   4.8016005e-11  -1.2712891e-01   6.0181620e+00   3.0421671e-04  -4.4969874e+08
   5.0683561e-11  -1.2593454e-01   6.0013829e+00   3.3291555e-04  -4.4589302e+08
   5.3351117e-11  -1.2475031e-01   5.9840562e+00   3.6399795e-04  -4.4208946e+08
   5.6018673e-11  -1.2357623e-01   5.9661759e+00   3.9762808e-04  -4.3828847e+08
   5.8686229e-11  -1.2241228e-01   5.9477364e+00   4.3397817e-04  -4.3449048e+08
   6.1353785e-11  -1.2125846e-01   5.9287330e+00   4.7322860e-04  -4.3069591e+08
   6.4021340e-11  -1.2011476e-01   5.9091615e+00   5.1556801e-04  -4.2690523e+08
   6.6688896e-11  -1.1898117e-01   5.8890187e+00   5.6119332e-04  -4.2311892e+08
   6.9356452e-11  -1.1785767e-01   5.8683018e+00   6.1030977e-04  -4.1933748e+08
   7.2024008e-11  -1.1674425e-01   5.8470089e+00   6.6313095e-04  -4.1556142e+08
   7.4691564e-11  -1.1564090e-01   5.8251388e+00   7.1987872e-04  -4.1179126e+08
   7.7359120e-11  -1.1454759e-01   5.8026913e+00   7.8078318e-04  -4.0802755e+08
   8.0026676e-11  -1.1346431e-01   5.7796669e+00   8.4608253e-04  -4.0427086e+08
   8.2694231e-11  -1.1239105e-01   5.7560669e+00   9.1602298e-04  -4.0052177e+08
   8.5361787e-11  -1.1132778e-01   5.7318935e+00   9.9085855e-04  -3.9678085e+08
   8.8029343e-11  -1.1027447e-01   5.7071497e+00   1.0708509e-03  -3.9304873e+08
   9.0696899e-11  -1.0923110e-01   5.6818396e+00   1.1562689e-03  -3.8932602e+08
   9.3364455e-11  -1.0819766e-01   5.6559678e+00   1.2473888e-03  -3.8561334e+08
   9.6032011e-11  -1.0717410e-01   5.6295402e+00   1.3444933e-03  -3.8191133e+08
   9.8699567e-11  -1.0616040e-01   5.6025631e+00   1.4478718e-03  -3.7822065e+08
   1.0136712e-10  -1.0515653e-01   5.5750440e+00   1.5578194e-03  -3.7454194e+08
   1.0403468e-10  -1.0416246e-01   5.5469911e+00   1.6746371e-03  -3.7087588e+08
   1.0670223e-10  -1.0317814e-01   5.5184136e+00   1.7986309e-03  -3.6722313e+08
   1.0936979e-10  -1.0220355e-01   5.4893214e+00   1.9301115e-03  -3.6358437e+08
   1.1203735e-10  -1.0123865e-01   5.4597251e+00   2.0693936e-03  -3.5996027e+08
   1.1470490e-10  -1.0028339e-01   5.4296363e+00   2.2167957e-03  -3.5635151e+08
   1.1737246e-10  -9.9337740e-02   5.3990671e+00   2.3726392e-03  -3.5275876e+08
   1.2004001e-10  -9.8401647e-02   5.3680306e+00   2.5372479e-03  -3.4918271e+08
   1.2270757e-10  -9.7475070e-02   5.3365404e+00   2.7109475e-03  -3.4562402e+08
   1.2537513e-10  -9.6557960e-02   5.3046108e+00   2.8940649e-03  -3.4208338e+08
   1.2804268e-10  -9.5650268e-02   5.2722568e+00   3.0869275e-03  -3.3856143e+08
   1.3071024e-10  -9.4751945e-02   5.2394938e+00   3.2898626e-03  -3.3505884e+08
   1.3337779e-10  -9.3862937e-02   5.2063378e+00   3.5031967e-03  -3.3157626e+08
   1.3604535e-10  -9.2983189e-02   5.1728055e+00   3.7272550e-03  -3.2811432e+08
   1.3871290e-10  -9.2112647e-02   5.1389138e+00   3.9623606e-03  -3.2467366e+08
   1.4138046e-10  -9.1251252e-02   5.1046800e+00   4.2088336e-03  -3.2125489e+08
   1.4404802e-10  -9.0398945e-02   5.0701221e+00   4.4669911e-03  -3.1785860e+08
   1.4671557e-10  -8.9555665e-02   5.0352579e+00   4.7371459e-03  -3.1448539e+08
   1.4938313e-10  -8.8721350e-02   5.0001059e+00   5.0196062e-03  -3.1113583e+08
   1.5205068e-10  -8.7895937e-02   4.9646847e+00   5.3146749e-03  -3.0781047e+08
   1.5471824e-10  -8.7079359e-02   4.9290129e+00   5.6226491e-03  -3.0450984e+08
   1.5738580e-10  -8.6271550e-02   4.8931095e+00   5.9438192e-03  -3.0123447e+08
   1.6005335e-10  -8.5472442e-02   4.8569933e+00   6.2784690e-03  -2.9798484e+08
   1.6272091e-10  -8.4681966e-02   4.8206833e+00   6.6268744e-03  -2.9476143e+08
   1.6538846e-10  -8.3900051e-02   4.7841985e+00   6.9893035e-03  -2.9156469e+08
   1.6805602e-10  -8.3126625e-02   4.7475579e+00   7.3660158e-03  -2.8839506e+08
   1.7072357e-10  -8.2361616e-02   4.7107802e+00   7.7572619e-03  -2.8525293e+08
   1.7339113e-10  -8.1604950e-02   4.6738841e+00   8.1632831e-03  -2.8213870e+08
   1.7605869e-10  -8.0856551e-02   4.6368882e+00   8.5843109e-03  -2.7905273e+08
   1.7872624e-10  -8.0116344e-02   4.5998107e+00   9.0205669e-03  -2.7599534e+08
   1.8139380e-10  -7.9384252e-02   4.5626698e+00   9.4722624e-03  -2.7296686e+08
   1.8406135e-10  -7.8660198e-02   4.5254831e+00   9.9395978e-03  -2.6996756e+08
   1.8672891e-10  -7.7944103e-02   4.4882683e+00   1.0422763e-02  -2.6699771e+08
   1.8939647e-10  -7.7235889e-02   4.4510425e+00   1.0921937e-02  -2.6405754e+08
   1.9206402e-10  -7.6535477e-02   4.4138225e+00   1.1437286e-02  -2.6114728e+08
   1.9473158e-10  -7.5842785e-02   4.3766246e+00   1.1968969e-02  -2.5826710e+08
   1.9739913e-10  -7.5157734e-02   4.3394650e+00   1.2517128e-02  -2.5541716e+08
   2.0006669e-10  -7.4480243e-02   4.3023592e+00   1.3081898e-02  -2.5259761e+08
   2.0273424e-10  -7.3810230e-02   4.2653223e+00   1.3663401e-02  -2.4980856e+08
   2.0540180e-10  -7.3147615e-02   4.2283690e+00   1.4261746e-02  -2.4705011e+08
   2.0806936e-10  -7.2492315e-02   4.1915136e+00   1.4877034e-02  -2.4432231e+08
   2.1073691e-10  -7.1844249e-02   4.1547698e+00   1.5509351e-02  -2.4162522e+08
   2.1340447e-10  -7.1203335e-02   4.1181509e+00   1.6158774e-02  -2.3895885e+08
   2.1607202e-10  -7.0569490e-02   4.0816696e+00   1.6825368e-02  -2.3632322e+08
   2.1873958e-10  -6.9942634e-02   4.0453381e+00   1.7509187e-02  -2.3371830e+08
   2.2140714e-10  -6.9322683e-02   4.0091684e+00   1.8210274e-02  -2.3114405e+08
   2.2407469e-10  -6.8709557e-02   3.9731715e+00   1.8928661e-02  -2.2860041e+08
   2.2674225e-10  -6.8103173e-02   3.9373582e+00   1.9664371e-02  -2.2608731e+08
   2.2940980e-10  -6.7503451e-02   3.9017388e+00   2.0417414e-02  -2.2360465e+08
   2.3207736e-10  -6.6910309e-02   3.8663231e+00   2.1187793e-02  -2.2115231e+08
   2.3474491e-10  -6.6323667e-02   3.8311201e+00   2.1975498e-02  -2.1873017e+08
   2.3741247e-10  -6.5743444e-02   3.7961388e+00   2.2780512e-02  -2.1633808e+08
   2.4008003e-10  -6.5169561e-02   3.7613873e+00   2.3602806e-02  -2.1397588e+08
   2.4274758e-10  -6.4601938e-02   3.7268735e+00   2.4442345e-02  -2.1164339e+08
   2.4541514e-10  -6.4040497e-02   3.6926046e+00   2.5299083e-02  -2.0934042e+08
   2.4808269e-10  -6.3485157e-02   3.6585874e+00   2.6172965e-02  -2.0706678e+08
   2.5075025e-10  -6.2935843e-02   3.6248285e+00   2.7063930e-02  -2.0482224e+08
   2.5341781e-10  -6.2392475e-02   3.5913336e+00   2.7971906e-02  -2.0260658e+08
   2.5608536e-10  -6.1854979e-02   3.5581084e+00   2.8896817e-02  -2.0041956e+08
   2.5875292e-10  -6.1323277e-02   3.5251579e+00   2.9838576e-02  -1.9826094e+08
   2.6142047e-10  -6.0797295e-02   3.4924868e+00   3.0797092e-02  -1.9613047e+08
   2.6408803e-10  -6.0276957e-02   3.4600994e+00   3.1772264e-02  -1.9402787e+08
   2.6675559e-10  -5.9762189e-02   3.4279995e+00   3.2763987e-02  -1.9195288e+08
   2.6942314e-10  -5.9252920e-02   3.3961909e+00   3.3772148e-02  -1.8990522e+08
   2.7209070e-10  -5.8749075e-02   3.3646764e+00   3.4796630e-02  -1.8788459e+08
   2.7475825e-10  -5.8250583e-02   3.3334591e+00   3.5837309e-02  -1.8589072e+08
   2.7742581e-10  -5.7757373e-02   3.3025414e+00   3.6894055e-02  -1.8392330e+08
   2.8009336e-10  -5.7269376e-02   3.2719255e+00   3.7966733e-02  -1.8198204e+08
   2.8276092e-10  -5.6786521e-02   3.2416132e+00   3.9055206e-02  -1.8006662e+08
   2.8542848e-10  -5.6308741e-02   3.2116060e+00   4.0159328e-02  -1.7817674e+08
   2.8809603e-10  -5.5835967e-02   3.1819053e+00   4.1278952e-02  -1.7631208e+08
   2.9076359e-10  -5.5368133e-02   3.1525121e+00   4.2413926e-02  -1.7447233e+08
   2.9343114e-10  -5.4905173e-02   3.1234270e+00   4.3564092e-02  -1.7265718e+08
   2.9609870e-10  -5.4447021e-02   3.0946507e+00   4.4729291e-02  -1.7086631e+08
   2.9876626e-10  -5.3993614e-02   3.0661832e+00   4.5909361e-02  -1.6909939e+08
   3.0143381e-10  -5.3544888e-02   3.0380248e+00   4.7104133e-02  -1.6735610e+08
   3.0410137e-10  -5.3100780e-02   3.0101752e+00   4.8313440e-02  -1.6563613e+08
   3.0676892e-10  -5.2661228e-02   2.9826339e+00   4.9537109e-02  -1.6393916e+08
   3.0943648e-10  -5.2226172e-02   2.9554006e+00   5.0774965e-02  -1.6226486e+08
   3.1210403e-10  -5.1795552e-02   2.9284743e+00   5.2026830e-02  -1.6061290e+08
   3.1477159e-10  -5.1369308e-02   2.9018542e+00   5.3292527e-02  -1.5898299e+08
   3.1743915e-10  -5.0947382e-02   2.8755392e+00   5.4571873e-02  -1.5737479e+08
   3.2010670e-10  -5.0529717e-02   2.8495281e+00   5.5864686e-02  -1.5578799e+08
   3.2277426e-10  -5.0116256e-02   2.8238194e+00   5.7170781e-02  -1.5422227e+08
   3.2544181e-10  -4.9706943e-02   2.7984116e+00   5.8489971e-02  -1.5267732e+08
   3.2810937e-10  -4.9301724e-02   2.7733032e+00   5.9822069e-02  -1.5115284e+08
   3.3077693e-10  -4.8900543e-02   2.7484924e+00   6.1166887e-02  -1.4964850e+08
   3.3344448e-10  -4.8503348e-02   2.7239772e+00   6.2524234e-02  -1.4816402e+08
   3.3611204e-10  -4.8110086e-02   2.6997557e+00   6.3893921e-02  -1.4669907e+08
   3.3877959e-10  -4.7720706e-02   2.6758259e+00   6.5275755e-02  -1.4525337e+08
   3.4144715e-10  -4.7335157e-02   2.6521857e+00   6.6669545e-02  -1.4382661e+08
   3.4411470e-10  -4.6953388e-02   2.6288327e+00   6.8075097e-02  -1.4241850e+08
   3.4678226e-10  -4.6575350e-02   2.6057647e+00   6.9492220e-02  -1.4102876e+08
   3.4944982e-10  -4.6200995e-02   2.5829792e+00   7.0920719e-02  -1.3965708e+08
   3.5211737e-10  -4.5830274e-02   2.5604740e+00   7.2360401e-02  -1.3830319e+08
   3.5478493e-10  -4.5463141e-02   2.5382464e+00   7.3811072e-02  -1.3696681e+08
   3.5745248e-10  -4.5099550e-02   2.5162940e+00   7.5272540e-02  -1.3564766e+08
   3.6012004e-10  -4.4739454e-02   2.4946141e+00   7.6744610e-02  -1.3434546e+08
   3.6278760e-10  -4.4382809e-02   2.4732041e+00   7.8227088e-02  -1.3305994e+08
   3.6545515e-10  -4.4029572e-02   2.4520614e+00   7.9719782e-02  -1.3179084e+08
   3.6812271e-10  -4.3679697e-02   2.4311832e+00   8.1222500e-02  -1.3053790e+08
   3.7079026e-10  -4.3333143e-02   2.4105669e+00   8.2735047e-02  -1.2930086e+08
   3.7345782e-10  -4.2989868e-02   2.3902096e+00   8.4257233e-02  -1.2807945e+08
   3.7612538e-10  -4.2649830e-02   2.3701086e+00   8.5788866e-02  -1.2687344e+08
   3.7879293e-10  -4.2312989e-02   2.3502611e+00   8.7329756e-02  -1.2568257e+08
   3.8146049e-10  -4.1979303e-02   2.3306643e+00   8.8879711e-02  -1.2450659e+08
   3.8412804e-10  -4.1648736e-02   2.3113154e+00   9.0438543e-02  -1.2334528e+08
   3.8679560e-10  -4.1321246e-02   2.2922115e+00   9.2006062e-02  -1.2219839e+08
   3.8946315e-10  -4.0996796e-02   2.2733498e+00   9.3582082e-02  -1.2106568e+08
   3.9213071e-10  -4.0675349e-02   2.2547276e+00   9.5166414e-02  -1.1994694e+08
   3.9479827e-10  -4.0356868e-02   2.2363419e+00   9.6758872e-02  -1.1884194e+08
   3.9746582e-10  -4.0041316e-02   2.2181899e+00   9.8359272e-02  -1.1775045e+08
   4.0013338e-10  -3.9728658e-02   2.2002689e+00   9.9967429e-02  -1.1667226e+08
   4.0280093e-10  -3.9418857e-02   2.1825759e+00   1.0158316e-01  -1.1560715e+08
   4.0546849e-10  -3.9111881e-02   2.1651082e+00   1.0320628e-01  -1.1455492e+08
   4.0813605e-10  -3.8807695e-02   2.1478630e+00   1.0483662e-01  -1.1351536e+08
   4.1080360e-10  -3.8506264e-02   2.1308375e+00   1.0647398e-01  -1.1248826e+08
   4.1347116e-10  -3.8207557e-02   2.1140289e+00   1.0811819e-01  -1.1147343e+08
   4.1613871e-10  -3.7911541e-02   2.0974344e+00   1.0976908e-01  -1.1047067e+08
   4.1880627e-10  -3.7618183e-02   2.0810514e+00   1.1142647e-01  -1.0947978e+08
   4.2147382e-10  -3.7327453e-02   2.0648770e+00   1.1309018e-01  -1.0850059e+08
   4.2414138e-10  -3.7039319e-02   2.0489086e+00   1.1476003e-01  -1.0753290e+08
   4.2680894e-10  -3.6753752e-02   2.0331435e+00   1.1643587e-01  -1.0657653e+08
   4.2947649e-10  -3.6470720e-02   2.0175790e+00   1.1811750e-01  -1.0563130e+08
   4.3214405e-10  -3.6190195e-02   2.0022125e+00   1.1980477e-01  -1.0469705e+08
   4.3481160e-10  -3.5912148e-02   1.9870413e+00   1.2149751e-01  -1.0377358e+08
   4.3747916e-10  -3.5636550e-02   1.9720628e+00   1.2319554e-01  -1.0286074e+08
   4.4014672e-10  -3.5363373e-02   1.9572746e+00   1.2489870e-01  -1.0195836e+08
   4.4281427e-10  -3.5092588e-02   1.9426739e+00   1.2660683e-01  -1.0106628e+08
   4.4548183e-10  -3.4824170e-02   1.9282583e+00   1.2831976e-01  -1.0018434e+08
   4.4814938e-10  -3.4558091e-02   1.9140252e+00   1.3003733e-01  -9.9312368e+07
   4.5081694e-10  -3.4294325e-02   1.8999723e+00   1.3175939e-01  -9.8450226e+07
   4.5348449e-10  -3.4032846e-02   1.8860970e+00   1.3348576e-01  -9.7597757e+07
   4.5615205e-10  -3.3773627e-02   1.8723969e+00   1.3521629e-01  -9.6754814e+07
   4.5881961e-10  -3.3516645e-02   1.8588697e+00   1.3695084e-01  -9.5921249e+07
   4.6148716e-10  -3.3261874e-02   1.8455129e+00   1.3868923e-01  -9.5096921e+07
   4.6415472e-10  -3.3009289e-02   1.8323241e+00   1.4043132e-01  -9.4281688e+07
   4.6682227e-10  -3.2758867e-02   1.8193012e+00   1.4217695e-01  -9.3475413e+07
   4.6948983e-10  -3.2510584e-02   1.8064417e+00   1.4392598e-01  -9.2677961e+07
   4.7215739e-10  -3.2264416e-02   1.7937434e+00   1.4567826e-01  -9.1889199e+07
   4.7482494e-10  -3.2020341e-02   1.7812042e+00   1.4743363e-01  -9.1108996e+07
   4.7749250e-10  -3.1778336e-02   1.7688217e+00   1.4919195e-01  -9.0337225e+07
   4.8016005e-10  -3.1538378e-02   1.7565938e+00   1.5095308e-01  -8.9573761e+07
   4.8282761e-10  -3.1300446e-02   1.7445183e+00   1.5271687e-01  -8.8818481e+07
   4.8549517e-10  -3.1064518e-02   1.7325932e+00   1.5448318e-01  -8.8071263e+07
   4.8816272e-10  -3.0830572e-02   1.7208163e+00   1.5625186e-01  -8.7331989e+07
   4.9083028e-10  -3.0598588e-02   1.7091855e+00   1.5802279e-01  -8.6600543e+07
   4.9349783e-10  -3.0368545e-02   1.6976988e+00   1.5979582e-01  -8.5876811e+07
   4.9616539e-10  -3.0140422e-02   1.6863542e+00   1.6157082e-01  -8.5160681e+07
   4.9883294e-10  -2.9914199e-02   1.6751497e+00   1.6334765e-01  -8.4452042e+07
   5.0150050e-10  -2.9689857e-02   1.6640834e+00   1.6512617e-01  -8.3750786e+07
   5.0416806e-10  -2.9467375e-02   1.6531532e+00   1.6690626e-01  -8.3056809e+07
   5.0683561e-10  -2.9246735e-02   1.6423574e+00   1.6868778e-01  -8.2370005e+07
   5.0950317e-10  -2.9027918e-02   1.6316939e+00   1.7047062e-01  -8.1690274e+07
   5.1217072e-10  -2.8810904e-02   1.6211610e+00   1.7225462e-01  -8.1017513e+07
   5.1483828e-10  -2.8595676e-02   1.6107569e+00   1.7403969e-01  -8.0351627e+07
   5.1750584e-10  -2.8382215e-02   1.6004796e+00   1.7582567e-01  -7.9692516e+07
   5.2017339e-10  -2.8170503e-02   1.5903275e+00   1.7761246e-01  -7.9040088e+07
   5.2284095e-10  -2.7960523e-02   1.5802988e+00   1.7939994e-01  -7.8394249e+07
   5.2550850e-10  -2.7752257e-02   1.5703917e+00   1.8118797e-01  -7.7754908e+07
   5.2817606e-10  -2.7545688e-02   1.5606046e+00   1.8297645e-01  -7.7121974e+07
   5.3084361e-10  -2.7340799e-02   1.5509357e+00   1.8476525e-01  -7.6495361e+07
   5.3351117e-10  -2.7137572e-02   1.5413835e+00   1.8655426e-01  -7.5874981e+07
   5.3617873e-10  -2.6935993e-02   1.5319463e+00   1.8834336e-01  -7.5260750e+07
   5.3884628e-10  -2.6736044e-02   1.5226225e+00   1.9013244e-01  -7.4652584e+07
   5.4151384e-10  -2.6537709e-02   1.5134104e+00   1.9192139e-01  -7.4050401e+07
   5.4418139e-10  -2.6340972e-02   1.5043087e+00   1.9371010e-01  -7.3454122e+07
   5.4684895e-10  -2.6145818e-02   1.4953156e+00   1.9549845e-01  -7.2863667e+07
   5.4951651e-10  -2.5952232e-02   1.4864297e+00   1.9728634e-01  -7.2278958e+07
   5.5218406e-10  -2.5760198e-02   1.4776495e+00   1.9907367e-01  -7.1699920e+07
   5.5485162e-10  -2.5569701e-02   1.4689736e+00   2.0086032e-01  -7.1126477e+07
   5.5751917e-10  -2.5380726e-02   1.4604004e+00   2.0264620e-01  -7.0558557e+07
   5.6018673e-10  -2.5193259e-02   1.4519286e+00   2.0443120e-01  -6.9996086e+07
   5.6285428e-10  -2.5007285e-02   1.4435568e+00   2.0621522e-01  -6.9438995e+07
   5.6552184e-10  -2.4822790e-02   1.4352835e+00   2.0799815e-01  -6.8887213e+07
   5.6818940e-10  -2.4639759e-02   1.4271074e+00   2.0977991e-01  -6.8340672e+07
   5.7085695e-10  -2.4458180e-02   1.4190272e+00   2.1156040e-01  -6.7799305e+07
   5.7352451e-10  -2.4278038e-02   1.4110416e+00   2.1333951e-01  -6.7263045e+07
   5.7619206e-10  -2.4099320e-02   1.4031492e+00   2.1511716e-01  -6.6731827e+07
   5.7885962e-10  -2.3922012e-02   1.3953487e+00   2.1689324e-01  -6.6205589e+07
   5.8152718e-10  -2.3746102e-02   1.3876390e+00   2.1866768e-01  -6.5684266e+07
   5.8419473e-10  -2.3571575e-02   1.3800187e+00   2.2044037e-01  -6.5167798e+07
   5.8686229e-10  -2.3398420e-02   1.3724866e+00   2.2221124e-01  -6.4656124e+07
   5.8952984e-10  -2.3226624e-02   1.3650416e+00   2.2398018e-01  -6.4149183e+07
   5.9219740e-10  -2.3056173e-02   1.3576824e+00   2.2574711e-01  -6.3646919e+07
   5.9486495e-10  -2.2887056e-02   1.3504078e+00   2.2751196e-01  -6.3149272e+07
   5.9753251e-10  -2.2719261e-02   1.3432168e+00   2.2927463e-01  -6.2656186e+07
   6.0020007e-10  -2.2552774e-02   1.3361081e+00   2.3103503e-01  -6.2167607e+07
   6.0286762e-10  -2.2387586e-02   1.3290808e+00   2.3279310e-01  -6.1683478e+07
   6.0553518e-10  -2.2223682e-02   1.3221335e+00   2.3454874e-01  -6.1203746e+07
   6.0820273e-10  -2.2061053e-02   1.3152654e+00   2.3630189e-01  -6.0728359e+07
   6.1087029e-10  -2.1899686e-02   1.3084752e+00   2.3805245e-01  -6.0257263e+07
   6.1353785e-10  -2.1739570e-02   1.3017620e+00   2.3980035e-01  -5.9790409e+07
   6.1620540e-10  -2.1580693e-02   1.2951247e+00   2.4154553e-01  -5.9327745e+07
   6.1887296e-10  -2.1423046e-02   1.2885624e+00   2.4328789e-01  -5.8869222e+07
   6.2154051e-10  -2.1266616e-02   1.2820739e+00   2.4502738e-01  -5.8414791e+07
   6.2420807e-10  -2.1111392e-02   1.2756583e+00   2.4676391e-01  -5.7964404e+07
   6.2687563e-10  -2.0957365e-02   1.2693147e+00   2.4849741e-01  -5.7518015e+07
   6.2954318e-10  -2.0804524e-02   1.2630420e+00   2.5022783e-01  -5.7075576e+07
   6.3221074e-10  -2.0652857e-02   1.2568394e+00   2.5195508e-01  -5.6637042e+07
   6.3487829e-10  -2.0502355e-02   1.2507059e+00   2.5367909e-01  -5.6202368e+07
   6.3754585e-10  -2.0353007e-02   1.2446405e+00   2.5539982e-01  -5.5771510e+07
   6.4021340e-10  -2.0204804e-02   1.2386424e+00   2.5711717e-01  -5.5344424e+07
   6.4288096e-10  -2.0057735e-02   1.2327108e+00   2.5883111e-01  -5.4921068e+07
   6.4554852e-10  -1.9911791e-02   1.2268446e+00   2.6054155e-01  -5.4501398e+07
   6.4821607e-10  -1.9766961e-02   1.2210431e+00   2.6224843e-01  -5.4085374e+07
   6.5088363e-10  -1.9623235e-02   1.2153054e+00   2.6395171e-01  -5.3672955e+07
   6.5355118e-10  -1.9480606e-02   1.2096306e+00   2.6565131e-01  -5.3264100e+07
   6.5621874e-10  -1.9339062e-02   1.2040181e+00   2.6734718e-01  -5.2858771e+07
   6.5888630e-10  -1.9198595e-02   1.1984668e+00   2.6903926e-01  -5.2456927e+07
   6.6155385e-10  -1.9059195e-02   1.1929761e+00   2.7072749e-01  -5.2058530e+07
   6.6422141e-10  -1.8920853e-02   1.1875451e+00   2.7241181e-01  -5.1663543e+07
   6.6688896e-10  -1.8783561e-02   1.1821731e+00   2.7409218e-01  -5.1271928e+07
   6.6955652e-10  -1.8647309e-02   1.1768593e+00   2.7576854e-01  -5.0883649e+07
   6.7222407e-10  -1.8512088e-02   1.1716029e+00   2.7744084e-01  -5.0498669e+07
   6.7489163e-10  -1.8377889e-02   1.1664033e+00   2.7910902e-01  -5.0116953e+07
   6.7755919e-10  -1.8244705e-02   1.1612596e+00   2.8077303e-01  -4.9738465e+07
   6.8022674e-10  -1.8112526e-02   1.1561713e+00   2.8243283e-01  -4.9363172e+07
   6.8289430e-10  -1.7981344e-02   1.1511374e+00   2.8408836e-01  -4.8991038e+07
   6.8556185e-10  -1.7851150e-02   1.1461575e+00   2.8573958e-01  -4.8622031e+07
   6.8822941e-10  -1.7721937e-02   1.1412307e+00   2.8738644e-01  -4.8256118e+07
   6.9089697e-10  -1.7593695e-02   1.1363563e+00   2.8902889e-01  -4.7893265e+07
   6.9356452e-10  -1.7466418e-02   1.1315339e+00   2.9066690e-01  -4.7533441e+07
   6.9623208e-10  -1.7340096e-02   1.1267625e+00   2.9230041e-01  -4.7176614e+07
   6.9889963e-10  -1.7214722e-02   1.1220417e+00   2.9392939e-01  -4.6822752e+07
   7.0156719e-10  -1.7090288e-02   1.1173708e+00   2.9555378e-01  -4.6471826e+07
   7.0423474e-10  -1.6966787e-02   1.1127492e+00   2.9717356e-01  -4.6123805e+07
   7.0690230e-10  -1.6844210e-02   1.1081761e+00   2.9878868e-01  -4.5778658e+07
   7.0956986e-10  -1.6722550e-02   1.1036511e+00   3.0039909e-01  -4.5436357e+07
   7.1223741e-10  -1.6601799e-02   1.0991735e+00   3.0200477e-01  -4.5096872e+07
   7.1490497e-10  -1.6481950e-02   1.0947428e+00   3.0360568e-01  -4.4760175e+07
   7.1757252e-10  -1.6362995e-02   1.0903583e+00   3.0520177e-01  -4.4426237e+07
   7.2024008e-10  -1.6244928e-02   1.0860194e+00   3.0679301e-01  -4.4095031e+07
   7.2290764e-10  -1.6127741e-02   1.0817257e+00   3.0837937e-01  -4.3766529e+07
   7.2557519e-10  -1.6011426e-02   1.0774765e+00   3.0996082e-01  -4.3440704e+07
   7.2824275e-10  -1.5895977e-02   1.0732713e+00   3.1153731e-01  -4.3117530e+07
   7.3091030e-10  -1.5781387e-02   1.0691095e+00   3.1310882e-01  -4.2796979e+07
   7.3357786e-10  -1.5667648e-02   1.0649907e+00   3.1467532e-01  -4.2479026e+07
   7.3624542e-10  -1.5554754e-02   1.0609142e+00   3.1623677e-01  -4.2163646e+07
   7.3891297e-10  -1.5442697e-02   1.0568796e+00   3.1779314e-01  -4.1850813e+07
   7.4158053e-10  -1.5331472e-02   1.0528864e+00   3.1934441e-01  -4.1540501e+07
   7.4424808e-10  -1.5221072e-02   1.0489340e+00   3.2089055e-01  -4.1232687e+07
   7.4691564e-10  -1.5111489e-02   1.0450220e+00   3.2243153e-01  -4.0927346e+07
   7.4958319e-10  -1.5002717e-02   1.0411498e+00   3.2396732e-01  -4.0624454e+07
   7.5225075e-10  -1.4894750e-02   1.0373170e+00   3.2549789e-01  -4.0323988e+07
   7.5491831e-10  -1.4787582e-02   1.0335231e+00   3.2702323e-01  -4.0025923e+07
   7.5758586e-10  -1.4681205e-02   1.0297676e+00   3.2854330e-01  -3.9730238e+07
   7.6025342e-10  -1.4575614e-02   1.0260501e+00   3.3005809e-01  -3.9436908e+07
   7.6292097e-10  -1.4470802e-02   1.0223702e+00   3.3156756e-01  -3.9145913e+07
   7.6558853e-10  -1.4366764e-02   1.0187272e+00   3.3307171e-01  -3.8857229e+07
   7.6825609e-10  -1.4263492e-02   1.0151209e+00   3.3457049e-01  -3.8570834e+07
   7.7092364e-10  -1.4160982e-02   1.0115508e+00   3.3606390e-01  -3.8286708e+07
   7.7359120e-10  -1.4059226e-02   1.0080164e+00   3.3755191e-01  -3.8004828e+07
   7.7625875e-10  -1.3958220e-02   1.0045174e+00   3.3903451e-01  -3.7725174e+07
   7.7892631e-10  -1.3857956e-02   1.0010533e+00   3.4051167e-01  -3.7447725e+07
   7.8159386e-10  -1.3758430e-02   9.9762361e-01   3.4198338e-01  -3.7172460e+07
   7.8426142e-10  -1.3659635e-02   9.9422805e-01   3.4344962e-01  -3.6899359e+07
   7.8692898e-10  -1.3561565e-02   9.9086617e-01   3.4491037e-01  -3.6628402e+07
   7.8959653e-10  -1.3464216e-02   9.8753757e-01   3.4636562e-01  -3.6359569e+07
   7.9226409e-10  -1.3367581e-02   9.8424187e-01   3.4781534e-01  -3.6092841e+07
   7.9493164e-10  -1.3271654e-02   9.8097869e-01   3.4925953e-01  -3.5828197e+07
   7.9759920e-10  -1.3176431e-02   9.7774763e-01   3.5069818e-01  -3.5565620e+07
   8.0026676e-10  -1.3081906e-02   9.7454833e-01   3.5213125e-01  -3.5305091e+07
   8.0293431e-10  -1.2988073e-02   9.7138041e-01   3.5355875e-01  -3.5046589e+07
   8.0560187e-10  -1.2894926e-02   9.6824352e-01   3.5498067e-01  -3.4790099e+07
   8.0826942e-10  -1.2802462e-02   9.6513728e-01   3.5639698e-01  -3.4535600e+07
   8.1093698e-10  -1.2710673e-02   9.6206136e-01   3.5780768e-01  -3.4283075e+07
   8.1360453e-10  -1.2619556e-02   9.5901539e-01   3.5921275e-01  -3.4032507e+07
   8.1627209e-10  -1.2529104e-02   9.5599903e-01   3.6061219e-01  -3.3783878e+07
   8.1893965e-10  -1.2439313e-02   9.5301195e-01   3.6200599e-01  -3.3537170e+07
   8.2160720e-10  -1.2350177e-02   9.5005380e-01   3.6339414e-01  -3.3292367e+07
   8.2427476e-10  -1.2261693e-02   9.4712426e-01   3.6477662e-01  -3.3049451e+07
   8.2694231e-10  -1.2173853e-02   9.4422300e-01   3.6615344e-01  -3.2808405e+07
   8.2960987e-10  -1.2086654e-02   9.4134969e-01   3.6752458e-01  -3.2569214e+07
   8.3227743e-10  -1.2000091e-02   9.3850403e-01   3.6889003e-01  -3.2331861e+07
   8.3494498e-10  -1.1914158e-02   9.3568569e-01   3.7024980e-01  -3.2096329e+07
   8.3761254e-10  -1.1828852e-02   9.3289436e-01   3.7160387e-01  -3.1862603e+07
   8.4028009e-10  -1.1744166e-02   9.3012975e-01   3.7295223e-01  -3.1630667e+07
   8.4294765e-10  -1.1660097e-02   9.2739154e-01   3.7429489e-01  -3.1400505e+07
   8.4561521e-10  -1.1576639e-02   9.2467945e-01   3.7563184e-01  -3.1172102e+07
   8.4828276e-10  -1.1493788e-02   9.2199318e-01   3.7696308e-01  -3.0945443e+07
   8.5095032e-10  -1.1411540e-02   9.1933244e-01   3.7828860e-01  -3.0720512e+07
   8.5361787e-10  -1.1329889e-02   9.1669694e-01   3.7960839e-01  -3.0497294e+07
   8.5628543e-10  -1.1248832e-02   9.1408641e-01   3.8092247e-01  -3.0275775e+07
   8.5895298e-10  -1.1168363e-02   9.1150056e-01   3.8223081e-01  -3.0055940e+07
   8.6162054e-10  -1.1088479e-02   9.0893912e-01   3.8353343e-01  -2.9837775e+07
   8.6428810e-10  -1.1009174e-02   9.0640183e-01   3.8483032e-01  -2.9621266e+07
   8.6695565e-10  -1.0930444e-02   9.0388841e-01   3.8612148e-01  -2.9406397e+07
   8.6962321e-10  -1.0852286e-02   9.0139860e-01   3.8740691e-01  -2.9193156e+07
   8.7229076e-10  -1.0774694e-02   8.9893213e-01   3.8868661e-01  -2.8981529e+07
   8.7495832e-10  -1.0697664e-02   8.9648877e-01   3.8996059e-01  -2.8771501e+07
   8.7762588e-10  -1.0621193e-02   8.9406824e-01   3.9122883e-01  -2.8563059e+07
   8.8029343e-10  -1.0545276e-02   8.9167030e-01   3.9249135e-01  -2.8356190e+07
   8.8296099e-10  -1.0469908e-02   8.8929470e-01   3.9374814e-01  -2.8150881e+07
   8.8562854e-10  -1.0395086e-02   8.8694121e-01   3.9499921e-01  -2.7947118e+07
   8.8829610e-10  -1.0320806e-02   8.8460957e-01   3.9624456e-01  -2.7744889e+07
   8.9096365e-10  -1.0247063e-02   8.8229956e-01   3.9748419e-01  -2.7544181e+07
   8.9363121e-10  -1.0173853e-02   8.8001093e-01   3.9871811e-01  -2.7344980e+07
   8.9629877e-10  -1.0101173e-02   8.7774346e-01   3.9994632e-01  -2.7147275e+07
   8.9896632e-10  -1.0029018e-02   8.7549691e-01   4.0116882e-01  -2.6951053e+07
   9.0163388e-10  -9.9573846e-03   8.7327107e-01   4.0238563e-01  -2.6756302e+07
   9.0430143e-10  -9.8862687e-03   8.7106571e-01   4.0359673e-01  -2.6563010e+07
   9.0696899e-10  -9.8156666e-03   8.6888061e-01   4.0480214e-01  -2.6371163e+07
   9.0963655e-10  -9.7455743e-03   8.6671555e-01   4.0600187e-01  -2.6180752e+07
   9.1230410e-10  -9.6759880e-03   8.6457032e-01   4.0719591e-01  -2.5991763e+07
   9.1497166e-10  -9.6069040e-03   8.6244471e-01   4.0838429e-01  -2.5804185e+07
   9.1763921e-10  -9.5383185e-03   8.6033850e-01   4.0956699e-01  -2.5618007e+07
   9.2030677e-10  -9.4702278e-03   8.5825150e-01   4.1074403e-01  -2.5433216e+07
   9.2297432e-10  -9.4026282e-03   8.5618350e-01   4.1191542e-01  -2.5249803e+07
   9.2564188e-10  -9.3355160e-03   8.5413429e-01   4.1308116e-01  -2.5067755e+07
   9.2830944e-10  -9.2688877e-03   8.5210369e-01   4.1424127e-01  -2.4887061e+07
   9.3097699e-10  -9.2027396e-03   8.5009148e-01   4.1539574e-01  -2.4707711e+07
   9.3364455e-10  -9.1370681e-03   8.4809749e-01   4.1654459e-01  -2.4529693e+07
   9.3631210e-10  -9.0718697e-03   8.4612152e-01   4.1768782e-01  -2.4352997e+07
   9.3897966e-10  -9.0071409e-03   8.4416337e-01   4.1882546e-01  -2.4177611e+07
   9.4164722e-10  -8.9428782e-03   8.4222287e-01   4.1995749e-01  -2.4003527e+07
   9.4431477e-10  -8.8790782e-03   8.4029983e-01   4.2108394e-01  -2.3830732e+07
   9.4698233e-10  -8.8157375e-03   8.3839407e-01   4.2220481e-01  -2.3659217e+07
   9.4964988e-10  -8.7528525e-03   8.3650540e-01   4.2332012e-01  -2.3488971e+07
   9.5231744e-10  -8.6904200e-03   8.3463366e-01   4.2442987e-01  -2.3319984e+07
   9.5498499e-10  -8.6284367e-03   8.3277865e-01   4.2553407e-01  -2.3152247e+07
   9.5765255e-10  -8.5668991e-03   8.3094023e-01   4.2663274e-01  -2.2985748e+07
   9.6032011e-10  -8.5058040e-03   8.2911820e-01   4.2772588e-01  -2.2820479e+07
   9.6298766e-10  -8.4451482e-03   8.2731240e-01   4.2881351e-01  -2.2656429e+07
   9.6565522e-10  -8.3849284e-03   8.2552267e-01   4.2989564e-01  -2.2493589e+07
   9.6832277e-10  -8.3251413e-03   8.2374884e-01   4.3097228e-01  -2.2331949e+07
   9.7099033e-10  -8.2657839e-03   8.2199075e-01   4.3204344e-01  -2.2171500e+07
   9.7365789e-10  -8.2068528e-03   8.2024823e-01   4.3310914e-01  -2.2012232e+07
   9.7632544e-10  -8.1483451e-03   8.1852113e-01   4.3416938e-01  -2.1854136e+07
   9.7899300e-10  -8.0902575e-03   8.1680930e-01   4.3522418e-01  -2.1697202e+07
   9.8166055e-10  -8.0325871e-03   8.1511257e-01   4.3627355e-01  -2.1541422e+07
   9.8432811e-10  -7.9753306e-03   8.1343079e-01   4.3731751e-01  -2.1386787e+07
   9.8699567e-10  -7.9184852e-03   8.1176381e-01   4.3835607e-01  -2.1233287e+07
   9.8966322e-10  -7.8620477e-03   8.1011148e-01   4.3938923e-01  -2.1080913e+07
   9.9233078e-10  -7.8060151e-03   8.0847366e-01   4.4041702e-01  -2.0929657e+07
   9.9499833e-10  -7.7503846e-03   8.0685019e-01   4.4143945e-01  -2.0779510e+07
   9.9766589e-10  -7.6951532e-03   8.0524094e-01   4.4245654e-01  -2.0630464e+07
   1.0003334e-09  -7.6403178e-03   8.0364576e-01   4.4346829e-01  -2.0482509e+07
   1.0030010e-09  -7.5858757e-03   8.0206451e-01   4.4447472e-01  -2.0335637e+07
   1.0056686e-09  -7.5318240e-03   8.0049704e-01   4.4547584e-01  -2.0189840e+07
   1.0083361e-09  -7.4781598e-03   7.9894323e-01   4.4647168e-01  -2.0045110e+07
   1.0110037e-09  -7.4248802e-03   7.9740294e-01   4.4746224e-01  -1.9901438e+07
   1.0136712e-09  -7.3719824e-03   7.9587603e-01   4.4844754e-01  -1.9758815e+07
   1.0163388e-09  -7.3194638e-03   7.9436237e-01   4.4942759e-01  -1.9617235e+07
   1.0190063e-09  -7.2673214e-03   7.9286182e-01   4.5040242e-01  -1.9476688e+07
   1.0216739e-09  -7.2155526e-03   7.9137427e-01   4.5137203e-01  -1.9337167e+07
   1.0243414e-09  -7.1641546e-03   7.8989957e-01   4.5233644e-01  -1.9198664e+07
   1.0270090e-09  -7.1131247e-03   7.8843761e-01   4.5329567e-01  -1.9061171e+07
   1.0296766e-09  -7.0624602e-03   7.8698826e-01   4.5424973e-01  -1.8924680e+07
   1.0323441e-09  -7.0121585e-03   7.8555139e-01   4.5519864e-01  -1.8789184e+07
   1.0350117e-09  -6.9622170e-03   7.8412688e-01   4.5614241e-01  -1.8654675e+07
   1.0376792e-09  -6.9126329e-03   7.8271461e-01   4.5708106e-01  -1.8521145e+07
   1.0403468e-09  -6.8634038e-03   7.8131446e-01   4.5801461e-01  -1.8388587e+07
   1.0430143e-09  -6.8145269e-03   7.7992632e-01   4.5894308e-01  -1.8256993e+07
   1.0456819e-09  -6.7659998e-03   7.7855006e-01   4.5986647e-01  -1.8126356e+07
   1.0483494e-09  -6.7178200e-03   7.7718557e-01   4.6078481e-01  -1.7996670e+07
   1.0510170e-09  -6.6699848e-03   7.7583274e-01   4.6169812e-01  -1.7867925e+07
   1.0536846e-09  -6.6224918e-03   7.7449145e-01   4.6260640e-01  -1.7740116e+07
   1.0563521e-09  -6.5753385e-03   7.7316159e-01   4.6350969e-01  -1.7613235e+07
   1.0590197e-09  -6.5285224e-03   7.7184305e-01   4.6440798e-01  -1.7487275e+07
   1.0616872e-09  -6.4820411e-03   7.7053572e-01   4.6530131e-01  -1.7362230e+07
   1.0643548e-09  -6.4358922e-03   7.6923950e-01   4.6618969e-01  -1.7238091e+07
   1.0670223e-09  -6.3900732e-03   7.6795427e-01   4.6707313e-01  -1.7114853e+07
   1.0696899e-09  -6.3445818e-03   7.6667994e-01   4.6795166e-01  -1.6992508e+07
   1.0723575e-09  -6.2994155e-03   7.6541639e-01   4.6882529e-01  -1.6871051e+07
   1.0750250e-09  -6.2545721e-03   7.6416353e-01   4.6969404e-01  -1.6750473e+07
   1.0776926e-09  -6.2100491e-03   7.6292125e-01   4.7055792e-01  -1.6630768e+07
   1.0803601e-09  -6.1658443e-03   7.6168944e-01   4.7141696e-01  -1.6511930e+07
   1.0830277e-09  -6.1219554e-03   7.6046803e-01   4.7227118e-01  -1.6393953e+07
   1.0856952e-09  -6.0783800e-03   7.5925689e-01   4.7312058e-01  -1.6276829e+07
   1.0883628e-09  -6.0351160e-03   7.5805594e-01   4.7396519e-01  -1.6160553e+07
   1.0910303e-09  -5.9921610e-03   7.5686508e-01   4.7480503e-01  -1.6045117e+07
   1.0936979e-09  -5.9495128e-03   7.5568421e-01   4.7564011e-01  -1.5930517e+07
   1.0963655e-09  -5.9071692e-03   7.5451324e-01   4.7647045e-01  -1.5816744e+07
   1.0990330e-09  -5.8651280e-03   7.5335207e-01   4.7729608e-01  -1.5703794e+07
   1.1017006e-09  -5.8233870e-03   7.5220062e-01   4.7811701e-01  -1.5591660e+07
   1.1043681e-09  -5.7819441e-03   7.5105879e-01   4.7893325e-01  -1.5480335e+07
   1.1070357e-09  -5.7407970e-03   7.4992649e-01   4.7974483e-01  -1.5369815e+07
   1.1097032e-09  -5.6999437e-03   7.4880363e-01   4.8055176e-01  -1.5260092e+07
   1.1123708e-09  -5.6593820e-03   7.4769013e-01   4.8135407e-01  -1.5151161e+07
   1.1150383e-09  -5.6191099e-03   7.4658590e-01   4.8215177e-01  -1.5043016e+07
   1.1177059e-09  -5.5791252e-03   7.4549084e-01   4.8294488e-01  -1.4935652e+07
   1.1203735e-09  -5.5394259e-03   7.4440488e-01   4.8373342e-01  -1.4829061e+07
   1.1230410e-09  -5.5000099e-03   7.4332793e-01   4.8451741e-01  -1.4723239e+07
   1.1257086e-09  -5.4608751e-03   7.4225991e-01   4.8529686e-01  -1.4618180e+07
   1.1283761e-09  -5.4220196e-03   7.4120073e-01   4.8607180e-01  -1.4513877e+07
   1.1310437e-09  -5.3834413e-03   7.4015031e-01   4.8684224e-01  -1.4410327e+07
   1.1337112e-09  -5.3451383e-03   7.3910858e-01   4.8760821e-01  -1.4307522e+07
   1.1363788e-09  -5.3071085e-03   7.3807544e-01   4.8836972e-01  -1.4205457e+07
   1.1390463e-09  -5.2693500e-03   7.3705083e-01   4.8912679e-01  -1.4104128e+07
   1.1417139e-09  -5.2318608e-03   7.3603466e-01   4.8987944e-01  -1.4003527e+07
   1.1443815e-09  -5.1946390e-03   7.3502686e-01   4.9062768e-01  -1.3903651e+07
   1.1470490e-09  -5.1576826e-03   7.3402734e-01   4.9137155e-01  -1.3804493e+07
   1.1497166e-09  -5.1209899e-03   7.3303604e-01   4.9211105e-01  -1.3706049e+07
   1.1523841e-09  -5.0845587e-03   7.3205287e-01   4.9284621e-01  -1.3608313e+07
   1.1550517e-09  -5.0483874e-03   7.3107777e-01   4.9357704e-01  -1.3511279e+07
   1.1577192e-09  -5.0124740e-03   7.3011066e-01   4.9430356e-01  -1.3414944e+07
   1.1603868e-09  -4.9768166e-03   7.2915147e-01   4.9502580e-01  -1.3319300e+07
   1.1630544e-09  -4.9414135e-03   7.2820012e-01   4.9574377e-01  -1.3224344e+07
   1.1657219e-09  -4.9062627e-03   7.2725654e-01   4.9645749e-01  -1.3130070e+07
   1.1683895e-09  -4.8713625e-03   7.2632067e-01   4.9716698e-01  -1.3036474e+07
   1.1710570e-09  -4.8367111e-03   7.2539244e-01   4.9787225e-01  -1.2943550e+07
   1.1737246e-09  -4.8023067e-03   7.2447176e-01   4.9857334e-01  -1.2851293e+07
   1.1763921e-09  -4.7681474e-03   7.2355859e-01   4.9927025e-01  -1.2759698e+07
   1.1790597e-09  -4.7342317e-03   7.2265284e-01   4.9996301e-01  -1.2668761e+07
   1.1817272e-09  -4.7005576e-03   7.2175445e-01   5.0065163e-01  -1.2578477e+07
   1.1843948e-09  -4.6671236e-03   7.2086336e-01   5.0133614e-01  -1.2488841e+07
   1.1870624e-09  -4.6339277e-03   7.1997950e-01   5.0201655e-01  -1.2399848e+07
   1.1897299e-09  -4.6009685e-03   7.1910281e-01   5.0269288e-01  -1.2311493e+07
   1.1923975e-09  -4.5682440e-03   7.1823321e-01   5.0336515e-01  -1.2223772e+07
   1.1950650e-09  -4.5357528e-03   7.1737066e-01   5.0403338e-01  -1.2136680e+07
   1.1977326e-09  -4.5034930e-03   7.1651508e-01   5.0469759e-01  -1.2050213e+07
   1.2004001e-09  -4.4714630e-03   7.1566641e-01   5.0535780e-01  -1.1964366e+07
   1.2030677e-09  -4.4396612e-03   7.1482459e-01   5.0601403e-01  -1.1879134e+07
   1.2057352e-09  -4.4080860e-03   7.1398956e-01   5.0666629e-01  -1.1794512e+07
   1.2084028e-09  -4.3767357e-03   7.1316126e-01   5.0731461e-01  -1.1710498e+07
   1.2110704e-09  -4.3456087e-03   7.1233963e-01   5.0795900e-01  -1.1627085e+07
   1.2137379e-09  -4.3147034e-03   7.1152461e-01   5.0859948e-01  -1.1544270e+07
   1.2164055e-09  -4.2840182e-03   7.1071615e-01   5.0923607e-01  -1.1462048e+07
   1.2190730e-09  -4.2535516e-03   7.0991418e-01   5.0986880e-01  -1.1380415e+07
   1.2217406e-09  -4.2233020e-03   7.0911864e-01   5.1049767e-01  -1.1299366e+07
   1.2244081e-09  -4.1932677e-03   7.0832949e-01   5.1112272e-01  -1.1218898e+07
   1.2270757e-09  -4.1634474e-03   7.0754666e-01   5.1174395e-01  -1.1139006e+07
   1.2297432e-09  -4.1338394e-03   7.0677009e-01   5.1236138e-01  -1.1059686e+07
   1.2324108e-09  -4.1044423e-03   7.0599974e-01   5.1297504e-01  -1.0980934e+07
   1.2350784e-09  -4.0752544e-03   7.0523555e-01   5.1358494e-01  -1.0902745e+07
   1.2377459e-09  -4.0462744e-03   7.0447747e-01   5.1419111e-01  -1.0825116e+07
   1.2404135e-09  -4.0175008e-03   7.0372543e-01   5.1479355e-01  -1.0748042e+07
   1.2430810e-09  -3.9889320e-03   7.0297940e-01   5.1539229e-01  -1.0671520e+07
   1.2457486e-09  -3.9605666e-03   7.0223931e-01   5.1598736e-01  -1.0595545e+07
   1.2484161e-09  -3.9324031e-03   7.0150511e-01   5.1657875e-01  -1.0520113e+07
   1.2510837e-09  -3.9044402e-03   7.0077676e-01   5.1716650e-01  -1.0445221e+07
   1.2537513e-09  -3.8766763e-03   7.0005420e-01   5.1775063e-01  -1.0370864e+07
   1.2564188e-09  -3.8491100e-03   6.9933738e-01   5.1833115e-01  -1.0297039e+07
   1.2590864e-09  -3.8217400e-03   6.9862625e-01   5.1890807e-01  -1.0223742e+07
   1.2617539e-09  -3.7945648e-03   6.9792077e-01   5.1948143e-01  -1.0150969e+07
   1.2644215e-09  -3.7675830e-03   6.9722088e-01   5.2005123e-01  -1.0078715e+07
   1.2670890e-09  -3.7407933e-03   6.9652654e-01   5.2061750e-01  -1.0006979e+07
   1.2697566e-09  -3.7141942e-03   6.9583769e-01   5.2118025e-01  -9.9357546e+06
   1.2724241e-09  -3.6877845e-03   6.9515429e-01   5.2173950e-01  -9.8650394e+06
   1.2750917e-09  -3.6615627e-03   6.9447630e-01   5.2229527e-01  -9.7948295e+06
   1.2777593e-09  -3.6355276e-03   6.9380366e-01   5.2284758e-01  -9.7251212e+06
   1.2804268e-09  -3.6096777e-03   6.9313633e-01   5.2339644e-01  -9.6559108e+06
   1.2830944e-09  -3.5840118e-03   6.9247427e-01   5.2394188e-01  -9.5871948e+06
   1.2857619e-09  -3.5585285e-03   6.9181743e-01   5.2448391e-01  -9.5189695e+06
   1.2884295e-09  -3.5332266e-03   6.9116576e-01   5.2502255e-01  -9.4512315e+06
   1.2910970e-09  -3.5081048e-03   6.9051923e-01   5.2555782e-01  -9.3839772e+06
   1.2937646e-09  -3.4831617e-03   6.8987778e-01   5.2608973e-01  -9.3172030e+06
   1.2964321e-09  -3.4583960e-03   6.8924138e-01   5.2661831e-01  -9.2509057e+06
   1.2990997e-09  -3.4338067e-03   6.8860997e-01   5.2714357e-01  -9.1850816e+06
   1.3017673e-09  -3.4093922e-03   6.8798352e-01   5.2766553e-01  -9.1197273e+06
   1.3044348e-09  -3.3851515e-03   6.8736199e-01   5.2818420e-01  -9.0548396e+06
   1.3071024e-09  -3.3610833e-03   6.8674534e-01   5.2869961e-01  -8.9904150e+06
   1.3097699e-09  -3.3371863e-03   6.8613351e-01   5.2921177e-01  -8.9264501e+06
   1.3124375e-09  -3.3134593e-03   6.8552648e-01   5.2972070e-01  -8.8629417e+06
   1.3151050e-09  -3.2899011e-03   6.8492420e-01   5.3022641e-01  -8.7998865e+06
   1.3177726e-09  -3.2665105e-03   6.8432663e-01   5.3072893e-01  -8.7372812e+06
   1.3204401e-09  -3.2432864e-03   6.8373373e-01   5.3122827e-01  -8.6751225e+06
   1.3231077e-09  -3.2202274e-03   6.8314546e-01   5.3172445e-01  -8.6134072e+06
   1.3257753e-09  -3.1973325e-03   6.8256178e-01   5.3221749e-01  -8.5521322e+06
   1.3284428e-09  -3.1746005e-03   6.8198266e-01   5.3270740e-01  -8.4912943e+06
   1.3311104e-09  -3.1520302e-03   6.8140805e-01   5.3319420e-01  -8.4308903e+06
   1.3337779e-09  -3.1296204e-03   6.8083792e-01   5.3367790e-01  -8.3709170e+06
   1.3364455e-09  -3.1073700e-03   6.8027223e-01   5.3415854e-01  -8.3113715e+06
   1.3391130e-09  -3.0852779e-03   6.7971095e-01   5.3463611e-01  -8.2522506e+06
   1.3417806e-09  -3.0633430e-03   6.7915403e-01   5.3511064e-01  -8.1935512e+06
   1.3444481e-09  -3.0415641e-03   6.7860143e-01   5.3558215e-01  -8.1352704e+06
   1.3471157e-09  -3.0199401e-03   6.7805313e-01   5.3605064e-01  -8.0774051e+06
   1.3497833e-09  -2.9984699e-03   6.7750909e-01   5.3651615e-01  -8.0199523e+06
   1.3524508e-09  -2.9771524e-03   6.7696927e-01   5.3697868e-01  -7.9629091e+06
   1.3551184e-09  -2.9559865e-03   6.7643364e-01   5.3743826e-01  -7.9062724e+06
   1.3577859e-09  -2.9349712e-03   6.7590215e-01   5.3789489e-01  -7.8500395e+06
   1.3604535e-09  -2.9141054e-03   6.7537478e-01   5.3834860e-01  -7.7942074e+06
   1.3631210e-09  -2.8933879e-03   6.7485150e-01   5.3879940e-01  -7.7387732e+06
   1.3657886e-09  -2.8728178e-03   6.7433226e-01   5.3924730e-01  -7.6837341e+06
   1.3684562e-09  -2.8523940e-03   6.7381704e-01   5.3969234e-01  -7.6290872e+06
   1.3711237e-09  -2.8321155e-03   6.7330580e-01   5.4013451e-01  -7.5748297e+06
   1.3737913e-09  -2.8119811e-03   6.7279851e-01   5.4057384e-01  -7.5209588e+06
   1.3764588e-09  -2.7919900e-03   6.7229514e-01   5.4101034e-01  -7.4674717e+06
   1.3791264e-09  -2.7721410e-03   6.7179565e-01   5.4144403e-01  -7.4143658e+06
   1.3817939e-09  -2.7524332e-03   6.7130001e-01   5.4187493e-01  -7.3616381e+06
   1.3844615e-09  -2.7328656e-03   6.7080819e-01   5.4230304e-01  -7.3092862e+06
   1.3871290e-09  -2.7134371e-03   6.7032016e-01   5.4272840e-01  -7.2573071e+06
   1.3897966e-09  -2.6941467e-03   6.6983588e-01   5.4315100e-01  -7.2056983e+06
   1.3924642e-09  -2.6749936e-03   6.6935533e-01   5.4357088e-01  -7.1544571e+06
   1.3951317e-09  -2.6559766e-03   6.6887848e-01   5.4398804e-01  -7.1035809e+06
   1.3977993e-09  -2.6370949e-03   6.6840529e-01   5.4440249e-01  -7.0530671e+06
   1.4004668e-09  -2.6183474e-03   6.6793574e-01   5.4481427e-01  -7.0029130e+06
   1.4031344e-09  -2.5997332e-03   6.6746979e-01   5.4522337e-01  -6.9531161e+06
   1.4058019e-09  -2.5812515e-03   6.6700742e-01   5.4562982e-01  -6.9036738e+06
   1.4084695e-09  -2.5629011e-03   6.6654860e-01   5.4603364e-01  -6.8545836e+06
   1.4111370e-09  -2.5446812e-03   6.6609329e-01   5.4643483e-01  -6.8058430e+06
   1.4138046e-09  -2.5265909e-03   6.6564147e-01   5.4683341e-01  -6.7574495e+06
   1.4164722e-09  -2.5086292e-03   6.6519311e-01   5.4722940e-01  -6.7094005e+06
   1.4191397e-09  -2.4907952e-03   6.6474818e-01   5.4762281e-01  -6.6616936e+06
   1.4218073e-09  -2.4730880e-03   6.6430666e-01   5.4801367e-01  -6.6143264e+06
   1.4244748e-09  -2.4555067e-03   6.6386851e-01   5.4840197e-01  -6.5672964e+06
   1.4271424e-09  -2.4380505e-03   6.6343371e-01   5.4878774e-01  -6.5206012e+06
   1.4298099e-09  -2.4207183e-03   6.6300223e-01   5.4917100e-01  -6.4742384e+06
   1.4324775e-09  -2.4035094e-03   6.6257405e-01   5.4955175e-01  -6.4282057e+06
   1.4351450e-09  -2.3864229e-03   6.6214914e-01   5.4993001e-01  -6.3825007e+06
   1.4378126e-09  -2.3694578e-03   6.6172746e-01   5.5030580e-01  -6.3371210e+06
   1.4404802e-09  -2.3526134e-03   6.6130900e-01   5.5067914e-01  -6.2920643e+06
   1.4431477e-09  -2.3358887e-03   6.6089373e-01   5.5105002e-01  -6.2473283e+06
   1.4458153e-09  -2.3192829e-03   6.6048163e-01   5.5141848e-01  -6.2029107e+06
   1.4484828e-09  -2.3027952e-03   6.6007266e-01   5.5178453e-01  -6.1588092e+06
   1.4511504e-09  -2.2864247e-03   6.5966680e-01   5.5214817e-01  -6.1150216e+06
   1.4538179e-09  -2.2701706e-03   6.5926403e-01   5.5250943e-01  -6.0715456e+06
   1.4564855e-09  -2.2540321e-03   6.5886433e-01   5.5286832e-01  -6.0283791e+06
   1.4591531e-09  -2.2380083e-03   6.5846766e-01   5.5322485e-01  -5.9855197e+06
   1.4618206e-09  -2.2220984e-03   6.5807400e-01   5.5357903e-01  -5.9429653e+06
   1.4644882e-09  -2.2063017e-03   6.5768334e-01   5.5393089e-01  -5.9007138e+06
   1.4671557e-09  -2.1906172e-03   6.5729563e-01   5.5428043e-01  -5.8587628e+06
   1.4698233e-09  -2.1750443e-03   6.5691087e-01   5.5462766e-01  -5.8171104e+06
   1.4724908e-09  -2.1595820e-03   6.5652903e-01   5.5497261e-01  -5.7757544e+06
   1.4751584e-09  -2.1442297e-03   6.5615008e-01   5.5531529e-01  -5.7346926e+06
   1.4778259e-09  -2.1289866e-03   6.5577400e-01   5.5565570e-01  -5.6939229e+06
   1.4804935e-09  -2.1138518e-03   6.5540077e-01   5.5599387e-01  -5.6534434e+06
   1.4831611e-09  -2.0988246e-03   6.5503037e-01   5.5632981e-01  -5.6132518e+06
   1.4858286e-09  -2.0839042e-03   6.5466276e-01   5.5666352e-01  -5.5733462e+06
   1.4884962e-09  -2.0690899e-03   6.5429794e-01   5.5699503e-01  -5.5337244e+06
   1.4911637e-09  -2.0543809e-03   6.5393588e-01   5.5732435e-01  -5.4943846e+06
   1.4938313e-09  -2.0397765e-03   6.5357655e-01   5.5765149e-01  -5.4553246e+06
   1.4964988e-09  -2.0252759e-03   6.5321993e-01   5.5797646e-01  -5.4165424e+06
   1.4991664e-09  -2.0108784e-03   6.5286601e-01   5.5829928e-01  -5.3780362e+06
   1.5018339e-09  -1.9965833e-03   6.5251476e-01   5.5861996e-01  -5.3398038e+06
   1.5045015e-09  -1.9823898e-03   6.5216616e-01   5.5893851e-01  -5.3018434e+06
   1.5071691e-09  -1.9682972e-03   6.5182019e-01   5.5925495e-01  -5.2641531e+06
   1.5098366e-09  -1.9543047e-03   6.5147683e-01   5.5956929e-01  -5.2267308e+06
   1.5125042e-09  -1.9404117e-03   6.5113605e-01   5.5988154e-01  -5.1895747e+06
   1.5151717e-09  -1.9266175e-03   6.5079784e-01   5.6019172e-01  -5.1526829e+06
   1.5178393e-09  -1.9129214e-03   6.5046218e-01   5.6049983e-01  -5.1160534e+06
   1.5205068e-09  -1.8993226e-03   6.5012904e-01   5.6080589e-01  -5.0796845e+06
   1.5231744e-09  -1.8858205e-03   6.4979841e-01   5.6110992e-01  -5.0435743e+06
   1.5258419e-09  -1.8724144e-03   6.4947027e-01   5.6141192e-01  -5.0077209e+06
   1.5285095e-09  -1.8591035e-03   6.4914459e-01   5.6171191e-01  -4.9721225e+06
   1.5311771e-09  -1.8458873e-03   6.4882136e-01   5.6200990e-01  -4.9367772e+06
   1.5338446e-09  -1.8327651e-03   6.4850056e-01   5.6230591e-01  -4.9016833e+06
   1.5365122e-09  -1.8197361e-03   6.4818216e-01   5.6259994e-01  -4.8668390e+06
   1.5391797e-09  -1.8067997e-03   6.4786616e-01   5.6289200e-01  -4.8322425e+06
   1.5418473e-09  -1.7939553e-03   6.4755253e-01   5.6318212e-01  -4.7978921e+06
   1.5445148e-09  -1.7812022e-03   6.4724125e-01   5.6347030e-01  -4.7637859e+06
   1.5471824e-09  -1.7685398e-03   6.4693230e-01   5.6375655e-01  -4.7299222e+06
   1.5498499e-09  -1.7559674e-03   6.4662567e-01   5.6404089e-01  -4.6962993e+06
   1.5525175e-09  -1.7434843e-03   6.4632134e-01   5.6432333e-01  -4.6629156e+06
   1.5551851e-09  -1.7310900e-03   6.4601929e-01   5.6460387e-01  -4.6297692e+06
   1.5578526e-09  -1.7187838e-03   6.4571950e-01   5.6488254e-01  -4.5968585e+06
   1.5605202e-09  -1.7065651e-03   6.4542195e-01   5.6515934e-01  -4.5641819e+06
   1.5631877e-09  -1.6944332e-03   6.4512662e-01   5.6543429e-01  -4.5317376e+06
   1.5658553e-09  -1.6823876e-03   6.4483351e-01   5.6570739e-01  -4.4995240e+06
   1.5685228e-09  -1.6704275e-03   6.4454259e-01   5.6597866e-01  -4.4675394e+06
   1.5711904e-09  -1.6585525e-03   6.4425384e-01   5.6624811e-01  -4.4357823e+06
   1.5738580e-09  -1.6467620e-03   6.4396725e-01   5.6651575e-01  -4.4042509e+06
   1.5765255e-09  -1.6350552e-03   6.4368280e-01   5.6678160e-01  -4.3729438e+06
   1.5791931e-09  -1.6234316e-03   6.4340048e-01   5.6704566e-01  -4.3418592e+06
   1.5818606e-09  -1.6118907e-03   6.4312026e-01   5.6730794e-01  -4.3109957e+06
   1.5845282e-09  -1.6004318e-03   6.4284213e-01   5.6756846e-01  -4.2803516e+06
   1.5871957e-09  -1.5890544e-03   6.4256608e-01   5.6782722e-01  -4.2499253e+06
   1.5898633e-09  -1.5777578e-03   6.4229208e-01   5.6808425e-01  -4.2197154e+06
   1.5925308e-09  -1.5665415e-03   6.4202013e-01   5.6833955e-01  -4.1897203e+06
   1.5951984e-09  -1.5554050e-03   6.4175020e-01   5.6859312e-01  -4.1599384e+06
   1.5978660e-09  -1.5443476e-03   6.4148229e-01   5.6884499e-01  -4.1303683e+06
   1.6005335e-09  -1.5333689e-03   6.4121637e-01   5.6909516e-01  -4.1010084e+06
   1.6032011e-09  -1.5224681e-03   6.4095243e-01   5.6934364e-01  -4.0718572e+06
   1.6058686e-09  -1.5116449e-03   6.4069045e-01   5.6959045e-01  -4.0429133e+06
   1.6085362e-09  -1.5008986e-03   6.4043042e-01   5.6983559e-01  -4.0141751e+06
   1.6112037e-09  -1.4902286e-03   6.4017233e-01   5.7007907e-01  -3.9856412e+06
   1.6138713e-09  -1.4796346e-03   6.3991615e-01   5.7032091e-01  -3.9573102e+06
   1.6165388e-09  -1.4691158e-03   6.3966188e-01   5.7056112e-01  -3.9291806e+06
   1.6192064e-09  -1.4586718e-03   6.3940950e-01   5.7079970e-01  -3.9012510e+06
   1.6218740e-09  -1.4483020e-03   6.3915899e-01   5.7103668e-01  -3.8735199e+06
   1.6245415e-09  -1.4380060e-03   6.3891035e-01   5.7127204e-01  -3.8459859e+06
   1.6272091e-09  -1.4277831e-03   6.3866355e-01   5.7150582e-01  -3.8186477e+06
   1.6298766e-09  -1.4176329e-03   6.3841858e-01   5.7173801e-01  -3.7915039e+06
   1.6325442e-09  -1.4075548e-03   6.3817542e-01   5.7196863e-01  -3.7645529e+06
   1.6352117e-09  -1.3975484e-03   6.3793408e-01   5.7219769e-01  -3.7377936e+06
   1.6378793e-09  -1.3876131e-03   6.3769452e-01   5.7242520e-01  -3.7112245e+06
   1.6405468e-09  -1.3777485e-03   6.3745674e-01   5.7265116e-01  -3.6848443e+06
   1.6432144e-09  -1.3679539e-03   6.3722071e-01   5.7287560e-01  -3.6586516e+06
   1.6458820e-09  -1.3582290e-03   6.3698644e-01   5.7309851e-01  -3.6326450e+06
   1.6485495e-09  -1.3485732e-03   6.3675391e-01   5.7331990e-01  -3.6068234e+06
   1.6512171e-09  -1.3389860e-03   6.3652309e-01   5.7353980e-01  -3.5811853e+06
   1.6538846e-09  -1.3294670e-03   6.3629398e-01   5.7375820e-01  -3.5557294e+06
   1.6565522e-09  -1.3200157e-03   6.3606657e-01   5.7397512e-01  -3.5304545e+06
   1.6592197e-09  -1.3106315e-03   6.3584084e-01   5.7419056e-01  -3.5053592e+06
   1.6618873e-09  -1.3013141e-03   6.3561678e-01   5.7440454e-01  -3.4804423e+06
   1.6645549e-09  -1.2920628e-03   6.3539438e-01   5.7461707e-01  -3.4557026e+06
   1.6672224e-09  -1.2828773e-03   6.3517362e-01   5.7482815e-01  -3.4311387e+06
   1.6698900e-09  -1.2737572e-03   6.3495450e-01   5.7503779e-01  -3.4067494e+06
   1.6725575e-09  -1.2647018e-03   6.3473699e-01   5.7524601e-01  -3.3825334e+06
   1.6752251e-09  -1.2557108e-03   6.3452109e-01   5.7545281e-01  -3.3584896e+06
   1.6778926e-09  -1.2467838e-03   6.3430678e-01   5.7565820e-01  -3.3346167e+06
   1.6805602e-09  -1.2379201e-03   6.3409405e-01   5.7586219e-01  -3.3109135e+06
   1.6832277e-09  -1.2291195e-03   6.3388290e-01   5.7606479e-01  -3.2873787e+06
   1.6858953e-09  -1.2203815e-03   6.3367330e-01   5.7626602e-01  -3.2640113e+06
   1.6885629e-09  -1.2117055e-03   6.3346525e-01   5.7646586e-01  -3.2408099e+06
   1.6912304e-09  -1.2030913e-03   6.3325873e-01   5.7666435e-01  -3.2177734e+06
   1.6938980e-09  -1.1945382e-03   6.3305374e-01   5.7686148e-01  -3.1949007e+06
   1.6965655e-09  -1.1860460e-03   6.3285025e-01   5.7705727e-01  -3.1721906e+06
   1.6992331e-09  -1.1776141e-03   6.3264827e-01   5.7725172e-01  -3.1496418e+06
   1.7019006e-09  -1.1692421e-03   6.3244777e-01   5.7744484e-01  -3.1272534e+06
   1.7045682e-09  -1.1609297e-03   6.3224876e-01   5.7763664e-01  -3.1050241e+06
   1.7072357e-09  -1.1526764e-03   6.3205120e-01   5.7782714e-01  -3.0829527e+06
   1.7099033e-09  -1.1444817e-03   6.3185510e-01   5.7801633e-01  -3.0610383e+06
   1.7125709e-09  -1.1363453e-03   6.3166045e-01   5.7820422e-01  -3.0392796e+06
   1.7152384e-09  -1.1282667e-03   6.3146722e-01   5.7839084e-01  -3.0176756e+06
   1.7179060e-09  -1.1202455e-03   6.3127542e-01   5.7857617e-01  -2.9962251e+06
   1.7205735e-09  -1.1122813e-03   6.3108503e-01   5.7876024e-01  -2.9749271e+06
   1.7232411e-09  -1.1043738e-03   6.3089604e-01   5.7894305e-01  -2.9537804e+06
   1.7259086e-09  -1.0965225e-03   6.3070844e-01   5.7912460e-01  -2.9327841e+06
   1.7285762e-09  -1.0887270e-03   6.3052221e-01   5.7930492e-01  -2.9119370e+06
   1.7312437e-09  -1.0809868e-03   6.3033736e-01   5.7948399e-01  -2.8912380e+06
   1.7339113e-09  -1.0733018e-03   6.3015386e-01   5.7966184e-01  -2.8706862e+06
   1.7365789e-09  -1.0656713e-03   6.2997171e-01   5.7983847e-01  -2.8502804e+06
   1.7392464e-09  -1.0580951e-03   6.2979090e-01   5.8001390e-01  -2.8300197e+06
   1.7419140e-09  -1.0505727e-03   6.2961142e-01   5.8018811e-01  -2.8099030e+06
   1.7445815e-09  -1.0431038e-03   6.2943325e-01   5.8036114e-01  -2.7899293e+06
   1.7472491e-09  -1.0356880e-03   6.2925639e-01   5.8053297e-01  -2.7700975e+06
   1.7499166e-09  -1.0283249e-03   6.2908083e-01   5.8070363e-01  -2.7504067e+06
   1.7525842e-09  -1.0210142e-03   6.2890655e-01   5.8087311e-01  -2.7308558e+06
   1.7552518e-09  -1.0137554e-03   6.2873356e-01   5.8104143e-01  -2.7114439e+06
   1.7579193e-09  -1.0065482e-03   6.2856183e-01   5.8120860e-01  -2.6921700e+06
   1.7605869e-09  -9.9939223e-04   6.2839136e-01   5.8137462e-01  -2.6730330e+06
   1.7632544e-09  -9.9228715e-04   6.2822214e-01   5.8153949e-01  -2.6540321e+06
   1.7659220e-09  -9.8523257e-04   6.2805416e-01   5.8170323e-01  -2.6351662e+06
   1.7685895e-09  -9.7822813e-04   6.2788741e-01   5.8186585e-01  -2.6164344e+06
   1.7712571e-09  -9.7127349e-04   6.2772188e-01   5.8202735e-01  -2.5978357e+06
   1.7739246e-09  -9.6436828e-04   6.2755757e-01   5.8218774e-01  -2.5793692e+06
   1.7765922e-09  -9.5751216e-04   6.2739445e-01   5.8234702e-01  -2.5610339e+06
   1.7792598e-09  -9.5070477e-04   6.2723253e-01   5.8250521e-01  -2.5428290e+06
   1.7819273e-09  -9.4394577e-04   6.2707180e-01   5.8266231e-01  -2.5247535e+06
   1.7845949e-09  -9.3723482e-04   6.2691224e-01   5.8281833e-01  -2.5068064e+06
   1.7872624e-09  -9.3057158e-04   6.2675385e-01   5.8297327e-01  -2.4889869e+06
   1.7899300e-09  -9.2395570e-04   6.2659662e-01   5.8312715e-01  -2.4712940e+06
   1.7925975e-09  -9.1738684e-04   6.2644054e-01   5.8327996e-01  -2.4537269e+06
   1.7952651e-09  -9.1086469e-04   6.2628559e-01   5.8343173e-01  -2.4362847e+06
   1.7979326e-09  -9.0438889e-04   6.2613179e-01   5.8358244e-01  -2.4189664e+06
   1.8006002e-09  -8.9795913e-04   6.2597910e-01   5.8373212e-01  -2.4017712e+06
   1.8032678e-09  -8.9157507e-04   6.2582753e-01   5.8388077e-01  -2.3846982e+06
   1.8059353e-09  -8.8523640e-04   6.2567707e-01   5.8402839e-01  -2.3677465e+06
   1.8086029e-09  -8.7894278e-04   6.2552770e-01   5.8417499e-01  -2.3509153e+06
   1.8112704e-09  -8.7269390e-04   6.2537943e-01   5.8432058e-01  -2.3342038e+06
   1.8139380e-09  -8.6648945e-04   6.2523224e-01   5.8446517e-01  -2.3176110e+06
   1.8166055e-09  -8.6032909e-04   6.2508613e-01   5.8460875e-01  -2.3011362e+06
   1.8192731e-09  -8.5421253e-04   6.2494108e-01   5.8475135e-01  -2.2847784e+06
   1.8219406e-09  -8.4813945e-04   6.2479709e-01   5.8489296e-01  -2.2685369e+06
   1.8246082e-09  -8.4210954e-04   6.2465415e-01   5.8503359e-01  -2.2524109e+06
   1.8272758e-09  -8.3612249e-04   6.2451225e-01   5.8517326e-01  -2.2363994e+06
   1.8299433e-09  -8.3017800e-04   6.2437139e-01   5.8531195e-01  -2.2205018e+06
   1.8326109e-09  -8.2427577e-04   6.2423155e-01   5.8544969e-01  -2.2047171e+06
   1.8352784e-09  -8.1841550e-04   6.2409273e-01   5.8558647e-01  -2.1890446e+06
   1.8379460e-09  -8.1259688e-04   6.2395493e-01   5.8572231e-01  -2.1734836e+06
   1.8406135e-09  -8.0681963e-04   6.2381813e-01   5.8585721e-01  -2.1580331e+06
   1.8432811e-09  -8.0108344e-04   6.2368233e-01   5.8599118e-01  -2.1426924e+06
   1.8459486e-09  -7.9538804e-04   6.2354751e-01   5.8612422e-01  -2.1274608e+06
   1.8486162e-09  -7.8973311e-04   6.2341368e-01   5.8625634e-01  -2.1123374e+06
   1.8512838e-09  -7.8411839e-04   6.2328082e-01   5.8638754e-01  -2.0973215e+06
   1.8539513e-09  -7.7854358e-04   6.2314893e-01   5.8651784e-01  -2.0824123e+06
   1.8566189e-09  -7.7300840e-04   6.2301801e-01   5.8664723e-01  -2.0676091e+06
   1.8592864e-09  -7.6751257e-04   6.2288803e-01   5.8677573e-01  -2.0529111e+06
   1.8619540e-09  -7.6205580e-04   6.2275900e-01   5.8690334e-01  -2.0383176e+06
   1.8646215e-09  -7.5663783e-04   6.2263091e-01   5.8703006e-01  -2.0238278e+06
   1.8672891e-09  -7.5125837e-04   6.2250375e-01   5.8715591e-01  -2.0094409e+06
   1.8699567e-09  -7.4591715e-04   6.2237751e-01   5.8728088e-01  -1.9951564e+06
   1.8726242e-09  -7.4061391e-04   6.2225220e-01   5.8740499e-01  -1.9809733e+06
   1.8752918e-09  -7.3534836e-04   6.2212779e-01   5.8752823e-01  -1.9668911e+06
   1.8779593e-09  -7.3012024e-04   6.2200429e-01   5.8765063e-01  -1.9529089e+06
   1.8806269e-09  -7.2492929e-04   6.2188169e-01   5.8777217e-01  -1.9390261e+06
   1.8832944e-09  -7.1977524e-04   6.2175998e-01   5.8789287e-01  -1.9252420e+06
   1.8859620e-09  -7.1465783e-04   6.2163915e-01   5.8801273e-01  -1.9115559e+06
   1.8886295e-09  -7.0957679e-04   6.2151921e-01   5.8813176e-01  -1.8979670e+06
   1.8912971e-09  -7.0453188e-04   6.2140013e-01   5.8824997e-01  -1.8844747e+06
   1.8939647e-09  -6.9952283e-04   6.2128192e-01   5.8836735e-01  -1.8710783e+06
   1.8966322e-09  -6.9454939e-04   6.2116456e-01   5.8848392e-01  -1.8577772e+06
   1.8992998e-09  -6.8961130e-04   6.2104806e-01   5.8859968e-01  -1.8445705e+06
   1.9019673e-09  -6.8470832e-04   6.2093241e-01   5.8871463e-01  -1.8314578e+06
   1.9046349e-09  -6.7984019e-04   6.2081759e-01   5.8882879e-01  -1.8184382e+06
   1.9073024e-09  -6.7500667e-04   6.2070361e-01   5.8894215e-01  -1.8055111e+06
   1.9099700e-09  -6.7020751e-04   6.2059046e-01   5.8905473e-01  -1.7926760e+06
   1.9126375e-09  -6.6544247e-04   6.2047812e-01   5.8916652e-01  -1.7799321e+06
   1.9153051e-09  -6.6071130e-04   6.2036660e-01   5.8927753e-01  -1.7672787e+06
   1.9179727e-09  -6.5601377e-04   6.2025589e-01   5.8938778e-01  -1.7547153e+06
   1.9206402e-09  -6.5134963e-04   6.2014599e-01   5.8949726e-01  -1.7422412e+06
   1.9233078e-09  -6.4671864e-04   6.2003688e-01   5.8960597e-01  -1.7298557e+06
   1.9259753e-09  -6.4212058e-04   6.1992856e-01   5.8971393e-01  -1.7175583e+06
   1.9286429e-09  -6.3755520e-04   6.1982103e-01   5.8982114e-01  -1.7053482e+06
   1.9313104e-09  -6.3302228e-04   6.1971428e-01   5.8992760e-01  -1.6932250e+06
   1.9339780e-09  -6.2852159e-04   6.1960830e-01   5.9003332e-01  -1.6811879e+06
   1.9366455e-09  -6.2405289e-04   6.1950309e-01   5.9013831e-01  -1.6692364e+06
   1.9393131e-09  -6.1961595e-04   6.1939864e-01   5.9024256e-01  -1.6573698e+06
   1.9419807e-09  -6.1521056e-04   6.1929495e-01   5.9034609e-01  -1.6455876e+06
   1.9446482e-09  -6.1083649e-04   6.1919201e-01   5.9044890e-01  -1.6338891e+06
   1.9473158e-09  -6.0649351e-04   6.1908981e-01   5.9055099e-01  -1.6222737e+06
   1.9499833e-09  -6.0218141e-04   6.1898836e-01   5.9065237e-01  -1.6107410e+06
   1.9526509e-09  -5.9789996e-04   6.1888764e-01   5.9075305e-01  -1.5992902e+06
   1.9553184e-09  -5.9364895e-04   6.1878765e-01   5.9085302e-01  -1.5879207e+06
   1.9579860e-09  -5.8942816e-04   6.1868838e-01   5.9095230e-01  -1.5766321e+06
   1.9606536e-09  -5.8523738e-04   6.1858983e-01   5.9105088e-01  -1.5654237e+06
   1.9633211e-09  -5.8107638e-04   6.1849200e-01   5.9114878e-01  -1.5542950e+06
   1.9659887e-09  -5.7694497e-04   6.1839487e-01   5.9124599e-01  -1.5432454e+06
   1.9686562e-09  -5.7284293e-04   6.1829845e-01   5.9134253e-01  -1.5322743e+06
   1.9713238e-09  -5.6877005e-04   6.1820273e-01   5.9143839e-01  -1.5213812e+06
   1.9739913e-09  -5.6472613e-04   6.1810769e-01   5.9153359e-01  -1.5105656e+06
   1.9766589e-09  -5.6071095e-04   6.1801335e-01   5.9162812e-01  -1.4998268e+06
   1.9793264e-09  -5.5672432e-04   6.1791968e-01   5.9172199e-01  -1.4891643e+06
   1.9819940e-09  -5.5276603e-04   6.1782670e-01   5.9181521e-01  -1.4785776e+06
   1.9846616e-09  -5.4883588e-04   6.1773439e-01   5.9190777e-01  -1.4680662e+06
   1.9873291e-09  -5.4493367e-04   6.1764274e-01   5.9199969e-01  -1.4576295e+06
   1.9899967e-09  -5.4105920e-04   6.1755176e-01   5.9209097e-01  -1.4472670e+06
   1.9926642e-09  -5.3721228e-04   6.1746143e-01   5.9218161e-01  -1.4369781e+06
   1.9953318e-09  -5.3339270e-04   6.1737176e-01   5.9227162e-01  -1.4267623e+06
   1.9979993e-09  -5.2960028e-04   6.1728273e-01   5.9236100e-01  -1.4166192e+06
   2.0006669e-09  -5.2583482e-04   6.1719435e-01   5.9244976e-01  -1.4065482e+06
   2.0033344e-09  -5.2209613e-04   6.1710661e-01   5.9253789e-01  -1.3965487e+06
   2.0060020e-09  -5.1838402e-04   6.1701950e-01   5.9262541e-01  -1.3866203e+06
   2.0086696e-09  -5.1469830e-04   6.1693302e-01   5.9271232e-01  -1.3767625e+06
   2.0113371e-09  -5.1103878e-04   6.1684717e-01   5.9279862e-01  -1.3669748e+06
   2.0140047e-09  -5.0740527e-04   6.1676193e-01   5.9288432e-01  -1.3572566e+06
   2.0166722e-09  -5.0379760e-04   6.1667731e-01   5.9296942e-01  -1.3476075e+06
   2.0193398e-09  -5.0021558e-04   6.1659331e-01   5.9305392e-01  -1.3380270e+06
   2.0220073e-09  -4.9665902e-04   6.1650990e-01   5.9313783e-01  -1.3285146e+06
   2.0246749e-09  -4.9312775e-04   6.1642711e-01   5.9322116e-01  -1.3190698e+06
   2.0273424e-09  -4.8962158e-04   6.1634490e-01   5.9330390e-01  -1.3096921e+06
   2.0300100e-09  -4.8614034e-04   6.1626330e-01   5.9338607e-01  -1.3003811e+06
   2.0326776e-09  -4.8268385e-04   6.1618228e-01   5.9346766e-01  -1.2911363e+06
   2.0353451e-09  -4.7925193e-04   6.1610184e-01   5.9354868e-01  -1.2819572e+06
   2.0380127e-09  -4.7584441e-04   6.1602199e-01   5.9362913e-01  -1.2728433e+06
   2.0406802e-09  -4.7246111e-04   6.1594271e-01   5.9370902e-01  -1.2637942e+06
   2.0433478e-09  -4.6910187e-04   6.1586400e-01   5.9378835e-01  -1.2548095e+06
   2.0460153e-09  -4.6576651e-04   6.1578586e-01   5.9386713e-01  -1.2458886e+06
   2.0486829e-09  -4.6245486e-04   6.1570829e-01   5.9394535e-01  -1.2370311e+06
   2.0513505e-09  -4.5916676e-04   6.1563127e-01   5.9402303e-01  -1.2282366e+06
   2.0540180e-09  -4.5590203e-04   6.1555481e-01   5.9410016e-01  -1.2195046e+06
   2.0566856e-09  -4.5266051e-04   6.1547890e-01   5.9417675e-01  -1.2108346e+06
   2.0593531e-09  -4.4944204e-04   6.1540354e-01   5.9425281e-01  -1.2022263e+06
   2.0620207e-09  -4.4624645e-04   6.1532872e-01   5.9432833e-01  -1.1936792e+06
   2.0646882e-09  -4.4307358e-04   6.1525445e-01   5.9440333e-01  -1.1851928e+06
   2.0673558e-09  -4.3992326e-04   6.1518070e-01   5.9447780e-01  -1.1767667e+06
   2.0700233e-09  -4.3679534e-04   6.1510749e-01   5.9455174e-01  -1.1684006e+06
   2.0726909e-09  -4.3368966e-04   6.1503481e-01   5.9462517e-01  -1.1600939e+06
   2.0753585e-09  -4.3060606e-04   6.1496264e-01   5.9469809e-01  -1.1518463e+06
   2.0780260e-09  -4.2754438e-04   6.1489100e-01   5.9477049e-01  -1.1436572e+06
   2.0806936e-09  -4.2450447e-04   6.1481988e-01   5.9484239e-01  -1.1355264e+06
   2.0833611e-09  -4.2148618e-04   6.1474927e-01   5.9491378e-01  -1.1274534e+06
   2.0860287e-09  -4.1848934e-04   6.1467916e-01   5.9498467e-01  -1.1194378e+06
   2.0886962e-09  -4.1551380e-04   6.1460956e-01   5.9505507e-01  -1.1114792e+06
   2.0913638e-09  -4.1255942e-04   6.1454047e-01   5.9512497e-01  -1.1035771e+06
   2.0940313e-09  -4.0962605e-04   6.1447187e-01   5.9519438e-01  -1.0957312e+06
   2.0966989e-09  -4.0671353e-04   6.1440376e-01   5.9526331e-01  -1.0879410e+06
   2.0993665e-09  -4.0382171e-04   6.1433614e-01   5.9533175e-01  -1.0802063e+06
   2.1020340e-09  -4.0095046e-04   6.1426902e-01   5.9539971e-01  -1.0725265e+06
   2.1047016e-09  -3.9809962e-04   6.1420237e-01   5.9546719e-01  -1.0649013e+06
   2.1073691e-09  -3.9526904e-04   6.1413620e-01   5.9553420e-01  -1.0573303e+06
   2.1100367e-09  -3.9245860e-04   6.1407051e-01   5.9560074e-01  -1.0498132e+06
   2.1127042e-09  -3.8966813e-04   6.1400530e-01   5.9566682e-01  -1.0423494e+06
   2.1153718e-09  -3.8689750e-04   6.1394055e-01   5.9573243e-01  -1.0349388e+06
   2.1180393e-09  -3.8414657e-04   6.1387627e-01   5.9579758e-01  -1.0275808e+06
   2.1207069e-09  -3.8141520e-04   6.1381245e-01   5.9586227e-01  -1.0202751e+06
   2.1233745e-09  -3.7870324e-04   6.1374909e-01   5.9592651e-01  -1.0130213e+06
   2.1260420e-09  -3.7601057e-04   6.1368618e-01   5.9599030e-01  -1.0058191e+06
   2.1287096e-09  -3.7333704e-04   6.1362373e-01   5.9605364e-01  -9.9866812e+05
   2.1313771e-09  -3.7068252e-04   6.1356173e-01   5.9611653e-01  -9.9156796e+05
   2.1340447e-09  -3.6804687e-04   6.1350017e-01   5.9617898e-01  -9.8451826e+05
   2.1367122e-09  -3.6542996e-04   6.1343906e-01   5.9624100e-01  -9.7751868e+05
   2.1393798e-09  -3.6283166e-04   6.1337838e-01   5.9630258e-01  -9.7056885e+05
   2.1420473e-09  -3.6025183e-04   6.1331814e-01   5.9636372e-01  -9.6366843e+05
   2.1447149e-09  -3.5769034e-04   6.1325834e-01   5.9642444e-01  -9.5681706e+05
   2.1473825e-09  -3.5514706e-04   6.1319896e-01   5.9648473e-01  -9.5001439e+05
   2.1500500e-09  -3.5262186e-04   6.1314001e-01   5.9654460e-01  -9.4326009e+05
   2.1527176e-09  -3.5011462e-04   6.1308149e-01   5.9660404e-01  -9.3655379e+05
   2.1553851e-09  -3.4762520e-04   6.1302338e-01   5.9666307e-01  -9.2989517e+05
   2.1580527e-09  -3.4515349e-04   6.1296570e-01   5.9672168e-01  -9.2328388e+05
   2.1607202e-09  -3.4269934e-04   6.1290843e-01   5.9677989e-01  -9.1671959e+05
   2.1633878e-09  -3.4026264e-04   6.1285156e-01   5.9683768e-01  -9.1020196e+05
   2.1660554e-09  -3.3784327e-04   6.1279511e-01   5.9689506e-01  -9.0373066e+05
   2.1687229e-09  -3.3544110e-04   6.1273907e-01   5.9695205e-01  -8.9730537e+05
   2.1713905e-09  -3.3305601e-04   6.1268342e-01   5.9700863e-01  -8.9092575e+05
   2.1740580e-09  -3.3068787e-04   6.1262818e-01   5.9706481e-01  -8.8459148e+05
   2.1767256e-09  -3.2833657e-04   6.1257333e-01   5.9712060e-01  -8.7830224e+05
   2.1793931e-09  -3.2600199e-04   6.1251888e-01   5.9717600e-01  -8.7205771e+05
   2.1820607e-09  -3.2368401e-04   6.1246482e-01   5.9723101e-01  -8.6585757e+05
   2.1847282e-09  -3.2138251e-04   6.1241114e-01   5.9728563e-01  -8.5970151e+05
   2.1873958e-09  -3.1909737e-04   6.1235785e-01   5.9733986e-01  -8.5358921e+05
   2.1900634e-09  -3.1682848e-04   6.1230495e-01   5.9739372e-01  -8.4752036e+05
   2.1927309e-09  -3.1457572e-04   6.1225242e-01   5.9744719e-01  -8.4149465e+05
   2.1953985e-09  -3.1233897e-04   6.1220027e-01   5.9750029e-01  -8.3551177e+05
   2.1980660e-09  -3.1011813e-04   6.1214850e-01   5.9755302e-01  -8.2957143e+05
   2.2007336e-09  -3.0791308e-04   6.1209709e-01   5.9760537e-01  -8.2367332e+05
   2.2034011e-09  -3.0572371e-04   6.1204606e-01   5.9765736e-01  -8.1781713e+05
   2.2060687e-09  -3.0354990e-04   6.1199539e-01   5.9770898e-01  -8.1200258e+05
   2.2087362e-09  -3.0139155e-04   6.1194509e-01   5.9776024e-01  -8.0622936e+05
   2.2114038e-09  -2.9924854e-04   6.1189515e-01   5.9781113e-01  -8.0049718e+05
   2.2140714e-09  -2.9712077e-04   6.1184556e-01   5.9786167e-01  -7.9480575e+05
   2.2167389e-09  -2.9500813e-04   6.1179633e-01   5.9791185e-01  -7.8915479e+05
   2.2194065e-09  -2.9291050e-04   6.1174746e-01   5.9796168e-01  -7.8354399e+05
   2.2220740e-09  -2.9082780e-04   6.1169893e-01   5.9801116e-01  -7.7797308e+05
   2.2247416e-09  -2.8875990e-04   6.1165076e-01   5.9806029e-01  -7.7244177e+05
   2.2274091e-09  -2.8670670e-04   6.1160292e-01   5.9810908e-01  -7.6694979e+05
   2.2300767e-09  -2.8466810e-04   6.1155544e-01   5.9815752e-01  -7.6149685e+05
   2.2327442e-09  -2.8264399e-04   6.1150829e-01   5.9820562e-01  -7.5608267e+05
   2.2354118e-09  -2.8063428e-04   6.1146148e-01   5.9825338e-01  -7.5070698e+05
   2.2380794e-09  -2.7863886e-04   6.1141501e-01   5.9830080e-01  -7.4536951e+05
   2.2407469e-09  -2.7665762e-04   6.1136887e-01   5.9834789e-01  -7.4006998e+05
   2.2434145e-09  -2.7469047e-04   6.1132306e-01   5.9839465e-01  -7.3480813e+05
   2.2460820e-09  -2.7273730e-04   6.1127758e-01   5.9844108e-01  -7.2958368e+05
   2.2487496e-09  -2.7079802e-04   6.1123242e-01   5.9848718e-01  -7.2439638e+05
   2.2514171e-09  -2.6887253e-04   6.1118759e-01   5.9853296e-01  -7.1924595e+05
   2.2540847e-09  -2.6696073e-04   6.1114308e-01   5.9857841e-01  -7.1413213e+05
   2.2567523e-09  -2.6506253e-04   6.1109889e-01   5.9862354e-01  -7.0905467e+05
   2.2594198e-09  -2.6317782e-04   6.1105502e-01   5.9866836e-01  -7.0401331e+05
   2.2620874e-09  -2.6130651e-04   6.1101146e-01   5.9871286e-01  -6.9900778e+05
   2.2647549e-09  -2.5944850e-04   6.1096821e-01   5.9875705e-01  -6.9403785e+05
   2.2674225e-09  -2.5760371e-04   6.1092528e-01   5.9880092e-01  -6.8910324e+05
   2.2700900e-09  -2.5577203e-04   6.1088265e-01   5.9884449e-01  -6.8420371e+05
   2.2727576e-09  -2.5395337e-04   6.1084032e-01   5.9888774e-01  -6.7933902e+05
   2.2754251e-09  -2.5214765e-04   6.1079830e-01   5.9893070e-01  -6.7450890e+05
   2.2780927e-09  -2.5035476e-04   6.1075658e-01   5.9897335e-01  -6.6971313e+05
   2.2807603e-09  -2.4857462e-04   6.1071516e-01   5.9901570e-01  -6.6495145e+05
   2.2834278e-09  -2.4680714e-04   6.1067404e-01   5.9905775e-01  -6.6022362e+05
   2.2860954e-09  -2.4505223e-04   6.1063321e-01   5.9909950e-01  -6.5552941e+05
   2.2887629e-09  -2.4330979e-04   6.1059268e-01   5.9914096e-01  -6.5086856e+05
   2.2914305e-09  -2.4157974e-04   6.1055243e-01   5.9918213e-01  -6.4624085e+05
   2.2940980e-09  -2.3986199e-04   6.1051247e-01   5.9922301e-01  -6.4164604e+05
   2.2967656e-09  -2.3815646e-04   6.1047280e-01   5.9926360e-01  -6.3708390e+05
   2.2994331e-09  -2.3646305e-04   6.1043341e-01   5.9930390e-01  -6.3255419e+05
   2.3021007e-09  -2.3478168e-04   6.1039431e-01   5.9934392e-01  -6.2805668e+05
   2.3047683e-09  -2.3311227e-04   6.1035548e-01   5.9938366e-01  -6.2359114e+05
   2.3074358e-09  -2.3145473e-04   6.1031694e-01   5.9942311e-01  -6.1915736e+05
   2.3101034e-09  -2.2980897e-04   6.1027867e-01   5.9946229e-01  -6.1475509e+05
   2.3127709e-09  -2.2817491e-04   6.1024067e-01   5.9950119e-01  -6.1038412e+05
   2.3154385e-09  -2.2655247e-04   6.1020294e-01   5.9953982e-01  -6.0604423e+05
   2.3181060e-09  -2.2494157e-04   6.1016549e-01   5.9957817e-01  -6.0173519e+05
   2.3207736e-09  -2.2334212e-04   6.1012830e-01   5.9961625e-01  -5.9745678e+05
   2.3234411e-09  -2.2175404e-04   6.1009138e-01   5.9965407e-01  -5.9320879e+05
   2.3261087e-09  -2.2017726e-04   6.1005473e-01   5.9969162e-01  -5.8899100e+05
   2.3287763e-09  -2.1861168e-04   6.1001833e-01   5.9972890e-01  -5.8480320e+05
   2.3314438e-09  -2.1705724e-04   6.0998220e-01   5.9976592e-01  -5.8064516e+05
   2.3341114e-09  -2.1551385e-04   6.0994633e-01   5.9980268e-01  -5.7651669e+05
   2.3367789e-09  -2.1398143e-04   6.0991071e-01   5.9983917e-01  -5.7241758e+05
   2.3394465e-09  -2.1245991e-04   6.0987535e-01   5.9987542e-01  -5.6834760e+05
   2.3421140e-09  -2.1094921e-04   6.0984024e-01   5.9991140e-01  -5.6430656e+05
   2.3447816e-09  -2.0944925e-04   6.0980538e-01   5.9994713e-01  -5.6029424e+05
   2.3474491e-09  -2.0795995e-04   6.0977077e-01   5.9998261e-01  -5.5631046e+05
   2.3501167e-09  -2.0648125e-04   6.0973641e-01   6.0001784e-01  -5.5235499e+05
   2.3527843e-09  -2.0501305e-04   6.0970230e-01   6.0005282e-01  -5.4842765e+05
   2.3554518e-09  -2.0355530e-04   6.0966842e-01   6.0008755e-01  -5.4452823e+05
   2.3581194e-09  -2.0210791e-04   6.0963480e-01   6.0012204e-01  -5.4065653e+05
   2.3607869e-09  -2.0067081e-04   6.0960141e-01   6.0015628e-01  -5.3681235e+05
   2.3634545e-09  -1.9924393e-04   6.0956826e-01   6.0019028e-01  -5.3299551e+05
   2.3661220e-09  -1.9782719e-04   6.0953535e-01   6.0022404e-01  -5.2920580e+05
   2.3687896e-09  -1.9642053e-04   6.0950267e-01   6.0025757e-01  -5.2544304e+05
   2.3714572e-09  -1.9502387e-04   6.0947023e-01   6.0029085e-01  -5.2170703e+05
   2.3741247e-09  -1.9363714e-04   6.0943802e-01   6.0032390e-01  -5.1799757e+05
   2.3767923e-09  -1.9226027e-04   6.0940604e-01   6.0035672e-01  -5.1431449e+05
   2.3794598e-09  -1.9089320e-04   6.0937429e-01   6.0038931e-01  -5.1065760e+05
   2.3821274e-09  -1.8953584e-04   6.0934276e-01   6.0042166e-01  -5.0702670e+05
   2.3847949e-09  -1.8818813e-04   6.0931146e-01   6.0045379e-01  -5.0342162e+05
   2.3874625e-09  -1.8685000e-04   6.0928039e-01   6.0048569e-01  -4.9984217e+05
   2.3901300e-09  -1.8552139e-04   6.0924953e-01   6.0051736e-01  -4.9628817e+05
   2.3927976e-09  -1.8420223e-04   6.0921890e-01   6.0054882e-01  -4.9275943e+05
   2.3954652e-09  -1.8289244e-04   6.0918849e-01   6.0058004e-01  -4.8925579e+05
   2.3981327e-09  -1.8159197e-04   6.0915829e-01   6.0061105e-01  -4.8577705e+05
   2.4008003e-09  -1.8030074e-04   6.0912831e-01   6.0064184e-01  -4.8232304e+05
   2.4034678e-09  -1.7901870e-04   6.0909855e-01   6.0067241e-01  -4.7889359e+05
   2.4061354e-09  -1.7774577e-04   6.0906900e-01   6.0070277e-01  -4.7548853e+05
   2.4088029e-09  -1.7648189e-04   6.0903966e-01   6.0073291e-01  -4.7210767e+05
   2.4114705e-09  -1.7522700e-04   6.0901052e-01   6.0076283e-01  -4.6875085e+05
   2.4141380e-09  -1.7398103e-04   6.0898160e-01   6.0079255e-01  -4.6541789e+05
   2.4168056e-09  -1.7274392e-04   6.0895288e-01   6.0082205e-01  -4.6210864e+05
   2.4194732e-09  -1.7151561e-04   6.0892437e-01   6.0085135e-01  -4.5882290e+05
   2.4221407e-09  -1.7029603e-04   6.0889607e-01   6.0088044e-01  -4.5556053e+05
   2.4248083e-09  -1.6908512e-04   6.0886796e-01   6.0090933e-01  -4.5232136e+05
   2.4274758e-09  -1.6788283e-04   6.0884006e-01   6.0093801e-01  -4.4910521e+05
   2.4301434e-09  -1.6668908e-04   6.0881235e-01   6.0096648e-01  -4.4591193e+05
   2.4328109e-09  -1.6550381e-04   6.0878485e-01   6.0099476e-01  -4.4274135e+05
   2.4354785e-09  -1.6432698e-04   6.0875754e-01   6.0102283e-01  -4.3959332e+05
   2.4381460e-09  -1.6315851e-04   6.0873042e-01   6.0105071e-01  -4.3646766e+05
   2.4408136e-09  -1.6199836e-04   6.0870350e-01   6.0107839e-01  -4.3336423e+05
   2.4434812e-09  -1.6084645e-04   6.0867677e-01   6.0110588e-01  -4.3028286e+05
   2.4461487e-09  -1.5970273e-04   6.0865023e-01   6.0113317e-01  -4.2722341e+05
   2.4488163e-09  -1.5856714e-04   6.0862389e-01   6.0116026e-01  -4.2418570e+05
   2.4514838e-09  -1.5743963e-04   6.0859773e-01   6.0118717e-01  -4.2116959e+05
   2.4541514e-09  -1.5632014e-04   6.0857175e-01   6.0121388e-01  -4.1817492e+05
   2.4568189e-09  -1.5520860e-04   6.0854597e-01   6.0124041e-01  -4.1520155e+05
   2.4594865e-09  -1.5410497e-04   6.0852036e-01   6.0126675e-01  -4.1224931e+05
   2.4621541e-09  -1.5300919e-04   6.0849494e-01   6.0129290e-01  -4.0931807e+05
   2.4648216e-09  -1.5192119e-04   6.0846970e-01   6.0131887e-01  -4.0640767e+05
   2.4674892e-09  -1.5084094e-04   6.0844465e-01   6.0134465e-01  -4.0351795e+05
   2.4701567e-09  -1.4976836e-04   6.0841977e-01   6.0137025e-01  -4.0064879e+05
   2.4728243e-09  -1.4870341e-04   6.0839507e-01   6.0139567e-01  -3.9780002e+05
   2.4754918e-09  -1.4764603e-04   6.0837054e-01   6.0142091e-01  -3.9497151e+05
   2.4781594e-09  -1.4659618e-04   6.0834619e-01   6.0144597e-01  -3.9216311e+05
   2.4808269e-09  -1.4555378e-04   6.0832201e-01   6.0147086e-01  -3.8937467e+05
   2.4834945e-09  -1.4451880e-04   6.0829801e-01   6.0149557e-01  -3.8660606e+05
   2.4861621e-09  -1.4349118e-04   6.0827418e-01   6.0152010e-01  -3.8385714e+05
   2.4888296e-09  -1.4247086e-04   6.0825052e-01   6.0154446e-01  -3.8112776e+05
   2.4914972e-09  -1.4145780e-04   6.0822703e-01   6.0156865e-01  -3.7841778e+05
   2.4941647e-09  -1.4045194e-04   6.0820370e-01   6.0159266e-01  -3.7572707e+05
   2.4968323e-09  -1.3945324e-04   6.0818054e-01   6.0161651e-01  -3.7305550e+05
   2.4994998e-09  -1.3846163e-04   6.0815755e-01   6.0164019e-01  -3.7040292e+05
   2.5021674e-09  -1.3747708e-04   6.0813472e-01   6.0166370e-01  -3.6776919e+05
   2.5048349e-09  -1.3649952e-04   6.0811206e-01   6.0168704e-01  -3.6515420e+05
   2.5075025e-09  -1.3552892e-04   6.0808955e-01   6.0171022e-01  -3.6255779e+05
   2.5101701e-09  -1.3456522e-04   6.0806721e-01   6.0173323e-01  -3.5997985e+05
   2.5128376e-09  -1.3360837e-04   6.0804503e-01   6.0175608e-01  -3.5742023e+05
   2.5155052e-09  -1.3265833e-04   6.0802300e-01   6.0177877e-01  -3.5487882e+05
   2.5181727e-09  -1.3171504e-04   6.0800113e-01   6.0180130e-01  -3.5235547e+05
   2.5208403e-09  -1.3077845e-04   6.0797942e-01   6.0182367e-01  -3.4985006e+05
   2.5235078e-09  -1.2984853e-04   6.0795786e-01   6.0184588e-01  -3.4736247e+05
   2.5261754e-09  -1.2892522e-04   6.0793646e-01   6.0186793e-01  -3.4489256e+05
   2.5288429e-09  -1.2800847e-04   6.0791521e-01   6.0188983e-01  -3.4244022e+05
   2.5315105e-09  -1.2709825e-04   6.0789411e-01   6.0191157e-01  -3.4000531e+05
   2.5341781e-09  -1.2619449e-04   6.0787317e-01   6.0193316e-01  -3.3758771e+05
   2.5368456e-09  -1.2529716e-04   6.0785237e-01   6.0195460e-01  -3.3518730e+05
   2.5395132e-09  -1.2440621e-04   6.0783172e-01   6.0197588e-01  -3.3280396e+05
   2.5421807e-09  -1.2352160e-04   6.0781122e-01   6.0199701e-01  -3.3043757e+05
   2.5448483e-09  -1.2264328e-04   6.0779086e-01   6.0201800e-01  -3.2808800e+05
   2.5475158e-09  -1.2177120e-04   6.0777065e-01   6.0203883e-01  -3.2575513e+05
   2.5501834e-09  -1.2090532e-04   6.0775058e-01   6.0205952e-01  -3.2343885e+05
   2.5528510e-09  -1.2004560e-04   6.0773066e-01   6.0208006e-01  -3.2113904e+05
   2.5555185e-09  -1.1919199e-04   6.0771088e-01   6.0210046e-01  -3.1885559e+05
   2.5581861e-09  -1.1834446e-04   6.0769124e-01   6.0212071e-01  -3.1658836e+05
   2.5608536e-09  -1.1750294e-04   6.0767174e-01   6.0214081e-01  -3.1433726e+05
   2.5635212e-09  -1.1666742e-04   6.0765238e-01   6.0216078e-01  -3.1210217e+05
   2.5661887e-09  -1.1583783e-04   6.0763316e-01   6.0218060e-01  -3.0988296e+05
   2.5688563e-09  -1.1501414e-04   6.0761407e-01   6.0220029e-01  -3.0767954e+05
   2.5715238e-09  -1.1419631e-04   6.0759512e-01   6.0221983e-01  -3.0549178e+05
   2.5741914e-09  -1.1338429e-04   6.0757631e-01   6.0223923e-01  -3.0331957e+05
   2.5768590e-09  -1.1257805e-04   6.0755763e-01   6.0225850e-01  -3.0116281e+05
   2.5795265e-09  -1.1177754e-04   6.0753908e-01   6.0227763e-01  -2.9902139e+05
   2.5821941e-09  -1.1098272e-04   6.0752067e-01   6.0229663e-01  -2.9689519e+05
   2.5848616e-09  -1.1019356e-04   6.0750239e-01   6.0231549e-01  -2.9478411e+05
   2.5875292e-09  -1.0941000e-04   6.0748424e-01   6.0233422e-01  -2.9268803e+05
   2.5901967e-09  -1.0863202e-04   6.0746621e-01   6.0235281e-01  -2.9060687e+05
   2.5928643e-09  -1.0785957e-04   6.0744832e-01   6.0237128e-01  -2.8854049e+05
   2.5955318e-09  -1.0709261e-04   6.0743055e-01   6.0238961e-01  -2.8648882e+05
   2.5981994e-09  -1.0633111e-04   6.0741291e-01   6.0240781e-01  -2.8445172e+05
   2.6008670e-09  -1.0557501e-04   6.0739540e-01   6.0242589e-01  -2.8242912e+05
   2.6035345e-09  -1.0482430e-04   6.0737801e-01   6.0244383e-01  -2.8042089e+05
   2.6062021e-09  -1.0407892e-04   6.0736075e-01   6.0246165e-01  -2.7842694e+05
   2.6088696e-09  -1.0333885e-04   6.0734360e-01   6.0247934e-01  -2.7644717e+05
   2.6115372e-09  -1.0260403e-04   6.0732659e-01   6.0249691e-01  -2.7448148e+05
   2.6142047e-09  -1.0187445e-04   6.0730969e-01   6.0251435e-01  -2.7252976e+05
   2.6168723e-09  -1.0115004e-04   6.0729291e-01   6.0253167e-01  -2.7059192e+05
   2.6195398e-09  -1.0043079e-04   6.0727625e-01   6.0254886e-01  -2.6866786e+05
   2.6222074e-09  -9.9716658e-05   6.0725971e-01   6.0256594e-01  -2.6675748e+05
   2.6248750e-09  -9.9007600e-05   6.0724329e-01   6.0258289e-01  -2.6486068e+05
   2.6275425e-09  -9.8303583e-05   6.0722699e-01   6.0259972e-01  -2.6297737e+05
   2.6302101e-09  -9.7604573e-05   6.0721080e-01   6.0261644e-01  -2.6110745e+05
   2.6328776e-09  -9.6910533e-05   6.0719473e-01   6.0263303e-01  -2.5925082e+05
   2.6355452e-09  -9.6221428e-05   6.0717877e-01   6.0264951e-01  -2.5740740e+05
   2.6382127e-09  -9.5537223e-05   6.0716293e-01   6.0266587e-01  -2.5557708e+05
   2.6408803e-09  -9.4857883e-05   6.0714720e-01   6.0268212e-01  -2.5375978e+05
   2.6435478e-09  -9.4183374e-05   6.0713158e-01   6.0269824e-01  -2.5195540e+05
   2.6462154e-09  -9.3513660e-05   6.0711607e-01   6.0271426e-01  -2.5016385e+05
   2.6488830e-09  -9.2848709e-05   6.0710068e-01   6.0273016e-01  -2.4838503e+05
   2.6515505e-09  -9.2188486e-05   6.0708539e-01   6.0274595e-01  -2.4661887e+05
   2.6542181e-09  -9.1532958e-05   6.0707021e-01   6.0276163e-01  -2.4486526e+05
   2.6568856e-09  -9.0882091e-05   6.0705514e-01   6.0277719e-01  -2.4312412e+05
   2.6595532e-09  -9.0235851e-05   6.0704018e-01   6.0279265e-01  -2.4139536e+05
   2.6622207e-09  -8.9594207e-05   6.0702533e-01   6.0280800e-01  -2.3967889e+05
   2.6648883e-09  -8.8957126e-05   6.0701058e-01   6.0282323e-01  -2.3797463e+05
   2.6675559e-09  -8.8324574e-05   6.0699593e-01   6.0283836e-01  -2.3628248e+05
   2.6702234e-09  -8.7696521e-05   6.0698139e-01   6.0285338e-01  -2.3460237e+05
   2.6728910e-09  -8.7072933e-05   6.0696696e-01   6.0286830e-01  -2.3293420e+05
   2.6755585e-09  -8.6453779e-05   6.0695262e-01   6.0288311e-01  -2.3127790e+05
   2.6782261e-09  -8.5839028e-05   6.0693839e-01   6.0289781e-01  -2.2963337e+05
   2.6808936e-09  -8.5228648e-05   6.0692426e-01   6.0291241e-01  -2.2800053e+05
   2.6835612e-09  -8.4622608e-05   6.0691024e-01   6.0292691e-01  -2.2637930e+05
   2.6862287e-09  -8.4020878e-05   6.0689631e-01   6.0294130e-01  -2.2476961e+05
   2.6888963e-09  -8.3423426e-05   6.0688248e-01   6.0295560e-01  -2.2317135e+05
   2.6915639e-09  -8.2830222e-05   6.0686875e-01   6.0296979e-01  -2.2158446e+05
   2.6942314e-09  -8.2241237e-05   6.0685511e-01   6.0298388e-01  -2.2000886e+05
   2.6968990e-09  -8.1656439e-05   6.0684158e-01   6.0299787e-01  -2.1844445e+05
   2.6995665e-09  -8.1075800e-05   6.0682814e-01   6.0301176e-01  -2.1689117e+05
   2.7022341e-09  -8.0499290e-05   6.0681480e-01   6.0302555e-01  -2.1534894e+05
   2.7049016e-09  -7.9926879e-05   6.0680155e-01   6.0303924e-01  -2.1381767e+05
   2.7075692e-09  -7.9358538e-05   6.0678839e-01   6.0305284e-01  -2.1229729e+05
   2.7102367e-09  -7.8794238e-05   6.0677533e-01   6.0306634e-01  -2.1078772e+05
   2.7129043e-09  -7.8233951e-05   6.0676237e-01   6.0307975e-01  -2.0928888e+05
   2.7155719e-09  -7.7677648e-05   6.0674949e-01   6.0309306e-01  -2.0780070e+05
   2.7182394e-09  -7.7125301e-05   6.0673671e-01   6.0310627e-01  -2.0632310e+05
   2.7209070e-09  -7.6576881e-05   6.0672402e-01   6.0311940e-01  -2.0485601e+05
   2.7235745e-09  -7.6032361e-05   6.0671142e-01   6.0313243e-01  -2.0339934e+05
   2.7262421e-09  -7.5491713e-05   6.0669890e-01   6.0314536e-01  -2.0195304e+05
   2.7289096e-09  -7.4954909e-05   6.0668648e-01   6.0315821e-01  -2.0051702e+05
   2.7315772e-09  -7.4421922e-05   6.0667415e-01   6.0317096e-01  -1.9909121e+05
   2.7342447e-09  -7.3892725e-05   6.0666190e-01   6.0318362e-01  -1.9767554e+05
   2.7369123e-09  -7.3367291e-05   6.0664974e-01   6.0319620e-01  -1.9626993e+05
   2.7395799e-09  -7.2845593e-05   6.0663767e-01   6.0320868e-01  -1.9487432e+05
   2.7422474e-09  -7.2327604e-05   6.0662569e-01   6.0322108e-01  -1.9348864e+05
   2.7449150e-09  -7.1813299e-05   6.0661379e-01   6.0323338e-01  -1.9211280e+05
   2.7475825e-09  -7.1302651e-05   6.0660197e-01   6.0324561e-01  -1.9074675e+05
   2.7502501e-09  -7.0795634e-05   6.0659024e-01   6.0325774e-01  -1.8939041e+05
   2.7529176e-09  -7.0292223e-05   6.0657859e-01   6.0326979e-01  -1.8804372e+05
   2.7555852e-09  -6.9792391e-05   6.0656703e-01   6.0328175e-01  -1.8670660e+05
   2.7582528e-09  -6.9296113e-05   6.0655554e-01   6.0329363e-01  -1.8537899e+05
   2.7609203e-09  -6.8803364e-05   6.0654414e-01   6.0330542e-01  -1.8406081e+05
   2.7635879e-09  -6.8314118e-05   6.0653282e-01   6.0331713e-01  -1.8275201e+05
   2.7662554e-09  -6.7828352e-05   6.0652159e-01   6.0332876e-01  -1.8145252e+05
   2.7689230e-09  -6.7346039e-05   6.0651043e-01   6.0334030e-01  -1.8016227e+05
   2.7715905e-09  -6.6867157e-05   6.0649935e-01   6.0335176e-01  -1.7888119e+05
   2.7742581e-09  -6.6391679e-05   6.0648835e-01   6.0336314e-01  -1.7760922e+05
   2.7769256e-09  -6.5919583e-05   6.0647743e-01   6.0337444e-01  -1.7634630e+05
   2.7795932e-09  -6.5450843e-05   6.0646658e-01   6.0338566e-01  -1.7509235e+05
   2.7822608e-09  -6.4985436e-05   6.0645582e-01   6.0339680e-01  -1.7384732e+05
   2.7849283e-09  -6.4523339e-05   6.0644513e-01   6.0340786e-01  -1.7261114e+05
   2.7875959e-09  -6.4064528e-05   6.0643451e-01   6.0341884e-01  -1.7138376e+05
   2.7902634e-09  -6.3608979e-05   6.0642397e-01   6.0342975e-01  -1.7016510e+05
   2.7929310e-09  -6.3156669e-05   6.0641351e-01   6.0344058e-01  -1.6895510e+05
   2.7955985e-09  -6.2707576e-05   6.0640312e-01   6.0345133e-01  -1.6775371e+05
   2.7982661e-09  -6.2261676e-05   6.0639281e-01   6.0346200e-01  -1.6656087e+05
   2.8009336e-09  -6.1818946e-05   6.0638257e-01   6.0347260e-01  -1.6537650e+05
   2.8036012e-09  -6.1379365e-05   6.0637240e-01   6.0348312e-01  -1.6420055e+05
   2.8062688e-09  -6.0942909e-05   6.0636230e-01   6.0349357e-01  -1.6303297e+05
   2.8089363e-09  -6.0509557e-05   6.0635228e-01   6.0350395e-01  -1.6187369e+05
   2.8116039e-09  -6.0079287e-05   6.0634233e-01   6.0351425e-01  -1.6072265e+05
   2.8142714e-09  -5.9652076e-05   6.0633245e-01   6.0352447e-01  -1.5957980e+05
   2.8169390e-09  -5.9227902e-05   6.0632264e-01   6.0353463e-01  -1.5844507e+05
   2.8196065e-09  -5.8806745e-05   6.0631289e-01   6.0354471e-01  -1.5731841e+05
   2.8222741e-09  -5.8388583e-05   6.0630322e-01   6.0355472e-01  -1.5619976e+05
   2.8249416e-09  -5.7973394e-05   6.0629362e-01   6.0356466e-01  -1.5508907e+05
   2.8276092e-09  -5.7561157e-05   6.0628409e-01   6.0357453e-01  -1.5398627e+05
   2.8302768e-09  -5.7151852e-05   6.0627462e-01   6.0358433e-01  -1.5289132e+05
   2.8329443e-09  -5.6745457e-05   6.0626522e-01   6.0359406e-01  -1.5180415e+05
   2.8356119e-09  -5.6341952e-05   6.0625589e-01   6.0360373e-01  -1.5072471e+05
   2.8382794e-09  -5.5941316e-05   6.0624662e-01   6.0361332e-01  -1.4965295e+05
   2.8409470e-09  -5.5543529e-05   6.0623742e-01   6.0362284e-01  -1.4858881e+05
   2.8436145e-09  -5.5148571e-05   6.0622829e-01   6.0363230e-01  -1.4753223e+05
   2.8462821e-09  -5.4756420e-05   6.0621922e-01   6.0364169e-01  -1.4648317e+05
   2.8489496e-09  -5.4367059e-05   6.0621022e-01   6.0365101e-01  -1.4544156e+05
   2.8516172e-09  -5.3980466e-05   6.0620128e-01   6.0366027e-01  -1.4440737e+05
   2.8542848e-09  -5.3596622e-05   6.0619240e-01   6.0366946e-01  -1.4338052e+05
   2.8569523e-09  -5.3215507e-05   6.0618359e-01   6.0367859e-01  -1.4236098e+05
   2.8596199e-09  -5.2837103e-05   6.0617483e-01   6.0368765e-01  -1.4134869e+05
   2.8622874e-09  -5.2461389e-05   6.0616615e-01   6.0369664e-01  -1.4034359e+05
   2.8649550e-09  -5.2088346e-05   6.0615752e-01   6.0370558e-01  -1.3934564e+05
   2.8676225e-09  -5.1717957e-05   6.0614895e-01   6.0371445e-01  -1.3835479e+05
   2.8702901e-09  -5.1350201e-05   6.0614045e-01   6.0372325e-01  -1.3737099e+05
   2.8729577e-09  -5.0985060e-05   6.0613201e-01   6.0373200e-01  -1.3639418e+05
   2.8756252e-09  -5.0622516e-05   6.0612362e-01   6.0374068e-01  -1.3542431e+05
   2.8782928e-09  -5.0262549e-05   6.0611530e-01   6.0374930e-01  -1.3446134e+05
   2.8809603e-09  -4.9905142e-05   6.0610704e-01   6.0375786e-01  -1.3350522e+05
   2.8836279e-09  -4.9550277e-05   6.0609883e-01   6.0376636e-01  -1.3255590e+05
   2.8862954e-09  -4.9197935e-05   6.0609068e-01   6.0377480e-01  -1.3161332e+05
   2.8889630e-09  -4.8848098e-05   6.0608260e-01   6.0378318e-01  -1.3067745e+05
   2.8916305e-09  -4.8500749e-05   6.0607456e-01   6.0379149e-01  -1.2974824e+05
   2.8942981e-09  -4.8155870e-05   6.0606659e-01   6.0379975e-01  -1.2882563e+05
   2.8969657e-09  -4.7813443e-05   6.0605867e-01   6.0380795e-01  -1.2790958e+05
   2.8996332e-09  -4.7473451e-05   6.0605081e-01   6.0381610e-01  -1.2700004e+05
   2.9023008e-09  -4.7135877e-05   6.0604301e-01   6.0382418e-01  -1.2609698e+05
   2.9049683e-09  -4.6800703e-05   6.0603526e-01   6.0383221e-01  -1.2520033e+05
   2.9076359e-09  -4.6467912e-05   6.0602756e-01   6.0384018e-01  -1.2431006e+05
   2.9103034e-09  -4.6137488e-05   6.0601992e-01   6.0384810e-01  -1.2342612e+05
   2.9129710e-09  -4.5809414e-05   6.0601234e-01   6.0385595e-01  -1.2254846e+05
   2.9156385e-09  -4.5483672e-05   6.0600481e-01   6.0386376e-01  -1.2167705e+05
   2.9183061e-09  -4.5160247e-05   6.0599733e-01   6.0387150e-01  -1.2081183e+05
   2.9209737e-09  -4.4839121e-05   6.0598991e-01   6.0387919e-01  -1.1995277e+05
   2.9236412e-09  -4.4520279e-05   6.0598253e-01   6.0388683e-01  -1.1909981e+05
   2.9263088e-09  -4.4203704e-05   6.0597522e-01   6.0389441e-01  -1.1825292e+05
   2.9289763e-09  -4.3889380e-05   6.0596795e-01   6.0390194e-01  -1.1741205e+05
   2.9316439e-09  -4.3577291e-05   6.0596073e-01   6.0390942e-01  -1.1657716e+05
   2.9343114e-09  -4.3267421e-05   6.0595357e-01   6.0391684e-01  -1.1574820e+05
   2.9369790e-09  -4.2959755e-05   6.0594646e-01   6.0392421e-01  -1.1492514e+05
   2.9396465e-09  -4.2654277e-05   6.0593940e-01   6.0393153e-01  -1.1410794e+05
   2.9423141e-09  -4.2350971e-05   6.0593238e-01   6.0393879e-01  -1.1329654e+05
   2.9449817e-09  -4.2049821e-05   6.0592542e-01   6.0394601e-01  -1.1249091e+05
   2.9476492e-09  -4.1750813e-05   6.0591851e-01   6.0395317e-01  -1.1169101e+05
   2.9503168e-09  -4.1453931e-05   6.0591165e-01   6.0396028e-01  -1.1089680e+05
   2.9529843e-09  -4.1159160e-05   6.0590483e-01   6.0396734e-01  -1.1010824e+05
   2.9556519e-09  -4.0866485e-05   6.0589807e-01   6.0397435e-01  -1.0932528e+05
   2.9583194e-09  -4.0575892e-05   6.0589135e-01   6.0398132e-01  -1.0854789e+05
   2.9609870e-09  -4.0287364e-05   6.0588468e-01   6.0398823e-01  -1.0777603e+05
   2.9636546e-09  -4.0000889e-05   6.0587806e-01   6.0399509e-01  -1.0700966e+05
   2.9663221e-09  -3.9716450e-05   6.0587148e-01   6.0400190e-01  -1.0624874e+05
   2.9689897e-09  -3.9434034e-05   6.0586496e-01   6.0400867e-01  -1.0549322e+05
   2.9716572e-09  -3.9153626e-05   6.0585847e-01   6.0401539e-01  -1.0474308e+05
   2.9743248e-09  -3.8875212e-05   6.0585204e-01   6.0402206e-01  -1.0399828e+05
   2.9769923e-09  -3.8598778e-05   6.0584565e-01   6.0402868e-01  -1.0325877e+05
   2.9796599e-09  -3.8324310e-05   6.0583931e-01   6.0403526e-01  -1.0252451e+05
   2.9823274e-09  -3.8051793e-05   6.0583301e-01   6.0404179e-01  -1.0179548e+05
   2.9849950e-09  -3.7781214e-05   6.0582675e-01   6.0404827e-01  -1.0107164e+05
   2.9876626e-09  -3.7512559e-05   6.0582054e-01   6.0405470e-01  -1.0035294e+05
   2.9903301e-09  -3.7245814e-05   6.0581438e-01   6.0406109e-01  -9.9639347e+04
   2.9929977e-09  -3.6980966e-05   6.0580826e-01   6.0406744e-01  -9.8930831e+04
   2.9956652e-09  -3.6718002e-05   6.0580218e-01   6.0407374e-01  -9.8227354e+04
   2.9983328e-09  -3.6456907e-05   6.0579614e-01   6.0408000e-01  -9.7528878e+04
   3.0010003e-09  -3.6197669e-05   6.0579015e-01   6.0408621e-01  -9.6835370e+04
   3.0036679e-09  -3.5940274e-05   6.0578420e-01   6.0409237e-01  -9.6146793e+04
   3.0063354e-09  -3.5684710e-05   6.0577830e-01   6.0409850e-01  -9.5463112e+04
   3.0090030e-09  -3.5430963e-05   6.0577243e-01   6.0410458e-01  -9.4784292e+04
   3.0116706e-09  -3.5179020e-05   6.0576661e-01   6.0411061e-01  -9.4110299e+04
   3.0143381e-09  -3.4928869e-05   6.0576083e-01   6.0411661e-01  -9.3441099e+04
   3.0170057e-09  -3.4680496e-05   6.0575509e-01   6.0412256e-01  -9.2776658e+04
   3.0196732e-09  -3.4433890e-05   6.0574939e-01   6.0412847e-01  -9.2116941e+04
   3.0223408e-09  -3.4189037e-05   6.0574373e-01   6.0413433e-01  -9.1461915e+04
   3.0250083e-09  -3.3945925e-05   6.0573811e-01   6.0414016e-01  -9.0811546e+04
   3.0276759e-09  -3.3704542e-05   6.0573253e-01   6.0414594e-01  -9.0165803e+04
   3.0303434e-09  -3.3464876e-05   6.0572699e-01   6.0415169e-01  -8.9524651e+04
   3.0330110e-09  -3.3226913e-05   6.0572149e-01   6.0415739e-01  -8.8888058e+04
   3.0356786e-09  -3.2990643e-05   6.0571603e-01   6.0416305e-01  -8.8255991e+04
   3.0383461e-09  -3.2756053e-05   6.0571061e-01   6.0416867e-01  -8.7628420e+04
   3.0410137e-09  -3.2523131e-05   6.0570523e-01   6.0417425e-01  -8.7005310e+04
   3.0436812e-09  -3.2291865e-05   6.0569988e-01   6.0417979e-01  -8.6386632e+04
   3.0463488e-09  -3.2062244e-05   6.0569458e-01   6.0418530e-01  -8.5772352e+04
   3.0490163e-09  -3.1834255e-05   6.0568931e-01   6.0419076e-01  -8.5162441e+04
   3.0516839e-09  -3.1607888e-05   6.0568408e-01   6.0419618e-01  -8.4556866e+04
   3.0543515e-09  -3.1383130e-05   6.0567888e-01   6.0420157e-01  -8.3955598e+04
   3.0570190e-09  -3.1159971e-05   6.0567373e-01   6.0420692e-01  -8.3358605e+04
   3.0596866e-09  -3.0938398e-05   6.0566861e-01   6.0421223e-01  -8.2765857e+04
   3.0623541e-09  -3.0718401e-05   6.0566352e-01   6.0421750e-01  -8.2177324e+04
   3.0650217e-09  -3.0499969e-05   6.0565847e-01   6.0422273e-01  -8.1592976e+04
   3.0676892e-09  -3.0283089e-05   6.0565346e-01   6.0422793e-01  -8.1012783e+04
   3.0703568e-09  -3.0067752e-05   6.0564849e-01   6.0423309e-01  -8.0436716e+04
   3.0730243e-09  -2.9853946e-05   6.0564355e-01   6.0423821e-01  -7.9864744e+04
   3.0756919e-09  -2.9641660e-05   6.0563864e-01   6.0424330e-01  -7.9296840e+04
   3.0783595e-09  -2.9430884e-05   6.0563377e-01   6.0424835e-01  -7.8732975e+04
   3.0810270e-09  -2.9221607e-05   6.0562893e-01   6.0425337e-01  -7.8173118e+04
   3.0836946e-09  -2.9013817e-05   6.0562413e-01   6.0425835e-01  -7.7617243e+04
   3.0863621e-09  -2.8807506e-05   6.0561936e-01   6.0426329e-01  -7.7065320e+04
   3.0890297e-09  -2.8602661e-05   6.0561463e-01   6.0426820e-01  -7.6517322e+04
   3.0916972e-09  -2.8399273e-05   6.0560993e-01   6.0427308e-01  -7.5973221e+04
   3.0943648e-09  -2.8197331e-05   6.0560526e-01   6.0427792e-01  -7.5432989e+04
   3.0970323e-09  -2.7996825e-05   6.0560063e-01   6.0428272e-01  -7.4896598e+04
   3.0996999e-09  -2.7797745e-05   6.0559603e-01   6.0428749e-01  -7.4364021e+04
   3.1023675e-09  -2.7600081e-05   6.0559146e-01   6.0429223e-01  -7.3835231e+04
   3.1050350e-09  -2.7403822e-05   6.0558693e-01   6.0429693e-01  -7.3310202e+04
   3.1077026e-09  -2.7208959e-05   6.0558243e-01   6.0430160e-01  -7.2788905e+04
   3.1103701e-09  -2.7015481e-05   6.0557796e-01   6.0430624e-01  -7.2271316e+04
   3.1130377e-09  -2.6823379e-05   6.0557352e-01   6.0431084e-01  -7.1757407e+04
   3.1157052e-09  -2.6632643e-05   6.0556911e-01   6.0431542e-01  -7.1247152e+04
   3.1183728e-09  -2.6443264e-05   6.0556473e-01   6.0431995e-01  -7.0740526e+04
   3.1210403e-09  -2.6255231e-05   6.0556039e-01   6.0432446e-01  -7.0237502e+04
   3.1237079e-09  -2.6068535e-05   6.0555608e-01   6.0432894e-01  -6.9738055e+04
   3.1263755e-09  -2.5883166e-05   6.0555179e-01   6.0433338e-01  -6.9242159e+04
   3.1290430e-09  -2.5699116e-05   6.0554754e-01   6.0433779e-01  -6.8749790e+04
   3.1317106e-09  -2.5516375e-05   6.0554332e-01   6.0434217e-01  -6.8260922e+04
   3.1343781e-09  -2.5334933e-05   6.0553913e-01   6.0434652e-01  -6.7775530e+04
   3.1370457e-09  -2.5154781e-05   6.0553496e-01   6.0435084e-01  -6.7293589e+04
   3.1397132e-09  -2.4975910e-05   6.0553083e-01   6.0435512e-01  -6.6815076e+04
   3.1423808e-09  -2.4798311e-05   6.0552673e-01   6.0435938e-01  -6.6339965e+04
   3.1450483e-09  -2.4621975e-05   6.0552265e-01   6.0436361e-01  -6.5868232e+04
   3.1477159e-09  -2.4446893e-05   6.0551861e-01   6.0436780e-01  -6.5399854e+04
   3.1503835e-09  -2.4273056e-05   6.0551459e-01   6.0437197e-01  -6.4934806e+04
   3.1530510e-09  -2.4100455e-05   6.0551060e-01   6.0437611e-01  -6.4473066e+04
   3.1557186e-09  -2.3929082e-05   6.0550665e-01   6.0438021e-01  -6.4014608e+04
   3.1583861e-09  -2.3758926e-05   6.0550271e-01   6.0438429e-01  -6.3559411e+04
   3.1610537e-09  -2.3589981e-05   6.0549881e-01   6.0438834e-01  -6.3107450e+04
   3.1637212e-09  -2.3422238e-05   6.0549494e-01   6.0439236e-01  -6.2658703e+04
   3.1663888e-09  -2.3255687e-05   6.0549109e-01   6.0439636e-01  -6.2213147e+04
   3.1690564e-09  -2.3090320e-05   6.0548727e-01   6.0440032e-01  -6.1770760e+04
   3.1717239e-09  -2.2926129e-05   6.0548347e-01   6.0440425e-01  -6.1331518e+04
   3.1743915e-09  -2.2763106e-05   6.0547971e-01   6.0440816e-01  -6.0895399e+04
   3.1770590e-09  -2.2601242e-05   6.0547597e-01   6.0441204e-01  -6.0462382e+04
   3.1797266e-09  -2.2440529e-05   6.0547225e-01   6.0441589e-01  -6.0032444e+04
   3.1823941e-09  -2.2280959e-05   6.0546857e-01   6.0441972e-01  -5.9605563e+04
   3.1850617e-09  -2.2122523e-05   6.0546491e-01   6.0442352e-01  -5.9181717e+04
   3.1877292e-09  -2.1965215e-05   6.0546127e-01   6.0442729e-01  -5.8760885e+04
   3.1903968e-09  -2.1809024e-05   6.0545767e-01   6.0443103e-01  -5.8343046e+04
   3.1930644e-09  -2.1653945e-05   6.0545408e-01   6.0443475e-01  -5.7928178e+04
   3.1957319e-09  -2.1499968e-05   6.0545053e-01   6.0443844e-01  -5.7516260e+04
   3.1983995e-09  -2.1347086e-05   6.0544699e-01   6.0444210e-01  -5.7107271e+04
   3.2010670e-09  -2.1195291e-05   6.0544349e-01   6.0444574e-01  -5.6701190e+04
   3.2037346e-09  -2.1044575e-05   6.0544001e-01   6.0444936e-01  -5.6297997e+04
   3.2064021e-09  -2.0894932e-05   6.0543655e-01   6.0445294e-01  -5.5897671e+04
   3.2090697e-09  -2.0746352e-05   6.0543312e-01   6.0445651e-01  -5.5500191e+04
   3.2117372e-09  -2.0598829e-05   6.0542971e-01   6.0446004e-01  -5.5105538e+04
   3.2144048e-09  -2.0452355e-05   6.0542632e-01   6.0446355e-01  -5.4713691e+04
   3.2170724e-09  -2.0306922e-05   6.0542296e-01   6.0446704e-01  -5.4324631e+04
   3.2197399e-09  -2.0162523e-05   6.0541963e-01   6.0447050e-01  -5.3938337e+04
   3.2224075e-09  -2.0019152e-05   6.0541632e-01   6.0447394e-01  -5.3554790e+04
   3.2250750e-09  -1.9876800e-05   6.0541303e-01   6.0447735e-01  -5.3173970e+04
   3.2277426e-09  -1.9735460e-05   6.0540976e-01   6.0448074e-01  -5.2795858e+04
   3.2304101e-09  -1.9595125e-05   6.0540652e-01   6.0448410e-01  -5.2420435e+04
   3.2330777e-09  -1.9455788e-05   6.0540330e-01   6.0448744e-01  -5.2047682e+04
   3.2357452e-09  -1.9317442e-05   6.0540011e-01   6.0449076e-01  -5.1677579e+04
   3.2384128e-09  -1.9180079e-05   6.0539693e-01   6.0449405e-01  -5.1310107e+04
   3.2410804e-09  -1.9043694e-05   6.0539378e-01   6.0449732e-01  -5.0945249e+04
   3.2437479e-09  -1.8908278e-05   6.0539065e-01   6.0450057e-01  -5.0582985e+04
   3.2464155e-09  -1.8773825e-05   6.0538755e-01   6.0450379e-01  -5.0223298e+04
   3.2490830e-09  -1.8640328e-05   6.0538447e-01   6.0450699e-01  -4.9866168e+04
   3.2517506e-09  -1.8507781e-05   6.0538140e-01   6.0451017e-01  -4.9511577e+04
   3.2544181e-09  -1.8376175e-05   6.0537836e-01   6.0451332e-01  -4.9159508e+04
   3.2570857e-09  -1.8245506e-05   6.0537534e-01   6.0451646e-01  -4.8809942e+04
   3.2597533e-09  -1.8115766e-05   6.0537235e-01   6.0451957e-01  -4.8462862e+04
   3.2624208e-09  -1.7986949e-05   6.0536937e-01   6.0452266e-01  -4.8118250e+04
   3.2650884e-09  -1.7859047e-05   6.0536642e-01   6.0452572e-01  -4.7776089e+04
   3.2677559e-09  -1.7732055e-05   6.0536348e-01   6.0452877e-01  -4.7436360e+04
   3.2704235e-09  -1.7605966e-05   6.0536057e-01   6.0453179e-01  -4.7099048e+04
   3.2730910e-09  -1.7480774e-05   6.0535768e-01   6.0453479e-01  -4.6764134e+04
   3.2757586e-09  -1.7356472e-05   6.0535481e-01   6.0453777e-01  -4.6431601e+04
   3.2784261e-09  -1.7233053e-05   6.0535196e-01   6.0454073e-01  -4.6101433e+04
   3.2810937e-09  -1.7110513e-05   6.0534913e-01   6.0454367e-01  -4.5773613e+04
   3.2837613e-09  -1.6988844e-05   6.0534632e-01   6.0454658e-01  -4.5448124e+04
   3.2864288e-09  -1.6868039e-05   6.0534353e-01   6.0454948e-01  -4.5124949e+04
   3.2890964e-09  -1.6748094e-05   6.0534076e-01   6.0455236e-01  -4.4804072e+04
   3.2917639e-09  -1.6629002e-05   6.0533801e-01   6.0455521e-01  -4.4485478e+04
   3.2944315e-09  -1.6510757e-05   6.0533527e-01   6.0455805e-01  -4.4169148e+04
   3.2970990e-09  -1.6393352e-05   6.0533256e-01   6.0456086e-01  -4.3855068e+04
   3.2997666e-09  -1.6276783e-05   6.0532987e-01   6.0456366e-01  -4.3543221e+04
   3.3024341e-09  -1.6161042e-05   6.0532720e-01   6.0456643e-01  -4.3233592e+04
   3.3051017e-09  -1.6046124e-05   6.0532454e-01   6.0456919e-01  -4.2926165e+04
   3.3077693e-09  -1.5932023e-05   6.0532191e-01   6.0457192e-01  -4.2620923e+04
   3.3104368e-09  -1.5818734e-05   6.0531929e-01   6.0457464e-01  -4.2317853e+04
   3.3131044e-09  -1.5706251e-05   6.0531669e-01   6.0457733e-01  -4.2016937e+04
   3.3157719e-09  -1.5594567e-05   6.0531411e-01   6.0458001e-01  -4.1718161e+04
   3.3184395e-09  -1.5483677e-05   6.0531155e-01   6.0458267e-01  -4.1421509e+04
   3.3211070e-09  -1.5373576e-05   6.0530901e-01   6.0458531e-01  -4.1126967e+04
   3.3237746e-09  -1.5264258e-05   6.0530648e-01   6.0458793e-01  -4.0834520e+04
   3.3264421e-09  -1.5155717e-05   6.0530398e-01   6.0459053e-01  -4.0544152e+04
   3.3291097e-09  -1.5047948e-05   6.0530149e-01   6.0459312e-01  -4.0255849e+04
   3.3317773e-09  -1.4940945e-05   6.0529901e-01   6.0459568e-01  -3.9969595e+04
   3.3344448e-09  -1.4834703e-05   6.0529656e-01   6.0459823e-01  -3.9685378e+04
   3.3371124e-09  -1.4729217e-05   6.0529412e-01   6.0460076e-01  -3.9403181e+04
   3.3397799e-09  -1.4624481e-05   6.0529170e-01   6.0460327e-01  -3.9122991e+04
   3.3424475e-09  -1.4520489e-05   6.0528930e-01   6.0460576e-01  -3.8844794e+04
   3.3451150e-09  -1.4417237e-05   6.0528692e-01   6.0460824e-01  -3.8568574e+04
   3.3477826e-09  -1.4314719e-05   6.0528455e-01   6.0461070e-01  -3.8294319e+04
   3.3504502e-09  -1.4212931e-05   6.0528220e-01   6.0461314e-01  -3.8022014e+04
   3.3531177e-09  -1.4111866e-05   6.0527987e-01   6.0461556e-01  -3.7751645e+04
   3.3557853e-09  -1.4011519e-05   6.0527755e-01   6.0461797e-01  -3.7483199e+04
   3.3584528e-09  -1.3911886e-05   6.0527525e-01   6.0462036e-01  -3.7216662e+04
   3.3611204e-09  -1.3812962e-05   6.0527296e-01   6.0462273e-01  -3.6952020e+04
   3.3637879e-09  -1.3714741e-05   6.0527069e-01   6.0462508e-01  -3.6689260e+04
   3.3664555e-09  -1.3617219e-05   6.0526844e-01   6.0462742e-01  -3.6428368e+04
   3.3691230e-09  -1.3520390e-05   6.0526620e-01   6.0462974e-01  -3.6169332e+04
   3.3717906e-09  -1.3424249e-05   6.0526398e-01   6.0463205e-01  -3.5912137e+04
   3.3744582e-09  -1.3328792e-05   6.0526178e-01   6.0463434e-01  -3.5656771e+04
   3.3771257e-09  -1.3234014e-05   6.0525959e-01   6.0463661e-01  -3.5403222e+04
   3.3797933e-09  -1.3139910e-05   6.0525742e-01   6.0463887e-01  -3.5151475e+04
   3.3824608e-09  -1.3046475e-05   6.0525526e-01   6.0464111e-01  -3.4901518e+04
   3.3851284e-09  -1.2953705e-05   6.0525312e-01   6.0464333e-01  -3.4653339e+04
   3.3877959e-09  -1.2861594e-05   6.0525099e-01   6.0464554e-01  -3.4406924e+04
   3.3904635e-09  -1.2770138e-05   6.0524888e-01   6.0464773e-01  -3.4162262e+04
   3.3931310e-09  -1.2679332e-05   6.0524678e-01   6.0464991e-01  -3.3919340e+04
   3.3957986e-09  -1.2589173e-05   6.0524470e-01   6.0465207e-01  -3.3678144e+04
   3.3984662e-09  -1.2499654e-05   6.0524263e-01   6.0465422e-01  -3.3438664e+04
   3.4011337e-09  -1.2410772e-05   6.0524058e-01   6.0465635e-01  -3.3200887e+04
   3.4038013e-09  -1.2322521e-05   6.0523854e-01   6.0465847e-01  -3.2964801e+04
   3.4064688e-09  -1.2234899e-05   6.0523651e-01   6.0466057e-01  -3.2730393e+04
   3.4091364e-09  -1.2147899e-05   6.0523451e-01   6.0466265e-01  -3.2497653e+04
   3.4118039e-09  -1.2061518e-05   6.0523251e-01   6.0466472e-01  -3.2266567e+04
   3.4144715e-09  -1.1975752e-05   6.0523053e-01   6.0466678e-01  -3.2037124e+04
   3.4171390e-09  -1.1890595e-05   6.0522856e-01   6.0466882e-01  -3.1809313e+04
   3.4198066e-09  -1.1806044e-05   6.0522661e-01   6.0467085e-01  -3.1583122e+04
   3.4224742e-09  -1.1722094e-05   6.0522467e-01   6.0467286e-01  -3.1358540e+04
   3.4251417e-09  -1.1638741e-05   6.0522275e-01   6.0467486e-01  -3.1135554e+04
   3.4278093e-09  -1.1555980e-05   6.0522084e-01   6.0467685e-01  -3.0914154e+04
   3.4304768e-09  -1.1473808e-05   6.0521894e-01   6.0467882e-01  -3.0694329e+04
   3.4331444e-09  -1.1392221e-05   6.0521705e-01   6.0468077e-01  -3.0476066e+04
   3.4358119e-09  -1.1311213e-05   6.0521518e-01   6.0468272e-01  -3.0259356e+04
   3.4384795e-09  -1.1230782e-05   6.0521332e-01   6.0468464e-01  -3.0044186e+04
   3.4411470e-09  -1.1150923e-05   6.0521148e-01   6.0468656e-01  -2.9830547e+04
   3.4438146e-09  -1.1071631e-05   6.0520965e-01   6.0468846e-01  -2.9618426e+04
   3.4464822e-09  -1.0992903e-05   6.0520783e-01   6.0469035e-01  -2.9407815e+04
   3.4491497e-09  -1.0914735e-05   6.0520603e-01   6.0469222e-01  -2.9198700e+04
   3.4518173e-09  -1.0837123e-05   6.0520423e-01   6.0469408e-01  -2.8991073e+04
   3.4544848e-09  -1.0760063e-05   6.0520245e-01   6.0469593e-01  -2.8784922e+04
   3.4571524e-09  -1.0683551e-05   6.0520069e-01   6.0469777e-01  -2.8580237e+04
   3.4598199e-09  -1.0607583e-05   6.0519893e-01   6.0469959e-01  -2.8377008e+04
   3.4624875e-09  -1.0532155e-05   6.0519719e-01   6.0470140e-01  -2.8175223e+04
   3.4651551e-09  -1.0457263e-05   6.0519546e-01   6.0470319e-01  -2.7974874e+04
   3.4678226e-09  -1.0382904e-05   6.0519374e-01   6.0470498e-01  -2.7775949e+04
   3.4704902e-09  -1.0309074e-05   6.0519204e-01   6.0470675e-01  -2.7578439e+04
   3.4731577e-09  -1.0235768e-05   6.0519035e-01   6.0470850e-01  -2.7382333e+04
   3.4758253e-09  -1.0162984e-05   6.0518866e-01   6.0471025e-01  -2.7187622e+04
   3.4784928e-09  -1.0090718e-05   6.0518700e-01   6.0471198e-01  -2.6994295e+04
   3.4811604e-09  -1.0018965e-05   6.0518534e-01   6.0471370e-01  -2.6802343e+04
   3.4838279e-09  -9.9477228e-06   6.0518369e-01   6.0471541e-01  -2.6611756e+04
   3.4864955e-09  -9.8769870e-06   6.0518206e-01   6.0471711e-01  -2.6422524e+04
   3.4891631e-09  -9.8067542e-06   6.0518044e-01   6.0471879e-01  -2.6234638e+04
   3.4918306e-09  -9.7370208e-06   6.0517883e-01   6.0472046e-01  -2.6048088e+04
   3.4944982e-09  -9.6677833e-06   6.0517723e-01   6.0472213e-01  -2.5862864e+04
   3.4971657e-09  -9.5990381e-06   6.0517564e-01   6.0472377e-01  -2.5678957e+04
   3.4998333e-09  -9.5307817e-06   6.0517406e-01   6.0472541e-01  -2.5496359e+04
   3.5025008e-09  -9.4630107e-06   6.0517250e-01   6.0472704e-01  -2.5315058e+04
   3.5051684e-09  -9.3957216e-06   6.0517095e-01   6.0472865e-01  -2.5135047e+04
   3.5078359e-09  -9.3289110e-06   6.0516940e-01   6.0473025e-01  -2.4956316e+04
   3.5105035e-09  -9.2625755e-06   6.0516787e-01   6.0473184e-01  -2.4778856e+04
   3.5131711e-09  -9.1967116e-06   6.0516635e-01   6.0473342e-01  -2.4602657e+04
   3.5158386e-09  -9.1313162e-06   6.0516484e-01   6.0473499e-01  -2.4427712e+04
   3.5185062e-09  -9.0663857e-06   6.0516334e-01   6.0473655e-01  -2.4254011e+04
   3.5211737e-09  -9.0019169e-06   6.0516185e-01   6.0473809e-01  -2.4081545e+04
   3.5238413e-09  -8.9379066e-06   6.0516037e-01   6.0473963e-01  -2.3910305e+04
   3.5265088e-09  -8.8743514e-06   6.0515891e-01   6.0474115e-01  -2.3740283e+04
   3.5291764e-09  -8.8112482e-06   6.0515745e-01   6.0474267e-01  -2.3571469e+04
   3.5318439e-09  -8.7485937e-06   6.0515600e-01   6.0474417e-01  -2.3403857e+04
   3.5345115e-09  -8.6863847e-06   6.0515457e-01   6.0474566e-01  -2.3237436e+04
   3.5371791e-09  -8.6246180e-06   6.0515314e-01   6.0474714e-01  -2.3072198e+04
   3.5398466e-09  -8.5632906e-06   6.0515172e-01   6.0474861e-01  -2.2908136e+04
   3.5425142e-09  -8.5023993e-06   6.0515032e-01   6.0475007e-01  -2.2745240e+04
   3.5451817e-09  -8.4419409e-06   6.0514892e-01   6.0475152e-01  -2.2583503e+04
   3.5478493e-09  -8.3819125e-06   6.0514753e-01   6.0475296e-01  -2.2422915e+04
   3.5505168e-09  -8.3223109e-06   6.0514616e-01   6.0475439e-01  -2.2263470e+04
   3.5531844e-09  -8.2631331e-06   6.0514479e-01   6.0475581e-01  -2.2105158e+04
   3.5558520e-09  -8.2043762e-06   6.0514343e-01   6.0475722e-01  -2.1947972e+04
   3.5585195e-09  -8.1460370e-06   6.0514209e-01   6.0475862e-01  -2.1791904e+04
   3.5611871e-09  -8.0881127e-06   6.0514075e-01   6.0476001e-01  -2.1636946e+04
   3.5638546e-09  -8.0306003e-06   6.0513942e-01   6.0476139e-01  -2.1483089e+04
   3.5665222e-09  -7.9734968e-06   6.0513810e-01   6.0476276e-01  -2.1330327e+04
   3.5691897e-09  -7.9167994e-06   6.0513679e-01   6.0476412e-01  -2.1178650e+04
   3.5718573e-09  -7.8605052e-06   6.0513549e-01   6.0476547e-01  -2.1028053e+04
   3.5745248e-09  -7.8046112e-06   6.0513420e-01   6.0476681e-01  -2.0878526e+04
   3.5771924e-09  -7.7491147e-06   6.0513292e-01   6.0476814e-01  -2.0730063e+04
   3.5798600e-09  -7.6940128e-06   6.0513165e-01   6.0476946e-01  -2.0582655e+04
   3.5825275e-09  -7.6393028e-06   6.0513039e-01   6.0477077e-01  -2.0436295e+04
   3.5851951e-09  -7.5849818e-06   6.0512913e-01   6.0477207e-01  -2.0290976e+04
   3.5878626e-09  -7.5310470e-06   6.0512789e-01   6.0477337e-01  -2.0146691e+04
   3.5905302e-09  -7.4774958e-06   6.0512665e-01   6.0477465e-01  -2.0003431e+04
   3.5931977e-09  -7.4243254e-06   6.0512542e-01   6.0477593e-01  -1.9861191e+04
   3.5958653e-09  -7.3715330e-06   6.0512420e-01   6.0477719e-01  -1.9719961e+04
   3.5985328e-09  -7.3191161e-06   6.0512299e-01   6.0477845e-01  -1.9579736e+04
   3.6012004e-09  -7.2670718e-06   6.0512179e-01   6.0477970e-01  -1.9440508e+04
   3.6038680e-09  -7.2153977e-06   6.0512060e-01   6.0478094e-01  -1.9302270e+04
   3.6065355e-09  -7.1640910e-06   6.0511941e-01   6.0478217e-01  -1.9165015e+04
   3.6092031e-09  -7.1131491e-06   6.0511824e-01   6.0478339e-01  -1.9028736e+04
   3.6118706e-09  -7.0625695e-06   6.0511707e-01   6.0478460e-01  -1.8893427e+04
   3.6145382e-09  -7.0123495e-06   6.0511591e-01   6.0478581e-01  -1.8759079e+04
   3.6172057e-09  -6.9624867e-06   6.0511476e-01   6.0478700e-01  -1.8625687e+04
   3.6198733e-09  -6.9129784e-06   6.0511361e-01   6.0478819e-01  -1.8493243e+04
   3.6225408e-09  -6.8638221e-06   6.0511248e-01   6.0478937e-01  -1.8361741e+04
   3.6252084e-09  -6.8150154e-06   6.0511135e-01   6.0479054e-01  -1.8231174e+04
   3.6278760e-09  -6.7665558e-06   6.0511023e-01   6.0479170e-01  -1.8101535e+04
   3.6305435e-09  -6.7184407e-06   6.0510912e-01   6.0479286e-01  -1.7972819e+04
   3.6332111e-09  -6.6706678e-06   6.0510802e-01   6.0479400e-01  -1.7845017e+04
   3.6358786e-09  -6.6232346e-06   6.0510692e-01   6.0479514e-01  -1.7718125e+04
   3.6385462e-09  -6.5761386e-06   6.0510584e-01   6.0479627e-01  -1.7592135e+04
   3.6412137e-09  -6.5293776e-06   6.0510476e-01   6.0479739e-01  -1.7467040e+04
   3.6438813e-09  -6.4829490e-06   6.0510368e-01   6.0479850e-01  -1.7342835e+04
   3.6465488e-09  -6.4368507e-06   6.0510262e-01   6.0479961e-01  -1.7219514e+04
   3.6492164e-09  -6.3910801e-06   6.0510156e-01   6.0480071e-01  -1.7097069e+04
   3.6518840e-09  -6.3456349e-06   6.0510051e-01   6.0480180e-01  -1.6975495e+04
   3.6545515e-09  -6.3005130e-06   6.0509947e-01   6.0480288e-01  -1.6854786e+04
   3.6572191e-09  -6.2557118e-06   6.0509844e-01   6.0480395e-01  -1.6734935e+04
   3.6598866e-09  -6.2112293e-06   6.0509741e-01   6.0480502e-01  -1.6615936e+04
   3.6625542e-09  -6.1670630e-06   6.0509639e-01   6.0480608e-01  -1.6497783e+04
   3.6652217e-09  -6.1232109e-06   6.0509538e-01   6.0480713e-01  -1.6380471e+04
   3.6678893e-09  -6.0796705e-06   6.0509437e-01   6.0480817e-01  -1.6263992e+04
   3.6705569e-09  -6.0364398e-06   6.0509337e-01   6.0480921e-01  -1.6148342e+04
   3.6732244e-09  -5.9935164e-06   6.0509238e-01   6.0481024e-01  -1.6033514e+04
   3.6758920e-09  -5.9508983e-06   6.0509140e-01   6.0481126e-01  -1.5919503e+04
   3.6785595e-09  -5.9085832e-06   6.0509042e-01   6.0481228e-01  -1.5806303e+04
   3.6812271e-09  -5.8665690e-06   6.0508945e-01   6.0481329e-01  -1.5693907e+04
   3.6838946e-09  -5.8248536e-06   6.0508849e-01   6.0481429e-01  -1.5582311e+04
   3.6865622e-09  -5.7834348e-06   6.0508753e-01   6.0481528e-01  -1.5471508e+04
   3.6892297e-09  -5.7423105e-06   6.0508658e-01   6.0481627e-01  -1.5361494e+04
   3.6918973e-09  -5.7014787e-06   6.0508564e-01   6.0481725e-01  -1.5252261e+04
   3.6945649e-09  -5.6609372e-06   6.0508470e-01   6.0481822e-01  -1.5143805e+04
   3.6972324e-09  -5.6206840e-06   6.0508377e-01   6.0481918e-01  -1.5036121e+04
   3.6999000e-09  -5.5807170e-06   6.0508285e-01   6.0482014e-01  -1.4929202e+04
   3.7025675e-09  -5.5410342e-06   6.0508193e-01   6.0482109e-01  -1.4823044e+04
   3.7052351e-09  -5.5016336e-06   6.0508102e-01   6.0482204e-01  -1.4717640e+04
   3.7079026e-09  -5.4625131e-06   6.0508012e-01   6.0482298e-01  -1.4612986e+04
   3.7105702e-09  -5.4236709e-06   6.0507922e-01   6.0482391e-01  -1.4509076e+04
   3.7132377e-09  -5.3851048e-06   6.0507833e-01   6.0482483e-01  -1.4405905e+04
   3.7159053e-09  -5.3468130e-06   6.0507745e-01   6.0482575e-01  -1.4303467e+04
   3.7185729e-09  -5.3087934e-06   6.0507657e-01   6.0482666e-01  -1.4201758e+04
   3.7212404e-09  -5.2710442e-06   6.0507570e-01   6.0482757e-01  -1.4100773e+04
   3.7239080e-09  -5.2335635e-06   6.0507483e-01   6.0482847e-01  -1.4000505e+04
   3.7265755e-09  -5.1963492e-06   6.0507398e-01   6.0482936e-01  -1.3900950e+04
   3.7292431e-09  -5.1593996e-06   6.0507312e-01   6.0483025e-01  -1.3802104e+04
   3.7319106e-09  -5.1227127e-06   6.0507227e-01   6.0483113e-01  -1.3703960e+04
   3.7345782e-09  -5.0862867e-06   6.0507143e-01   6.0483200e-01  -1.3606514e+04
   3.7372457e-09  -5.0501197e-06   6.0507060e-01   6.0483287e-01  -1.3509761e+04
   3.7399133e-09  -5.0142099e-06   6.0506977e-01   6.0483373e-01  -1.3413696e+04
   3.7425809e-09  -4.9785554e-06   6.0506895e-01   6.0483458e-01  -1.3318314e+04
   3.7452484e-09  -4.9431545e-06   6.0506813e-01   6.0483543e-01  -1.3223610e+04
   3.7479160e-09  -4.9080053e-06   6.0506732e-01   6.0483628e-01  -1.3129580e+04
   3.7505835e-09  -4.8731060e-06   6.0506651e-01   6.0483711e-01  -1.3036218e+04
   3.7532511e-09  -4.8384549e-06   6.0506571e-01   6.0483794e-01  -1.2943520e+04
   3.7559186e-09  -4.8040502e-06   6.0506492e-01   6.0483877e-01  -1.2851482e+04
   3.7585862e-09  -4.7698901e-06   6.0506413e-01   6.0483959e-01  -1.2760098e+04
   3.7612538e-09  -4.7359730e-06   6.0506334e-01   6.0484040e-01  -1.2669364e+04
   3.7639213e-09  -4.7022970e-06   6.0506257e-01   6.0484121e-01  -1.2579275e+04
   3.7665889e-09  -4.6688605e-06   6.0506180e-01   6.0484201e-01  -1.2489826e+04
   3.7692564e-09  -4.6356617e-06   6.0506103e-01   6.0484281e-01  -1.2401014e+04
   3.7719240e-09  -4.6026990e-06   6.0506027e-01   6.0484360e-01  -1.2312833e+04
   3.7745915e-09  -4.5699707e-06   6.0505951e-01   6.0484438e-01  -1.2225279e+04
   3.7772591e-09  -4.5374751e-06   6.0505876e-01   6.0484516e-01  -1.2138348e+04
   3.7799266e-09  -4.5052106e-06   6.0505802e-01   6.0484594e-01  -1.2052035e+04
   3.7825942e-09  -4.4731756e-06   6.0505728e-01   6.0484670e-01  -1.1966335e+04
   3.7852618e-09  -4.4413683e-06   6.0505654e-01   6.0484747e-01  -1.1881245e+04
   3.7879293e-09  -4.4097872e-06   6.0505581e-01   6.0484823e-01  -1.1796761e+04
   3.7905969e-09  -4.3784306e-06   6.0505509e-01   6.0484898e-01  -1.1712876e+04
   3.7932644e-09  -4.3472970e-06   6.0505437e-01   6.0484972e-01  -1.1629589e+04
   3.7959320e-09  -4.3163848e-06   6.0505366e-01   6.0485047e-01  -1.1546894e+04
   3.7985995e-09  -4.2856925e-06   6.0505295e-01   6.0485120e-01  -1.1464786e+04
   3.8012671e-09  -4.2552183e-06   6.0505224e-01   6.0485193e-01  -1.1383263e+04
   3.8039346e-09  -4.2249609e-06   6.0505155e-01   6.0485266e-01  -1.1302319e+04
   3.8066022e-09  -4.1949186e-06   6.0505085e-01   6.0485338e-01  -1.1221951e+04
   3.8092698e-09  -4.1650899e-06   6.0505016e-01   6.0485409e-01  -1.1142154e+04
   3.8119373e-09  -4.1354734e-06   6.0504948e-01   6.0485480e-01  -1.1062925e+04
   3.8146049e-09  -4.1060674e-06   6.0504880e-01   6.0485551e-01  -1.0984259e+04
   3.8172724e-09  -4.0768706e-06   6.0504813e-01   6.0485621e-01  -1.0906152e+04
   3.8199400e-09  -4.0478813e-06   6.0504746e-01   6.0485691e-01  -1.0828601e+04
   3.8226075e-09  -4.0190982e-06   6.0504679e-01   6.0485760e-01  -1.0751602e+04
   3.8252751e-09  -3.9905198e-06   6.0504613e-01   6.0485828e-01  -1.0675150e+04
   3.8279426e-09  -3.9621445e-06   6.0504548e-01   6.0485896e-01  -1.0599241e+04
   3.8306102e-09  -3.9339711e-06   6.0504483e-01   6.0485964e-01  -1.0523872e+04
   3.8332778e-09  -3.9059980e-06   6.0504418e-01   6.0486031e-01  -1.0449040e+04
   3.8359453e-09  -3.8782238e-06   6.0504354e-01   6.0486097e-01  -1.0374739e+04
   3.8386129e-09  -3.8506470e-06   6.0504290e-01   6.0486164e-01  -1.0300967e+04
   3.8412804e-09  -3.8232664e-06   6.0504227e-01   6.0486229e-01  -1.0227719e+04
   3.8439480e-09  -3.7960805e-06   6.0504164e-01   6.0486294e-01  -1.0154992e+04
   3.8466155e-09  -3.7690879e-06   6.0504102e-01   6.0486359e-01  -1.0082783e+04
   3.8492831e-09  -3.7422872e-06   6.0504040e-01   6.0486424e-01  -1.0011086e+04
   3.8519507e-09  -3.7156771e-06   6.0503979e-01   6.0486487e-01  -9.9399000e+03
   3.8546182e-09  -3.6892562e-06   6.0503918e-01   6.0486551e-01  -9.8692199e+03
   3.8572858e-09  -3.6630232e-06   6.0503857e-01   6.0486614e-01  -9.7990423e+03
   3.8599533e-09  -3.6369767e-06   6.0503797e-01   6.0486676e-01  -9.7293637e+03
   3.8626209e-09  -3.6111155e-06   6.0503737e-01   6.0486738e-01  -9.6601806e+03
   3.8652884e-09  -3.5854381e-06   6.0503678e-01   6.0486800e-01  -9.5914895e+03
   3.8679560e-09  -3.5599433e-06   6.0503619e-01   6.0486861e-01  -9.5232868e+03
   3.8706235e-09  -3.5346298e-06   6.0503561e-01   6.0486922e-01  -9.4555691e+03
   3.8732911e-09  -3.5094963e-06   6.0503503e-01   6.0486982e-01  -9.3883329e+03
   3.8759587e-09  -3.4845415e-06   6.0503445e-01   6.0487042e-01  -9.3215748e+03
   3.8786262e-09  -3.4597642e-06   6.0503388e-01   6.0487101e-01  -9.2552914e+03
   3.8812938e-09  -3.4351631e-06   6.0503331e-01   6.0487160e-01  -9.1894794e+03
   3.8839613e-09  -3.4107368e-06   6.0503275e-01   6.0487219e-01  -9.1241354e+03
   3.8866289e-09  -3.3864843e-06   6.0503219e-01   6.0487277e-01  -9.0592560e+03
   3.8892964e-09  -3.3624043e-06   6.0503163e-01   6.0487335e-01  -8.9948379e+03
   3.8919640e-09  -3.3384954e-06   6.0503108e-01   6.0487392e-01  -8.9308779e+03
   3.8946315e-09  -3.3147566e-06   6.0503053e-01   6.0487449e-01  -8.8673728e+03
   3.8972991e-09  -3.2911865e-06   6.0502999e-01   6.0487505e-01  -8.8043192e+03
   3.8999667e-09  -3.2677841e-06   6.0502945e-01   6.0487562e-01  -8.7417139e+03
