   0.0000000e+00  -1.1118556e-01   6.4333423e+00   1.1244915e-03  -5.2357206e+08
   6.6688896e-13  -1.1083670e-01   6.4338748e+00   1.1555316e-03  -5.2265662e+08
   1.3337779e-12  -1.1048845e-01   6.4344133e+00   1.1873731e-03  -5.2174125e+08
   2.0006669e-12  -1.1014081e-01   6.4349579e+00   1.2200353e-03  -5.2082593e+08
   2.6675559e-12  -1.0979378e-01   6.4355087e+00   1.2535377e-03  -5.1991067e+08
   3.3344448e-12  -1.0944736e-01   6.4360658e+00   1.2879000e-03  -5.1899546e+08
   4.0013338e-12  -1.0910155e-01   6.4366291e+00   1.3231428e-03  -5.1808031e+08
   4.6682227e-12  -1.0875635e-01   6.4371987e+00   1.3592867e-03  -5.1716521e+08
   5.3351117e-12  -1.0841176e-01   6.4377748e+00   1.3963530e-03  -5.1625017e+08
   6.0020007e-12  -1.0806778e-01   6.4383572e+00   1.4343634e-03  -5.1533519e+08
   6.6688896e-12  -1.0772441e-01   6.4389462e+00   1.4733400e-03  -5.1442027e+08
   7.3357786e-12  -1.0738165e-01   6.4395417e+00   1.5133054e-03  -5.1350540e+08
   8.0026676e-12  -1.0703950e-01   6.4401437e+00   1.5542827e-03  -5.1259058e+08
   8.6695565e-12  -1.0669796e-01   6.4407525e+00   1.5962954e-03  -5.1167583e+08
   9.3364455e-12  -1.0635703e-01   6.4413679e+00   1.6393676e-03  -5.1076113e+08
   1.0003334e-11  -1.0601671e-01   6.4419901e+00   1.6835239e-03  -5.0984649e+08
   1.0670223e-11  -1.0567700e-01   6.4426190e+00   1.7287892e-03  -5.0893190e+08
   1.1337112e-11  -1.0533790e-01   6.4432549e+00   1.7751893e-03  -5.0801738e+08
   1.2004001e-11  -1.0499941e-01   6.4438976e+00   1.8227501e-03  -5.0710290e+08
   1.2670890e-11  -1.0466153e-01   6.4445473e+00   1.8714983e-03  -5.0618849e+08
   1.3337779e-11  -1.0432426e-01   6.4452040e+00   1.9214612e-03  -5.0527413e+08
   1.4004668e-11  -1.0398760e-01   6.4458677e+00   1.9726665e-03  -5.0435983e+08
   1.4671557e-11  -1.0365155e-01   6.4465386e+00   2.0251425e-03  -5.0344559e+08
   1.5338446e-11  -1.0331611e-01   6.4472167e+00   2.0789181e-03  -5.0253140e+08
   1.6005335e-11  -1.0298128e-01   6.4479020e+00   2.1340227e-03  -5.0161727e+08
   1.6672224e-11  -1.0264706e-01   6.4485945e+00   2.1904866e-03  -5.0070320e+08
   1.7339113e-11  -1.0231345e-01   6.4492944e+00   2.2483402e-03  -4.9978918e+08
   1.8006002e-11  -1.0198045e-01   6.4500017e+00   2.3076151e-03  -4.9887523e+08
   1.8672891e-11  -1.0164805e-01   6.4507164e+00   2.3683430e-03  -4.9796132e+08
   1.9339780e-11  -1.0131627e-01   6.4514386e+00   2.4305566e-03  -4.9704748e+08
   2.0006669e-11  -1.0098510e-01   6.4521683e+00   2.4942890e-03  -4.9613369e+08
   2.0673558e-11  -1.0065453e-01   6.4529057e+00   2.5595743e-03  -4.9521996e+08
   2.1340447e-11  -1.0032458e-01   6.4536506e+00   2.6264468e-03  -4.9430629e+08
   2.2007336e-11  -9.9995230e-02   6.4544033e+00   2.6949418e-03  -4.9339267e+08
   2.2674225e-11  -9.9666493e-02   6.4551637e+00   2.7650954e-03  -4.9247911e+08
   2.3341114e-11  -9.9338365e-02   6.4559320e+00   2.8369440e-03  -4.9156561e+08
   2.4008003e-11  -9.9010847e-02   6.4567080e+00   2.9105251e-03  -4.9065216e+08
   2.4674892e-11  -9.8683938e-02   6.4574920e+00   2.9858767e-03  -4.8973877e+08
   2.5341781e-11  -9.8357638e-02   6.4582840e+00   3.0630377e-03  -4.8882543e+08
   2.6008670e-11  -9.8031947e-02   6.4590839e+00   3.1420476e-03  -4.8791215e+08
   2.6675559e-11  -9.7706864e-02   6.4598920e+00   3.2229467e-03  -4.8699893e+08
   2.7342447e-11  -9.7382391e-02   6.4607081e+00   3.3057763e-03  -4.8608577e+08
   2.8009336e-11  -9.7058527e-02   6.4615324e+00   3.3905780e-03  -4.8517266e+08
   2.8676225e-11  -9.6735272e-02   6.4623649e+00   3.4773948e-03  -4.8425960e+08
   2.9343114e-11  -9.6412626e-02   6.4632057e+00   3.5662701e-03  -4.8334661e+08
   3.0010003e-11  -9.6090588e-02   6.4640548e+00   3.6572482e-03  -4.8243366e+08
   3.0676892e-11  -9.5769160e-02   6.4649122e+00   3.7503743e-03  -4.8152078e+08
   3.1343781e-11  -9.5448340e-02   6.4657781e+00   3.8456946e-03  -4.8060795e+08
   3.2010670e-11  -9.5128129e-02   6.4666525e+00   3.9432557e-03  -4.7969517e+08
   3.2677559e-11  -9.4808526e-02   6.4675353e+00   4.0431057e-03  -4.7878245e+08
   3.3344448e-11  -9.4489532e-02   6.4684268e+00   4.1452931e-03  -4.7786979e+08
   3.4011337e-11  -9.4171147e-02   6.4693268e+00   4.2498675e-03  -4.7695718e+08
   3.4678226e-11  -9.3853371e-02   6.4702355e+00   4.3568795e-03  -4.7604462e+08
   3.5345115e-11  -9.3536203e-02   6.4711530e+00   4.4663805e-03  -4.7513212e+08
   3.6012004e-11  -9.3219643e-02   6.4720792e+00   4.5784228e-03  -4.7421967e+08
   3.6678893e-11  -9.2903692e-02   6.4730142e+00   4.6930599e-03  -4.7330728e+08
   3.7345782e-11  -9.2588350e-02   6.4739580e+00   4.8103460e-03  -4.7239494e+08
   3.8012671e-11  -9.2273615e-02   6.4749108e+00   4.9303366e-03  -4.7148266e+08
   3.8679560e-11  -9.1959490e-02   6.4758725e+00   5.0530878e-03  -4.7057043e+08
   3.9346449e-11  -9.1645972e-02   6.4768432e+00   5.1786572e-03  -4.6965825e+08
   4.0013338e-11  -9.1333063e-02   6.4778229e+00   5.3071030e-03  -4.6874613e+08
   4.0680227e-11  -9.1020762e-02   6.4788117e+00   5.4384848e-03  -4.6783406e+08
   4.1347116e-11  -9.0709069e-02   6.4798097e+00   5.5728629e-03  -4.6692205e+08
   4.2014005e-11  -9.0397985e-02   6.4808168e+00   5.7102991e-03  -4.6601008e+08
   4.2680894e-11  -9.0087509e-02   6.4818332e+00   5.8508559e-03  -4.6509817e+08
   4.3347783e-11  -8.9777641e-02   6.4828588e+00   5.9945973e-03  -4.6418631e+08
   4.4014672e-11  -8.9468380e-02   6.4838937e+00   6.1415881e-03  -4.6327450e+08
   4.4681561e-11  -8.9159728e-02   6.4849380e+00   6.2918943e-03  -4.6236275e+08
   4.5348449e-11  -8.8851684e-02   6.4859917e+00   6.4455833e-03  -4.6145105e+08
   4.6015338e-11  -8.8544248e-02   6.4870547e+00   6.6027234e-03  -4.6053939e+08
   4.6682227e-11  -8.8237420e-02   6.4881273e+00   6.7633842e-03  -4.5962779e+08
   4.7349116e-11  -8.7931200e-02   6.4892094e+00   6.9276366e-03  -4.5871624e+08
   4.8016005e-11  -8.7625588e-02   6.4903010e+00   7.0955525e-03  -4.5780474e+08
   4.8682894e-11  -8.7320584e-02   6.4914022e+00   7.2672052e-03  -4.5689330e+08
   4.9349783e-11  -8.7016187e-02   6.4925131e+00   7.4426693e-03  -4.5598190e+08
   5.0016672e-11  -8.6712398e-02   6.4936336e+00   7.6220205e-03  -4.5507055e+08
   5.0683561e-11  -8.6409217e-02   6.4947638e+00   7.8053360e-03  -4.5415925e+08
   5.1350450e-11  -8.6106644e-02   6.4959038e+00   7.9926941e-03  -4.5324800e+08
   5.2017339e-11  -8.5804678e-02   6.4970535e+00   8.1841746e-03  -4.5233680e+08
   5.2684228e-11  -8.5503320e-02   6.4982130e+00   8.3798585e-03  -4.5142565e+08
   5.3351117e-11  -8.5202570e-02   6.4993824e+00   8.5798282e-03  -4.5051454e+08
   5.4018006e-11  -8.4902427e-02   6.5005617e+00   8.7841676e-03  -4.4960349e+08
   5.4684895e-11  -8.4602892e-02   6.5017508e+00   8.9929618e-03  -4.4869248e+08
   5.5351784e-11  -8.4303964e-02   6.5029499e+00   9.2062975e-03  -4.4778152e+08
   5.6018673e-11  -8.4005644e-02   6.5041590e+00   9.4242626e-03  -4.4687061e+08
   5.6685562e-11  -8.3707931e-02   6.5053781e+00   9.6469466e-03  -4.4595974e+08
   5.7352451e-11  -8.3410826e-02   6.5066072e+00   9.8744406e-03  -4.4504893e+08
   5.8019340e-11  -8.3114328e-02   6.5078464e+00   1.0106837e-02  -4.4413815e+08
   5.8686229e-11  -8.2818437e-02   6.5090956e+00   1.0344229e-02  -4.4322743e+08
   5.9353118e-11  -8.2523154e-02   6.5103550e+00   1.0586713e-02  -4.4231675e+08
   6.0020007e-11  -8.2228478e-02   6.5116244e+00   1.0834386e-02  -4.4140611e+08
   6.0686896e-11  -8.1934410e-02   6.5129041e+00   1.1087346e-02  -4.4049552e+08
   6.1353785e-11  -8.1640948e-02   6.5141939e+00   1.1345693e-02  -4.3958498e+08
   6.2020674e-11  -8.1348094e-02   6.5154939e+00   1.1609529e-02  -4.3867447e+08
   6.2687563e-11  -8.1055847e-02   6.5168042e+00   1.1878957e-02  -4.3776402e+08
   6.3354451e-11  -8.0764208e-02   6.5181247e+00   1.2154083e-02  -4.3685360e+08
   6.4021340e-11  -8.0473175e-02   6.5194555e+00   1.2435012e-02  -4.3594323e+08
   6.4688229e-11  -8.0182749e-02   6.5207965e+00   1.2721853e-02  -4.3503291e+08
   6.5355118e-11  -7.9892931e-02   6.5221478e+00   1.3014716e-02  -4.3412262e+08
   6.6022007e-11  -7.9603719e-02   6.5235095e+00   1.3313712e-02  -4.3321238e+08
   6.6688896e-11  -7.9315115e-02   6.5248815e+00   1.3618954e-02  -4.3230218e+08
   6.7355785e-11  -7.9027118e-02   6.5262638e+00   1.3930559e-02  -4.3139202e+08
   6.8022674e-11  -7.8739727e-02   6.5276565e+00   1.4248642e-02  -4.3048191e+08
   6.8689563e-11  -7.8452944e-02   6.5290595e+00   1.4573322e-02  -4.2957183e+08
   6.9356452e-11  -7.8166767e-02   6.5304729e+00   1.4904720e-02  -4.2866180e+08
   7.0023341e-11  -7.7881197e-02   6.5318967e+00   1.5242957e-02  -4.2775180e+08
   7.0690230e-11  -7.7596235e-02   6.5333309e+00   1.5588158e-02  -4.2684185e+08
   7.1357119e-11  -7.7311879e-02   6.5347754e+00   1.5940449e-02  -4.2593193e+08
   7.2024008e-11  -7.7028129e-02   6.5362304e+00   1.6299956e-02  -4.2502205e+08
   7.2690897e-11  -7.6744987e-02   6.5376957e+00   1.6666811e-02  -4.2411222e+08
   7.3357786e-11  -7.6462451e-02   6.5391715e+00   1.7041143e-02  -4.2320242e+08
   7.4024675e-11  -7.6180522e-02   6.5406576e+00   1.7423087e-02  -4.2229266e+08
   7.4691564e-11  -7.5899200e-02   6.5421542e+00   1.7812778e-02  -4.2138294e+08
   7.5358453e-11  -7.5618485e-02   6.5436611e+00   1.8210354e-02  -4.2047325e+08
   7.6025342e-11  -7.5338376e-02   6.5451784e+00   1.8615953e-02  -4.1956360e+08
   7.6692231e-11  -7.5058873e-02   6.5467061e+00   1.9029716e-02  -4.1865399e+08
   7.7359120e-11  -7.4779978e-02   6.5482442e+00   1.9451788e-02  -4.1774441e+08
   7.8026009e-11  -7.4501689e-02   6.5497926e+00   1.9882312e-02  -4.1683488e+08
   7.8692898e-11  -7.4224006e-02   6.5513514e+00   2.0321438e-02  -4.1592537e+08
   7.9359787e-11  -7.3946930e-02   6.5529205e+00   2.0769313e-02  -4.1501590e+08
   8.0026676e-11  -7.3670461e-02   6.5545000e+00   2.1226090e-02  -4.1410647e+08
   8.0693565e-11  -7.3394597e-02   6.5560897e+00   2.1691921e-02  -4.1319707e+08
   8.1360453e-11  -7.3119341e-02   6.5576897e+00   2.2166963e-02  -4.1228771e+08
   8.2027342e-11  -7.2844691e-02   6.5593000e+00   2.2651374e-02  -4.1137838e+08
   8.2694231e-11  -7.2570647e-02   6.5609206e+00   2.3145313e-02  -4.1046908e+08
   8.3361120e-11  -7.2297210e-02   6.5625513e+00   2.3648942e-02  -4.0955982e+08
   8.4028009e-11  -7.2024379e-02   6.5641923e+00   2.4162425e-02  -4.0865059e+08
   8.4694898e-11  -7.1752154e-02   6.5658434e+00   2.4685930e-02  -4.0774139e+08
   8.5361787e-11  -7.1480536e-02   6.5675047e+00   2.5219624e-02  -4.0683223e+08
   8.6028676e-11  -7.1209524e-02   6.5691760e+00   2.5763679e-02  -4.0592310e+08
   8.6695565e-11  -7.0939118e-02   6.5708575e+00   2.6318268e-02  -4.0501400e+08
   8.7362454e-11  -7.0669319e-02   6.5725490e+00   2.6883566e-02  -4.0410493e+08
   8.8029343e-11  -7.0400126e-02   6.5742505e+00   2.7459750e-02  -4.0319589e+08
   8.8696232e-11  -7.0131539e-02   6.5759619e+00   2.8047001e-02  -4.0228689e+08
   8.9363121e-11  -6.9863558e-02   6.5776833e+00   2.8645501e-02  -4.0137791e+08
   9.0030010e-11  -6.9596184e-02   6.5794145e+00   2.9255435e-02  -4.0046896e+08
   9.0696899e-11  -6.9329415e-02   6.5811556e+00   2.9876988e-02  -3.9956005e+08
   9.1363788e-11  -6.9063253e-02   6.5829065e+00   3.0510351e-02  -3.9865117e+08
   9.2030677e-11  -6.8797697e-02   6.5846670e+00   3.1155715e-02  -3.9774231e+08
   9.2697566e-11  -6.8532747e-02   6.5864373e+00   3.1813274e-02  -3.9683348e+08
   9.3364455e-11  -6.8268403e-02   6.5882172e+00   3.2483224e-02  -3.9592469e+08
   9.4031344e-11  -6.8004665e-02   6.5900067e+00   3.3165765e-02  -3.9501592e+08
   9.4698233e-11  -6.7741534e-02   6.5918057e+00   3.3861096e-02  -3.9410718e+08
   9.5365122e-11  -6.7479008e-02   6.5936141e+00   3.4569422e-02  -3.9319847e+08
   9.6032011e-11  -6.7217088e-02   6.5954319e+00   3.5290948e-02  -3.9228979e+08
   9.6698900e-11  -6.6955774e-02   6.5972590e+00   3.6025883e-02  -3.9138114e+08
   9.7365789e-11  -6.6695067e-02   6.5990954e+00   3.6774438e-02  -3.9047251e+08
   9.8032678e-11  -6.6434965e-02   6.6009410e+00   3.7536826e-02  -3.8956392e+08
   9.8699567e-11  -6.6175469e-02   6.6027957e+00   3.8313262e-02  -3.8865535e+08
   9.9366455e-11  -6.5916579e-02   6.6046594e+00   3.9103965e-02  -3.8774681e+08
   1.0003334e-10  -6.5658295e-02   6.6065320e+00   3.9909157e-02  -3.8683829e+08
   1.0070023e-10  -6.5400616e-02   6.6084136e+00   4.0729059e-02  -3.8592981e+08
   1.0136712e-10  -6.5143544e-02   6.6103039e+00   4.1563897e-02  -3.8502135e+08
   1.0203401e-10  -6.4887078e-02   6.6122029e+00   4.2413900e-02  -3.8411292e+08
   1.0270090e-10  -6.4631217e-02   6.6141105e+00   4.3279299e-02  -3.8320451e+08
   1.0336779e-10  -6.4375962e-02   6.6160267e+00   4.4160326e-02  -3.8229614e+08
   1.0403468e-10  -6.4121313e-02   6.6179513e+00   4.5057218e-02  -3.8138779e+08
   1.0470157e-10  -6.3867270e-02   6.6198842e+00   4.5970213e-02  -3.8047946e+08
   1.0536846e-10  -6.3613832e-02   6.6218254e+00   4.6899551e-02  -3.7957117e+08
   1.0603535e-10  -6.3361000e-02   6.6237746e+00   4.7845476e-02  -3.7866290e+08
   1.0670223e-10  -6.3108774e-02   6.6257320e+00   4.8808235e-02  -3.7775466e+08
   1.0736912e-10  -6.2857154e-02   6.6276972e+00   4.9788074e-02  -3.7684644e+08
   1.0803601e-10  -6.2606139e-02   6.6296702e+00   5.0785245e-02  -3.7593826e+08
   1.0870290e-10  -6.2355730e-02   6.6316509e+00   5.1800003e-02  -3.7503010e+08
   1.0936979e-10  -6.2105926e-02   6.6336393e+00   5.2832602e-02  -3.7412197e+08
   1.1003668e-10  -6.1856729e-02   6.6356350e+00   5.3883302e-02  -3.7321386e+08
   1.1070357e-10  -6.1608136e-02   6.6376381e+00   5.4952364e-02  -3.7230579e+08
   1.1137046e-10  -6.1360150e-02   6.6396484e+00   5.6040051e-02  -3.7139774e+08
   1.1203735e-10  -6.1112769e-02   6.6416658e+00   5.7146629e-02  -3.7048972e+08
   1.1270423e-10  -6.0865993e-02   6.6436902e+00   5.8272368e-02  -3.6958173e+08
   1.1337112e-10  -6.0619823e-02   6.6457214e+00   5.9417539e-02  -3.6867376e+08
   1.1403801e-10  -6.0374259e-02   6.6477592e+00   6.0582415e-02  -3.6776583e+08
   1.1470490e-10  -6.0129300e-02   6.6498036e+00   6.1767274e-02  -3.6685792e+08
   1.1537179e-10  -5.9884946e-02   6.6518544e+00   6.2972393e-02  -3.6595005e+08
   1.1603868e-10  -5.9641198e-02   6.6539115e+00   6.4198054e-02  -3.6504220e+08
   1.1670557e-10  -5.9398056e-02   6.6559746e+00   6.5444542e-02  -3.6413439e+08
   1.1737246e-10  -5.9155518e-02   6.6580437e+00   6.6712141e-02  -3.6322660e+08
   1.1803935e-10  -5.8913587e-02   6.6601186e+00   6.8001143e-02  -3.6231885e+08
   1.1870624e-10  -5.8672260e-02   6.6621991e+00   6.9311836e-02  -3.6141112e+08
   1.1937312e-10  -5.8431539e-02   6.6642852e+00   7.0644517e-02  -3.6050343e+08
   1.2004001e-10  -5.8191423e-02   6.6663765e+00   7.1999480e-02  -3.5959577e+08
   1.2070690e-10  -5.7951913e-02   6.6684730e+00   7.3377024e-02  -3.5868815e+08
   1.2137379e-10  -5.7713008e-02   6.6705744e+00   7.4777450e-02  -3.5778055e+08
   1.2204068e-10  -5.7474708e-02   6.6726806e+00   7.6201062e-02  -3.5687299e+08
   1.2270757e-10  -5.7237013e-02   6.6747915e+00   7.7648166e-02  -3.5596547e+08
   1.2337446e-10  -5.6999924e-02   6.6769068e+00   7.9119070e-02  -3.5505798e+08
   1.2404135e-10  -5.6763440e-02   6.6790263e+00   8.0614084e-02  -3.5415052e+08
   1.2470824e-10  -5.6527561e-02   6.6811499e+00   8.2133521e-02  -3.5324311e+08
   1.2537513e-10  -5.6292287e-02   6.6832774e+00   8.3677697e-02  -3.5233572e+08
   1.2604201e-10  -5.6057618e-02   6.6854085e+00   8.5246928e-02  -3.5142838e+08
   1.2670890e-10  -5.5823554e-02   6.6875432e+00   8.6841535e-02  -3.5052108e+08
   1.2737579e-10  -5.5590096e-02   6.6896811e+00   8.8461840e-02  -3.4961381e+08
   1.2804268e-10  -5.5357242e-02   6.6918221e+00   9.0108166e-02  -3.4870659e+08
   1.2870957e-10  -5.5124994e-02   6.6939660e+00   9.1780840e-02  -3.4779941e+08
   1.2937646e-10  -5.4893350e-02   6.6961125e+00   9.3480190e-02  -3.4689227e+08
   1.3004335e-10  -5.4662312e-02   6.6982614e+00   9.5206547e-02  -3.4598517e+08
   1.3071024e-10  -5.4431878e-02   6.7004126e+00   9.6960244e-02  -3.4507811e+08
   1.3137713e-10  -5.4202049e-02   6.7025658e+00   9.8741615e-02  -3.4417111e+08
   1.3204401e-10  -5.3972825e-02   6.7047207e+00   1.0055100e-01  -3.4326415e+08
   1.3271090e-10  -5.3744206e-02   6.7068772e+00   1.0238873e-01  -3.4235723e+08
   1.3337779e-10  -5.3516192e-02   6.7090351e+00   1.0425515e-01  -3.4145037e+08
   1.3404468e-10  -5.3288783e-02   6.7111940e+00   1.0615061e-01  -3.4054355e+08
   1.3471157e-10  -5.3061978e-02   6.7133537e+00   1.0807544e-01  -3.3963679e+08
   1.3537846e-10  -5.2835778e-02   6.7155141e+00   1.1003000e-01  -3.3873007e+08
   1.3604535e-10  -5.2610183e-02   6.7176748e+00   1.1201463e-01  -3.3782341e+08
   1.3671224e-10  -5.2385192e-02   6.7198356e+00   1.1402968e-01  -3.3691681e+08
   1.3737913e-10  -5.2160806e-02   6.7219962e+00   1.1607550e-01  -3.3601027e+08
   1.3804602e-10  -5.1937024e-02   6.7241565e+00   1.1815245e-01  -3.3510378e+08
   1.3871290e-10  -5.1713847e-02   6.7263161e+00   1.2026089e-01  -3.3419735e+08
   1.3937979e-10  -5.1491275e-02   6.7284748e+00   1.2240116e-01  -3.3329098e+08
   1.4004668e-10  -5.1269307e-02   6.7306323e+00   1.2457362e-01  -3.3238467e+08
   1.4071357e-10  -5.1047943e-02   6.7327883e+00   1.2677865e-01  -3.3147843e+08
   1.4138046e-10  -5.0827184e-02   6.7349426e+00   1.2901658e-01  -3.3057226e+08
   1.4204735e-10  -5.0607029e-02   6.7370949e+00   1.3128780e-01  -3.2966615e+08
   1.4271424e-10  -5.0387478e-02   6.7392450e+00   1.3359266e-01  -3.2876012e+08
   1.4338113e-10  -5.0168531e-02   6.7413924e+00   1.3593153e-01  -3.2785415e+08
   1.4404802e-10  -4.9950189e-02   6.7435370e+00   1.3830476e-01  -3.2694826e+08
   1.4471490e-10  -4.9732451e-02   6.7456785e+00   1.4071274e-01  -3.2604244e+08
   1.4538179e-10  -4.9515317e-02   6.7478165e+00   1.4315583e-01  -3.2513671e+08
   1.4604868e-10  -4.9298786e-02   6.7499508e+00   1.4563439e-01  -3.2423105e+08
   1.4671557e-10  -4.9082860e-02   6.7520811e+00   1.4814880e-01  -3.2332547e+08
   1.4738246e-10  -4.8867538e-02   6.7542070e+00   1.5069943e-01  -3.2241998e+08
   1.4804935e-10  -4.8652819e-02   6.7563283e+00   1.5328665e-01  -3.2151457e+08
   1.4871624e-10  -4.8438705e-02   6.7584447e+00   1.5591083e-01  -3.2060925e+08
   1.4938313e-10  -4.8225194e-02   6.7605558e+00   1.5857235e-01  -3.1970403e+08
   1.5005002e-10  -4.8012286e-02   6.7626613e+00   1.6127157e-01  -3.1879889e+08
   1.5071691e-10  -4.7799983e-02   6.7647610e+00   1.6400889e-01  -3.1789386e+08
   1.5138379e-10  -4.7588283e-02   6.7668544e+00   1.6678466e-01  -3.1698892e+08
   1.5205068e-10  -4.7377186e-02   6.7689413e+00   1.6959926e-01  -3.1608408e+08
   1.5271757e-10  -4.7166693e-02   6.7710214e+00   1.7245307e-01  -3.1517934e+08
   1.5338446e-10  -4.6956803e-02   6.7730942e+00   1.7534647e-01  -3.1427472e+08
   1.5405135e-10  -4.6747516e-02   6.7751596e+00   1.7827983e-01  -3.1337020e+08
   1.5471824e-10  -4.6538833e-02   6.7772170e+00   1.8125353e-01  -3.1246579e+08
   1.5538513e-10  -4.6330753e-02   6.7792663e+00   1.8426794e-01  -3.1156150e+08
   1.5605202e-10  -4.6123275e-02   6.7813071e+00   1.8732344e-01  -3.1065733e+08
   1.5671891e-10  -4.5916401e-02   6.7833390e+00   1.9042041e-01  -3.0975328e+08
   1.5738580e-10  -4.5710129e-02   6.7853616e+00   1.9355921e-01  -3.0884935e+08
   1.5805268e-10  -4.5504461e-02   6.7873747e+00   1.9674023e-01  -3.0794555e+08
   1.5871957e-10  -4.5299395e-02   6.7893778e+00   1.9996384e-01  -3.0704189e+08
   1.5938646e-10  -4.5094931e-02   6.7913706e+00   2.0323041e-01  -3.0613835e+08
   1.6005335e-10  -4.4891071e-02   6.7933529e+00   2.0654032e-01  -3.0523496e+08
   1.6072024e-10  -4.4687812e-02   6.7953241e+00   2.0989394e-01  -3.0433170e+08
   1.6138713e-10  -4.4485156e-02   6.7972839e+00   2.1329164e-01  -3.0342859e+08
   1.6205402e-10  -4.4283102e-02   6.7992320e+00   2.1673379e-01  -3.0252563e+08
   1.6272091e-10  -4.4081651e-02   6.8011680e+00   2.2022077e-01  -3.0162282e+08
   1.6338780e-10  -4.3880801e-02   6.8030916e+00   2.2375293e-01  -3.0072017e+08
   1.6405468e-10  -4.3680553e-02   6.8050023e+00   2.2733065e-01  -2.9981768e+08
   1.6472157e-10  -4.3480907e-02   6.8068998e+00   2.3095430e-01  -2.9891535e+08
   1.6538846e-10  -4.3281863e-02   6.8087837e+00   2.3462423e-01  -2.9801319e+08
   1.6605535e-10  -4.3083421e-02   6.8106537e+00   2.3834082e-01  -2.9711120e+08
   1.6672224e-10  -4.2885580e-02   6.8125093e+00   2.4210442e-01  -2.9620939e+08
   1.6738913e-10  -4.2688340e-02   6.8143502e+00   2.4591539e-01  -2.9530776e+08
   1.6805602e-10  -4.2491701e-02   6.8161760e+00   2.4977409e-01  -2.9440632e+08
   1.6872291e-10  -4.2295664e-02   6.8179863e+00   2.5368088e-01  -2.9350506e+08
   1.6938980e-10  -4.2100228e-02   6.8197807e+00   2.5763611e-01  -2.9260400e+08
   1.7005669e-10  -4.1905392e-02   6.8215588e+00   2.6164013e-01  -2.9170314e+08
   1.7072357e-10  -4.1711157e-02   6.8233203e+00   2.6569329e-01  -2.9080248e+08
   1.7139046e-10  -4.1517523e-02   6.8250647e+00   2.6979594e-01  -2.8990203e+08
   1.7205735e-10  -4.1324489e-02   6.8267917e+00   2.7394842e-01  -2.8900179e+08
   1.7272424e-10  -4.1132056e-02   6.8285009e+00   2.7815108e-01  -2.8810177e+08
   1.7339113e-10  -4.0940222e-02   6.8301918e+00   2.8240425e-01  -2.8720197e+08
   1.7405802e-10  -4.0748989e-02   6.8318640e+00   2.8670826e-01  -2.8630240e+08
   1.7472491e-10  -4.0558356e-02   6.8335173e+00   2.9106346e-01  -2.8540307e+08
   1.7539180e-10  -4.0368322e-02   6.8351511e+00   2.9547017e-01  -2.8450397e+08
   1.7605869e-10  -4.0178887e-02   6.8367651e+00   2.9992872e-01  -2.8360512e+08
   1.7672558e-10  -3.9990053e-02   6.8383588e+00   3.0443942e-01  -2.8270652e+08
   1.7739246e-10  -3.9801817e-02   6.8399319e+00   3.0900261e-01  -2.8180817e+08
   1.7805935e-10  -3.9614180e-02   6.8414840e+00   3.1361860e-01  -2.8091009e+08
   1.7872624e-10  -3.9427142e-02   6.8430147e+00   3.1828769e-01  -2.8001227e+08
   1.7939313e-10  -3.9240703e-02   6.8445235e+00   3.2301021e-01  -2.7911472e+08
   1.8006002e-10  -3.9054863e-02   6.8460101e+00   3.2778644e-01  -2.7821746e+08
   1.8072691e-10  -3.8869620e-02   6.8474740e+00   3.3261670e-01  -2.7732047e+08
   1.8139380e-10  -3.8684976e-02   6.8489149e+00   3.3750128e-01  -2.7642378e+08
   1.8206069e-10  -3.8500930e-02   6.8503323e+00   3.4244047e-01  -2.7552739e+08
   1.8272758e-10  -3.8317481e-02   6.8517258e+00   3.4743455e-01  -2.7463130e+08
   1.8339446e-10  -3.8134630e-02   6.8530951e+00   3.5248382e-01  -2.7373552e+08
   1.8406135e-10  -3.7952376e-02   6.8544398e+00   3.5758855e-01  -2.7284006e+08
   1.8472824e-10  -3.7770719e-02   6.8557593e+00   3.6274901e-01  -2.7194492e+08
   1.8539513e-10  -3.7589659e-02   6.8570534e+00   3.6796547e-01  -2.7105011e+08
   1.8606202e-10  -3.7409196e-02   6.8583216e+00   3.7323819e-01  -2.7015563e+08
   1.8672891e-10  -3.7229329e-02   6.8595636e+00   3.7856744e-01  -2.6926150e+08
   1.8739580e-10  -3.7050058e-02   6.8607788e+00   3.8395346e-01  -2.6836772e+08
   1.8806269e-10  -3.6871384e-02   6.8619670e+00   3.8939650e-01  -2.6747430e+08
   1.8872958e-10  -3.6693305e-02   6.8631277e+00   3.9489681e-01  -2.6658125e+08
   1.8939647e-10  -3.6515821e-02   6.8642605e+00   4.0045462e-01  -2.6568857e+08
   1.9006335e-10  -3.6338933e-02   6.8653651e+00   4.0607015e-01  -2.6479627e+08
   1.9073024e-10  -3.6162639e-02   6.8664409e+00   4.1174364e-01  -2.6390435e+08
   1.9139713e-10  -3.5986941e-02   6.8674878e+00   4.1747530e-01  -2.6301283e+08
   1.9206402e-10  -3.5811836e-02   6.8685051e+00   4.2326535e-01  -2.6212172e+08
   1.9273091e-10  -3.5637326e-02   6.8694926e+00   4.2911398e-01  -2.6123101e+08
   1.9339780e-10  -3.5463410e-02   6.8704499e+00   4.3502140e-01  -2.6034073e+08
   1.9406469e-10  -3.5290087e-02   6.8713766e+00   4.4098781e-01  -2.5945087e+08
   1.9473158e-10  -3.5117358e-02   6.8722722e+00   4.4701338e-01  -2.5856144e+08
   1.9539847e-10  -3.4945221e-02   6.8731364e+00   4.5309829e-01  -2.5767246e+08
   1.9606536e-10  -3.4773678e-02   6.8739689e+00   4.5924273e-01  -2.5678393e+08
   1.9673224e-10  -3.4602726e-02   6.8747692e+00   4.6544684e-01  -2.5589586e+08
   1.9739913e-10  -3.4432367e-02   6.8755370e+00   4.7171080e-01  -2.5500827e+08
   1.9806602e-10  -3.4262600e-02   6.8762719e+00   4.7803476e-01  -2.5412114e+08
   1.9873291e-10  -3.4093424e-02   6.8769735e+00   4.8441885e-01  -2.5323451e+08
   1.9939980e-10  -3.3924839e-02   6.8776415e+00   4.9086321e-01  -2.5234837e+08
   2.0006669e-10  -3.3756845e-02   6.8782755e+00   4.9736797e-01  -2.5146273e+08
   2.0073358e-10  -3.3589442e-02   6.8788751e+00   5.0393325e-01  -2.5057761e+08
   2.0140047e-10  -3.3422628e-02   6.8794399e+00   5.1055917e-01  -2.4969301e+08
   2.0206736e-10  -3.3256405e-02   6.8799697e+00   5.1724583e-01  -2.4880894e+08
   2.0273424e-10  -3.3090771e-02   6.8804640e+00   5.2399333e-01  -2.4792541e+08
   2.0340113e-10  -3.2925725e-02   6.8809226e+00   5.3080175e-01  -2.4704243e+08
   2.0406802e-10  -3.2761269e-02   6.8813450e+00   5.3767119e-01  -2.4616002e+08
   2.0473491e-10  -3.2597401e-02   6.8817309e+00   5.4460170e-01  -2.4527817e+08
   2.0540180e-10  -3.2434120e-02   6.8820800e+00   5.5159336e-01  -2.4439690e+08
   2.0606869e-10  -3.2271428e-02   6.8823920e+00   5.5864622e-01  -2.4351623e+08
   2.0673558e-10  -3.2109322e-02   6.8826665e+00   5.6576033e-01  -2.4263615e+08
   2.0740247e-10  -3.1947803e-02   6.8829032e+00   5.7293573e-01  -2.4175668e+08
   2.0806936e-10  -3.1786870e-02   6.8831018e+00   5.8017245e-01  -2.4087783e+08
   2.0873625e-10  -3.1626524e-02   6.8832619e+00   5.8747051e-01  -2.3999962e+08
   2.0940313e-10  -3.1466763e-02   6.8833833e+00   5.9482993e-01  -2.3912204e+08
   2.1007002e-10  -3.1307586e-02   6.8834656e+00   6.0225070e-01  -2.3824511e+08
   2.1073691e-10  -3.1148995e-02   6.8835085e+00   6.0973282e-01  -2.3736885e+08
   2.1140380e-10  -3.0990987e-02   6.8835118e+00   6.1727628e-01  -2.3649326e+08
   2.1207069e-10  -3.0833564e-02   6.8834751e+00   6.2488106e-01  -2.3561835e+08
   2.1273758e-10  -3.0676723e-02   6.8833982e+00   6.3254712e-01  -2.3474414e+08
   2.1340447e-10  -3.0520465e-02   6.8832807e+00   6.4027442e-01  -2.3387063e+08
   2.1407136e-10  -3.0364790e-02   6.8831225e+00   6.4806291e-01  -2.3299783e+08
   2.1473825e-10  -3.0209696e-02   6.8829232e+00   6.5591253e-01  -2.3212577e+08
   2.1540514e-10  -3.0055184e-02   6.8826825e+00   6.6382321e-01  -2.3125444e+08
   2.1607202e-10  -2.9901253e-02   6.8824002e+00   6.7179487e-01  -2.3038386e+08
   2.1673891e-10  -2.9747902e-02   6.8820761e+00   6.7982743e-01  -2.2951405e+08
   2.1740580e-10  -2.9595130e-02   6.8817098e+00   6.8792077e-01  -2.2864500e+08
   2.1807269e-10  -2.9442938e-02   6.8813012e+00   6.9607481e-01  -2.2777674e+08
   2.1873958e-10  -2.9291325e-02   6.8808501e+00   7.0428941e-01  -2.2690928e+08
   2.1940647e-10  -2.9140290e-02   6.8803561e+00   7.1256445e-01  -2.2604262e+08
   2.2007336e-10  -2.8989833e-02   6.8798190e+00   7.2089980e-01  -2.2517679e+08
   2.2074025e-10  -2.8839953e-02   6.8792387e+00   7.2929531e-01  -2.2431178e+08
   2.2140714e-10  -2.8690650e-02   6.8786149e+00   7.3775082e-01  -2.2344762e+08
   2.2207402e-10  -2.8541922e-02   6.8779474e+00   7.4626617e-01  -2.2258432e+08
   2.2274091e-10  -2.8393770e-02   6.8772360e+00   7.5484118e-01  -2.2172188e+08
   2.2340780e-10  -2.8246193e-02   6.8764806e+00   7.6347566e-01  -2.2086032e+08
   2.2407469e-10  -2.8099190e-02   6.8756809e+00   7.7216943e-01  -2.1999966e+08
   2.2474158e-10  -2.7952761e-02   6.8748368e+00   7.8092227e-01  -2.1913989e+08
   2.2540847e-10  -2.7806905e-02   6.8739480e+00   7.8973397e-01  -2.1828105e+08
   2.2607536e-10  -2.7661621e-02   6.8730145e+00   7.9860431e-01  -2.1742314e+08
   2.2674225e-10  -2.7516909e-02   6.8720360e+00   8.0753305e-01  -2.1656616e+08
   2.2740914e-10  -2.7372769e-02   6.8710124e+00   8.1651995e-01  -2.1571015e+08
   2.2807603e-10  -2.7229199e-02   6.8699436e+00   8.2556476e-01  -2.1485510e+08
   2.2874291e-10  -2.7086198e-02   6.8688294e+00   8.3466721e-01  -2.1400103e+08
   2.2940980e-10  -2.6943767e-02   6.8676697e+00   8.4382703e-01  -2.1314795e+08
   2.3007669e-10  -2.6801905e-02   6.8664644e+00   8.5304393e-01  -2.1229588e+08
   2.3074358e-10  -2.6660611e-02   6.8652134e+00   8.6231763e-01  -2.1144483e+08
   2.3141047e-10  -2.6519883e-02   6.8639165e+00   8.7164782e-01  -2.1059481e+08
   2.3207736e-10  -2.6379723e-02   6.8625737e+00   8.8103418e-01  -2.0974584e+08
   2.3274425e-10  -2.6240128e-02   6.8611848e+00   8.9047641e-01  -2.0889792e+08
   2.3341114e-10  -2.6101098e-02   6.8597498e+00   8.9997417e-01  -2.0805108e+08
   2.3407803e-10  -2.5962633e-02   6.8582686e+00   9.0952712e-01  -2.0720532e+08
   2.3474491e-10  -2.5824731e-02   6.8567411e+00   9.1913490e-01  -2.0636066e+08
   2.3541180e-10  -2.5687392e-02   6.8551673e+00   9.2879717e-01  -2.0551711e+08
   2.3607869e-10  -2.5550616e-02   6.8535471e+00   9.3851355e-01  -2.0467469e+08
   2.3674558e-10  -2.5414400e-02   6.8518804e+00   9.4828366e-01  -2.0383340e+08
   2.3741247e-10  -2.5278746e-02   6.8501673e+00   9.5810712e-01  -2.0299326e+08
   2.3807936e-10  -2.5143651e-02   6.8484076e+00   9.6798354e-01  -2.0215429e+08
   2.3874625e-10  -2.5009116e-02   6.8466015e+00   9.7791251e-01  -2.0131650e+08
   2.3941314e-10  -2.4875139e-02   6.8447487e+00   9.8789362e-01  -2.0047990e+08
   2.4008003e-10  -2.4741719e-02   6.8428495e+00   9.9792644e-01  -1.9964450e+08
   2.4074692e-10  -2.4608856e-02   6.8409036e+00   1.0080105e+00  -1.9881033e+08
   2.4141380e-10  -2.4476549e-02   6.8389113e+00   1.0181455e+00  -1.9797738e+08
   2.4208069e-10  -2.4344797e-02   6.8368724e+00   1.0283308e+00  -1.9714569e+08
   2.4274758e-10  -2.4213600e-02   6.8347869e+00   1.0385661e+00  -1.9631525e+08
   2.4341447e-10  -2.4082955e-02   6.8326551e+00   1.0488509e+00  -1.9548609e+08
   2.4408136e-10  -2.3952864e-02   6.8304767e+00   1.0591847e+00  -1.9465821e+08
   2.4474825e-10  -2.3823323e-02   6.8282520e+00   1.0695669e+00  -1.9383164e+08
   2.4541514e-10  -2.3694334e-02   6.8259810e+00   1.0799973e+00  -1.9300638e+08
   2.4608203e-10  -2.3565895e-02   6.8236636e+00   1.0904751e+00  -1.9218245e+08
   2.4674892e-10  -2.3438005e-02   6.8213001e+00   1.1010000e+00  -1.9135986e+08
   2.4741581e-10  -2.3310662e-02   6.8188905e+00   1.1115714e+00  -1.9053862e+08
   2.4808269e-10  -2.3183867e-02   6.8164348e+00   1.1221888e+00  -1.8971876e+08
   2.4874958e-10  -2.3057619e-02   6.8139332e+00   1.1328517e+00  -1.8890028e+08
   2.4941647e-10  -2.2931915e-02   6.8113857e+00   1.1435595e+00  -1.8808320e+08
   2.5008336e-10  -2.2806756e-02   6.8087925e+00   1.1543117e+00  -1.8726752e+08
   2.5075025e-10  -2.2682141e-02   6.8061537e+00   1.1651077e+00  -1.8645328e+08
   2.5141714e-10  -2.2558068e-02   6.8034694e+00   1.1759470e+00  -1.8564047e+08
   2.5208403e-10  -2.2434537e-02   6.8007398e+00   1.1868291e+00  -1.8482911e+08
   2.5275092e-10  -2.2311546e-02   6.7979649e+00   1.1977533e+00  -1.8401922e+08
   2.5341781e-10  -2.2189095e-02   6.7951450e+00   1.2087191e+00  -1.8321080e+08
   2.5408469e-10  -2.2067183e-02   6.7922802e+00   1.2197259e+00  -1.8240388e+08
   2.5475158e-10  -2.1945808e-02   6.7893706e+00   1.2307730e+00  -1.8159847e+08
   2.5541847e-10  -2.1824970e-02   6.7864165e+00   1.2418600e+00  -1.8079457e+08
   2.5608536e-10  -2.1704667e-02   6.7834179e+00   1.2529863e+00  -1.7999221e+08
   2.5675225e-10  -2.1584899e-02   6.7803752e+00   1.2641511e+00  -1.7919140e+08
   2.5741914e-10  -2.1465665e-02   6.7772884e+00   1.2753539e+00  -1.7839215e+08
   2.5808603e-10  -2.1346963e-02   6.7741578e+00   1.2865941e+00  -1.7759447e+08
   2.5875292e-10  -2.1228793e-02   6.7709835e+00   1.2978710e+00  -1.7679837e+08
   2.5941981e-10  -2.1111152e-02   6.7677659e+00   1.3091841e+00  -1.7600388e+08
   2.6008670e-10  -2.0994042e-02   6.7645051e+00   1.3205326e+00  -1.7521100e+08
   2.6075358e-10  -2.0877459e-02   6.7612013e+00   1.3319160e+00  -1.7441975e+08
   2.6142047e-10  -2.0761404e-02   6.7578548e+00   1.3433336e+00  -1.7363014e+08
   2.6208736e-10  -2.0645874e-02   6.7544658e+00   1.3547848e+00  -1.7284219e+08
   2.6275425e-10  -2.0530870e-02   6.7510346e+00   1.3662689e+00  -1.7205589e+08
   2.6342114e-10  -2.0416389e-02   6.7475614e+00   1.3777853e+00  -1.7127128e+08
   2.6408803e-10  -2.0302431e-02   6.7440464e+00   1.3893332e+00  -1.7048836e+08
   2.6475492e-10  -2.0188995e-02   6.7404901e+00   1.4009121e+00  -1.6970715e+08
   2.6542181e-10  -2.0076078e-02   6.7368925e+00   1.4125212e+00  -1.6892765e+08
   2.6608870e-10  -1.9963682e-02   6.7332540e+00   1.4241600e+00  -1.6814989e+08
   2.6675559e-10  -1.9851803e-02   6.7295749e+00   1.4358277e+00  -1.6737387e+08
   2.6742247e-10  -1.9740441e-02   6.7258555e+00   1.4475236e+00  -1.6659960e+08
   2.6808936e-10  -1.9629595e-02   6.7220960e+00   1.4592471e+00  -1.6582711e+08
   2.6875625e-10  -1.9519264e-02   6.7182968e+00   1.4709975e+00  -1.6505639e+08
   2.6942314e-10  -1.9409446e-02   6.7144582e+00   1.4827740e+00  -1.6428747e+08
   2.7009003e-10  -1.9300140e-02   6.7105804e+00   1.4945761e+00  -1.6352036e+08
   2.7075692e-10  -1.9191345e-02   6.7066639e+00   1.5064030e+00  -1.6275506e+08
   2.7142381e-10  -1.9083060e-02   6.7027089e+00   1.5182541e+00  -1.6199159e+08
   2.7209070e-10  -1.8975284e-02   6.6987158e+00   1.5301286e+00  -1.6122997e+08
   2.7275759e-10  -1.8868015e-02   6.6946848e+00   1.5420258e+00  -1.6047020e+08
   2.7342447e-10  -1.8761251e-02   6.6906164e+00   1.5539451e+00  -1.5971230e+08
   2.7409136e-10  -1.8654993e-02   6.6865109e+00   1.5658857e+00  -1.5895627e+08
   2.7475825e-10  -1.8549238e-02   6.6823686e+00   1.5778469e+00  -1.5820213e+08
   2.7542514e-10  -1.8443986e-02   6.6781899e+00   1.5898282e+00  -1.5744990e+08
   2.7609203e-10  -1.8339234e-02   6.6739752e+00   1.6018286e+00  -1.5669958e+08
   2.7675892e-10  -1.8234983e-02   6.6697247e+00   1.6138476e+00  -1.5595118e+08
   2.7742581e-10  -1.8131229e-02   6.6654390e+00   1.6258844e+00  -1.5520471e+08
   2.7809270e-10  -1.8027973e-02   6.6611183e+00   1.6379384e+00  -1.5446020e+08
   2.7875959e-10  -1.7925213e-02   6.6567630e+00   1.6500088e+00  -1.5371764e+08
   2.7942648e-10  -1.7822947e-02   6.6523735e+00   1.6620950e+00  -1.5297705e+08
   2.8009336e-10  -1.7721175e-02   6.6479502e+00   1.6741961e+00  -1.5223843e+08
   2.8076025e-10  -1.7619894e-02   6.6434935e+00   1.6863116e+00  -1.5150181e+08
   2.8142714e-10  -1.7519104e-02   6.6390037e+00   1.6984407e+00  -1.5076719e+08
   2.8209403e-10  -1.7418804e-02   6.6344814e+00   1.7105828e+00  -1.5003458e+08
   2.8276092e-10  -1.7318991e-02   6.6299267e+00   1.7227370e+00  -1.4930399e+08
   2.8342781e-10  -1.7219665e-02   6.6253403e+00   1.7349028e+00  -1.4857543e+08
   2.8409470e-10  -1.7120824e-02   6.6207224e+00   1.7470794e+00  -1.4784891e+08
   2.8476159e-10  -1.7022466e-02   6.6160735e+00   1.7592661e+00  -1.4712444e+08
   2.8542848e-10  -1.6924592e-02   6.6113940e+00   1.7714622e+00  -1.4640204e+08
   2.8609537e-10  -1.6827198e-02   6.6066843e+00   1.7836671e+00  -1.4568170e+08
   2.8676225e-10  -1.6730284e-02   6.6019448e+00   1.7958800e+00  -1.4496345e+08
   2.8742914e-10  -1.6633848e-02   6.5971759e+00   1.8081003e+00  -1.4424729e+08
   2.8809603e-10  -1.6537889e-02   6.5923781e+00   1.8203272e+00  -1.4353322e+08
   2.8876292e-10  -1.6442406e-02   6.5875518e+00   1.8325600e+00  -1.4282127e+08
   2.8942981e-10  -1.6347397e-02   6.5826974e+00   1.8447982e+00  -1.4211143e+08
   2.9009670e-10  -1.6252860e-02   6.5778153e+00   1.8570410e+00  -1.4140372e+08
   2.9076359e-10  -1.6158795e-02   6.5729060e+00   1.8692877e+00  -1.4069814e+08
   2.9143048e-10  -1.6065199e-02   6.5679699e+00   1.8815376e+00  -1.3999471e+08
   2.9209737e-10  -1.5972072e-02   6.5630075e+00   1.8937901e+00  -1.3929342e+08
   2.9276425e-10  -1.5879412e-02   6.5580191e+00   1.9060445e+00  -1.3859430e+08
   2.9343114e-10  -1.5787218e-02   6.5530052e+00   1.9183001e+00  -1.3789735e+08
   2.9409803e-10  -1.5695487e-02   6.5479662e+00   1.9305563e+00  -1.3720258e+08
   2.9476492e-10  -1.5604219e-02   6.5429026e+00   1.9428124e+00  -1.3650999e+08
   2.9543181e-10  -1.5513412e-02   6.5378149e+00   1.9550678e+00  -1.3581959e+08
   2.9609870e-10  -1.5423065e-02   6.5327034e+00   1.9673218e+00  -1.3513139e+08
   2.9676559e-10  -1.5333176e-02   6.5275686e+00   1.9795737e+00  -1.3444540e+08
   2.9743248e-10  -1.5243744e-02   6.5224109e+00   1.9918228e+00  -1.3376163e+08
   2.9809937e-10  -1.5154768e-02   6.5172309e+00   2.0040687e+00  -1.3308007e+08
   2.9876626e-10  -1.5066244e-02   6.5120289e+00   2.0163105e+00  -1.3240075e+08
   2.9943314e-10  -1.4978174e-02   6.5068053e+00   2.0285478e+00  -1.3172366e+08
   3.0010003e-10  -1.4890554e-02   6.5015607e+00   2.0407798e+00  -1.3104881e+08
   3.0076692e-10  -1.4803383e-02   6.4962955e+00   2.0530059e+00  -1.3037622e+08
   3.0143381e-10  -1.4716660e-02   6.4910100e+00   2.0652255e+00  -1.2970588e+08
   3.0210070e-10  -1.4630383e-02   6.4857048e+00   2.0774380e+00  -1.2903780e+08
   3.0276759e-10  -1.4544552e-02   6.4803804e+00   2.0896427e+00  -1.2837199e+08
   3.0343448e-10  -1.4459163e-02   6.4750370e+00   2.1018392e+00  -1.2770845e+08
   3.0410137e-10  -1.4374216e-02   6.4696753e+00   2.1140267e+00  -1.2704720e+08
   3.0476826e-10  -1.4289710e-02   6.4642956e+00   2.1262046e+00  -1.2638823e+08
   3.0543515e-10  -1.4205642e-02   6.4588984e+00   2.1383724e+00  -1.2573155e+08
   3.0610203e-10  -1.4122011e-02   6.4534841e+00   2.1505295e+00  -1.2507716e+08
   3.0676892e-10  -1.4038816e-02   6.4480532e+00   2.1626754e+00  -1.2442508e+08
   3.0743581e-10  -1.3956055e-02   6.4426061e+00   2.1748093e+00  -1.2377530e+08
   3.0810270e-10  -1.3873727e-02   6.4371432e+00   2.1869308e+00  -1.2312784e+08
   3.0876959e-10  -1.3791829e-02   6.4316651e+00   2.1990392e+00  -1.2248269e+08
   3.0943648e-10  -1.3710361e-02   6.4261720e+00   2.2111341e+00  -1.2183987e+08
   3.1010337e-10  -1.3629321e-02   6.4206645e+00   2.2232149e+00  -1.2119936e+08
   3.1077026e-10  -1.3548708e-02   6.4151431e+00   2.2352810e+00  -1.2056119e+08
   3.1143715e-10  -1.3468519e-02   6.4096080e+00   2.2473318e+00  -1.1992535e+08
   3.1210403e-10  -1.3388753e-02   6.4040599e+00   2.2593669e+00  -1.1929185e+08
   3.1277092e-10  -1.3309409e-02   6.3984990e+00   2.2713857e+00  -1.1866069e+08
   3.1343781e-10  -1.3230485e-02   6.3929258e+00   2.2833877e+00  -1.1803188e+08
   3.1410470e-10  -1.3151980e-02   6.3873409e+00   2.2953723e+00  -1.1740541e+08
   3.1477159e-10  -1.3073892e-02   6.3817445e+00   2.3073391e+00  -1.1678130e+08
   3.1543848e-10  -1.2996219e-02   6.3761371e+00   2.3192875e+00  -1.1615954e+08
   3.1610537e-10  -1.2918960e-02   6.3705191e+00   2.3312170e+00  -1.1554014e+08
   3.1677226e-10  -1.2842114e-02   6.3648911e+00   2.3431272e+00  -1.1492310e+08
   3.1743915e-10  -1.2765678e-02   6.3592532e+00   2.3550175e+00  -1.1430843e+08
   3.1810604e-10  -1.2689651e-02   6.3536061e+00   2.3668874e+00  -1.1369612e+08
   3.1877292e-10  -1.2614032e-02   6.3479501e+00   2.3787365e+00  -1.1308618e+08
   3.1943981e-10  -1.2538819e-02   6.3422856e+00   2.3905644e+00  -1.1247861e+08
   3.2010670e-10  -1.2464010e-02   6.3366131e+00   2.4023705e+00  -1.1187341e+08
   3.2077359e-10  -1.2389604e-02   6.3309328e+00   2.4141543e+00  -1.1127059e+08
   3.2144048e-10  -1.2315599e-02   6.3252454e+00   2.4259155e+00  -1.1067015e+08
   3.2210737e-10  -1.2241994e-02   6.3195510e+00   2.4376535e+00  -1.1007209e+08
   3.2277426e-10  -1.2168787e-02   6.3138502e+00   2.4493680e+00  -1.0947640e+08
   3.2344115e-10  -1.2095976e-02   6.3081434e+00   2.4610585e+00  -1.0888310e+08
   3.2410804e-10  -1.2023560e-02   6.3024309e+00   2.4727245e+00  -1.0829218e+08
   3.2477492e-10  -1.1951538e-02   6.2967131e+00   2.4843657e+00  -1.0770365e+08
   3.2544181e-10  -1.1879907e-02   6.2909905e+00   2.4959817e+00  -1.0711750e+08
   3.2610870e-10  -1.1808666e-02   6.2852634e+00   2.5075719e+00  -1.0653373e+08
   3.2677559e-10  -1.1737814e-02   6.2795321e+00   2.5191361e+00  -1.0595236e+08
   3.2744248e-10  -1.1667348e-02   6.2737971e+00   2.5306738e+00  -1.0537337e+08
   3.2810937e-10  -1.1597268e-02   6.2680588e+00   2.5421847e+00  -1.0479677e+08
   3.2877626e-10  -1.1527572e-02   6.2623175e+00   2.5536683e+00  -1.0422255e+08
   3.2944315e-10  -1.1458258e-02   6.2565736e+00   2.5651242e+00  -1.0365073e+08
   3.3011004e-10  -1.1389325e-02   6.2508275e+00   2.5765522e+00  -1.0308129e+08
   3.3077693e-10  -1.1320770e-02   6.2450795e+00   2.5879518e+00  -1.0251424e+08
   3.3144381e-10  -1.1252593e-02   6.2393300e+00   2.5993227e+00  -1.0194958e+08
   3.3211070e-10  -1.1184791e-02   6.2335794e+00   2.6106645e+00  -1.0138731e+08
   3.3277759e-10  -1.1117364e-02   6.2278280e+00   2.6219769e+00  -1.0082742e+08
   3.3344448e-10  -1.1050309e-02   6.2220761e+00   2.6332595e+00  -1.0026992e+08
   3.3411137e-10  -1.0983626e-02   6.2163242e+00   2.6445121e+00  -9.9714806e+07
   3.3477826e-10  -1.0917311e-02   6.2105725e+00   2.6557342e+00  -9.9162075e+07
   3.3544515e-10  -1.0851365e-02   6.2048214e+00   2.6669255e+00  -9.8611728e+07
   3.3611204e-10  -1.0785785e-02   6.1990712e+00   2.6780859e+00  -9.8063763e+07
   3.3677893e-10  -1.0720569e-02   6.1933224e+00   2.6892148e+00  -9.7518178e+07
   3.3744582e-10  -1.0655716e-02   6.1875751e+00   2.7003121e+00  -9.6974974e+07
   3.3811270e-10  -1.0591225e-02   6.1818298e+00   2.7113775e+00  -9.6434147e+07
   3.3877959e-10  -1.0527094e-02   6.1760867e+00   2.7224106e+00  -9.5895696e+07
   3.3944648e-10  -1.0463321e-02   6.1703463e+00   2.7334111e+00  -9.5359620e+07
   3.4011337e-10  -1.0399905e-02   6.1646087e+00   2.7443789e+00  -9.4825916e+07
   3.4078026e-10  -1.0336844e-02   6.1588744e+00   2.7553135e+00  -9.4294583e+07
   3.4144715e-10  -1.0274136e-02   6.1531435e+00   2.7662148e+00  -9.3765618e+07
   3.4211404e-10  -1.0211781e-02   6.1474166e+00   2.7770826e+00  -9.3239019e+07
   3.4278093e-10  -1.0149776e-02   6.1416938e+00   2.7879164e+00  -9.2714784e+07
   3.4344782e-10  -1.0088119e-02   6.1359754e+00   2.7987162e+00  -9.2192910e+07
   3.4411470e-10  -1.0026810e-02   6.1302617e+00   2.8094816e+00  -9.1673395e+07
   3.4478159e-10  -9.9658467e-03   6.1245532e+00   2.8202124e+00  -9.1156235e+07
   3.4544848e-10  -9.9052274e-03   6.1188499e+00   2.8309084e+00  -9.0641429e+07
   3.4611537e-10  -9.8449506e-03   6.1131522e+00   2.8415694e+00  -9.0128972e+07
   3.4678226e-10  -9.7850148e-03   6.1074605e+00   2.8521951e+00  -8.9618863e+07
   3.4744915e-10  -9.7254184e-03   6.1017749e+00   2.8627854e+00  -8.9111097e+07
   3.4811604e-10  -9.6661598e-03   6.0960957e+00   2.8733400e+00  -8.8605672e+07
   3.4878293e-10  -9.6072375e-03   6.0904233e+00   2.8838587e+00  -8.8102584e+07
   3.4944982e-10  -9.5486500e-03   6.0847579e+00   2.8943413e+00  -8.7601830e+07
   3.5011671e-10  -9.4903956e-03   6.0790998e+00   2.9047877e+00  -8.7103406e+07
   3.5078359e-10  -9.4324728e-03   6.0734491e+00   2.9151977e+00  -8.6607309e+07
   3.5145048e-10  -9.3748801e-03   6.0678062e+00   2.9255710e+00  -8.6113535e+07
   3.5211737e-10  -9.3176159e-03   6.0621714e+00   2.9359075e+00  -8.5622079e+07
   3.5278426e-10  -9.2606787e-03   6.0565448e+00   2.9462071e+00  -8.5132938e+07
   3.5345115e-10  -9.2040669e-03   6.0509268e+00   2.9564695e+00  -8.4646109e+07
   3.5411804e-10  -9.1477790e-03   6.0453175e+00   2.9666947e+00  -8.4161586e+07
   3.5478493e-10  -9.0918135e-03   6.0397172e+00   2.9768825e+00  -8.3679365e+07
   3.5545182e-10  -9.0361688e-03   6.0341262e+00   2.9870326e+00  -8.3199443e+07
   3.5611871e-10  -8.9808434e-03   6.0285446e+00   2.9971450e+00  -8.2721815e+07
   3.5678560e-10  -8.9258357e-03   6.0229728e+00   3.0072196e+00  -8.2246475e+07
   3.5745248e-10  -8.8711443e-03   6.0174109e+00   3.0172562e+00  -8.1773421e+07
   3.5811937e-10  -8.8167676e-03   6.0118591e+00   3.0272547e+00  -8.1302647e+07
   3.5878626e-10  -8.7627041e-03   6.0063177e+00   3.0372149e+00  -8.0834147e+07
   3.5945315e-10  -8.7089523e-03   6.0007869e+00   3.0471368e+00  -8.0367919e+07
   3.6012004e-10  -8.6555106e-03   5.9952668e+00   3.0570202e+00  -7.9903956e+07
   3.6078693e-10  -8.6023776e-03   5.9897578e+00   3.0668651e+00  -7.9442253e+07
   3.6145382e-10  -8.5495517e-03   5.9842599e+00   3.0766712e+00  -7.8982806e+07
   3.6212071e-10  -8.4970315e-03   5.9787735e+00   3.0864386e+00  -7.8525610e+07
   3.6278760e-10  -8.4448155e-03   5.9732987e+00   3.0961672e+00  -7.8070658e+07
   3.6345448e-10  -8.3929021e-03   5.9678356e+00   3.1058568e+00  -7.7617946e+07
   3.6412137e-10  -8.3412899e-03   5.9623846e+00   3.1155073e+00  -7.7167469e+07
   3.6478826e-10  -8.2899773e-03   5.9569457e+00   3.1251187e+00  -7.6719221e+07
   3.6545515e-10  -8.2389629e-03   5.9515192e+00   3.1346909e+00  -7.6273196e+07
   3.6612204e-10  -8.1882453e-03   5.9461052e+00   3.1442239e+00  -7.5829389e+07
   3.6678893e-10  -8.1378228e-03   5.9407039e+00   3.1537176e+00  -7.5387795e+07
   3.6745582e-10  -8.0876942e-03   5.9353155e+00   3.1631718e+00  -7.4948407e+07
   3.6812271e-10  -8.0378578e-03   5.9299402e+00   3.1725866e+00  -7.4511220e+07
   3.6878960e-10  -7.9883122e-03   5.9245780e+00   3.1819619e+00  -7.4076228e+07
   3.6945649e-10  -7.9390561e-03   5.9192293e+00   3.1912976e+00  -7.3643425e+07
   3.7012337e-10  -7.8900878e-03   5.9138941e+00   3.2005938e+00  -7.3212805e+07
   3.7079026e-10  -7.8414059e-03   5.9085726e+00   3.2098503e+00  -7.2784362e+07
   3.7145715e-10  -7.7930091e-03   5.9032649e+00   3.2190671e+00  -7.2358090e+07
   3.7212404e-10  -7.7448958e-03   5.8979713e+00   3.2282442e+00  -7.1933983e+07
   3.7279093e-10  -7.6970646e-03   5.8926918e+00   3.2373816e+00  -7.1512035e+07
   3.7345782e-10  -7.6495141e-03   5.8874265e+00   3.2464792e+00  -7.1092239e+07
   3.7412471e-10  -7.6022429e-03   5.8821758e+00   3.2555370e+00  -7.0674590e+07
   3.7479160e-10  -7.5552494e-03   5.8769396e+00   3.2645551e+00  -7.0259080e+07
   3.7545849e-10  -7.5085323e-03   5.8717181e+00   3.2735332e+00  -6.9845703e+07
   3.7612538e-10  -7.4620903e-03   5.8665114e+00   3.2824716e+00  -6.9434454e+07
   3.7679226e-10  -7.4159217e-03   5.8613198e+00   3.2913701e+00  -6.9025325e+07
   3.7745915e-10  -7.3700253e-03   5.8561432e+00   3.3002288e+00  -6.8618310e+07
   3.7812604e-10  -7.3243996e-03   5.8509818e+00   3.3090476e+00  -6.8213402e+07
   3.7879293e-10  -7.2790433e-03   5.8458358e+00   3.3178266e+00  -6.7810595e+07
   3.7945982e-10  -7.2339549e-03   5.8407052e+00   3.3265657e+00  -6.7409882e+07
   3.8012671e-10  -7.1891330e-03   5.8355902e+00   3.3352650e+00  -6.7011256e+07
   3.8079360e-10  -7.1445763e-03   5.8304909e+00   3.3439245e+00  -6.6614711e+07
   3.8146049e-10  -7.1002833e-03   5.8254074e+00   3.3525441e+00  -6.6220239e+07
   3.8212738e-10  -7.0562527e-03   5.8203397e+00   3.3611240e+00  -6.5827835e+07
   3.8279426e-10  -7.0124831e-03   5.8152881e+00   3.3696642e+00  -6.5437490e+07
   3.8346115e-10  -6.9689731e-03   5.8102525e+00   3.3781645e+00  -6.5049199e+07
   3.8412804e-10  -6.9257214e-03   5.8052332e+00   3.3866252e+00  -6.4662953e+07
   3.8479493e-10  -6.8827266e-03   5.8002301e+00   3.3950462e+00  -6.4278747e+07
   3.8546182e-10  -6.8399874e-03   5.7952435e+00   3.4034275e+00  -6.3896572e+07
   3.8612871e-10  -6.7975023e-03   5.7902732e+00   3.4117692e+00  -6.3516423e+07
   3.8679560e-10  -6.7552701e-03   5.7853196e+00   3.4200714e+00  -6.3138292e+07
   3.8746249e-10  -6.7132894e-03   5.7803826e+00   3.4283340e+00  -6.2762171e+07
   3.8812938e-10  -6.6715589e-03   5.7754623e+00   3.4365571e+00  -6.2388054e+07
   3.8879627e-10  -6.6300771e-03   5.7705588e+00   3.4447408e+00  -6.2015934e+07
   3.8946315e-10  -6.5888429e-03   5.7656722e+00   3.4528850e+00  -6.1645803e+07
   3.9013004e-10  -6.5478549e-03   5.7608026e+00   3.4609900e+00  -6.1277654e+07
   3.9079693e-10  -6.5071117e-03   5.7559500e+00   3.4690556e+00  -6.0911480e+07
   3.9146382e-10  -6.4666120e-03   5.7511145e+00   3.4770820e+00  -6.0547274e+07
   3.9213071e-10  -6.4263546e-03   5.7462961e+00   3.4850692e+00  -6.0185027e+07
   3.9279760e-10  -6.3863381e-03   5.7414950e+00   3.4930174e+00  -5.9824734e+07
   3.9346449e-10  -6.3465613e-03   5.7367112e+00   3.5009264e+00  -5.9466386e+07
   3.9413138e-10  -6.3070227e-03   5.7319447e+00   3.5087965e+00  -5.9109976e+07
   3.9479827e-10  -6.2677212e-03   5.7271956e+00   3.5166277e+00  -5.8755497e+07
   3.9546516e-10  -6.2286555e-03   5.7224640e+00   3.5244200e+00  -5.8402941e+07
   3.9613204e-10  -6.1898242e-03   5.7177499e+00   3.5321735e+00  -5.8052301e+07
   3.9679893e-10  -6.1512262e-03   5.7130533e+00   3.5398883e+00  -5.7703570e+07
   3.9746582e-10  -6.1128601e-03   5.7083744e+00   3.5475646e+00  -5.7356740e+07
   3.9813271e-10  -6.0747246e-03   5.7037132e+00   3.5552022e+00  -5.7011803e+07
   3.9879960e-10  -6.0368185e-03   5.6990696e+00   3.5628014e+00  -5.6668752e+07
   3.9946649e-10  -5.9991406e-03   5.6944438e+00   3.5703622e+00  -5.6327580e+07
   4.0013338e-10  -5.9616896e-03   5.6898358e+00   3.5778848e+00  -5.5988279e+07
   4.0080027e-10  -5.9244643e-03   5.6852457e+00   3.5853691e+00  -5.5650841e+07
   4.0146716e-10  -5.8874633e-03   5.6806733e+00   3.5928152e+00  -5.5315259e+07
   4.0213404e-10  -5.8506856e-03   5.6761189e+00   3.6002234e+00  -5.4981526e+07
   4.0280093e-10  -5.8141298e-03   5.6715825e+00   3.6075935e+00  -5.4649633e+07
   4.0346782e-10  -5.7777947e-03   5.6670640e+00   3.6149259e+00  -5.4319574e+07
   4.0413471e-10  -5.7416791e-03   5.6625634e+00   3.6222205e+00  -5.3991340e+07
   4.0480160e-10  -5.7057818e-03   5.6580810e+00   3.6294774e+00  -5.3664924e+07
   4.0546849e-10  -5.6701016e-03   5.6536165e+00   3.6366967e+00  -5.3340318e+07
   4.0613538e-10  -5.6346373e-03   5.6491701e+00   3.6438786e+00  -5.3017516e+07
   4.0680227e-10  -5.5993876e-03   5.6447418e+00   3.6510231e+00  -5.2696508e+07
   4.0746916e-10  -5.5643514e-03   5.6403316e+00   3.6581303e+00  -5.2377289e+07
   4.0813605e-10  -5.5295275e-03   5.6359396e+00   3.6652004e+00  -5.2059849e+07
   4.0880293e-10  -5.4949147e-03   5.6315657e+00   3.6722334e+00  -5.1744181e+07
   4.0946982e-10  -5.4605119e-03   5.6272099e+00   3.6792294e+00  -5.1430278e+07
   4.1013671e-10  -5.4263178e-03   5.6228724e+00   3.6861886e+00  -5.1118133e+07
   4.1080360e-10  -5.3923312e-03   5.6185530e+00   3.6931111e+00  -5.0807736e+07
   4.1147049e-10  -5.3585511e-03   5.6142518e+00   3.6999970e+00  -5.0499082e+07
   4.1213738e-10  -5.3249763e-03   5.6099687e+00   3.7068463e+00  -5.0192161e+07
   4.1280427e-10  -5.2916055e-03   5.6057040e+00   3.7136592e+00  -4.9886968e+07
   4.1347116e-10  -5.2584378e-03   5.6014574e+00   3.7204358e+00  -4.9583493e+07
   4.1413805e-10  -5.2254718e-03   5.5972290e+00   3.7271763e+00  -4.9281729e+07
   4.1480493e-10  -5.1927065e-03   5.5930188e+00   3.7338807e+00  -4.8981669e+07
   4.1547182e-10  -5.1601407e-03   5.5888269e+00   3.7405491e+00  -4.8683305e+07
   4.1613871e-10  -5.1277734e-03   5.5846532e+00   3.7471817e+00  -4.8386630e+07
   4.1680560e-10  -5.0956033e-03   5.5804977e+00   3.7537786e+00  -4.8091635e+07
   4.1747249e-10  -5.0636295e-03   5.5763604e+00   3.7603399e+00  -4.7798313e+07
   4.1813938e-10  -5.0318506e-03   5.5722413e+00   3.7668657e+00  -4.7506657e+07
   4.1880627e-10  -5.0002657e-03   5.5681405e+00   3.7733562e+00  -4.7216659e+07
   4.1947316e-10  -4.9688737e-03   5.5640578e+00   3.7798115e+00  -4.6928311e+07
   4.2014005e-10  -4.9376734e-03   5.5599933e+00   3.7862316e+00  -4.6641606e+07
   4.2080694e-10  -4.9066638e-03   5.5559469e+00   3.7926168e+00  -4.6356536e+07
   4.2147382e-10  -4.8758437e-03   5.5519188e+00   3.7989671e+00  -4.6073093e+07
   4.2214071e-10  -4.8452122e-03   5.5479087e+00   3.8052826e+00  -4.5791271e+07
   4.2280760e-10  -4.8147680e-03   5.5439169e+00   3.8115636e+00  -4.5511061e+07
   4.2347449e-10  -4.7845101e-03   5.5399431e+00   3.8178101e+00  -4.5232456e+07
   4.2414138e-10  -4.7544376e-03   5.5359874e+00   3.8240222e+00  -4.4955448e+07
   4.2480827e-10  -4.7245492e-03   5.5320499e+00   3.8302001e+00  -4.4680030e+07
   4.2547516e-10  -4.6948440e-03   5.5281303e+00   3.8363439e+00  -4.4406194e+07
   4.2614205e-10  -4.6653208e-03   5.5242289e+00   3.8424537e+00  -4.4133933e+07
   4.2680894e-10  -4.6359787e-03   5.5203455e+00   3.8485297e+00  -4.3863240e+07
   4.2747583e-10  -4.6068167e-03   5.5164800e+00   3.8545720e+00  -4.3594106e+07
   4.2814271e-10  -4.5778335e-03   5.5126326e+00   3.8605807e+00  -4.3326524e+07
   4.2880960e-10  -4.5490284e-03   5.5088031e+00   3.8665559e+00  -4.3060487e+07
   4.2947649e-10  -4.5204001e-03   5.5049915e+00   3.8724978e+00  -4.2795988e+07
   4.3014338e-10  -4.4919477e-03   5.5011979e+00   3.8784066e+00  -4.2533018e+07
   4.3081027e-10  -4.4636701e-03   5.4974221e+00   3.8842823e+00  -4.2271571e+07
   4.3147716e-10  -4.4355664e-03   5.4936642e+00   3.8901251e+00  -4.2011640e+07
   4.3214405e-10  -4.4076356e-03   5.4899241e+00   3.8959351e+00  -4.1753215e+07
   4.3281094e-10  -4.3798766e-03   5.4862018e+00   3.9017124e+00  -4.1496291e+07
   4.3347783e-10  -4.3522884e-03   5.4824972e+00   3.9074572e+00  -4.1240860e+07
   4.3414471e-10  -4.3248701e-03   5.4788104e+00   3.9131696e+00  -4.0986915e+07
   4.3481160e-10  -4.2976206e-03   5.4751413e+00   3.9188498e+00  -4.0734448e+07
   4.3547849e-10  -4.2705390e-03   5.4714898e+00   3.9244979e+00  -4.0483452e+07
   4.3614538e-10  -4.2436244e-03   5.4678560e+00   3.9301140e+00  -4.0233919e+07
   4.3681227e-10  -4.2168756e-03   5.4642398e+00   3.9356982e+00  -3.9985843e+07
   4.3747916e-10  -4.1902918e-03   5.4606411e+00   3.9412508e+00  -3.9739216e+07
   4.3814605e-10  -4.1638720e-03   5.4570600e+00   3.9467718e+00  -3.9494030e+07
   4.3881294e-10  -4.1376152e-03   5.4534964e+00   3.9522613e+00  -3.9250279e+07
   4.3947983e-10  -4.1115205e-03   5.4499502e+00   3.9577195e+00  -3.9007956e+07
   4.4014672e-10  -4.0855869e-03   5.4464214e+00   3.9631466e+00  -3.8767052e+07
   4.4081360e-10  -4.0598136e-03   5.4429099e+00   3.9685427e+00  -3.8527562e+07
   4.4148049e-10  -4.0341994e-03   5.4394158e+00   3.9739078e+00  -3.8289477e+07
   4.4214738e-10  -4.0087436e-03   5.4359390e+00   3.9792422e+00  -3.8052791e+07
   4.4281427e-10  -3.9834451e-03   5.4324795e+00   3.9845460e+00  -3.7817497e+07
   4.4348116e-10  -3.9583031e-03   5.4290371e+00   3.9898193e+00  -3.7583586e+07
   4.4414805e-10  -3.9333167e-03   5.4256120e+00   3.9950623e+00  -3.7351054e+07
   4.4481494e-10  -3.9084848e-03   5.4222039e+00   4.0002751e+00  -3.7119891e+07
   4.4548183e-10  -3.8838067e-03   5.4188129e+00   4.0054578e+00  -3.6890092e+07
   4.4614872e-10  -3.8592813e-03   5.4154390e+00   4.0106105e+00  -3.6661648e+07
   4.4681561e-10  -3.8349079e-03   5.4120820e+00   4.0157335e+00  -3.6434554e+07
   4.4748249e-10  -3.8106854e-03   5.4087420e+00   4.0208269e+00  -3.6208803e+07
   4.4814938e-10  -3.7866131e-03   5.4054188e+00   4.0258907e+00  -3.5984386e+07
   4.4881627e-10  -3.7626899e-03   5.4021126e+00   4.0309251e+00  -3.5761297e+07
   4.4948316e-10  -3.7389151e-03   5.3988231e+00   4.0359303e+00  -3.5539530e+07
   4.5015005e-10  -3.7152878e-03   5.3955503e+00   4.0409064e+00  -3.5319078e+07
   4.5081694e-10  -3.6918070e-03   5.3922943e+00   4.0458535e+00  -3.5099933e+07
   4.5148383e-10  -3.6684720e-03   5.3890549e+00   4.0507718e+00  -3.4882088e+07
   4.5215072e-10  -3.6452818e-03   5.3858322e+00   4.0556614e+00  -3.4665538e+07
   4.5281761e-10  -3.6222356e-03   5.3826260e+00   4.0605224e+00  -3.4450274e+07
   4.5348449e-10  -3.5993325e-03   5.3794363e+00   4.0653551e+00  -3.4236291e+07
   4.5415138e-10  -3.5765717e-03   5.3762630e+00   4.0701594e+00  -3.4023581e+07
   4.5481827e-10  -3.5539523e-03   5.3731062e+00   4.0749356e+00  -3.3812138e+07
   4.5548516e-10  -3.5314735e-03   5.3699657e+00   4.0796838e+00  -3.3601955e+07
   4.5615205e-10  -3.5091345e-03   5.3668416e+00   4.0844041e+00  -3.3393026e+07
   4.5681894e-10  -3.4869343e-03   5.3637336e+00   4.0890966e+00  -3.3185343e+07
   4.5748583e-10  -3.4648723e-03   5.3606419e+00   4.0937616e+00  -3.2978900e+07
   4.5815272e-10  -3.4429475e-03   5.3575663e+00   4.0983991e+00  -3.2773690e+07
   4.5881961e-10  -3.4211592e-03   5.3545068e+00   4.1030093e+00  -3.2569707e+07
   4.5948650e-10  -3.3995065e-03   5.3514634e+00   4.1075923e+00  -3.2366944e+07
   4.6015338e-10  -3.3779886e-03   5.3484359e+00   4.1121482e+00  -3.2165395e+07
   4.6082027e-10  -3.3566047e-03   5.3454244e+00   4.1166772e+00  -3.1965053e+07
   4.6148716e-10  -3.3353541e-03   5.3424287e+00   4.1211794e+00  -3.1765911e+07
   4.6215405e-10  -3.3142358e-03   5.3394489e+00   4.1256549e+00  -3.1567963e+07
   4.6282094e-10  -3.2932491e-03   5.3364848e+00   4.1301039e+00  -3.1371203e+07
   4.6348783e-10  -3.2723933e-03   5.3335365e+00   4.1345266e+00  -3.1175624e+07
   4.6415472e-10  -3.2516675e-03   5.3306037e+00   4.1389229e+00  -3.0981220e+07
   4.6482161e-10  -3.2310710e-03   5.3276866e+00   4.1432932e+00  -3.0787985e+07
   4.6548850e-10  -3.2106029e-03   5.3247851e+00   4.1476375e+00  -3.0595911e+07
   4.6615539e-10  -3.1902626e-03   5.3218990e+00   4.1519559e+00  -3.0404993e+07
   4.6682227e-10  -3.1700492e-03   5.3190284e+00   4.1562486e+00  -3.0215224e+07
   4.6748916e-10  -3.1499619e-03   5.3161731e+00   4.1605157e+00  -3.0026598e+07
   4.6815605e-10  -3.1300001e-03   5.3133331e+00   4.1647573e+00  -2.9839109e+07
   4.6882294e-10  -3.1101629e-03   5.3105085e+00   4.1689736e+00  -2.9652750e+07
   4.6948983e-10  -3.0904497e-03   5.3076990e+00   4.1731647e+00  -2.9467516e+07
   4.7015672e-10  -3.0708595e-03   5.3049046e+00   4.1773308e+00  -2.9283400e+07
   4.7082361e-10  -3.0513919e-03   5.3021254e+00   4.1814719e+00  -2.9100395e+07
   4.7149050e-10  -3.0320458e-03   5.2993611e+00   4.1855882e+00  -2.8918497e+07
   4.7215739e-10  -3.0128208e-03   5.2966119e+00   4.1896799e+00  -2.8737698e+07
   4.7282427e-10  -2.9937159e-03   5.2938775e+00   4.1937470e+00  -2.8557993e+07
   4.7349116e-10  -2.9747305e-03   5.2911580e+00   4.1977896e+00  -2.8379375e+07
   4.7415805e-10  -2.9558639e-03   5.2884534e+00   4.2018080e+00  -2.8201839e+07
   4.7482494e-10  -2.9371153e-03   5.2857634e+00   4.2058023e+00  -2.8025378e+07
   4.7549183e-10  -2.9184840e-03   5.2830881e+00   4.2097725e+00  -2.7849986e+07
   4.7615872e-10  -2.8999693e-03   5.2804275e+00   4.2137188e+00  -2.7675658e+07
   4.7682561e-10  -2.8815706e-03   5.2777814e+00   4.2176413e+00  -2.7502388e+07
   4.7749250e-10  -2.8632870e-03   5.2751498e+00   4.2215402e+00  -2.7330169e+07
   4.7815939e-10  -2.8451180e-03   5.2725326e+00   4.2254156e+00  -2.7158996e+07
   4.7882628e-10  -2.8270627e-03   5.2699299e+00   4.2292675e+00  -2.6988863e+07
   4.7949316e-10  -2.8091206e-03   5.2673414e+00   4.2330962e+00  -2.6819764e+07
   4.8016005e-10  -2.7912909e-03   5.2647673e+00   4.2369018e+00  -2.6651693e+07
   4.8082694e-10  -2.7735729e-03   5.2622073e+00   4.2406843e+00  -2.6484644e+07
   4.8149383e-10  -2.7559660e-03   5.2596615e+00   4.2444440e+00  -2.6318613e+07
   4.8216072e-10  -2.7384695e-03   5.2571297e+00   4.2481809e+00  -2.6153592e+07
   4.8282761e-10  -2.7210827e-03   5.2546120e+00   4.2518951e+00  -2.5989576e+07
   4.8349450e-10  -2.7038049e-03   5.2521083e+00   4.2555868e+00  -2.5826560e+07
   4.8416139e-10  -2.6866356e-03   5.2496185e+00   4.2592561e+00  -2.5664537e+07
   4.8482828e-10  -2.6695739e-03   5.2471425e+00   4.2629031e+00  -2.5503503e+07
   4.8549517e-10  -2.6526193e-03   5.2446803e+00   4.2665280e+00  -2.5343452e+07
   4.8616205e-10  -2.6357712e-03   5.2422318e+00   4.2701308e+00  -2.5184377e+07
   4.8682894e-10  -2.6190288e-03   5.2397970e+00   4.2737118e+00  -2.5026274e+07
   4.8749583e-10  -2.6023915e-03   5.2373758e+00   4.2772709e+00  -2.4869137e+07
   4.8816272e-10  -2.5858586e-03   5.2349682e+00   4.2808083e+00  -2.4712960e+07
   4.8882961e-10  -2.5694296e-03   5.2325741e+00   4.2843243e+00  -2.4557739e+07
   4.8949650e-10  -2.5531039e-03   5.2301933e+00   4.2878187e+00  -2.4403466e+07
   4.9016339e-10  -2.5368806e-03   5.2278260e+00   4.2912919e+00  -2.4250138e+07
   4.9083028e-10  -2.5207593e-03   5.2254720e+00   4.2947439e+00  -2.4097749e+07
   4.9149717e-10  -2.5047394e-03   5.2231312e+00   4.2981748e+00  -2.3946292e+07
   4.9216405e-10  -2.4888201e-03   5.2208036e+00   4.3015847e+00  -2.3795764e+07
   4.9283094e-10  -2.4730009e-03   5.2184891e+00   4.3049738e+00  -2.3646158e+07
   4.9349783e-10  -2.4572812e-03   5.2161877e+00   4.3083421e+00  -2.3497469e+07
   4.9416472e-10  -2.4416603e-03   5.2138994e+00   4.3116899e+00  -2.3349693e+07
   4.9483161e-10  -2.4261377e-03   5.2116239e+00   4.3150172e+00  -2.3202823e+07
   4.9549850e-10  -2.4107127e-03   5.2093614e+00   4.3183240e+00  -2.3056854e+07
   4.9616539e-10  -2.3953847e-03   5.2071117e+00   4.3216106e+00  -2.2911782e+07
   4.9683228e-10  -2.3801533e-03   5.2048748e+00   4.3248771e+00  -2.2767601e+07
   4.9749917e-10  -2.3650176e-03   5.2026506e+00   4.3281235e+00  -2.2624306e+07
   4.9816606e-10  -2.3499773e-03   5.2004391e+00   4.3313501e+00  -2.2481892e+07
   4.9883294e-10  -2.3350316e-03   5.1982401e+00   4.3345568e+00  -2.2340354e+07
   4.9949983e-10  -2.3201800e-03   5.1960537e+00   4.3377438e+00  -2.2199686e+07
   5.0016672e-10  -2.3054219e-03   5.1938798e+00   4.3409112e+00  -2.2059883e+07
   5.0083361e-10  -2.2907568e-03   5.1917183e+00   4.3440591e+00  -2.1920942e+07
   5.0150050e-10  -2.2761841e-03   5.1895691e+00   4.3471877e+00  -2.1782855e+07
   5.0216739e-10  -2.2617031e-03   5.1874323e+00   4.3502970e+00  -2.1645620e+07
   5.0283428e-10  -2.2473134e-03   5.1853077e+00   4.3533872e+00  -2.1509230e+07
   5.0350117e-10  -2.2330144e-03   5.1831953e+00   4.3564584e+00  -2.1373680e+07
   5.0416806e-10  -2.2188055e-03   5.1810950e+00   4.3595106e+00  -2.1238967e+07
   5.0483494e-10  -2.2046862e-03   5.1790068e+00   4.3625440e+00  -2.1105084e+07
   5.0550183e-10  -2.1906558e-03   5.1769306e+00   4.3655587e+00  -2.0972027e+07
   5.0616872e-10  -2.1767139e-03   5.1748664e+00   4.3685548e+00  -2.0839792e+07
   5.0683561e-10  -2.1628600e-03   5.1728140e+00   4.3715324e+00  -2.0708372e+07
   5.0750250e-10  -2.1490934e-03   5.1707735e+00   4.3744917e+00  -2.0577765e+07
   5.0816939e-10  -2.1354136e-03   5.1687448e+00   4.3774326e+00  -2.0447964e+07
   5.0883628e-10  -2.1218202e-03   5.1667277e+00   4.3803554e+00  -2.0318965e+07
   5.0950317e-10  -2.1083125e-03   5.1647224e+00   4.3832601e+00  -2.0190764e+07
   5.1017006e-10  -2.0948900e-03   5.1627287e+00   4.3861468e+00  -2.0063356e+07
   5.1083695e-10  -2.0815522e-03   5.1607465e+00   4.3890157e+00  -1.9936735e+07
   5.1150383e-10  -2.0682986e-03   5.1587758e+00   4.3918668e+00  -1.9810898e+07
   5.1217072e-10  -2.0551287e-03   5.1568165e+00   4.3947003e+00  -1.9685839e+07
   5.1283761e-10  -2.0420419e-03   5.1548686e+00   4.3975162e+00  -1.9561555e+07
   5.1350450e-10  -2.0290378e-03   5.1529321e+00   4.4003147e+00  -1.9438040e+07
   5.1417139e-10  -2.0161157e-03   5.1510068e+00   4.4030958e+00  -1.9315291e+07
   5.1483828e-10  -2.0032753e-03   5.1490927e+00   4.4058597e+00  -1.9193301e+07
   5.1550517e-10  -1.9905160e-03   5.1471898e+00   4.4086065e+00  -1.9072068e+07
   5.1617206e-10  -1.9778372e-03   5.1452979e+00   4.4113362e+00  -1.8951587e+07
   5.1683895e-10  -1.9652386e-03   5.1434171e+00   4.4140489e+00  -1.8831852e+07
   5.1750584e-10  -1.9527196e-03   5.1415473e+00   4.4167448e+00  -1.8712861e+07
   5.1817272e-10  -1.9402796e-03   5.1396885e+00   4.4194240e+00  -1.8594607e+07
   5.1883961e-10  -1.9279183e-03   5.1378405e+00   4.4220865e+00  -1.8477087e+07
   5.1950650e-10  -1.9156351e-03   5.1360033e+00   4.4247325e+00  -1.8360297e+07
   5.2017339e-10  -1.9034296e-03   5.1341768e+00   4.4273620e+00  -1.8244232e+07
   5.2084028e-10  -1.8913012e-03   5.1323611e+00   4.4299752e+00  -1.8128888e+07
   5.2150717e-10  -1.8792495e-03   5.1305561e+00   4.4325721e+00  -1.8014261e+07
   5.2217406e-10  -1.8672740e-03   5.1287616e+00   4.4351528e+00  -1.7900345e+07
   5.2284095e-10  -1.8553743e-03   5.1269777e+00   4.4377175e+00  -1.7787138e+07
   5.2350784e-10  -1.8435498e-03   5.1252043e+00   4.4402662e+00  -1.7674635e+07
   5.2417472e-10  -1.8318001e-03   5.1234413e+00   4.4427990e+00  -1.7562831e+07
   5.2484161e-10  -1.8201247e-03   5.1216886e+00   4.4453160e+00  -1.7451723e+07
   5.2550850e-10  -1.8085232e-03   5.1199464e+00   4.4478174e+00  -1.7341306e+07
   5.2617539e-10  -1.7969951e-03   5.1182143e+00   4.4503032e+00  -1.7231576e+07
   5.2684228e-10  -1.7855400e-03   5.1164926e+00   4.4527734e+00  -1.7122529e+07
   5.2750917e-10  -1.7741573e-03   5.1147809e+00   4.4552283e+00  -1.7014162e+07
   5.2817606e-10  -1.7628467e-03   5.1130794e+00   4.4576678e+00  -1.6906469e+07
   5.2884295e-10  -1.7516077e-03   5.1113880e+00   4.4600921e+00  -1.6799447e+07
   5.2950984e-10  -1.7404398e-03   5.1097065e+00   4.4625013e+00  -1.6693092e+07
   5.3017673e-10  -1.7293427e-03   5.1080350e+00   4.4648954e+00  -1.6587399e+07
   5.3084361e-10  -1.7183158e-03   5.1063734e+00   4.4672745e+00  -1.6482366e+07
   5.3151050e-10  -1.7073587e-03   5.1047217e+00   4.4696388e+00  -1.6377987e+07
   5.3217739e-10  -1.6964710e-03   5.1030797e+00   4.4719883e+00  -1.6274259e+07
   5.3284428e-10  -1.6856523e-03   5.1014475e+00   4.4743231e+00  -1.6171179e+07
   5.3351117e-10  -1.6749021e-03   5.0998250e+00   4.4766434e+00  -1.6068741e+07
   5.3417806e-10  -1.6642200e-03   5.0982122e+00   4.4789491e+00  -1.5966943e+07
   5.3484495e-10  -1.6536056e-03   5.0966089e+00   4.4812403e+00  -1.5865780e+07
   5.3551184e-10  -1.6430585e-03   5.0950152e+00   4.4835173e+00  -1.5765249e+07
   5.3617873e-10  -1.6325781e-03   5.0934309e+00   4.4857800e+00  -1.5665345e+07
   5.3684562e-10  -1.6221642e-03   5.0918561e+00   4.4880285e+00  -1.5566066e+07
   5.3751250e-10  -1.6118163e-03   5.0902907e+00   4.4902629e+00  -1.5467407e+07
   5.3817939e-10  -1.6015340e-03   5.0887346e+00   4.4924833e+00  -1.5369364e+07
   5.3884628e-10  -1.5913169e-03   5.0871878e+00   4.4946898e+00  -1.5271934e+07
   5.3951317e-10  -1.5811645e-03   5.0856502e+00   4.4968825e+00  -1.5175113e+07
   5.4018006e-10  -1.5710765e-03   5.0841219e+00   4.4990615e+00  -1.5078897e+07
   5.4084695e-10  -1.5610525e-03   5.0826026e+00   4.5012267e+00  -1.4983284e+07
   5.4151384e-10  -1.5510920e-03   5.0810925e+00   4.5033784e+00  -1.4888268e+07
   5.4218073e-10  -1.5411947e-03   5.0795914e+00   4.5055166e+00  -1.4793846e+07
   5.4284762e-10  -1.5313602e-03   5.0780992e+00   4.5076414e+00  -1.4700016e+07
   5.4351450e-10  -1.5215880e-03   5.0766160e+00   4.5097528e+00  -1.4606772e+07
   5.4418139e-10  -1.5118778e-03   5.0751417e+00   4.5118510e+00  -1.4514113e+07
   5.4484828e-10  -1.5022293e-03   5.0736763e+00   4.5139360e+00  -1.4422033e+07
   5.4551517e-10  -1.4926419e-03   5.0722196e+00   4.5160079e+00  -1.4330530e+07
   5.4618206e-10  -1.4831154e-03   5.0707717e+00   4.5180668e+00  -1.4239600e+07
   5.4684895e-10  -1.4736493e-03   5.0693325e+00   4.5201128e+00  -1.4149240e+07
   5.4751584e-10  -1.4642433e-03   5.0679019e+00   4.5221459e+00  -1.4059446e+07
   5.4818273e-10  -1.4548970e-03   5.0664800e+00   4.5241662e+00  -1.3970215e+07
   5.4884962e-10  -1.4456100e-03   5.0650665e+00   4.5261738e+00  -1.3881543e+07
   5.4951651e-10  -1.4363820e-03   5.0636616e+00   4.5281688e+00  -1.3793427e+07
   5.5018339e-10  -1.4272125e-03   5.0622652e+00   4.5301513e+00  -1.3705863e+07
   5.5085028e-10  -1.4181013e-03   5.0608772e+00   4.5321212e+00  -1.3618849e+07
   5.5151717e-10  -1.4090479e-03   5.0594975e+00   4.5340788e+00  -1.3532380e+07
   5.5218406e-10  -1.4000520e-03   5.0581262e+00   4.5360241e+00  -1.3446454e+07
   5.5285095e-10  -1.3911132e-03   5.0567631e+00   4.5379571e+00  -1.3361066e+07
   5.5351784e-10  -1.3822312e-03   5.0554083e+00   4.5398779e+00  -1.3276215e+07
   5.5418473e-10  -1.3734056e-03   5.0540616e+00   4.5417867e+00  -1.3191897e+07
   5.5485162e-10  -1.3646360e-03   5.0527231e+00   4.5436834e+00  -1.3108107e+07
   5.5551851e-10  -1.3559221e-03   5.0513927e+00   4.5455682e+00  -1.3024844e+07
   5.5618540e-10  -1.3472636e-03   5.0500703e+00   4.5474411e+00  -1.2942104e+07
   5.5685228e-10  -1.3386601e-03   5.0487559e+00   4.5493022e+00  -1.2859883e+07
   5.5751917e-10  -1.3301113e-03   5.0474495e+00   4.5511515e+00  -1.2778179e+07
   5.5818606e-10  -1.3216168e-03   5.0461510e+00   4.5529892e+00  -1.2696988e+07
   5.5885295e-10  -1.3131762e-03   5.0448603e+00   4.5548154e+00  -1.2616307e+07
   5.5951984e-10  -1.3047893e-03   5.0435775e+00   4.5566300e+00  -1.2536134e+07
   5.6018673e-10  -1.2964557e-03   5.0423025e+00   4.5584331e+00  -1.2456464e+07
   5.6085362e-10  -1.2881750e-03   5.0410352e+00   4.5602249e+00  -1.2377295e+07
   5.6152051e-10  -1.2799470e-03   5.0397755e+00   4.5620054e+00  -1.2298624e+07
   5.6218740e-10  -1.2717713e-03   5.0385236e+00   4.5637747e+00  -1.2220448e+07
   5.6285428e-10  -1.2636475e-03   5.0372792e+00   4.5655327e+00  -1.2142764e+07
   5.6352117e-10  -1.2555754e-03   5.0360424e+00   4.5672797e+00  -1.2065568e+07
   5.6418806e-10  -1.2475546e-03   5.0348131e+00   4.5690157e+00  -1.1988858e+07
   5.6485495e-10  -1.2395848e-03   5.0335913e+00   4.5707407e+00  -1.1912630e+07
   5.6552184e-10  -1.2316657e-03   5.0323770e+00   4.5724548e+00  -1.1836882e+07
   5.6618873e-10  -1.2237970e-03   5.0311700e+00   4.5741581e+00  -1.1761612e+07
   5.6685562e-10  -1.2159782e-03   5.0299704e+00   4.5758506e+00  -1.1686814e+07
   5.6752251e-10  -1.2082092e-03   5.0287781e+00   4.5775324e+00  -1.1612488e+07
   5.6818940e-10  -1.2004897e-03   5.0275930e+00   4.5792036e+00  -1.1538630e+07
   5.6885629e-10  -1.1928192e-03   5.0264152e+00   4.5808642e+00  -1.1465237e+07
   5.6952317e-10  -1.1851975e-03   5.0252446e+00   4.5825144e+00  -1.1392307e+07
   5.7019006e-10  -1.1776243e-03   5.0240811e+00   4.5841541e+00  -1.1319835e+07
   5.7085695e-10  -1.1700992e-03   5.0229247e+00   4.5857834e+00  -1.1247821e+07
   5.7152384e-10  -1.1626221e-03   5.0217753e+00   4.5874024e+00  -1.1176260e+07
   5.7219073e-10  -1.1551925e-03   5.0206330e+00   4.5890112e+00  -1.1105150e+07
   5.7285762e-10  -1.1478102e-03   5.0194977e+00   4.5906098e+00  -1.1034488e+07
   5.7352451e-10  -1.1404748e-03   5.0183693e+00   4.5921983e+00  -1.0964272e+07
   5.7419140e-10  -1.1331862e-03   5.0172478e+00   4.5937768e+00  -1.0894499e+07
   5.7485829e-10  -1.1259439e-03   5.0161332e+00   4.5953453e+00  -1.0825165e+07
   5.7552518e-10  -1.1187477e-03   5.0150254e+00   4.5969038e+00  -1.0756269e+07
   5.7619206e-10  -1.1115973e-03   5.0139243e+00   4.5984525e+00  -1.0687807e+07
   5.7685895e-10  -1.1044924e-03   5.0128301e+00   4.5999913e+00  -1.0619778e+07
   5.7752584e-10  -1.0974328e-03   5.0117425e+00   4.6015205e+00  -1.0552177e+07
   5.7819273e-10  -1.0904181e-03   5.0106616e+00   4.6030399e+00  -1.0485003e+07
   5.7885962e-10  -1.0834480e-03   5.0095873e+00   4.6045497e+00  -1.0418253e+07
   5.7952651e-10  -1.0765223e-03   5.0085196e+00   4.6060500e+00  -1.0351924e+07
   5.8019340e-10  -1.0696408e-03   5.0074584e+00   4.6075407e+00  -1.0286013e+07
   5.8086029e-10  -1.0628030e-03   5.0064038e+00   4.6090221e+00  -1.0220519e+07
   5.8152718e-10  -1.0560088e-03   5.0053556e+00   4.6104940e+00  -1.0155438e+07
   5.8219406e-10  -1.0492578e-03   5.0043139e+00   4.6119566e+00  -1.0090769e+07
   5.8286095e-10  -1.0425498e-03   5.0032785e+00   4.6134099e+00  -1.0026507e+07
   5.8352784e-10  -1.0358846e-03   5.0022496e+00   4.6148540e+00  -9.9626518e+06
   5.8419473e-10  -1.0292618e-03   5.0012269e+00   4.6162890e+00  -9.8991996e+06
   5.8486162e-10  -1.0226812e-03   5.0002106e+00   4.6177149e+00  -9.8361483e+06
   5.8552851e-10  -1.0161425e-03   4.9992005e+00   4.6191317e+00  -9.7734953e+06
   5.8619540e-10  -1.0096454e-03   4.9981966e+00   4.6205395e+00  -9.7112382e+06
   5.8686229e-10  -1.0031897e-03   4.9971989e+00   4.6219385e+00  -9.6493745e+06
   5.8752918e-10  -9.9677519e-04   4.9962073e+00   4.6233285e+00  -9.5879018e+06
   5.8819607e-10  -9.9040151e-04   4.9952218e+00   4.6247097e+00  -9.5268177e+06
   5.8886295e-10  -9.8406844e-04   4.9942424e+00   4.6260822e+00  -9.4661197e+06
   5.8952984e-10  -9.7777572e-04   4.9932691e+00   4.6274459e+00  -9.4058054e+06
   5.9019673e-10  -9.7152310e-04   4.9923017e+00   4.6288010e+00  -9.3458726e+06
   5.9086362e-10  -9.6531032e-04   4.9913403e+00   4.6301475e+00  -9.2863186e+06
   5.9153051e-10  -9.5913713e-04   4.9903849e+00   4.6314855e+00  -9.2271414e+06
   5.9219740e-10  -9.5300328e-04   4.9894353e+00   4.6328150e+00  -9.1683384e+06
   5.9286429e-10  -9.4690852e-04   4.9884916e+00   4.6341360e+00  -9.1099074e+06
   5.9353118e-10  -9.4085260e-04   4.9875537e+00   4.6354486e+00  -9.0518460e+06
   5.9419807e-10  -9.3483529e-04   4.9866216e+00   4.6367529e+00  -8.9941519e+06
   5.9486495e-10  -9.2885632e-04   4.9856953e+00   4.6380490e+00  -8.9368230e+06
   5.9553184e-10  -9.2291547e-04   4.9847747e+00   4.6393368e+00  -8.8798568e+06
   5.9619873e-10  -9.1701248e-04   4.9838597e+00   4.6406164e+00  -8.8232511e+06
   5.9686562e-10  -9.1114713e-04   4.9829505e+00   4.6418879e+00  -8.7670037e+06
   5.9753251e-10  -9.0531917e-04   4.9820468e+00   4.6431513e+00  -8.7111124e+06
   5.9819940e-10  -8.9952836e-04   4.9811488e+00   4.6444067e+00  -8.6555749e+06
   5.9886629e-10  -8.9377448e-04   4.9802563e+00   4.6456541e+00  -8.6003890e+06
   5.9953318e-10  -8.8805728e-04   4.9793693e+00   4.6468936e+00  -8.5455525e+06
   6.0020007e-10  -8.8237653e-04   4.9784878e+00   4.6481252e+00  -8.4910633e+06
   6.0086696e-10  -8.7673201e-04   4.9776118e+00   4.6493490e+00  -8.4369192e+06
   6.0153384e-10  -8.7112348e-04   4.9767412e+00   4.6505650e+00  -8.3831180e+06
   6.0220073e-10  -8.6555071e-04   4.9758760e+00   4.6517732e+00  -8.3296577e+06
   6.0286762e-10  -8.6001349e-04   4.9750161e+00   4.6529738e+00  -8.2765359e+06
   6.0353451e-10  -8.5451158e-04   4.9741616e+00   4.6541668e+00  -8.2237508e+06
   6.0420140e-10  -8.4904476e-04   4.9733124e+00   4.6553522e+00  -8.1713000e+06
   6.0486829e-10  -8.4361280e-04   4.9724684e+00   4.6565300e+00  -8.1191817e+06
   6.0553518e-10  -8.3821550e-04   4.9716297e+00   4.6577004e+00  -8.0673936e+06
   6.0620207e-10  -8.3285262e-04   4.9707962e+00   4.6588633e+00  -8.0159338e+06
   6.0686896e-10  -8.2752395e-04   4.9699678e+00   4.6600188e+00  -7.9648001e+06
   6.0753585e-10  -8.2222927e-04   4.9691446e+00   4.6611670e+00  -7.9139905e+06
   6.0820273e-10  -8.1696837e-04   4.9683265e+00   4.6623078e+00  -7.8635031e+06
   6.0886962e-10  -8.1174103e-04   4.9675135e+00   4.6634414e+00  -7.8133357e+06
   6.0953651e-10  -8.0654705e-04   4.9667055e+00   4.6645678e+00  -7.7634864e+06
   6.1020340e-10  -8.0138620e-04   4.9659026e+00   4.6656871e+00  -7.7139533e+06
   6.1087029e-10  -7.9625828e-04   4.9651046e+00   4.6667992e+00  -7.6647342e+06
   6.1153718e-10  -7.9116307e-04   4.9643116e+00   4.6679042e+00  -7.6158273e+06
   6.1220407e-10  -7.8610038e-04   4.9635236e+00   4.6690022e+00  -7.5672306e+06
   6.1287096e-10  -7.8107000e-04   4.9627404e+00   4.6700932e+00  -7.5189422e+06
   6.1353785e-10  -7.7607172e-04   4.9619621e+00   4.6711773e+00  -7.4709601e+06
   6.1420473e-10  -7.7110533e-04   4.9611886e+00   4.6722544e+00  -7.4232824e+06
   6.1487162e-10  -7.6617064e-04   4.9604200e+00   4.6733247e+00  -7.3759072e+06
   6.1553851e-10  -7.6126744e-04   4.9596562e+00   4.6743882e+00  -7.3288326e+06
   6.1620540e-10  -7.5639554e-04   4.9588971e+00   4.6754450e+00  -7.2820567e+06
   6.1687229e-10  -7.5155473e-04   4.9581427e+00   4.6764950e+00  -7.2355777e+06
   6.1753918e-10  -7.4674482e-04   4.9573930e+00   4.6775383e+00  -7.1893937e+06
   6.1820607e-10  -7.4196561e-04   4.9566480e+00   4.6785749e+00  -7.1435028e+06
   6.1887296e-10  -7.3721691e-04   4.9559076e+00   4.6796050e+00  -7.0979033e+06
   6.1953985e-10  -7.3249852e-04   4.9551719e+00   4.6806285e+00  -7.0525932e+06
   6.2020674e-10  -7.2781025e-04   4.9544407e+00   4.6816455e+00  -7.0075707e+06
   6.2087362e-10  -7.2315191e-04   4.9537141e+00   4.6826560e+00  -6.9628342e+06
   6.2154051e-10  -7.1852331e-04   4.9529921e+00   4.6836601e+00  -6.9183816e+06
   6.2220740e-10  -7.1392426e-04   4.9522745e+00   4.6846577e+00  -6.8742114e+06
   6.2287429e-10  -7.0935458e-04   4.9515614e+00   4.6856491e+00  -6.8303217e+06
   6.2354118e-10  -7.0481407e-04   4.9508528e+00   4.6866341e+00  -6.7867107e+06
   6.2420807e-10  -7.0030255e-04   4.9501485e+00   4.6876128e+00  -6.7433767e+06
   6.2487496e-10  -6.9581984e-04   4.9494487e+00   4.6885853e+00  -6.7003180e+06
   6.2554185e-10  -6.9136575e-04   4.9487533e+00   4.6895516e+00  -6.6575328e+06
   6.2620874e-10  -6.8694011e-04   4.9480622e+00   4.6905117e+00  -6.6150194e+06
   6.2687563e-10  -6.8254273e-04   4.9473754e+00   4.6914657e+00  -6.5727761e+06
   6.2754251e-10  -6.7817343e-04   4.9466929e+00   4.6924137e+00  -6.5308013e+06
   6.2820940e-10  -6.7383203e-04   4.9460146e+00   4.6933556e+00  -6.4890931e+06
   6.2887629e-10  -6.6951836e-04   4.9453406e+00   4.6942915e+00  -6.4476500e+06
   6.2954318e-10  -6.6523224e-04   4.9446708e+00   4.6952214e+00  -6.4064702e+06
   6.3021007e-10  -6.6097349e-04   4.9440052e+00   4.6961454e+00  -6.3655522e+06
   6.3087696e-10  -6.5674195e-04   4.9433438e+00   4.6970635e+00  -6.3248943e+06
   6.3154385e-10  -6.5253743e-04   4.9426865e+00   4.6979758e+00  -6.2844948e+06
   6.3221074e-10  -6.4835977e-04   4.9420333e+00   4.6988822e+00  -6.2443521e+06
   6.3287763e-10  -6.4420879e-04   4.9413842e+00   4.6997829e+00  -6.2044646e+06
   6.3354451e-10  -6.4008433e-04   4.9407392e+00   4.7006778e+00  -6.1648306e+06
   6.3421140e-10  -6.3598622e-04   4.9400982e+00   4.7015670e+00  -6.1254487e+06
   6.3487829e-10  -6.3191429e-04   4.9394612e+00   4.7024505e+00  -6.0863172e+06
   6.3554518e-10  -6.2786837e-04   4.9388282e+00   4.7033284e+00  -6.0474345e+06
   6.3621207e-10  -6.2384830e-04   4.9381991e+00   4.7042007e+00  -6.0087991e+06
   6.3687896e-10  -6.1985391e-04   4.9375740e+00   4.7050675e+00  -5.9704094e+06
   6.3754585e-10  -6.1588505e-04   4.9369529e+00   4.7059287e+00  -5.9322639e+06
   6.3821274e-10  -6.1194154e-04   4.9363356e+00   4.7067844e+00  -5.8943610e+06
   6.3887963e-10  -6.0802322e-04   4.9357221e+00   4.7076347e+00  -5.8566991e+06
   6.3954652e-10  -6.0412995e-04   4.9351126e+00   4.7084795e+00  -5.8192769e+06
   6.4021340e-10  -6.0026155e-04   4.9345068e+00   4.7093190e+00  -5.7820927e+06
   6.4088029e-10  -5.9641787e-04   4.9339048e+00   4.7101530e+00  -5.7451451e+06
   6.4154718e-10  -5.9259875e-04   4.9333067e+00   4.7109818e+00  -5.7084325e+06
   6.4221407e-10  -5.8880403e-04   4.9327122e+00   4.7118053e+00  -5.6719536e+06
   6.4288096e-10  -5.8503357e-04   4.9321215e+00   4.7126235e+00  -5.6357067e+06
   6.4354785e-10  -5.8128720e-04   4.9315345e+00   4.7134365e+00  -5.5996906e+06
   6.4421474e-10  -5.7756477e-04   4.9309512e+00   4.7142443e+00  -5.5639036e+06
   6.4488163e-10  -5.7386614e-04   4.9303715e+00   4.7150470e+00  -5.5283444e+06
   6.4554852e-10  -5.7019114e-04   4.9297955e+00   4.7158445e+00  -5.4930115e+06
   6.4621541e-10  -5.6653963e-04   4.9292231e+00   4.7166370e+00  -5.4579035e+06
   6.4688229e-10  -5.6291146e-04   4.9286543e+00   4.7174244e+00  -5.4230189e+06
   6.4754918e-10  -5.5930648e-04   4.9280891e+00   4.7182067e+00  -5.3883564e+06
   6.4821607e-10  -5.5572454e-04   4.9275274e+00   4.7189841e+00  -5.3539146e+06
   6.4888296e-10  -5.5216550e-04   4.9269692e+00   4.7197565e+00  -5.3196921e+06
   6.4954985e-10  -5.4862920e-04   4.9264146e+00   4.7205240e+00  -5.2856874e+06
   6.5021674e-10  -5.4511552e-04   4.9258634e+00   4.7212866e+00  -5.2518993e+06
   6.5088363e-10  -5.4162429e-04   4.9253157e+00   4.7220443e+00  -5.2183263e+06
   6.5155052e-10  -5.3815538e-04   4.9247714e+00   4.7227971e+00  -5.1849671e+06
   6.5221741e-10  -5.3470865e-04   4.9242306e+00   4.7235452e+00  -5.1518203e+06
   6.5288429e-10  -5.3128395e-04   4.9236931e+00   4.7242885e+00  -5.1188846e+06
   6.5355118e-10  -5.2788114e-04   4.9231591e+00   4.7250270e+00  -5.0861586e+06
   6.5421807e-10  -5.2450010e-04   4.9226284e+00   4.7257608e+00  -5.0536411e+06
   6.5488496e-10  -5.2114066e-04   4.9221010e+00   4.7264900e+00  -5.0213308e+06
   6.5555185e-10  -5.1780271e-04   4.9215770e+00   4.7272145e+00  -4.9892262e+06
   6.5621874e-10  -5.1448610e-04   4.9210562e+00   4.7279343e+00  -4.9573261e+06
   6.5688563e-10  -5.1119069e-04   4.9205387e+00   4.7286496e+00  -4.9256292e+06
   6.5755252e-10  -5.0791636e-04   4.9200245e+00   4.7293602e+00  -4.8941343e+06
   6.5821941e-10  -5.0466296e-04   4.9195135e+00   4.7300664e+00  -4.8628400e+06
   6.5888630e-10  -5.0143036e-04   4.9190058e+00   4.7307680e+00  -4.8317451e+06
   6.5955318e-10  -4.9821844e-04   4.9185012e+00   4.7314652e+00  -4.8008484e+06
   6.6022007e-10  -4.9502705e-04   4.9179998e+00   4.7321579e+00  -4.7701485e+06
   6.6088696e-10  -4.9185608e-04   4.9175016e+00   4.7328462e+00  -4.7396442e+06
   6.6155385e-10  -4.8870538e-04   4.9170065e+00   4.7335300e+00  -4.7093343e+06
   6.6222074e-10  -4.8557483e-04   4.9165145e+00   4.7342096e+00  -4.6792176e+06
   6.6288763e-10  -4.8246430e-04   4.9160256e+00   4.7348847e+00  -4.6492928e+06
   6.6355452e-10  -4.7937366e-04   4.9155398e+00   4.7355556e+00  -4.6195588e+06
   6.6422141e-10  -4.7630279e-04   4.9150571e+00   4.7362221e+00  -4.5900142e+06
   6.6488830e-10  -4.7325156e-04   4.9145774e+00   4.7368845e+00  -4.5606580e+06
   6.6555519e-10  -4.7021984e-04   4.9141007e+00   4.7375425e+00  -4.5314889e+06
   6.6622207e-10  -4.6720752e-04   4.9136270e+00   4.7381964e+00  -4.5025057e+06
   6.6688896e-10  -4.6421446e-04   4.9131563e+00   4.7388461e+00  -4.4737073e+06
   6.6755585e-10  -4.6124055e-04   4.9126886e+00   4.7394916e+00  -4.4450925e+06
   6.6822274e-10  -4.5828565e-04   4.9122239e+00   4.7401331e+00  -4.4166601e+06
   6.6888963e-10  -4.5534966e-04   4.9117620e+00   4.7407704e+00  -4.3884091e+06
   6.6955652e-10  -4.5243245e-04   4.9113031e+00   4.7414036e+00  -4.3603381e+06
   6.7022341e-10  -4.4953390e-04   4.9108471e+00   4.7420328e+00  -4.3324461e+06
   6.7089030e-10  -4.4665389e-04   4.9103939e+00   4.7426580e+00  -4.3047320e+06
   6.7155719e-10  -4.4379230e-04   4.9099436e+00   4.7432792e+00  -4.2771946e+06
   6.7222407e-10  -4.4094902e-04   4.9094962e+00   4.7438964e+00  -4.2498328e+06
   6.7289096e-10  -4.3812393e-04   4.9090515e+00   4.7445096e+00  -4.2226455e+06
   6.7355785e-10  -4.3531691e-04   4.9086097e+00   4.7451190e+00  -4.1956316e+06
   6.7422474e-10  -4.3252785e-04   4.9081707e+00   4.7457244e+00  -4.1687900e+06
   6.7489163e-10  -4.2975664e-04   4.9077344e+00   4.7463260e+00  -4.1421196e+06
   6.7555852e-10  -4.2700315e-04   4.9073009e+00   4.7469237e+00  -4.1156193e+06
   6.7622541e-10  -4.2426728e-04   4.9068701e+00   4.7475177e+00  -4.0892880e+06
   6.7689230e-10  -4.2154891e-04   4.9064421e+00   4.7481078e+00  -4.0631247e+06
   6.7755919e-10  -4.1884793e-04   4.9060168e+00   4.7486941e+00  -4.0371283e+06
   6.7822608e-10  -4.1616424e-04   4.9055941e+00   4.7492767e+00  -4.0112977e+06
   6.7889296e-10  -4.1349772e-04   4.9051741e+00   4.7498556e+00  -3.9856320e+06
   6.7955985e-10  -4.1084825e-04   4.9047568e+00   4.7504307e+00  -3.9601299e+06
   6.8022674e-10  -4.0821575e-04   4.9043421e+00   4.7510022e+00  -3.9347906e+06
   6.8089363e-10  -4.0560008e-04   4.9039300e+00   4.7515701e+00  -3.9096130e+06
   6.8156052e-10  -4.0300115e-04   4.9035205e+00   4.7521343e+00  -3.8845960e+06
   6.8222741e-10  -4.0041886e-04   4.9031136e+00   4.7526949e+00  -3.8597386e+06
   6.8289430e-10  -3.9785308e-04   4.9027093e+00   4.7532519e+00  -3.8350399e+06
   6.8356119e-10  -3.9530373e-04   4.9023076e+00   4.7538053e+00  -3.8104988e+06
   6.8422808e-10  -3.9277069e-04   4.9019083e+00   4.7543552e+00  -3.7861142e+06
   6.8489496e-10  -3.9025386e-04   4.9015117e+00   4.7549016e+00  -3.7618853e+06
   6.8556185e-10  -3.8775314e-04   4.9011175e+00   4.7554445e+00  -3.7378111e+06
   6.8622874e-10  -3.8526842e-04   4.9007258e+00   4.7559839e+00  -3.7138905e+06
   6.8689563e-10  -3.8279960e-04   4.9003366e+00   4.7565199e+00  -3.6901225e+06
   6.8756252e-10  -3.8034658e-04   4.8999498e+00   4.7570525e+00  -3.6665063e+06
   6.8822941e-10  -3.7790926e-04   4.8995655e+00   4.7575816e+00  -3.6430408e+06
   6.8889630e-10  -3.7548754e-04   4.8991836e+00   4.7581074e+00  -3.6197251e+06
   6.8956319e-10  -3.7308132e-04   4.8988042e+00   4.7586298e+00  -3.5965582e+06
   6.9023008e-10  -3.7069049e-04   4.8984271e+00   4.7591488e+00  -3.5735392e+06
   6.9089697e-10  -3.6831498e-04   4.8980524e+00   4.7596645e+00  -3.5506672e+06
   6.9156385e-10  -3.6595466e-04   4.8976801e+00   4.7601770e+00  -3.5279411e+06
   6.9223074e-10  -3.6360945e-04   4.8973102e+00   4.7606861e+00  -3.5053602e+06
   6.9289763e-10  -3.6127926e-04   4.8969426e+00   4.7611920e+00  -3.4829235e+06
   6.9356452e-10  -3.5896398e-04   4.8965773e+00   4.7616947e+00  -3.4606299e+06
   6.9423141e-10  -3.5666351e-04   4.8962144e+00   4.7621941e+00  -3.4384788e+06
   6.9489830e-10  -3.5437778e-04   4.8958537e+00   4.7626904e+00  -3.4164691e+06
   6.9556519e-10  -3.5210667e-04   4.8954953e+00   4.7631834e+00  -3.3945999e+06
   6.9623208e-10  -3.4985010e-04   4.8951392e+00   4.7636734e+00  -3.3728703e+06
   6.9689897e-10  -3.4760798e-04   4.8947854e+00   4.7641601e+00  -3.3512796e+06
   6.9756586e-10  -3.4538021e-04   4.8944337e+00   4.7646438e+00  -3.3298267e+06
   6.9823274e-10  -3.4316670e-04   4.8940844e+00   4.7651244e+00  -3.3085108e+06
   6.9889963e-10  -3.4096736e-04   4.8937372e+00   4.7656019e+00  -3.2873310e+06
   6.9956652e-10  -3.3878210e-04   4.8933922e+00   4.7660763e+00  -3.2662865e+06
   7.0023341e-10  -3.3661083e-04   4.8930494e+00   4.7665477e+00  -3.2453764e+06
   7.0090030e-10  -3.3445346e-04   4.8927088e+00   4.7670161e+00  -3.2245999e+06
   7.0156719e-10  -3.3230990e-04   4.8923704e+00   4.7674815e+00  -3.2039561e+06
   7.0223408e-10  -3.3018006e-04   4.8920340e+00   4.7679440e+00  -3.1834441e+06
   7.0290097e-10  -3.2806386e-04   4.8916999e+00   4.7684034e+00  -3.1630631e+06
   7.0356786e-10  -3.2596121e-04   4.8913678e+00   4.7688599e+00  -3.1428124e+06
   7.0423474e-10  -3.2387202e-04   4.8910379e+00   4.7693135e+00  -3.1226910e+06
   7.0490163e-10  -3.2179621e-04   4.8907100e+00   4.7697642e+00  -3.1026981e+06
   7.0556852e-10  -3.1973368e-04   4.8903842e+00   4.7702120e+00  -3.0828330e+06
   7.0623541e-10  -3.1768436e-04   4.8900605e+00   4.7706570e+00  -3.0630948e+06
   7.0690230e-10  -3.1564817e-04   4.8897388e+00   4.7710991e+00  -3.0434826e+06
   7.0756919e-10  -3.1362501e-04   4.8894192e+00   4.7715383e+00  -3.0239958e+06
   7.0823608e-10  -3.1161480e-04   4.8891016e+00   4.7719748e+00  -3.0046335e+06
   7.0890297e-10  -3.0961746e-04   4.8887860e+00   4.7724084e+00  -2.9853949e+06
   7.0956986e-10  -3.0763292e-04   4.8884724e+00   4.7728393e+00  -2.9662792e+06
   7.1023675e-10  -3.0566108e-04   4.8881608e+00   4.7732675e+00  -2.9472856e+06
   7.1090363e-10  -3.0370187e-04   4.8878512e+00   4.7736928e+00  -2.9284135e+06
   7.1157052e-10  -3.0175520e-04   4.8875436e+00   4.7741155e+00  -2.9096619e+06
   7.1223741e-10  -2.9982100e-04   4.8872379e+00   4.7745355e+00  -2.8910301e+06
   7.1290430e-10  -2.9789918e-04   4.8869341e+00   4.7749527e+00  -2.8725174e+06
   7.1357119e-10  -2.9598967e-04   4.8866323e+00   4.7753673e+00  -2.8541230e+06
   7.1423808e-10  -2.9409239e-04   4.8863324e+00   4.7757793e+00  -2.8358462e+06
   7.1490497e-10  -2.9220726e-04   4.8860344e+00   4.7761886e+00  -2.8176862e+06
   7.1557186e-10  -2.9033420e-04   4.8857382e+00   4.7765953e+00  -2.7996422e+06
   7.1623875e-10  -2.8847313e-04   4.8854440e+00   4.7769994e+00  -2.7817135e+06
   7.1690564e-10  -2.8662398e-04   4.8851516e+00   4.7774009e+00  -2.7638995e+06
   7.1757252e-10  -2.8478668e-04   4.8848611e+00   4.7777998e+00  -2.7461993e+06
   7.1823941e-10  -2.8296114e-04   4.8845724e+00   4.7781961e+00  -2.7286122e+06
   7.1890630e-10  -2.8114729e-04   4.8842856e+00   4.7785900e+00  -2.7111376e+06
   7.1957319e-10  -2.7934506e-04   4.8840006e+00   4.7789813e+00  -2.6937746e+06
   7.2024008e-10  -2.7755437e-04   4.8837174e+00   4.7793701e+00  -2.6765226e+06
   7.2090697e-10  -2.7577515e-04   4.8834360e+00   4.7797564e+00  -2.6593809e+06
   7.2157386e-10  -2.7400732e-04   4.8831564e+00   4.7801403e+00  -2.6423488e+06
   7.2224075e-10  -2.7225081e-04   4.8828785e+00   4.7805217e+00  -2.6254256e+06
   7.2290764e-10  -2.7050556e-04   4.8826024e+00   4.7809006e+00  -2.6086106e+06
   7.2357452e-10  -2.6877148e-04   4.8823281e+00   4.7812771e+00  -2.5919030e+06
   7.2424141e-10  -2.6704851e-04   4.8820555e+00   4.7816512e+00  -2.5753023e+06
   7.2490830e-10  -2.6533658e-04   4.8817847e+00   4.7820229e+00  -2.5588077e+06
   7.2557519e-10  -2.6363561e-04   4.8815155e+00   4.7823923e+00  -2.5424186e+06
   7.2624208e-10  -2.6194553e-04   4.8812481e+00   4.7827592e+00  -2.5261342e+06
   7.2690897e-10  -2.6026628e-04   4.8809824e+00   4.7831239e+00  -2.5099540e+06
   7.2757586e-10  -2.5859779e-04   4.8807184e+00   4.7834861e+00  -2.4938772e+06
   7.2824275e-10  -2.5693998e-04   4.8804560e+00   4.7838461e+00  -2.4779032e+06
   7.2890964e-10  -2.5529279e-04   4.8801953e+00   4.7842038e+00  -2.4620314e+06
   7.2957653e-10  -2.5365616e-04   4.8799363e+00   4.7845591e+00  -2.4462610e+06
   7.3024341e-10  -2.5203000e-04   4.8796789e+00   4.7849122e+00  -2.4305915e+06
   7.3091030e-10  -2.5041426e-04   4.8794232e+00   4.7852631e+00  -2.4150222e+06
   7.3157719e-10  -2.4880888e-04   4.8791691e+00   4.7856116e+00  -2.3995525e+06
   7.3224408e-10  -2.4721377e-04   4.8789166e+00   4.7859580e+00  -2.3841816e+06
   7.3291097e-10  -2.4562889e-04   4.8786657e+00   4.7863021e+00  -2.3689091e+06
   7.3357786e-10  -2.4405415e-04   4.8784164e+00   4.7866440e+00  -2.3537343e+06
   7.3424475e-10  -2.4248951e-04   4.8781687e+00   4.7869838e+00  -2.3386565e+06
   7.3491164e-10  -2.4093488e-04   4.8779225e+00   4.7873214e+00  -2.3236751e+06
   7.3557853e-10  -2.3939022e-04   4.8776779e+00   4.7876568e+00  -2.3087895e+06
   7.3624542e-10  -2.3785545e-04   4.8774349e+00   4.7879900e+00  -2.2939992e+06
   7.3691230e-10  -2.3633051e-04   4.8771935e+00   4.7883211e+00  -2.2793034e+06
   7.3757919e-10  -2.3481534e-04   4.8769535e+00   4.7886501e+00  -2.2647017e+06
   7.3824608e-10  -2.3330988e-04   4.8767151e+00   4.7889770e+00  -2.2501933e+06
   7.3891297e-10  -2.3181406e-04   4.8764782e+00   4.7893018e+00  -2.2357777e+06
   7.3957986e-10  -2.3032783e-04   4.8762428e+00   4.7896245e+00  -2.2214544e+06
   7.4024675e-10  -2.2885112e-04   4.8760089e+00   4.7899452e+00  -2.2072226e+06
   7.4091364e-10  -2.2738386e-04   4.8757765e+00   4.7902638e+00  -2.1930819e+06
   7.4158053e-10  -2.2592601e-04   4.8755456e+00   4.7905803e+00  -2.1790317e+06
   7.4224742e-10  -2.2447750e-04   4.8753162e+00   4.7908949e+00  -2.1650713e+06
   7.4291430e-10  -2.2303827e-04   4.8750882e+00   4.7912074e+00  -2.1512002e+06
   7.4358119e-10  -2.2160826e-04   4.8748616e+00   4.7915179e+00  -2.1374179e+06
   7.4424808e-10  -2.2018741e-04   4.8746365e+00   4.7918264e+00  -2.1237238e+06
   7.4491497e-10  -2.1877566e-04   4.8744129e+00   4.7921329e+00  -2.1101172e+06
   7.4558186e-10  -2.1737296e-04   4.8741906e+00   4.7924375e+00  -2.0965977e+06
   7.4624875e-10  -2.1597925e-04   4.8739698e+00   4.7927402e+00  -2.0831647e+06
   7.4691564e-10  -2.1459446e-04   4.8737504e+00   4.7930408e+00  -2.0698176e+06
   7.4758253e-10  -2.1321855e-04   4.8735323e+00   4.7933396e+00  -2.0565559e+06
   7.4824942e-10  -2.1185146e-04   4.8733157e+00   4.7936365e+00  -2.0433791e+06
   7.4891631e-10  -2.1049312e-04   4.8731005e+00   4.7939314e+00  -2.0302866e+06
   7.4958319e-10  -2.0914348e-04   4.8728866e+00   4.7942245e+00  -2.0172779e+06
   7.5025008e-10  -2.0780250e-04   4.8726740e+00   4.7945157e+00  -2.0043524e+06
   7.5091697e-10  -2.0647011e-04   4.8724629e+00   4.7948050e+00  -1.9915095e+06
   7.5158386e-10  -2.0514625e-04   4.8722530e+00   4.7950924e+00  -1.9787489e+06
   7.5225075e-10  -2.0383088e-04   4.8720446e+00   4.7953781e+00  -1.9660699e+06
   7.5291764e-10  -2.0252393e-04   4.8718374e+00   4.7956619e+00  -1.9534721e+06
   7.5358453e-10  -2.0122536e-04   4.8716315e+00   4.7959438e+00  -1.9409549e+06
   7.5425142e-10  -1.9993511e-04   4.8714270e+00   4.7962240e+00  -1.9285177e+06
   7.5491831e-10  -1.9865313e-04   4.8712238e+00   4.7965024e+00  -1.9161602e+06
   7.5558520e-10  -1.9737936e-04   4.8710219e+00   4.7967790e+00  -1.9038817e+06
   7.5625208e-10  -1.9611376e-04   4.8708212e+00   4.7970538e+00  -1.8916818e+06
   7.5691897e-10  -1.9485626e-04   4.8706218e+00   4.7973268e+00  -1.8795600e+06
   7.5758586e-10  -1.9360682e-04   4.8704237e+00   4.7975981e+00  -1.8675158e+06
   7.5825275e-10  -1.9236539e-04   4.8702269e+00   4.7978677e+00  -1.8555486e+06
   7.5891964e-10  -1.9113192e-04   4.8700313e+00   4.7981355e+00  -1.8436580e+06
   7.5958653e-10  -1.8990634e-04   4.8698370e+00   4.7984017e+00  -1.8318435e+06
   7.6025342e-10  -1.8868863e-04   4.8696439e+00   4.7986661e+00  -1.8201047e+06
   7.6092031e-10  -1.8747871e-04   4.8694520e+00   4.7989288e+00  -1.8084410e+06
   7.6158720e-10  -1.8627655e-04   4.8692614e+00   4.7991899e+00  -1.7968519e+06
   7.6225408e-10  -1.8508209e-04   4.8690719e+00   4.7994492e+00  -1.7853370e+06
   7.6292097e-10  -1.8389529e-04   4.8688837e+00   4.7997069e+00  -1.7738958e+06
   7.6358786e-10  -1.8271609e-04   4.8686967e+00   4.7999630e+00  -1.7625278e+06
   7.6425475e-10  -1.8154445e-04   4.8685109e+00   4.8002174e+00  -1.7512326e+06
   7.6492164e-10  -1.8038032e-04   4.8683262e+00   4.8004702e+00  -1.7400097e+06
   7.6558853e-10  -1.7922365e-04   4.8681428e+00   4.8007214e+00  -1.7288586e+06
   7.6625542e-10  -1.7807439e-04   4.8679605e+00   4.8009709e+00  -1.7177789e+06
   7.6692231e-10  -1.7693250e-04   4.8677793e+00   4.8012189e+00  -1.7067701e+06
   7.6758920e-10  -1.7579793e-04   4.8675993e+00   4.8014652e+00  -1.6958318e+06
   7.6825609e-10  -1.7467062e-04   4.8674205e+00   4.8017100e+00  -1.6849636e+06
   7.6892297e-10  -1.7355054e-04   4.8672428e+00   4.8019533e+00  -1.6741649e+06
   7.6958986e-10  -1.7243764e-04   4.8670663e+00   4.8021949e+00  -1.6634353e+06
   7.7025675e-10  -1.7133187e-04   4.8668908e+00   4.8024350e+00  -1.6527744e+06
   7.7092364e-10  -1.7023319e-04   4.8667165e+00   4.8026736e+00  -1.6421817e+06
   7.7159053e-10  -1.6914155e-04   4.8665433e+00   4.8029106e+00  -1.6316569e+06
   7.7225742e-10  -1.6805691e-04   4.8663712e+00   4.8031462e+00  -1.6211994e+06
   7.7292431e-10  -1.6697922e-04   4.8662002e+00   4.8033802e+00  -1.6108089e+06
   7.7359120e-10  -1.6590843e-04   4.8660303e+00   4.8036127e+00  -1.6004849e+06
   7.7425809e-10  -1.6484451e-04   4.8658615e+00   4.8038437e+00  -1.5902271e+06
   7.7492497e-10  -1.6378741e-04   4.8656937e+00   4.8040733e+00  -1.5800348e+06
   7.7559186e-10  -1.6273708e-04   4.8655270e+00   4.8043014e+00  -1.5699079e+06
   7.7625875e-10  -1.6169349e-04   4.8653614e+00   4.8045280e+00  -1.5598457e+06
   7.7692564e-10  -1.6065658e-04   4.8651968e+00   4.8047531e+00  -1.5498480e+06
   7.7759253e-10  -1.5962632e-04   4.8650333e+00   4.8049768e+00  -1.5399144e+06
   7.7825942e-10  -1.5860266e-04   4.8648709e+00   4.8051991e+00  -1.5300443e+06
   7.7892631e-10  -1.5758557e-04   4.8647094e+00   4.8054200e+00  -1.5202374e+06
   7.7959320e-10  -1.5657499e-04   4.8645490e+00   4.8056394e+00  -1.5104933e+06
   7.8026009e-10  -1.5557089e-04   4.8643896e+00   4.8058575e+00  -1.5008116e+06
   7.8092698e-10  -1.5457323e-04   4.8642313e+00   4.8060741e+00  -1.4911919e+06
   7.8159386e-10  -1.5358196e-04   4.8640739e+00   4.8062894e+00  -1.4816337e+06
   7.8226075e-10  -1.5259704e-04   4.8639176e+00   4.8065032e+00  -1.4721368e+06
   7.8292764e-10  -1.5161844e-04   4.8637622e+00   4.8067157e+00  -1.4627007e+06
   7.8359453e-10  -1.5064611e-04   4.8636079e+00   4.8069269e+00  -1.4533250e+06
   7.8426142e-10  -1.4968001e-04   4.8634545e+00   4.8071367e+00  -1.4440094e+06
   7.8492831e-10  -1.4872011e-04   4.8633021e+00   4.8073451e+00  -1.4347534e+06
   7.8559520e-10  -1.4776636e-04   4.8631507e+00   4.8075522e+00  -1.4255567e+06
   7.8626209e-10  -1.4681872e-04   4.8630002e+00   4.8077580e+00  -1.4164189e+06
   7.8692898e-10  -1.4587716e-04   4.8628507e+00   4.8079625e+00  -1.4073395e+06
   7.8759587e-10  -1.4494163e-04   4.8627022e+00   4.8081656e+00  -1.3983184e+06
   7.8826275e-10  -1.4401210e-04   4.8625546e+00   4.8083675e+00  -1.3893550e+06
   7.8892964e-10  -1.4308853e-04   4.8624080e+00   4.8085680e+00  -1.3804490e+06
   7.8959653e-10  -1.4217087e-04   4.8622622e+00   4.8087673e+00  -1.3716000e+06
   7.9026342e-10  -1.4125910e-04   4.8621175e+00   4.8089653e+00  -1.3628078e+06
   7.9093031e-10  -1.4035318e-04   4.8619736e+00   4.8091620e+00  -1.3540718e+06
   7.9159720e-10  -1.3945306e-04   4.8618307e+00   4.8093574e+00  -1.3453917e+06
   7.9226409e-10  -1.3855871e-04   4.8616886e+00   4.8095516e+00  -1.3367673e+06
   7.9293098e-10  -1.3767010e-04   4.8615475e+00   4.8097446e+00  -1.3281981e+06
   7.9359787e-10  -1.3678718e-04   4.8614073e+00   4.8099363e+00  -1.3196838e+06
   7.9426475e-10  -1.3590992e-04   4.8612680e+00   4.8101268e+00  -1.3112240e+06
   7.9493164e-10  -1.3503828e-04   4.8611295e+00   4.8103161e+00  -1.3028184e+06
   7.9559853e-10  -1.3417224e-04   4.8609920e+00   4.8105042e+00  -1.2944666e+06
   7.9626542e-10  -1.3331174e-04   4.8608553e+00   4.8106910e+00  -1.2861683e+06
   7.9693231e-10  -1.3245676e-04   4.8607195e+00   4.8108767e+00  -1.2779232e+06
   7.9759920e-10  -1.3160726e-04   4.8605846e+00   4.8110612e+00  -1.2697309e+06
   7.9826609e-10  -1.3076321e-04   4.8604505e+00   4.8112444e+00  -1.2615911e+06
   7.9893298e-10  -1.2992457e-04   4.8603173e+00   4.8114266e+00  -1.2535034e+06
   7.9959987e-10  -1.2909130e-04   4.8601849e+00   4.8116075e+00  -1.2454675e+06
   8.0026676e-10  -1.2826338e-04   4.8600534e+00   4.8117873e+00  -1.2374830e+06
   8.0093364e-10  -1.2744077e-04   4.8599227e+00   4.8119659e+00  -1.2295497e+06
   8.0160053e-10  -1.2662342e-04   4.8597929e+00   4.8121434e+00  -1.2216673e+06
   8.0226742e-10  -1.2581132e-04   4.8596638e+00   4.8123197e+00  -1.2138353e+06
   8.0293431e-10  -1.2500443e-04   4.8595357e+00   4.8124950e+00  -1.2060535e+06
   8.0360120e-10  -1.2420270e-04   4.8594083e+00   4.8126691e+00  -1.1983215e+06
   8.0426809e-10  -1.2340612e-04   4.8592817e+00   4.8128420e+00  -1.1906391e+06
   8.0493498e-10  -1.2261464e-04   4.8591560e+00   4.8130139e+00  -1.1830059e+06
   8.0560187e-10  -1.2182824e-04   4.8590310e+00   4.8131847e+00  -1.1754215e+06
   8.0626876e-10  -1.2104688e-04   4.8589069e+00   4.8133543e+00  -1.1678858e+06
   8.0693565e-10  -1.2027053e-04   4.8587835e+00   4.8135229e+00  -1.1603983e+06
   8.0760253e-10  -1.1949916e-04   4.8586609e+00   4.8136904e+00  -1.1529588e+06
   8.0826942e-10  -1.1873273e-04   4.8585392e+00   4.8138569e+00  -1.1455670e+06
   8.0893631e-10  -1.1797122e-04   4.8584182e+00   4.8140222e+00  -1.1382225e+06
   8.0960320e-10  -1.1721458e-04   4.8582979e+00   4.8141865e+00  -1.1309251e+06
   8.1027009e-10  -1.1646280e-04   4.8581785e+00   4.8143498e+00  -1.1236744e+06
   8.1093698e-10  -1.1571584e-04   4.8580598e+00   4.8145120e+00  -1.1164702e+06
   8.1160387e-10  -1.1497367e-04   4.8579418e+00   4.8146732e+00  -1.1093121e+06
   8.1227076e-10  -1.1423625e-04   4.8578246e+00   4.8148333e+00  -1.1021999e+06
   8.1293765e-10  -1.1350357e-04   4.8577082e+00   4.8149924e+00  -1.0951332e+06
   8.1360453e-10  -1.1277558e-04   4.8575925e+00   4.8151505e+00  -1.0881118e+06
   8.1427142e-10  -1.1205226e-04   4.8574775e+00   4.8153075e+00  -1.0811354e+06
   8.1493831e-10  -1.1133358e-04   4.8573633e+00   4.8154636e+00  -1.0742037e+06
   8.1560520e-10  -1.1061950e-04   4.8572498e+00   4.8156187e+00  -1.0673164e+06
   8.1627209e-10  -1.0991000e-04   4.8571370e+00   4.8157727e+00  -1.0604733e+06
   8.1693898e-10  -1.0920505e-04   4.8570250e+00   4.8159258e+00  -1.0536739e+06
   8.1760587e-10  -1.0850463e-04   4.8569137e+00   4.8160779e+00  -1.0469182e+06
   8.1827276e-10  -1.0780869e-04   4.8568030e+00   4.8162290e+00  -1.0402057e+06
   8.1893965e-10  -1.0711721e-04   4.8566931e+00   4.8163792e+00  -1.0335362e+06
   8.1960654e-10  -1.0643017e-04   4.8565839e+00   4.8165284e+00  -1.0269095e+06
   8.2027342e-10  -1.0574753e-04   4.8564754e+00   4.8166766e+00  -1.0203252e+06
   8.2094031e-10  -1.0506927e-04   4.8563676e+00   4.8168239e+00  -1.0137831e+06
   8.2160720e-10  -1.0439536e-04   4.8562605e+00   4.8169702e+00  -1.0072830e+06
   8.2227409e-10  -1.0372577e-04   4.8561540e+00   4.8171157e+00  -1.0008245e+06
   8.2294098e-10  -1.0306048e-04   4.8560483e+00   4.8172601e+00  -9.9440732e+05
   8.2360787e-10  -1.0239945e-04   4.8559432e+00   4.8174037e+00  -9.8803130e+05
   8.2427476e-10  -1.0174265e-04   4.8558388e+00   4.8175463e+00  -9.8169614e+05
   8.2494165e-10  -1.0109007e-04   4.8557350e+00   4.8176880e+00  -9.7540157e+05
   8.2560854e-10  -1.0044168e-04   4.8556319e+00   4.8178288e+00  -9.6914733e+05
   8.2627543e-10  -9.9797436e-05   4.8555295e+00   4.8179687e+00  -9.6293317e+05
   8.2694231e-10  -9.9157327e-05   4.8554277e+00   4.8181077e+00  -9.5675883e+05
   8.2760920e-10  -9.8521323e-05   4.8553266e+00   4.8182458e+00  -9.5062405e+05
   8.2827609e-10  -9.7889397e-05   4.8552261e+00   4.8183830e+00  -9.4452859e+05
   8.2894298e-10  -9.7261523e-05   4.8551263e+00   4.8185194e+00  -9.3847218e+05
   8.2960987e-10  -9.6637675e-05   4.8550271e+00   4.8186548e+00  -9.3245459e+05
   8.3027676e-10  -9.6017827e-05   4.8549285e+00   4.8187894e+00  -9.2647555e+05
   8.3094365e-10  -9.5401954e-05   4.8548306e+00   4.8189232e+00  -9.2053483e+05
   8.3161054e-10  -9.4790030e-05   4.8547333e+00   4.8190561e+00  -9.1463218e+05
   8.3227743e-10  -9.4182029e-05   4.8546366e+00   4.8191881e+00  -9.0876736e+05
   8.3294431e-10  -9.3577927e-05   4.8545406e+00   4.8193193e+00  -9.0294012e+05
   8.3361120e-10  -9.2977699e-05   4.8544451e+00   4.8194496e+00  -8.9715022e+05
   8.3427809e-10  -9.2381320e-05   4.8543503e+00   4.8195791e+00  -8.9139742e+05
   8.3494498e-10  -9.1788765e-05   4.8542561e+00   4.8197078e+00  -8.8568149e+05
   8.3561187e-10  -9.1200009e-05   4.8541624e+00   4.8198356e+00  -8.8000220e+05
   8.3627876e-10  -9.0615029e-05   4.8540694e+00   4.8199627e+00  -8.7435930e+05
   8.3694565e-10  -9.0033800e-05   4.8539770e+00   4.8200889e+00  -8.6875256e+05
   8.3761254e-10  -8.9456298e-05   4.8538851e+00   4.8202143e+00  -8.6318175e+05
   8.3827943e-10  -8.8882500e-05   4.8537939e+00   4.8203389e+00  -8.5764665e+05
   8.3894632e-10  -8.8312380e-05   4.8537032e+00   4.8204627e+00  -8.5214701e+05
   8.3961320e-10  -8.7745917e-05   4.8536131e+00   4.8205857e+00  -8.4668263e+05
   8.4028009e-10  -8.7183086e-05   4.8535236e+00   4.8207079e+00  -8.4125326e+05
   8.4094698e-10  -8.6623864e-05   4.8534346e+00   4.8208294e+00  -8.3585869e+05
   8.4161387e-10  -8.6068228e-05   4.8533463e+00   4.8209500e+00  -8.3049870e+05
   8.4228076e-10  -8.5516156e-05   4.8532585e+00   4.8210699e+00  -8.2517305e+05
   8.4294765e-10  -8.4967623e-05   4.8531712e+00   4.8211890e+00  -8.1988154e+05
   8.4361454e-10  -8.4422608e-05   4.8530845e+00   4.8213074e+00  -8.1462395e+05
   8.4428143e-10  -8.3881088e-05   4.8529984e+00   4.8214250e+00  -8.0940004e+05
   8.4494832e-10  -8.3343041e-05   4.8529128e+00   4.8215418e+00  -8.0420962e+05
   8.4561521e-10  -8.2808444e-05   4.8528278e+00   4.8216579e+00  -7.9905247e+05
   8.4628209e-10  -8.2277275e-05   4.8527433e+00   4.8217732e+00  -7.9392837e+05
   8.4694898e-10  -8.1749512e-05   4.8526593e+00   4.8218879e+00  -7.8883711e+05
   8.4761587e-10  -8.1225134e-05   4.8525759e+00   4.8220017e+00  -7.8377848e+05
   8.4828276e-10  -8.0704119e-05   4.8524930e+00   4.8221149e+00  -7.7875228e+05
   8.4894965e-10  -8.0186444e-05   4.8524107e+00   4.8222273e+00  -7.7375829e+05
   8.4961654e-10  -7.9672090e-05   4.8523289e+00   4.8223390e+00  -7.6879631e+05
   8.5028343e-10  -7.9161034e-05   4.8522476e+00   4.8224499e+00  -7.6386614e+05
   8.5095032e-10  -7.8653255e-05   4.8521668e+00   4.8225602e+00  -7.5896756e+05
   8.5161721e-10  -7.8148733e-05   4.8520865e+00   4.8226698e+00  -7.5410038e+05
   8.5228409e-10  -7.7647446e-05   4.8520068e+00   4.8227786e+00  -7.4926440e+05
   8.5295098e-10  -7.7149373e-05   4.8519275e+00   4.8228868e+00  -7.4445942e+05
   8.5361787e-10  -7.6654495e-05   4.8518488e+00   4.8229942e+00  -7.3968523e+05
   8.5428476e-10  -7.6162791e-05   4.8517706e+00   4.8231010e+00  -7.3494165e+05
   8.5495165e-10  -7.5674240e-05   4.8516928e+00   4.8232071e+00  -7.3022847e+05
   8.5561854e-10  -7.5188821e-05   4.8516156e+00   4.8233125e+00  -7.2554551e+05
   8.5628543e-10  -7.4706516e-05   4.8515389e+00   4.8234173e+00  -7.2089256e+05
   8.5695232e-10  -7.4227304e-05   4.8514626e+00   4.8235213e+00  -7.1626943e+05
   8.5761921e-10  -7.3751165e-05   4.8513869e+00   4.8236247e+00  -7.1167594e+05
   8.5828610e-10  -7.3278080e-05   4.8513116e+00   4.8237274e+00  -7.0711189e+05
   8.5895298e-10  -7.2808029e-05   4.8512368e+00   4.8238295e+00  -7.0257710e+05
   8.5961987e-10  -7.2340992e-05   4.8511625e+00   4.8239309e+00  -6.9807138e+05
   8.6028676e-10  -7.1876950e-05   4.8510887e+00   4.8240317e+00  -6.9359454e+05
   8.6095365e-10  -7.1415884e-05   4.8510153e+00   4.8241318e+00  -6.8914640e+05
   8.6162054e-10  -7.0957775e-05   4.8509424e+00   4.8242313e+00  -6.8472677e+05
   8.6228743e-10  -7.0502604e-05   4.8508700e+00   4.8243302e+00  -6.8033547e+05
   8.6295432e-10  -7.0050353e-05   4.8507980e+00   4.8244284e+00  -6.7597233e+05
   8.6362121e-10  -6.9601001e-05   4.8507265e+00   4.8245259e+00  -6.7163715e+05
   8.6428810e-10  -6.9154532e-05   4.8506555e+00   4.8246229e+00  -6.6732976e+05
   8.6495498e-10  -6.8710925e-05   4.8505849e+00   4.8247192e+00  -6.6304998e+05
   8.6562187e-10  -6.8270164e-05   4.8505147e+00   4.8248149e+00  -6.5879764e+05
   8.6628876e-10  -6.7832230e-05   4.8504450e+00   4.8249100e+00  -6.5457256e+05
   8.6695565e-10  -6.7397104e-05   4.8503758e+00   4.8250045e+00  -6.5037456e+05
   8.6762254e-10  -6.6964768e-05   4.8503070e+00   4.8250984e+00  -6.4620347e+05
   8.6828943e-10  -6.6535206e-05   4.8502386e+00   4.8251917e+00  -6.4205913e+05
   8.6895632e-10  -6.6108398e-05   4.8501707e+00   4.8252844e+00  -6.3794135e+05
   8.6962321e-10  -6.5684328e-05   4.8501032e+00   4.8253765e+00  -6.3384997e+05
   8.7029010e-10  -6.5262977e-05   4.8500362e+00   4.8254680e+00  -6.2978482e+05
   8.7095699e-10  -6.4844329e-05   4.8499695e+00   4.8255589e+00  -6.2574572e+05
   8.7162387e-10  -6.4428366e-05   4.8499033e+00   4.8256492e+00  -6.2173253e+05
   8.7229076e-10  -6.4015070e-05   4.8498376e+00   4.8257389e+00  -6.1774506e+05
   8.7295765e-10  -6.3604425e-05   4.8497722e+00   4.8258281e+00  -6.1378315e+05
   8.7362454e-10  -6.3196414e-05   4.8497073e+00   4.8259167e+00  -6.0984664e+05
   8.7429143e-10  -6.2791020e-05   4.8496427e+00   4.8260047e+00  -6.0593537e+05
   8.7495832e-10  -6.2388225e-05   4.8495786e+00   4.8260922e+00  -6.0204917e+05
   8.7562521e-10  -6.1988014e-05   4.8495149e+00   4.8261791e+00  -5.9818789e+05
   8.7629210e-10  -6.1590370e-05   4.8494516e+00   4.8262655e+00  -5.9435136e+05
   8.7695899e-10  -6.1195276e-05   4.8493888e+00   4.8263513e+00  -5.9053943e+05
   8.7762588e-10  -6.0802716e-05   4.8493263e+00   4.8264365e+00  -5.8675194e+05
   8.7829276e-10  -6.0412674e-05   4.8492642e+00   4.8265212e+00  -5.8298873e+05
   8.7895965e-10  -6.0025133e-05   4.8492025e+00   4.8266054e+00  -5.7924964e+05
   8.7962654e-10  -5.9640078e-05   4.8491412e+00   4.8266890e+00  -5.7553453e+05
   8.8029343e-10  -5.9257493e-05   4.8490803e+00   4.8267721e+00  -5.7184324e+05
   8.8096032e-10  -5.8877361e-05   4.8490198e+00   4.8268546e+00  -5.6817561e+05
   8.8162721e-10  -5.8499667e-05   4.8489597e+00   4.8269366e+00  -5.6453149e+05
   8.8229410e-10  -5.8124396e-05   4.8489000e+00   4.8270181e+00  -5.6091074e+05
   8.8296099e-10  -5.7751532e-05   4.8488406e+00   4.8270991e+00  -5.5731321e+05
   8.8362788e-10  -5.7381059e-05   4.8487816e+00   4.8271795e+00  -5.5373873e+05
   8.8429476e-10  -5.7012962e-05   4.8487230e+00   4.8272595e+00  -5.5018718e+05
   8.8496165e-10  -5.6647226e-05   4.8486648e+00   4.8273389e+00  -5.4665840e+05
   8.8562854e-10  -5.6283836e-05   4.8486070e+00   4.8274178e+00  -5.4315224e+05
   8.8629543e-10  -5.5922777e-05   4.8485495e+00   4.8274962e+00  -5.3966856e+05
   8.8696232e-10  -5.5564033e-05   4.8484924e+00   4.8275741e+00  -5.3620721e+05
   8.8762921e-10  -5.5207591e-05   4.8484356e+00   4.8276515e+00  -5.3276806e+05
   8.8829610e-10  -5.4853434e-05   4.8483793e+00   4.8277284e+00  -5.2935096e+05
   8.8896299e-10  -5.4501549e-05   4.8483232e+00   4.8278048e+00  -5.2595577e+05
   8.8962988e-10  -5.4151921e-05   4.8482676e+00   4.8278808e+00  -5.2258235e+05
   8.9029677e-10  -5.3804536e-05   4.8482123e+00   4.8279562e+00  -5.1923055e+05
   8.9096365e-10  -5.3459378e-05   4.8481573e+00   4.8280311e+00  -5.1590025e+05
   8.9163054e-10  -5.3116434e-05   4.8481027e+00   4.8281056e+00  -5.1259130e+05
   8.9229743e-10  -5.2775690e-05   4.8480485e+00   4.8281796e+00  -5.0930356e+05
   8.9296432e-10  -5.2437132e-05   4.8479946e+00   4.8282531e+00  -5.0603691e+05
   8.9363121e-10  -5.2100745e-05   4.8479410e+00   4.8283262e+00  -5.0279120e+05
   8.9429810e-10  -5.1766515e-05   4.8478878e+00   4.8283988e+00  -4.9956630e+05
   8.9496499e-10  -5.1434430e-05   4.8478350e+00   4.8284709e+00  -4.9636208e+05
   8.9563188e-10  -5.1104474e-05   4.8477824e+00   4.8285425e+00  -4.9317841e+05
   8.9629877e-10  -5.0776635e-05   4.8477302e+00   4.8286137e+00  -4.9001514e+05
   8.9696566e-10  -5.0450898e-05   4.8476784e+00   4.8286844e+00  -4.8687216e+05
   8.9763254e-10  -5.0127251e-05   4.8476268e+00   4.8287547e+00  -4.8374934e+05
   8.9829943e-10  -4.9805680e-05   4.8475756e+00   4.8288246e+00  -4.8064653e+05
   8.9896632e-10  -4.9486171e-05   4.8475248e+00   4.8288939e+00  -4.7756363e+05
   8.9963321e-10  -4.9168711e-05   4.8474742e+00   4.8289629e+00  -4.7450049e+05
   9.0030010e-10  -4.8853288e-05   4.8474240e+00   4.8290314e+00  -4.7145699e+05
   9.0096699e-10  -4.8539888e-05   4.8473741e+00   4.8290994e+00  -4.6843300e+05
   9.0163388e-10  -4.8228498e-05   4.8473245e+00   4.8291670e+00  -4.6542841e+05
   9.0230077e-10  -4.7919106e-05   4.8472752e+00   4.8292342e+00  -4.6244308e+05
   9.0296766e-10  -4.7611698e-05   4.8472263e+00   4.8293010e+00  -4.5947690e+05
   9.0363454e-10  -4.7306261e-05   4.8471777e+00   4.8293673e+00  -4.5652973e+05
   9.0430143e-10  -4.7002784e-05   4.8471293e+00   4.8294332e+00  -4.5360146e+05
   9.0496832e-10  -4.6701254e-05   4.8470813e+00   4.8294987e+00  -4.5069197e+05
   9.0563521e-10  -4.6401657e-05   4.8470336e+00   4.8295638e+00  -4.4780114e+05
   9.0630210e-10  -4.6103982e-05   4.8469862e+00   4.8296284e+00  -4.4492884e+05
   9.0696899e-10  -4.5808217e-05   4.8469391e+00   4.8296926e+00  -4.4207496e+05
   9.0763588e-10  -4.5514348e-05   4.8468923e+00   4.8297564e+00  -4.3923938e+05
   9.0830277e-10  -4.5222365e-05   4.8468458e+00   4.8298198e+00  -4.3642199e+05
   9.0896966e-10  -4.4932254e-05   4.8467996e+00   4.8298828e+00  -4.3362266e+05
   9.0963655e-10  -4.4644004e-05   4.8467537e+00   4.8299454e+00  -4.3084128e+05
   9.1030343e-10  -4.4357604e-05   4.8467081e+00   4.8300076e+00  -4.2807773e+05
   9.1097032e-10  -4.4073040e-05   4.8466628e+00   4.8300694e+00  -4.2533191e+05
   9.1163721e-10  -4.3790301e-05   4.8466178e+00   4.8301308e+00  -4.2260369e+05
   9.1230410e-10  -4.3509377e-05   4.8465731e+00   4.8301918e+00  -4.1989297e+05
   9.1297099e-10  -4.3230254e-05   4.8465286e+00   4.8302524e+00  -4.1719963e+05
   9.1363788e-10  -4.2952921e-05   4.8464844e+00   4.8303127e+00  -4.1452357e+05
   9.1430477e-10  -4.2677367e-05   4.8464406e+00   4.8303725e+00  -4.1186466e+05
   9.1497166e-10  -4.2403581e-05   4.8463970e+00   4.8304319e+00  -4.0922280e+05
   9.1563855e-10  -4.2131551e-05   4.8463536e+00   4.8304910e+00  -4.0659789e+05
   9.1630544e-10  -4.1861266e-05   4.8463106e+00   4.8305497e+00  -4.0398981e+05
   9.1697232e-10  -4.1592715e-05   4.8462678e+00   4.8306080e+00  -4.0139845e+05
   9.1763921e-10  -4.1325886e-05   4.8462253e+00   4.8306660e+00  -3.9882371e+05
   9.1830610e-10  -4.1060769e-05   4.8461831e+00   4.8307235e+00  -3.9626548e+05
   9.1897299e-10  -4.0797352e-05   4.8461412e+00   4.8307807e+00  -3.9372366e+05
   9.1963988e-10  -4.0535625e-05   4.8460995e+00   4.8308376e+00  -3.9119814e+05
   9.2030677e-10  -4.0275577e-05   4.8460581e+00   4.8308940e+00  -3.8868881e+05
   9.2097366e-10  -4.0017197e-05   4.8460169e+00   4.8309502e+00  -3.8619557e+05
   9.2164055e-10  -3.9760475e-05   4.8459760e+00   4.8310059e+00  -3.8371833e+05
   9.2230744e-10  -3.9505399e-05   4.8459354e+00   4.8310613e+00  -3.8125697e+05
   9.2297432e-10  -3.9251959e-05   4.8458950e+00   4.8311163e+00  -3.7881139e+05
   9.2364121e-10  -3.9000145e-05   4.8458549e+00   4.8311710e+00  -3.7638150e+05
   9.2430810e-10  -3.8749946e-05   4.8458151e+00   4.8312253e+00  -3.7396719e+05
   9.2497499e-10  -3.8501352e-05   4.8457755e+00   4.8312793e+00  -3.7156836e+05
   9.2564188e-10  -3.8254353e-05   4.8457361e+00   4.8313330e+00  -3.6918491e+05
   9.2630877e-10  -3.8008938e-05   4.8456971e+00   4.8313863e+00  -3.6681676e+05
   9.2697566e-10  -3.7765098e-05   4.8456582e+00   4.8314392e+00  -3.6446378e+05
   9.2764255e-10  -3.7522821e-05   4.8456196e+00   4.8314918e+00  -3.6212590e+05
   9.2830944e-10  -3.7282099e-05   4.8455813e+00   4.8315441e+00  -3.5980301e+05
   9.2897633e-10  -3.7042921e-05   4.8455432e+00   4.8315960e+00  -3.5749502e+05
   9.2964321e-10  -3.6805277e-05   4.8455053e+00   4.8316476e+00  -3.5520183e+05
   9.3031010e-10  -3.6569157e-05   4.8454677e+00   4.8316989e+00  -3.5292334e+05
   9.3097699e-10  -3.6334552e-05   4.8454304e+00   4.8317499e+00  -3.5065947e+05
   9.3164388e-10  -3.6101452e-05   4.8453932e+00   4.8318005e+00  -3.4841012e+05
   9.3231077e-10  -3.5869847e-05   4.8453563e+00   4.8318508e+00  -3.4617519e+05
   9.3297766e-10  -3.5639728e-05   4.8453197e+00   4.8319007e+00  -3.4395459e+05
   9.3364455e-10  -3.5411085e-05   4.8452833e+00   4.8319504e+00  -3.4174824e+05
   9.3431144e-10  -3.5183908e-05   4.8452471e+00   4.8319997e+00  -3.3955603e+05
   9.3497833e-10  -3.4958189e-05   4.8452111e+00   4.8320487e+00  -3.3737789e+05
   9.3564522e-10  -3.4733918e-05   4.8451754e+00   4.8320974e+00  -3.3521371e+05
   9.3631210e-10  -3.4511086e-05   4.8451399e+00   4.8321458e+00  -3.3306341e+05
   9.3697899e-10  -3.4289682e-05   4.8451047e+00   4.8321939e+00  -3.3092691e+05
   9.3764588e-10  -3.4069700e-05   4.8450696e+00   4.8322417e+00  -3.2880410e+05
   9.3831277e-10  -3.3851128e-05   4.8450348e+00   4.8322891e+00  -3.2669491e+05
   9.3897966e-10  -3.3633958e-05   4.8450002e+00   4.8323363e+00  -3.2459925e+05
   9.3964655e-10  -3.3418181e-05   4.8449658e+00   4.8323832e+00  -3.2251703e+05
   9.4031344e-10  -3.3203789e-05   4.8449317e+00   4.8324297e+00  -3.2044816e+05
   9.4098033e-10  -3.2990772e-05   4.8448977e+00   4.8324760e+00  -3.1839256e+05
   9.4164722e-10  -3.2779121e-05   4.8448640e+00   4.8325219e+00  -3.1635014e+05
   9.4231410e-10  -3.2568828e-05   4.8448305e+00   4.8325676e+00  -3.1432082e+05
   9.4298099e-10  -3.2359884e-05   4.8447972e+00   4.8326130e+00  -3.1230452e+05
   9.4364788e-10  -3.2152280e-05   4.8447642e+00   4.8326580e+00  -3.1030115e+05
   9.4431477e-10  -3.1946008e-05   4.8447313e+00   4.8327028e+00  -3.0831062e+05
   9.4498166e-10  -3.1741060e-05   4.8446987e+00   4.8327473e+00  -3.0633286e+05
   9.4564855e-10  -3.1537426e-05   4.8446662e+00   4.8327916e+00  -3.0436779e+05
   9.4631544e-10  -3.1335098e-05   4.8446340e+00   4.8328355e+00  -3.0241532e+05
   9.4698233e-10  -3.1134068e-05   4.8446020e+00   4.8328792e+00  -3.0047538e+05
   9.4764922e-10  -3.0934328e-05   4.8445702e+00   4.8329225e+00  -2.9854787e+05
   9.4831611e-10  -3.0735869e-05   4.8445385e+00   4.8329656e+00  -2.9663273e+05
   9.4898299e-10  -3.0538683e-05   4.8445071e+00   4.8330084e+00  -2.9472987e+05
   9.4964988e-10  -3.0342762e-05   4.8444759e+00   4.8330510e+00  -2.9283921e+05
   9.5031677e-10  -3.0148097e-05   4.8444449e+00   4.8330933e+00  -2.9096068e+05
   9.5098366e-10  -2.9954682e-05   4.8444141e+00   4.8331353e+00  -2.8909420e+05
   9.5165055e-10  -2.9762507e-05   4.8443835e+00   4.8331770e+00  -2.8723969e+05
   9.5231744e-10  -2.9571565e-05   4.8443531e+00   4.8332185e+00  -2.8539707e+05
   9.5298433e-10  -2.9381848e-05   4.8443228e+00   4.8332597e+00  -2.8356627e+05
   9.5365122e-10  -2.9193348e-05   4.8442928e+00   4.8333006e+00  -2.8174722e+05
   9.5431811e-10  -2.9006058e-05   4.8442630e+00   4.8333413e+00  -2.7993983e+05
   9.5498499e-10  -2.8819968e-05   4.8442333e+00   4.8333817e+00  -2.7814403e+05
   9.5565188e-10  -2.8635073e-05   4.8442039e+00   4.8334218e+00  -2.7635975e+05
   9.5631877e-10  -2.8451363e-05   4.8441746e+00   4.8334617e+00  -2.7458692e+05
   9.5698566e-10  -2.8268832e-05   4.8441455e+00   4.8335014e+00  -2.7282545e+05
   9.5765255e-10  -2.8087472e-05   4.8441166e+00   4.8335407e+00  -2.7107528e+05
   9.5831944e-10  -2.7907275e-05   4.8440879e+00   4.8335799e+00  -2.6933634e+05
   9.5898633e-10  -2.7728235e-05   4.8440594e+00   4.8336187e+00  -2.6760855e+05
   9.5965322e-10  -2.7550343e-05   4.8440310e+00   4.8336574e+00  -2.6589185e+05
   9.6032011e-10  -2.7373592e-05   4.8440029e+00   4.8336958e+00  -2.6418615e+05
   9.6098700e-10  -2.7197975e-05   4.8439749e+00   4.8337339e+00  -2.6249139e+05
   9.6165388e-10  -2.7023484e-05   4.8439471e+00   4.8337718e+00  -2.6080751e+05
   9.6232077e-10  -2.6850113e-05   4.8439195e+00   4.8338094e+00  -2.5913442e+05
   9.6298766e-10  -2.6677854e-05   4.8438920e+00   4.8338468e+00  -2.5747207e+05
   9.6365455e-10  -2.6506700e-05   4.8438648e+00   4.8338840e+00  -2.5582037e+05
   9.6432144e-10  -2.6336644e-05   4.8438377e+00   4.8339209e+00  -2.5417928e+05
   9.6498833e-10  -2.6167679e-05   4.8438108e+00   4.8339576e+00  -2.5254870e+05
   9.6565522e-10  -2.5999798e-05   4.8437840e+00   4.8339941e+00  -2.5092859e+05
   9.6632211e-10  -2.5832994e-05   4.8437574e+00   4.8340303e+00  -2.4931887e+05
   9.6698900e-10  -2.5667259e-05   4.8437310e+00   4.8340663e+00  -2.4771947e+05
   9.6765589e-10  -2.5502588e-05   4.8437048e+00   4.8341020e+00  -2.4613033e+05
   9.6832277e-10  -2.5338974e-05   4.8436787e+00   4.8341376e+00  -2.4455138e+05
   9.6898966e-10  -2.5176409e-05   4.8436528e+00   4.8341729e+00  -2.4298256e+05
   9.6965655e-10  -2.5014887e-05   4.8436271e+00   4.8342080e+00  -2.4142381e+05
   9.7032344e-10  -2.4854401e-05   4.8436015e+00   4.8342428e+00  -2.3987505e+05
   9.7099033e-10  -2.4694945e-05   4.8435761e+00   4.8342774e+00  -2.3833622e+05
   9.7165722e-10  -2.4536511e-05   4.8435509e+00   4.8343118e+00  -2.3680727e+05
   9.7232411e-10  -2.4379094e-05   4.8435258e+00   4.8343460e+00  -2.3528812e+05
   9.7299100e-10  -2.4222687e-05   4.8435009e+00   4.8343800e+00  -2.3377872e+05
   9.7365789e-10  -2.4067283e-05   4.8434761e+00   4.8344137e+00  -2.3227899e+05
   9.7432477e-10  -2.3912876e-05   4.8434515e+00   4.8344473e+00  -2.3078889e+05
   9.7499166e-10  -2.3759460e-05   4.8434270e+00   4.8344806e+00  -2.2930835e+05
