   0.0000000e+00  -1.1913057e-01   6.3685227e+00   5.9987298e-04  -5.2181891e+08
   1.0003334e-12  -1.1860928e-01   6.3679986e+00   6.2465545e-04  -5.2042855e+08
   2.0006669e-12  -1.1808937e-01   6.3674650e+00   6.5039036e-04  -5.1903815e+08
   3.0010003e-12  -1.1757086e-01   6.3669215e+00   6.7711118e-04  -5.1764770e+08
   4.0013338e-12  -1.1705374e-01   6.3663681e+00   7.0485241e-04  -5.1625722e+08
   5.0016672e-12  -1.1653801e-01   6.3658047e+00   7.3364962e-04  -5.1486670e+08
   6.0020007e-12  -1.1602367e-01   6.3652310e+00   7.6353947e-04  -5.1347614e+08
   7.0023341e-12  -1.1551072e-01   6.3646470e+00   7.9455976e-04  -5.1208555e+08
   8.0026676e-12  -1.1499916e-01   6.3640524e+00   8.2674943e-04  -5.1069492e+08
   9.0030010e-12  -1.1448900e-01   6.3634472e+00   8.6014863e-04  -5.0930425e+08
   1.0003334e-11  -1.1398022e-01   6.3628310e+00   8.9479868e-04  -5.0791356e+08
   1.1003668e-11  -1.1347284e-01   6.3622039e+00   9.3074219e-04  -5.0652284e+08
   1.2004001e-11  -1.1296685e-01   6.3615655e+00   9.6802301e-04  -5.0513208e+08
   1.3004335e-11  -1.1246225e-01   6.3609159e+00   1.0066863e-03  -5.0374130e+08
   1.4004668e-11  -1.1195904e-01   6.3602547e+00   1.0467786e-03  -5.0235050e+08
   1.5005002e-11  -1.1145722e-01   6.3595818e+00   1.0883478e-03  -5.0095967e+08
   1.6005335e-11  -1.1095679e-01   6.3588970e+00   1.1314431e-03  -4.9956882e+08
   1.7005669e-11  -1.1045775e-01   6.3582002e+00   1.1761153e-03  -4.9817795e+08
   1.8006002e-11  -1.0996011e-01   6.3574912e+00   1.2224165e-03  -4.9678706e+08
   1.9006335e-11  -1.0946385e-01   6.3567698e+00   1.2704005e-03  -4.9539615e+08
   2.0006669e-11  -1.0896899e-01   6.3560359e+00   1.3201224e-03  -4.9400523e+08
   2.1007002e-11  -1.0847552e-01   6.3552892e+00   1.3716391e-03  -4.9261430e+08
   2.2007336e-11  -1.0798344e-01   6.3545295e+00   1.4250090e-03  -4.9122337e+08
   2.3007669e-11  -1.0749275e-01   6.3537567e+00   1.4802921e-03  -4.8983242e+08
   2.4008003e-11  -1.0700346e-01   6.3529707e+00   1.5375502e-03  -4.8844147e+08
   2.5008336e-11  -1.0651555e-01   6.3521711e+00   1.5968467e-03  -4.8705051e+08
   2.6008670e-11  -1.0602904e-01   6.3513578e+00   1.6582469e-03  -4.8565956e+08
   2.7009003e-11  -1.0554392e-01   6.3505307e+00   1.7218178e-03  -4.8426861e+08
   2.8009336e-11  -1.0506019e-01   6.3496895e+00   1.7876281e-03  -4.8287767e+08
   2.9009670e-11  -1.0457785e-01   6.3488340e+00   1.8557487e-03  -4.8148673e+08
   3.0010003e-11  -1.0409690e-01   6.3479640e+00   1.9262521e-03  -4.8009581e+08
   3.1010337e-11  -1.0361734e-01   6.3470794e+00   1.9992130e-03  -4.7870490e+08
   3.2010670e-11  -1.0313918e-01   6.3461799e+00   2.0747078e-03  -4.7731401e+08
   3.3011004e-11  -1.0266240e-01   6.3452653e+00   2.1528153e-03  -4.7592314e+08
   3.4011337e-11  -1.0218702e-01   6.3443354e+00   2.2336160e-03  -4.7453230e+08
   3.5011671e-11  -1.0171303e-01   6.3433901e+00   2.3171928e-03  -4.7314148e+08
   3.6012004e-11  -1.0124043e-01   6.3424290e+00   2.4036306e-03  -4.7175070e+08
   3.7012337e-11  -1.0076922e-01   6.3414520e+00   2.4930166e-03  -4.7035995e+08
   3.8012671e-11  -1.0029941e-01   6.3404588e+00   2.5854401e-03  -4.6896924e+08
   3.9013004e-11  -9.9830979e-02   6.3394493e+00   2.6809928e-03  -4.6757857e+08
   4.0013338e-11  -9.9363944e-02   6.3384233e+00   2.7797687e-03  -4.6618794e+08
   4.1013671e-11  -9.8898299e-02   6.3373804e+00   2.8818640e-03  -4.6479737e+08
   4.2014005e-11  -9.8434046e-02   6.3363205e+00   2.9873777e-03  -4.6340686e+08
   4.3014338e-11  -9.7971184e-02   6.3352434e+00   3.0964109e-03  -4.6201640e+08
   4.4014672e-11  -9.7509713e-02   6.3341488e+00   3.2090672e-03  -4.6062600e+08
   4.5015005e-11  -9.7049632e-02   6.3330366e+00   3.3254530e-03  -4.5923568e+08
   4.6015338e-11  -9.6590943e-02   6.3319064e+00   3.4456771e-03  -4.5784542e+08
   4.7015672e-11  -9.6133644e-02   6.3307580e+00   3.5698509e-03  -4.5645524e+08
   4.8016005e-11  -9.5677735e-02   6.3295912e+00   3.6980886e-03  -4.5506515e+08
   4.9016339e-11  -9.5223217e-02   6.3284058e+00   3.8305069e-03  -4.5367514e+08
   5.0016672e-11  -9.4770090e-02   6.3272016e+00   3.9672256e-03  -4.5228522e+08
   5.1017006e-11  -9.4318353e-02   6.3259782e+00   4.1083670e-03  -4.5089541e+08
   5.2017339e-11  -9.3868006e-02   6.3247355e+00   4.2540563e-03  -4.4950569e+08
   5.3017673e-11  -9.3419049e-02   6.3234731e+00   4.4044218e-03  -4.4811608e+08
   5.4018006e-11  -9.2971482e-02   6.3221910e+00   4.5595944e-03  -4.4672659e+08
   5.5018339e-11  -9.2525305e-02   6.3208887e+00   4.7197082e-03  -4.4533722e+08
   5.6018673e-11  -9.2080518e-02   6.3195661e+00   4.8849003e-03  -4.4394797e+08
   5.7019006e-11  -9.1637121e-02   6.3182229e+00   5.0553108e-03  -4.4255885e+08
   5.8019340e-11  -9.1195113e-02   6.3168588e+00   5.2310829e-03  -4.4116987e+08
   5.9019673e-11  -9.0754494e-02   6.3154737e+00   5.4123631e-03  -4.3978104e+08
   6.0020007e-11  -9.0315265e-02   6.3140671e+00   5.5993010e-03  -4.3839236e+08
   6.1020340e-11  -8.9877424e-02   6.3126390e+00   5.7920492e-03  -4.3700383e+08
   6.2020674e-11  -8.9440973e-02   6.3111890e+00   5.9907639e-03  -4.3561547e+08
   6.3021007e-11  -8.9005910e-02   6.3097168e+00   6.1956046e-03  -4.3422728e+08
   6.4021340e-11  -8.8572236e-02   6.3082222e+00   6.4067339e-03  -4.3283926e+08
   6.5021674e-11  -8.8139950e-02   6.3067049e+00   6.6243180e-03  -4.3145144e+08
   6.6022007e-11  -8.7709053e-02   6.3051646e+00   6.8485265e-03  -4.3006380e+08
   6.7022341e-11  -8.7279543e-02   6.3036012e+00   7.0795324e-03  -4.2867636e+08
   6.8022674e-11  -8.6851421e-02   6.3020142e+00   7.3175124e-03  -4.2728914e+08
   6.9023008e-11  -8.6424687e-02   6.3004035e+00   7.5626464e-03  -4.2590213e+08
   7.0023341e-11  -8.5999340e-02   6.2987687e+00   7.8151183e-03  -4.2451534e+08
   7.1023675e-11  -8.5575381e-02   6.2971096e+00   8.0751153e-03  -4.2312878e+08
   7.2024008e-11  -8.5152808e-02   6.2954259e+00   8.3428284e-03  -4.2174247e+08
   7.3024341e-11  -8.4731622e-02   6.2937174e+00   8.6184523e-03  -4.2035640e+08
   7.4024675e-11  -8.4311822e-02   6.2919836e+00   8.9021853e-03  -4.1897059e+08
   7.5025008e-11  -8.3893408e-02   6.2902244e+00   9.1942296e-03  -4.1758505e+08
   7.6025342e-11  -8.3476380e-02   6.2884395e+00   9.4947910e-03  -4.1619978e+08
   7.7025675e-11  -8.3060738e-02   6.2866286e+00   9.8040794e-03  -4.1481479e+08
   7.8026009e-11  -8.2646481e-02   6.2847913e+00   1.0122308e-02  -4.1343010e+08
   7.9026342e-11  -8.2233609e-02   6.2829275e+00   1.0449695e-02  -4.1204572e+08
   8.0026676e-11  -8.1822122e-02   6.2810367e+00   1.0786461e-02  -4.1066164e+08
   8.1027009e-11  -8.1412019e-02   6.2791188e+00   1.1132832e-02  -4.0927789e+08
   8.2027342e-11  -8.1003300e-02   6.2771734e+00   1.1489036e-02  -4.0789448e+08
   8.3027676e-11  -8.0595965e-02   6.2752003e+00   1.1855308e-02  -4.0651140e+08
   8.4028009e-11  -8.0190013e-02   6.2731990e+00   1.2231883e-02  -4.0512868e+08
   8.5028343e-11  -7.9785444e-02   6.2711694e+00   1.2619004e-02  -4.0374633e+08
   8.6028676e-11  -7.9382258e-02   6.2691112e+00   1.3016914e-02  -4.0236435e+08
   8.7029010e-11  -7.8980454e-02   6.2670239e+00   1.3425865e-02  -4.0098275e+08
   8.8029343e-11  -7.8580031e-02   6.2649074e+00   1.3846108e-02  -3.9960156e+08
   8.9029677e-11  -7.8180991e-02   6.2627614e+00   1.4277901e-02  -3.9822077e+08
   9.0030010e-11  -7.7783331e-02   6.2605855e+00   1.4721506e-02  -3.9684040e+08
   9.1030343e-11  -7.7387052e-02   6.2583794e+00   1.5177188e-02  -3.9546047e+08
   9.2030677e-11  -7.6992153e-02   6.2561428e+00   1.5645216e-02  -3.9408098e+08
   9.3031010e-11  -7.6598634e-02   6.2538755e+00   1.6125864e-02  -3.9270194e+08
   9.4031344e-11  -7.6206494e-02   6.2515770e+00   1.6619410e-02  -3.9132338e+08
   9.5031677e-11  -7.5815732e-02   6.2492472e+00   1.7126135e-02  -3.8994529e+08
   9.6032011e-11  -7.5426349e-02   6.2468857e+00   1.7646326e-02  -3.8856770e+08
   9.7032344e-11  -7.5038344e-02   6.2444921e+00   1.8180272e-02  -3.8719062e+08
   9.8032678e-11  -7.4651716e-02   6.2420663e+00   1.8728267e-02  -3.8581406e+08
   9.9033011e-11  -7.4266465e-02   6.2396078e+00   1.9290609e-02  -3.8443803e+08
   1.0003334e-10  -7.3882590e-02   6.2371164e+00   1.9867601e-02  -3.8306254e+08
   1.0103368e-10  -7.3500091e-02   6.2345917e+00   2.0459548e-02  -3.8168762e+08
   1.0203401e-10  -7.3118966e-02   6.2320335e+00   2.1066761e-02  -3.8031328e+08
   1.0303434e-10  -7.2739217e-02   6.2294414e+00   2.1689554e-02  -3.7893952e+08
   1.0403468e-10  -7.2360841e-02   6.2268152e+00   2.2328245e-02  -3.7756636e+08
   1.0503501e-10  -7.1983838e-02   6.2241545e+00   2.2983156e-02  -3.7619383e+08
   1.0603535e-10  -7.1608208e-02   6.2214590e+00   2.3654612e-02  -3.7482192e+08
   1.0703568e-10  -7.1233950e-02   6.2187284e+00   2.4342944e-02  -3.7345067e+08
   1.0803601e-10  -7.0861064e-02   6.2159624e+00   2.5048485e-02  -3.7208008e+08
   1.0903635e-10  -7.0489548e-02   6.2131606e+00   2.5771574e-02  -3.7071016e+08
   1.1003668e-10  -7.0119402e-02   6.2103229e+00   2.6512550e-02  -3.6934094e+08
   1.1103701e-10  -6.9750625e-02   6.2074488e+00   2.7271759e-02  -3.6797243e+08
   1.1203735e-10  -6.9383217e-02   6.2045381e+00   2.8049550e-02  -3.6660465e+08
   1.1303768e-10  -6.9017177e-02   6.2015905e+00   2.8846274e-02  -3.6523760e+08
   1.1403801e-10  -6.8652504e-02   6.1986056e+00   2.9662288e-02  -3.6387132e+08
   1.1503835e-10  -6.8289198e-02   6.1955831e+00   3.0497952e-02  -3.6250581e+08
   1.1603868e-10  -6.7927256e-02   6.1925228e+00   3.1353627e-02  -3.6114109e+08
   1.1703901e-10  -6.7566680e-02   6.1894243e+00   3.2229680e-02  -3.5977718e+08
   1.1803935e-10  -6.7207468e-02   6.1862874e+00   3.3126481e-02  -3.5841410e+08
   1.1903968e-10  -6.6849618e-02   6.1831117e+00   3.4044402e-02  -3.5705186e+08
   1.2004001e-10  -6.6493131e-02   6.1798970e+00   3.4983819e-02  -3.5569048e+08
   1.2104035e-10  -6.6138005e-02   6.1766429e+00   3.5945111e-02  -3.5432998e+08
   1.2204068e-10  -6.5784240e-02   6.1733492e+00   3.6928662e-02  -3.5297038e+08
   1.2304101e-10  -6.5431834e-02   6.1700155e+00   3.7934854e-02  -3.5161169e+08
   1.2404135e-10  -6.5080787e-02   6.1666416e+00   3.8964077e-02  -3.5025394e+08
   1.2504168e-10  -6.4731098e-02   6.1632272e+00   4.0016721e-02  -3.4889714e+08
   1.2604201e-10  -6.4382765e-02   6.1597720e+00   4.1093180e-02  -3.4754131e+08
   1.2704235e-10  -6.4035788e-02   6.1562757e+00   4.2193849e-02  -3.4618647e+08
   1.2804268e-10  -6.3690166e-02   6.1527380e+00   4.3319126e-02  -3.4483264e+08
   1.2904301e-10  -6.3345898e-02   6.1491587e+00   4.4469414e-02  -3.4347983e+08
   1.3004335e-10  -6.3002982e-02   6.1455374e+00   4.5645114e-02  -3.4212808e+08
   1.3104368e-10  -6.2661418e-02   6.1418739e+00   4.6846632e-02  -3.4077740e+08
   1.3204401e-10  -6.2321205e-02   6.1381680e+00   4.8074375e-02  -3.3942780e+08
   1.3304435e-10  -6.1982341e-02   6.1344192e+00   4.9328752e-02  -3.3807931e+08
   1.3404468e-10  -6.1644826e-02   6.1306275e+00   5.0610175e-02  -3.3673195e+08
   1.3504502e-10  -6.1308657e-02   6.1267925e+00   5.1919055e-02  -3.3538574e+08
   1.3604535e-10  -6.0973835e-02   6.1229140e+00   5.3255808e-02  -3.3404070e+08
   1.3704568e-10  -6.0640357e-02   6.1189917e+00   5.4620849e-02  -3.3269686e+08
   1.3804602e-10  -6.0308224e-02   6.1150253e+00   5.6014595e-02  -3.3135422e+08
   1.3904635e-10  -5.9977432e-02   6.1110147e+00   5.7437463e-02  -3.3001281e+08
   1.4004668e-10  -5.9647982e-02   6.1069595e+00   5.8889874e-02  -3.2867267e+08
   1.4104702e-10  -5.9319872e-02   6.1028595e+00   6.0372247e-02  -3.2733379e+08
   1.4204735e-10  -5.8993100e-02   6.0987145e+00   6.1885002e-02  -3.2599622e+08
   1.4304768e-10  -5.8667666e-02   6.0945243e+00   6.3428561e-02  -3.2465996e+08
   1.4404802e-10  -5.8343568e-02   6.0902886e+00   6.5003346e-02  -3.2332505e+08
   1.4504835e-10  -5.8020804e-02   6.0860072e+00   6.6609779e-02  -3.2199150e+08
   1.4604868e-10  -5.7699374e-02   6.0816798e+00   6.8248281e-02  -3.2065934e+08
   1.4704902e-10  -5.7379276e-02   6.0773064e+00   6.9919275e-02  -3.1932858e+08
   1.4804935e-10  -5.7060508e-02   6.0728866e+00   7.1623183e-02  -3.1799926e+08
   1.4904968e-10  -5.6743069e-02   6.0684202e+00   7.3360425e-02  -3.1667140e+08
   1.5005002e-10  -5.6426958e-02   6.0639071e+00   7.5131423e-02  -3.1534501e+08
   1.5105035e-10  -5.6112172e-02   6.0593470e+00   7.6936597e-02  -3.1402012e+08
   1.5205068e-10  -5.5798712e-02   6.0547399e+00   7.8776366e-02  -3.1269675e+08
   1.5305102e-10  -5.5486574e-02   6.0500854e+00   8.0651148e-02  -3.1137493e+08
   1.5405135e-10  -5.5175757e-02   6.0453834e+00   8.2561359e-02  -3.1005469e+08
   1.5505168e-10  -5.4866261e-02   6.0406338e+00   8.4507416e-02  -3.0873603e+08
   1.5605202e-10  -5.4558083e-02   6.0358363e+00   8.6489732e-02  -3.0741900e+08
   1.5705235e-10  -5.4251221e-02   6.0309908e+00   8.8508719e-02  -3.0610360e+08
   1.5805268e-10  -5.3945675e-02   6.0260972e+00   9.0564787e-02  -3.0478988e+08
   1.5905302e-10  -5.3641441e-02   6.0211554e+00   9.2658344e-02  -3.0347784e+08
   1.6005335e-10  -5.3338520e-02   6.0161651e+00   9.4789795e-02  -3.0216751e+08
   1.6105368e-10  -5.3036908e-02   6.0111262e+00   9.6959543e-02  -3.0085893e+08
   1.6205402e-10  -5.2736604e-02   6.0060386e+00   9.9167989e-02  -2.9955211e+08
   1.6305435e-10  -5.2437607e-02   6.0009023e+00   1.0141553e-01  -2.9824707e+08
   1.6405468e-10  -5.2139914e-02   5.9957170e+00   1.0370256e-01  -2.9694385e+08
   1.6505502e-10  -5.1843524e-02   5.9904827e+00   1.0602946e-01  -2.9564246e+08
   1.6605535e-10  -5.1548435e-02   5.9851992e+00   1.0839663e-01  -2.9434293e+08
   1.6705569e-10  -5.1254645e-02   5.9798666e+00   1.1080446e-01  -2.9304529e+08
   1.6805602e-10  -5.0962152e-02   5.9744846e+00   1.1325331e-01  -2.9174956e+08
   1.6905635e-10  -5.0670954e-02   5.9690533e+00   1.1574356e-01  -2.9045576e+08
   1.7005669e-10  -5.0381049e-02   5.9635725e+00   1.1827559e-01  -2.8916393e+08
   1.7105702e-10  -5.0092435e-02   5.9580423e+00   1.2084976e-01  -2.8787408e+08
   1.7205735e-10  -4.9805111e-02   5.9524624e+00   1.2346644e-01  -2.8658624e+08
   1.7305769e-10  -4.9519074e-02   5.9468330e+00   1.2612597e-01  -2.8530043e+08
   1.7405802e-10  -4.9234322e-02   5.9411539e+00   1.2882871e-01  -2.8401669e+08
   1.7505835e-10  -4.8950854e-02   5.9354251e+00   1.3157502e-01  -2.8273503e+08
   1.7605869e-10  -4.8668666e-02   5.9296467e+00   1.3436522e-01  -2.8145548e+08
   1.7705902e-10  -4.8387757e-02   5.9238185e+00   1.3719965e-01  -2.8017807e+08
   1.7805935e-10  -4.8108125e-02   5.9179406e+00   1.4007865e-01  -2.7890282e+08
   1.7905969e-10  -4.7829768e-02   5.9120131e+00   1.4300253e-01  -2.7762976e+08
   1.8006002e-10  -4.7552683e-02   5.9060358e+00   1.4597162e-01  -2.7635890e+08
   1.8106035e-10  -4.7276868e-02   5.9000089e+00   1.4898622e-01  -2.7509029e+08
   1.8206069e-10  -4.7002321e-02   5.8939324e+00   1.5204663e-01  -2.7382394e+08
   1.8306102e-10  -4.6729039e-02   5.8878062e+00   1.5515316e-01  -2.7255987e+08
   1.8406135e-10  -4.6457021e-02   5.8816305e+00   1.5830609e-01  -2.7129812e+08
   1.8506169e-10  -4.6186264e-02   5.8754054e+00   1.6150571e-01  -2.7003870e+08
   1.8606202e-10  -4.5916765e-02   5.8691308e+00   1.6475228e-01  -2.6878165e+08
   1.8706235e-10  -4.5648523e-02   5.8628068e+00   1.6804609e-01  -2.6752698e+08
   1.8806269e-10  -4.5381534e-02   5.8564336e+00   1.7138738e-01  -2.6627473e+08
   1.8906302e-10  -4.5115797e-02   5.8500113e+00   1.7477641e-01  -2.6502491e+08
   1.9006335e-10  -4.4851309e-02   5.8435399e+00   1.7821342e-01  -2.6377756e+08
   1.9106369e-10  -4.4588068e-02   5.8370195e+00   1.8169865e-01  -2.6253270e+08
   1.9206402e-10  -4.4326070e-02   5.8304504e+00   1.8523233e-01  -2.6129035e+08
   1.9306435e-10  -4.4065314e-02   5.8238325e+00   1.8881466e-01  -2.6005053e+08
   1.9406469e-10  -4.3805797e-02   5.8171661e+00   1.9244587e-01  -2.5881328e+08
   1.9506502e-10  -4.3547517e-02   5.8104513e+00   1.9612616e-01  -2.5757861e+08
   1.9606536e-10  -4.3290470e-02   5.8036883e+00   1.9985571e-01  -2.5634656e+08
   1.9706569e-10  -4.3034654e-02   5.7968772e+00   2.0363470e-01  -2.5511714e+08
   1.9806602e-10  -4.2780066e-02   5.7900183e+00   2.0746332e-01  -2.5389038e+08
   1.9906636e-10  -4.2526705e-02   5.7831116e+00   2.1134172e-01  -2.5266630e+08
   2.0006669e-10  -4.2274566e-02   5.7761575e+00   2.1527006e-01  -2.5144494e+08
   2.0106702e-10  -4.2023648e-02   5.7691560e+00   2.1924847e-01  -2.5022630e+08
   2.0206736e-10  -4.1773948e-02   5.7621075e+00   2.2327711e-01  -2.4901042e+08
   2.0306769e-10  -4.1525462e-02   5.7550122e+00   2.2735608e-01  -2.4779732e+08
   2.0406802e-10  -4.1278189e-02   5.7478703e+00   2.3148551e-01  -2.4658703e+08
   2.0506836e-10  -4.1032125e-02   5.7406820e+00   2.3566550e-01  -2.4537956e+08
   2.0606869e-10  -4.0787267e-02   5.7334477e+00   2.3989614e-01  -2.4417494e+08
   2.0706902e-10  -4.0543613e-02   5.7261675e+00   2.4417751e-01  -2.4297320e+08
   2.0806936e-10  -4.0301159e-02   5.7188417e+00   2.4850969e-01  -2.4177435e+08
   2.0906969e-10  -4.0059903e-02   5.7114707e+00   2.5289275e-01  -2.4057842e+08
   2.1007002e-10  -3.9819843e-02   5.7040547e+00   2.5732672e-01  -2.3938544e+08
   2.1107036e-10  -3.9580974e-02   5.6965941e+00   2.6181165e-01  -2.3819542e+08
   2.1207069e-10  -3.9343293e-02   5.6890891e+00   2.6634758e-01  -2.3700839e+08
   2.1307102e-10  -3.9106799e-02   5.6815401e+00   2.7093452e-01  -2.3582437e+08
   2.1407136e-10  -3.8871488e-02   5.6739473e+00   2.7557248e-01  -2.3464337e+08
   2.1507169e-10  -3.8637357e-02   5.6663112e+00   2.8026145e-01  -2.3346544e+08
   2.1607202e-10  -3.8404402e-02   5.6586321e+00   2.8500142e-01  -2.3229058e+08
   2.1707236e-10  -3.8172621e-02   5.6509104e+00   2.8979237e-01  -2.3111881e+08
   2.1807269e-10  -3.7942010e-02   5.6431463e+00   2.9463426e-01  -2.2995017e+08
   2.1907302e-10  -3.7712568e-02   5.6353404e+00   2.9952704e-01  -2.2878466e+08
   2.2007336e-10  -3.7484289e-02   5.6274929e+00   3.0447066e-01  -2.2762231e+08
   2.2107369e-10  -3.7257171e-02   5.6196043e+00   3.0946504e-01  -2.2646315e+08
   2.2207402e-10  -3.7031212e-02   5.6116750e+00   3.1451010e-01  -2.2530718e+08
   2.2307436e-10  -3.6806407e-02   5.6037054e+00   3.1960575e-01  -2.2415444e+08
   2.2407469e-10  -3.6582754e-02   5.5956958e+00   3.2475189e-01  -2.2300494e+08
   2.2507503e-10  -3.6360249e-02   5.5876468e+00   3.2994839e-01  -2.2185870e+08
   2.2607536e-10  -3.6138888e-02   5.5795588e+00   3.3519515e-01  -2.2071574e+08
   2.2707569e-10  -3.5918670e-02   5.5714322e+00   3.4049201e-01  -2.1957608e+08
   2.2807603e-10  -3.5699590e-02   5.5632674e+00   3.4583883e-01  -2.1843974e+08
   2.2907636e-10  -3.5481645e-02   5.5550649e+00   3.5123545e-01  -2.1730674e+08
   2.3007669e-10  -3.5264831e-02   5.5468252e+00   3.5668170e-01  -2.1617710e+08
   2.3107703e-10  -3.5049146e-02   5.5385488e+00   3.6217739e-01  -2.1505083e+08
   2.3207736e-10  -3.4834586e-02   5.5302361e+00   3.6772234e-01  -2.1392795e+08
   2.3307769e-10  -3.4621148e-02   5.5218877e+00   3.7331633e-01  -2.1280849e+08
   2.3407803e-10  -3.4408827e-02   5.5135039e+00   3.7895917e-01  -2.1169245e+08
   2.3507836e-10  -3.4197621e-02   5.5050854e+00   3.8465061e-01  -2.1057986e+08
   2.3607869e-10  -3.3987527e-02   5.4966326e+00   3.9039042e-01  -2.0947073e+08
   2.3707903e-10  -3.3778540e-02   5.4881461e+00   3.9617835e-01  -2.0836509e+08
   2.3807936e-10  -3.3570657e-02   5.4796263e+00   4.0201415e-01  -2.0726293e+08
   2.3907969e-10  -3.3363876e-02   5.4710738e+00   4.0789755e-01  -2.0616430e+08
   2.4008003e-10  -3.3158191e-02   5.4624891e+00   4.1382827e-01  -2.0506919e+08
   2.4108036e-10  -3.2953600e-02   5.4538728e+00   4.1980602e-01  -2.0397762e+08
   2.4208069e-10  -3.2750099e-02   5.4452254e+00   4.2583050e-01  -2.0288961e+08
   2.4308103e-10  -3.2547685e-02   5.4365475e+00   4.3190140e-01  -2.0180518e+08
   2.4408136e-10  -3.2346354e-02   5.4278396e+00   4.3801840e-01  -2.0072434e+08
   2.4508169e-10  -3.2146102e-02   5.4191023e+00   4.4418116e-01  -1.9964710e+08
   2.4608203e-10  -3.1946926e-02   5.4103361e+00   4.5038936e-01  -1.9857348e+08
   2.4708236e-10  -3.1748822e-02   5.4015417e+00   4.5664264e-01  -1.9750350e+08
   2.4808269e-10  -3.1551787e-02   5.3927195e+00   4.6294065e-01  -1.9643715e+08
   2.4908303e-10  -3.1355817e-02   5.3838703e+00   4.6928300e-01  -1.9537447e+08
   2.5008336e-10  -3.1160907e-02   5.3749944e+00   4.7566934e-01  -1.9431546e+08
   2.5108369e-10  -3.0967056e-02   5.3660927e+00   4.8209926e-01  -1.9326014e+08
   2.5208403e-10  -3.0774258e-02   5.3571656e+00   4.8857238e-01  -1.9220851e+08
   2.5308436e-10  -3.0582510e-02   5.3482137e+00   4.9508828e-01  -1.9116059e+08
   2.5408469e-10  -3.0391808e-02   5.3392376e+00   5.0164656e-01  -1.9011640e+08
   2.5508503e-10  -3.0202150e-02   5.3302380e+00   5.0824680e-01  -1.8907593e+08
   2.5608536e-10  -3.0013530e-02   5.3212155e+00   5.1488856e-01  -1.8803922e+08
   2.5708570e-10  -2.9825945e-02   5.3121706e+00   5.2157141e-01  -1.8700625e+08
   2.5808603e-10  -2.9639392e-02   5.3031040e+00   5.2829489e-01  -1.8597706e+08
   2.5908636e-10  -2.9453866e-02   5.2940163e+00   5.3505856e-01  -1.8495164e+08
   2.6008670e-10  -2.9269364e-02   5.2849081e+00   5.4186196e-01  -1.8393000e+08
   2.6108703e-10  -2.9085883e-02   5.2757801e+00   5.4870461e-01  -1.8291217e+08
   2.6208736e-10  -2.8903417e-02   5.2666327e+00   5.5558603e-01  -1.8189814e+08
   2.6308770e-10  -2.8721964e-02   5.2574668e+00   5.6250575e-01  -1.8088792e+08
   2.6408803e-10  -2.8541520e-02   5.2482829e+00   5.6946327e-01  -1.7988153e+08
   2.6508836e-10  -2.8362081e-02   5.2390816e+00   5.7645810e-01  -1.7887897e+08
   2.6608870e-10  -2.8183642e-02   5.2298635e+00   5.8348973e-01  -1.7788025e+08
   2.6708903e-10  -2.8006201e-02   5.2206294e+00   5.9055765e-01  -1.7688538e+08
   2.6808936e-10  -2.7829753e-02   5.2113797e+00   5.9766134e-01  -1.7589437e+08
   2.6908970e-10  -2.7654294e-02   5.2021152e+00   6.0480028e-01  -1.7490722e+08
   2.7009003e-10  -2.7479821e-02   5.1928365e+00   6.1197395e-01  -1.7392394e+08
   2.7109036e-10  -2.7306329e-02   5.1835442e+00   6.1918180e-01  -1.7294453e+08
   2.7209070e-10  -2.7133815e-02   5.1742390e+00   6.2642330e-01  -1.7196901e+08
   2.7309103e-10  -2.6962275e-02   5.1649214e+00   6.3369791e-01  -1.7099739e+08
   2.7409136e-10  -2.6791706e-02   5.1555922e+00   6.4100507e-01  -1.7002965e+08
   2.7509170e-10  -2.6622102e-02   5.1462519e+00   6.4834424e-01  -1.6906582e+08
   2.7609203e-10  -2.6453460e-02   5.1369012e+00   6.5571484e-01  -1.6810589e+08
   2.7709236e-10  -2.6285777e-02   5.1275406e+00   6.6311632e-01  -1.6714988e+08
   2.7809270e-10  -2.6119048e-02   5.1181710e+00   6.7054811e-01  -1.6619778e+08
   2.7909303e-10  -2.5953270e-02   5.1087927e+00   6.7800964e-01  -1.6524961e+08
   2.8009336e-10  -2.5788438e-02   5.0994066e+00   6.8550034e-01  -1.6430535e+08
   2.8109370e-10  -2.5624548e-02   5.0900132e+00   6.9301962e-01  -1.6336503e+08
   2.8209403e-10  -2.5461598e-02   5.0806132e+00   7.0056690e-01  -1.6242864e+08
   2.8309436e-10  -2.5299582e-02   5.0712071e+00   7.0814159e-01  -1.6149618e+08
   2.8409470e-10  -2.5138496e-02   5.0617956e+00   7.1574312e-01  -1.6056766e+08
   2.8509503e-10  -2.4978338e-02   5.0523793e+00   7.2337088e-01  -1.5964308e+08
   2.8609537e-10  -2.4819103e-02   5.0429588e+00   7.3102429e-01  -1.5872245e+08
   2.8709570e-10  -2.4660786e-02   5.0335348e+00   7.3870275e-01  -1.5780576e+08
   2.8809603e-10  -2.4503385e-02   5.0241078e+00   7.4640565e-01  -1.5689301e+08
   2.8909637e-10  -2.4346895e-02   5.0146785e+00   7.5413241e-01  -1.5598422e+08
   2.9009670e-10  -2.4191311e-02   5.0052474e+00   7.6188241e-01  -1.5507937e+08
   2.9109703e-10  -2.4036631e-02   4.9958153e+00   7.6965506e-01  -1.5417848e+08
   2.9209737e-10  -2.3882851e-02   4.9863826e+00   7.7744974e-01  -1.5328153e+08
   2.9309770e-10  -2.3729965e-02   4.9769499e+00   7.8526586e-01  -1.5238854e+08
   2.9409803e-10  -2.3577971e-02   4.9675179e+00   7.9310281e-01  -1.5149950e+08
   2.9509837e-10  -2.3426864e-02   4.9580872e+00   8.0095997e-01  -1.5061441e+08
   2.9609870e-10  -2.3276640e-02   4.9486583e+00   8.0883675e-01  -1.4973327e+08
   2.9709903e-10  -2.3127296e-02   4.9392318e+00   8.1673253e-01  -1.4885609e+08
   2.9809937e-10  -2.2978828e-02   4.9298083e+00   8.2464670e-01  -1.4798285e+08
   2.9909970e-10  -2.2831231e-02   4.9203884e+00   8.3257865e-01  -1.4711356e+08
   3.0010003e-10  -2.2684501e-02   4.9109727e+00   8.4052778e-01  -1.4624822e+08
   3.0110037e-10  -2.2538636e-02   4.9015616e+00   8.4849348e-01  -1.4538683e+08
   3.0210070e-10  -2.2393630e-02   4.8921559e+00   8.5647513e-01  -1.4452938e+08
   3.0310103e-10  -2.2249479e-02   4.8827559e+00   8.6447214e-01  -1.4367587e+08
   3.0410137e-10  -2.2106181e-02   4.8733624e+00   8.7248389e-01  -1.4282631e+08
   3.0510170e-10  -2.1963730e-02   4.8639757e+00   8.8050978e-01  -1.4198067e+08
   3.0610203e-10  -2.1822124e-02   4.8545966e+00   8.8854920e-01  -1.4113898e+08
   3.0710237e-10  -2.1681357e-02   4.8452255e+00   8.9660155e-01  -1.4030121e+08
   3.0810270e-10  -2.1541427e-02   4.8358629e+00   9.0466624e-01  -1.3946737e+08
   3.0910303e-10  -2.1402328e-02   4.8265094e+00   9.1274265e-01  -1.3863746e+08
   3.1010337e-10  -2.1264058e-02   4.8171655e+00   9.2083019e-01  -1.3781147e+08
   3.1110370e-10  -2.1126612e-02   4.8078317e+00   9.2892827e-01  -1.3698939e+08
   3.1210403e-10  -2.0989987e-02   4.7985086e+00   9.3703630e-01  -1.3617123e+08
   3.1310437e-10  -2.0854178e-02   4.7891966e+00   9.4515367e-01  -1.3535697e+08
   3.1410470e-10  -2.0719181e-02   4.7798963e+00   9.5327980e-01  -1.3454662e+08
   3.1510504e-10  -2.0584994e-02   4.7706081e+00   9.6141410e-01  -1.3374017e+08
   3.1610537e-10  -2.0451611e-02   4.7613325e+00   9.6955599e-01  -1.3293761e+08
   3.1710570e-10  -2.0319029e-02   4.7520701e+00   9.7770489e-01  -1.3213893e+08
   3.1810604e-10  -2.0187243e-02   4.7428212e+00   9.8586022e-01  -1.3134415e+08
   3.1910637e-10  -2.0056251e-02   4.7335865e+00   9.9402140e-01  -1.3055323e+08
   3.2010670e-10  -1.9926049e-02   4.7243662e+00   1.0021879e+00  -1.2976620e+08
   3.2110704e-10  -1.9796631e-02   4.7151610e+00   1.0103590e+00  -1.2898302e+08
   3.2210737e-10  -1.9667995e-02   4.7059713e+00   1.0185343e+00  -1.2820371e+08
   3.2310770e-10  -1.9540137e-02   4.6967974e+00   1.0267132e+00  -1.2742824e+08
   3.2410804e-10  -1.9413053e-02   4.6876400e+00   1.0348952e+00  -1.2665663e+08
   3.2510837e-10  -1.9286738e-02   4.6784993e+00   1.0430796e+00  -1.2588885e+08
   3.2610870e-10  -1.9161190e-02   4.6693759e+00   1.0512659e+00  -1.2512491e+08
   3.2710904e-10  -1.9036404e-02   4.6602701e+00   1.0594536e+00  -1.2436479e+08
   3.2810937e-10  -1.8912376e-02   4.6511824e+00   1.0676421e+00  -1.2360849e+08
   3.2910970e-10  -1.8789103e-02   4.6421132e+00   1.0758309e+00  -1.2285600e+08
   3.3011004e-10  -1.8666581e-02   4.6330629e+00   1.0840195e+00  -1.2210731e+08
   3.3111037e-10  -1.8544806e-02   4.6240320e+00   1.0922073e+00  -1.2136242e+08
   3.3211070e-10  -1.8423774e-02   4.6150207e+00   1.1003938e+00  -1.2062132e+08
   3.3311104e-10  -1.8303482e-02   4.6060295e+00   1.1085784e+00  -1.1988399e+08
   3.3411137e-10  -1.8183925e-02   4.5970588e+00   1.1167608e+00  -1.1915044e+08
   3.3511170e-10  -1.8065100e-02   4.5881090e+00   1.1249403e+00  -1.1842065e+08
   3.3611204e-10  -1.7947003e-02   4.5791803e+00   1.1331164e+00  -1.1769461e+08
   3.3711237e-10  -1.7829631e-02   4.5702733e+00   1.1412887e+00  -1.1697232e+08
   3.3811270e-10  -1.7712980e-02   4.5613882e+00   1.1494566e+00  -1.1625376e+08
   3.3911304e-10  -1.7597045e-02   4.5525255e+00   1.1576197e+00  -1.1553893e+08
   3.4011337e-10  -1.7481824e-02   4.5436853e+00   1.1657774e+00  -1.1482782e+08
   3.4111370e-10  -1.7367312e-02   4.5348682e+00   1.1739293e+00  -1.1412042e+08
   3.4211404e-10  -1.7253505e-02   4.5260744e+00   1.1820749e+00  -1.1341672e+08
   3.4311437e-10  -1.7140401e-02   4.5173042e+00   1.1902138e+00  -1.1271670e+08
   3.4411470e-10  -1.7027996e-02   4.5085580e+00   1.1983454e+00  -1.1202037e+08
   3.4511504e-10  -1.6916285e-02   4.4998361e+00   1.2064693e+00  -1.1132770e+08
   3.4611537e-10  -1.6805265e-02   4.4911388e+00   1.2145851e+00  -1.1063870e+08
   3.4711571e-10  -1.6694932e-02   4.4824664e+00   1.2226923e+00  -1.0995335e+08
   3.4811604e-10  -1.6585284e-02   4.4738192e+00   1.2307904e+00  -1.0927163e+08
   3.4911637e-10  -1.6476315e-02   4.4651975e+00   1.2388790e+00  -1.0859355e+08
   3.5011671e-10  -1.6368023e-02   4.4566015e+00   1.2469577e+00  -1.0791909e+08
   3.5111704e-10  -1.6260404e-02   4.4480316e+00   1.2550260e+00  -1.0724823e+08
   3.5211737e-10  -1.6153454e-02   4.4394880e+00   1.2630836e+00  -1.0658097e+08
   3.5311771e-10  -1.6047170e-02   4.4309710e+00   1.2711300e+00  -1.0591730e+08
   3.5411804e-10  -1.5941547e-02   4.4224808e+00   1.2791647e+00  -1.0525721e+08
   3.5511837e-10  -1.5836584e-02   4.4140177e+00   1.2871875e+00  -1.0460068e+08
   3.5611871e-10  -1.5732275e-02   4.4055820e+00   1.2951978e+00  -1.0394771e+08
   3.5711904e-10  -1.5628618e-02   4.3971739e+00   1.3031953e+00  -1.0329828e+08
   3.5811937e-10  -1.5525608e-02   4.3887935e+00   1.3111796e+00  -1.0265238e+08
   3.5911971e-10  -1.5423243e-02   4.3804413e+00   1.3191504e+00  -1.0201000e+08
   3.6012004e-10  -1.5321519e-02   4.3721173e+00   1.3271071e+00  -1.0137113e+08
   3.6112037e-10  -1.5220432e-02   4.3638218e+00   1.3350495e+00  -1.0073576e+08
   3.6212071e-10  -1.5119979e-02   4.3555550e+00   1.3429772e+00  -1.0010388e+08
   3.6312104e-10  -1.5020157e-02   4.3473171e+00   1.3508899e+00  -9.9475468e+07
   3.6412137e-10  -1.4920961e-02   4.3391084e+00   1.3587871e+00  -9.8850521e+07
   3.6512171e-10  -1.4822389e-02   4.3309289e+00   1.3666685e+00  -9.8229026e+07
   3.6612204e-10  -1.4724436e-02   4.3227790e+00   1.3745338e+00  -9.7610969e+07
   3.6712237e-10  -1.4627101e-02   4.3146587e+00   1.3823827e+00  -9.6996340e+07
   3.6812271e-10  -1.4530378e-02   4.3065684e+00   1.3902147e+00  -9.6385125e+07
   3.6912304e-10  -1.4434265e-02   4.2985080e+00   1.3980297e+00  -9.5777314e+07
   3.7012337e-10  -1.4338758e-02   4.2904778e+00   1.4058272e+00  -9.5172893e+07
   3.7112371e-10  -1.4243855e-02   4.2824781e+00   1.4136069e+00  -9.4571851e+07
   3.7212404e-10  -1.4149550e-02   4.2745088e+00   1.4213685e+00  -9.3974176e+07
   3.7312437e-10  -1.4055842e-02   4.2665702e+00   1.4291118e+00  -9.3379854e+07
   3.7412471e-10  -1.3962727e-02   4.2586625e+00   1.4368364e+00  -9.2788873e+07
   3.7512504e-10  -1.3870202e-02   4.2507857e+00   1.4445421e+00  -9.2201222e+07
   3.7612538e-10  -1.3778262e-02   4.2429400e+00   1.4522284e+00  -9.1616887e+07
   3.7712571e-10  -1.3686906e-02   4.2351255e+00   1.4598953e+00  -9.1035856e+07
   3.7812604e-10  -1.3596129e-02   4.2273424e+00   1.4675423e+00  -9.0458116e+07
   3.7912638e-10  -1.3505928e-02   4.2195908e+00   1.4751692e+00  -8.9883655e+07
   3.8012671e-10  -1.3416300e-02   4.2118708e+00   1.4827757e+00  -8.9312460e+07
   3.8112704e-10  -1.3327243e-02   4.2041824e+00   1.4903617e+00  -8.8744518e+07
   3.8212738e-10  -1.3238751e-02   4.1965259e+00   1.4979267e+00  -8.8179816e+07
   3.8312771e-10  -1.3150823e-02   4.1889014e+00   1.5054706e+00  -8.7618341e+07
   3.8412804e-10  -1.3063455e-02   4.1813088e+00   1.5129932e+00  -8.7060081e+07
   3.8512838e-10  -1.2976644e-02   4.1737483e+00   1.5204941e+00  -8.6505023e+07
   3.8612871e-10  -1.2890386e-02   4.1662201e+00   1.5279732e+00  -8.5953153e+07
   3.8712904e-10  -1.2804679e-02   4.1587241e+00   1.5354302e+00  -8.5404459e+07
   3.8812938e-10  -1.2719519e-02   4.1512604e+00   1.5428649e+00  -8.4858927e+07
   3.8912971e-10  -1.2634904e-02   4.1438292e+00   1.5502771e+00  -8.4316545e+07
   3.9013004e-10  -1.2550829e-02   4.1364305e+00   1.5576666e+00  -8.3777299e+07
   3.9113038e-10  -1.2467292e-02   4.1290644e+00   1.5650331e+00  -8.3241177e+07
   3.9213071e-10  -1.2384290e-02   4.1217309e+00   1.5723765e+00  -8.2708165e+07
   3.9313104e-10  -1.2301820e-02   4.1144301e+00   1.5796965e+00  -8.2178250e+07
   3.9413138e-10  -1.2219878e-02   4.1071621e+00   1.5869929e+00  -8.1651419e+07
   3.9513171e-10  -1.2138461e-02   4.0999268e+00   1.5942657e+00  -8.1127658e+07
   3.9613204e-10  -1.2057567e-02   4.0927244e+00   1.6015145e+00  -8.0606955e+07
   3.9713238e-10  -1.1977193e-02   4.0855548e+00   1.6087393e+00  -8.0089296e+07
   3.9813271e-10  -1.1897334e-02   4.0784182e+00   1.6159397e+00  -7.9574667e+07
   3.9913304e-10  -1.1817989e-02   4.0713145e+00   1.6231158e+00  -7.9063057e+07
   4.0013338e-10  -1.1739154e-02   4.0642438e+00   1.6302672e+00  -7.8554450e+07
   4.0113371e-10  -1.1660827e-02   4.0572061e+00   1.6373939e+00  -7.8048835e+07
   4.0213404e-10  -1.1583004e-02   4.0502014e+00   1.6444956e+00  -7.7546198e+07
   4.0313438e-10  -1.1505682e-02   4.0432298e+00   1.6515723e+00  -7.7046525e+07
   4.0413471e-10  -1.1428858e-02   4.0362912e+00   1.6586238e+00  -7.6549803e+07
   4.0513505e-10  -1.1352530e-02   4.0293857e+00   1.6656499e+00  -7.6056018e+07
   4.0613538e-10  -1.1276695e-02   4.0225133e+00   1.6726506e+00  -7.5565159e+07
   4.0713571e-10  -1.1201348e-02   4.0156740e+00   1.6796256e+00  -7.5077210e+07
   4.0813605e-10  -1.1126489e-02   4.0088678e+00   1.6865748e+00  -7.4592159e+07
   4.0913638e-10  -1.1052113e-02   4.0020947e+00   1.6934982e+00  -7.4109992e+07
   4.1013671e-10  -1.0978219e-02   3.9953546e+00   1.7003955e+00  -7.3630696e+07
   4.1113705e-10  -1.0904802e-02   3.9886476e+00   1.7072668e+00  -7.3154258e+07
   4.1213738e-10  -1.0831860e-02   3.9819737e+00   1.7141118e+00  -7.2680665e+07
   4.1313771e-10  -1.0759391e-02   3.9753329e+00   1.7209305e+00  -7.2209902e+07
   4.1413805e-10  -1.0687392e-02   3.9687251e+00   1.7277227e+00  -7.1741957e+07
   4.1513838e-10  -1.0615859e-02   3.9621503e+00   1.7344884e+00  -7.1276816e+07
   4.1613871e-10  -1.0544789e-02   3.9556085e+00   1.7412275e+00  -7.0814467e+07
   4.1713905e-10  -1.0474181e-02   3.9490996e+00   1.7479399e+00  -7.0354895e+07
   4.1813938e-10  -1.0404032e-02   3.9426237e+00   1.7546254e+00  -6.9898087e+07
   4.1913971e-10  -1.0334338e-02   3.9361807e+00   1.7612841e+00  -6.9444031e+07
   4.2014005e-10  -1.0265097e-02   3.9297706e+00   1.7679157e+00  -6.8992712e+07
   4.2114038e-10  -1.0196305e-02   3.9233933e+00   1.7745203e+00  -6.8544118e+07
   4.2214071e-10  -1.0127962e-02   3.9170488e+00   1.7810978e+00  -6.8098235e+07
   4.2314105e-10  -1.0060063e-02   3.9107371e+00   1.7876481e+00  -6.7655051e+07
   4.2414138e-10  -9.9926056e-03   3.9044581e+00   1.7941711e+00  -6.7214551e+07
   4.2514171e-10  -9.9255878e-03   3.8982117e+00   1.8006668e+00  -6.6776722e+07
   4.2614205e-10  -9.8590067e-03   3.8919980e+00   1.8071352e+00  -6.6341552e+07
   4.2714238e-10  -9.7928596e-03   3.8858168e+00   1.8135761e+00  -6.5909028e+07
   4.2814271e-10  -9.7271438e-03   3.8796682e+00   1.8199895e+00  -6.5479135e+07
   4.2914305e-10  -9.6618568e-03   3.8735519e+00   1.8263753e+00  -6.5051861e+07
   4.3014338e-10  -9.5969959e-03   3.8674681e+00   1.8327336e+00  -6.4627193e+07
   4.3114371e-10  -9.5325584e-03   3.8614167e+00   1.8390643e+00  -6.4205118e+07
   4.3214405e-10  -9.4685420e-03   3.8553975e+00   1.8453673e+00  -6.3785622e+07
   4.3314438e-10  -9.4049438e-03   3.8494105e+00   1.8516426e+00  -6.3368692e+07
   4.3414471e-10  -9.3417615e-03   3.8434556e+00   1.8578902e+00  -6.2954317e+07
   4.3514505e-10  -9.2789923e-03   3.8375329e+00   1.8641100e+00  -6.2542481e+07
   4.3614538e-10  -9.2166339e-03   3.8316421e+00   1.8703021e+00  -6.2133173e+07
   4.3714572e-10  -9.1546837e-03   3.8257833e+00   1.8764663e+00  -6.1726380e+07
   4.3814605e-10  -9.0931392e-03   3.8199563e+00   1.8826027e+00  -6.1322088e+07
   4.3914638e-10  -9.0319978e-03   3.8141611e+00   1.8887113e+00  -6.0920285e+07
   4.4014672e-10  -8.9712572e-03   3.8083976e+00   1.8947920e+00  -6.0520958e+07
   4.4114705e-10  -8.9109147e-03   3.8026658e+00   1.9008448e+00  -6.0124094e+07
   4.4214738e-10  -8.8509681e-03   3.7969655e+00   1.9068697e+00  -5.9729679e+07
   4.4314772e-10  -8.7914147e-03   3.7912967e+00   1.9128668e+00  -5.9337703e+07
   4.4414805e-10  -8.7322523e-03   3.7856592e+00   1.9188360e+00  -5.8948150e+07
   4.4514838e-10  -8.6734783e-03   3.7800530e+00   1.9247773e+00  -5.8561009e+07
   4.4614872e-10  -8.6150904e-03   3.7744781e+00   1.9306907e+00  -5.8176268e+07
   4.4714905e-10  -8.5570862e-03   3.7689343e+00   1.9365762e+00  -5.7793913e+07
   4.4814938e-10  -8.4994632e-03   3.7634215e+00   1.9424338e+00  -5.7413932e+07
   4.4914972e-10  -8.4422192e-03   3.7579396e+00   1.9482636e+00  -5.7036311e+07
   4.5015005e-10  -8.3853518e-03   3.7524886e+00   1.9540655e+00  -5.6661040e+07
   4.5115038e-10  -8.3288586e-03   3.7470683e+00   1.9598395e+00  -5.6288104e+07
   4.5215072e-10  -8.2727373e-03   3.7416787e+00   1.9655857e+00  -5.5917492e+07
   4.5315105e-10  -8.2169855e-03   3.7363197e+00   1.9713042e+00  -5.5549192e+07
   4.5415138e-10  -8.1616011e-03   3.7309911e+00   1.9769948e+00  -5.5183189e+07
   4.5515172e-10  -8.1065816e-03   3.7256929e+00   1.9826576e+00  -5.4819473e+07
   4.5615205e-10  -8.0519248e-03   3.7204249e+00   1.9882927e+00  -5.4458031e+07
   4.5715238e-10  -7.9976285e-03   3.7151871e+00   1.9939001e+00  -5.4098850e+07
   4.5815272e-10  -7.9436903e-03   3.7099794e+00   1.9994798e+00  -5.3741919e+07
   4.5915305e-10  -7.8901080e-03   3.7048016e+00   2.0050319e+00  -5.3387224e+07
   4.6015338e-10  -7.8368795e-03   3.6996537e+00   2.0105563e+00  -5.3034755e+07
   4.6115372e-10  -7.7840024e-03   3.6945355e+00   2.0160532e+00  -5.2684498e+07
   4.6215405e-10  -7.7314746e-03   3.6894470e+00   2.0215224e+00  -5.2336441e+07
   4.6315438e-10  -7.6792939e-03   3.6843880e+00   2.0269642e+00  -5.1990572e+07
   4.6415472e-10  -7.6274581e-03   3.6793584e+00   2.0323785e+00  -5.1646880e+07
   4.6515505e-10  -7.5759650e-03   3.6743581e+00   2.0377654e+00  -5.1305353e+07
   4.6615539e-10  -7.5248124e-03   3.6693871e+00   2.0431249e+00  -5.0965977e+07
   4.6715572e-10  -7.4739983e-03   3.6644452e+00   2.0484570e+00  -5.0628742e+07
   4.6815605e-10  -7.4235205e-03   3.6595322e+00   2.0537618e+00  -5.0293635e+07
   4.6915639e-10  -7.3733768e-03   3.6546481e+00   2.0590394e+00  -4.9960644e+07
   4.7015672e-10  -7.3235652e-03   3.6497928e+00   2.0642898e+00  -4.9629759e+07
   4.7115705e-10  -7.2740835e-03   3.6449661e+00   2.0695131e+00  -4.9300966e+07
   4.7215739e-10  -7.2249297e-03   3.6401680e+00   2.0747093e+00  -4.8974255e+07
   4.7315772e-10  -7.1761016e-03   3.6353983e+00   2.0798784e+00  -4.8649613e+07
   4.7415805e-10  -7.1275973e-03   3.6306569e+00   2.0850206e+00  -4.8327029e+07
   4.7515839e-10  -7.0794146e-03   3.6259437e+00   2.0901358e+00  -4.8006491e+07
   4.7615872e-10  -7.0315516e-03   3.6212586e+00   2.0952242e+00  -4.7687988e+07
   4.7715905e-10  -6.9840062e-03   3.6166014e+00   2.1002858e+00  -4.7371508e+07
   4.7815939e-10  -6.9367763e-03   3.6119721e+00   2.1053207e+00  -4.7057040e+07
   4.7915972e-10  -6.8898601e-03   3.6073705e+00   2.1103288e+00  -4.6744572e+07
   4.8016005e-10  -6.8432554e-03   3.6027965e+00   2.1153104e+00  -4.6434093e+07
   4.8116039e-10  -6.7969602e-03   3.5982499e+00   2.1202655e+00  -4.6125591e+07
   4.8216072e-10  -6.7509728e-03   3.5937308e+00   2.1251940e+00  -4.5819056e+07
   4.8316105e-10  -6.7052909e-03   3.5892389e+00   2.1300962e+00  -4.5514476e+07
   4.8416139e-10  -6.6599128e-03   3.5847741e+00   2.1349720e+00  -4.5211839e+07
   4.8516172e-10  -6.6148365e-03   3.5803364e+00   2.1398215e+00  -4.4911135e+07
   4.8616205e-10  -6.5700599e-03   3.5759255e+00   2.1446449e+00  -4.4612352e+07
   4.8716239e-10  -6.5255814e-03   3.5715414e+00   2.1494422e+00  -4.4315479e+07
   4.8816272e-10  -6.4813988e-03   3.5671840e+00   2.1542134e+00  -4.4020506e+07
   4.8916305e-10  -6.4375104e-03   3.5628530e+00   2.1589586e+00  -4.3727421e+07
   4.9016339e-10  -6.3939142e-03   3.5585485e+00   2.1636779e+00  -4.3436214e+07
   4.9116372e-10  -6.3506083e-03   3.5542703e+00   2.1683714e+00  -4.3146873e+07
   4.9216405e-10  -6.3075910e-03   3.5500182e+00   2.1730392e+00  -4.2859388e+07
   4.9316439e-10  -6.2648604e-03   3.5457922e+00   2.1776813e+00  -4.2573747e+07
   4.9416472e-10  -6.2224145e-03   3.5415920e+00   2.1822979e+00  -4.2289940e+07
   4.9516506e-10  -6.1802517e-03   3.5374177e+00   2.1868889e+00  -4.2007957e+07
   4.9616539e-10  -6.1383700e-03   3.5332691e+00   2.1914545e+00  -4.1727787e+07
   4.9716572e-10  -6.0967677e-03   3.5291460e+00   2.1959948e+00  -4.1449418e+07
   4.9816606e-10  -6.0554429e-03   3.5250483e+00   2.2005099e+00  -4.1172841e+07
   4.9916639e-10  -6.0143939e-03   3.5209759e+00   2.2049997e+00  -4.0898045e+07
   5.0016672e-10  -5.9736190e-03   3.5169287e+00   2.2094645e+00  -4.0625019e+07
   5.0116706e-10  -5.9331162e-03   3.5129066e+00   2.2139043e+00  -4.0353753e+07
   5.0216739e-10  -5.8928840e-03   3.5089094e+00   2.2183192e+00  -4.0084237e+07
   5.0316772e-10  -5.8529204e-03   3.5049370e+00   2.2227092e+00  -3.9816460e+07
   5.0416806e-10  -5.8132239e-03   3.5009893e+00   2.2270745e+00  -3.9550412e+07
   5.0516839e-10  -5.7737927e-03   3.4970662e+00   2.2314152e+00  -3.9286082e+07
   5.0616872e-10  -5.7346250e-03   3.4931675e+00   2.2357313e+00  -3.9023461e+07
   5.0716906e-10  -5.6957191e-03   3.4892932e+00   2.2400229e+00  -3.8762539e+07
   5.0816939e-10  -5.6570735e-03   3.4854430e+00   2.2442901e+00  -3.8503304e+07
   5.0916972e-10  -5.6186863e-03   3.4816169e+00   2.2485331e+00  -3.8245748e+07
   5.1017006e-10  -5.5805559e-03   3.4778148e+00   2.2527518e+00  -3.7989859e+07
   5.1117039e-10  -5.5426807e-03   3.4740365e+00   2.2569465e+00  -3.7735629e+07
   5.1217072e-10  -5.5050589e-03   3.4702819e+00   2.2611171e+00  -3.7483047e+07
   5.1317106e-10  -5.4676890e-03   3.4665509e+00   2.2652638e+00  -3.7232104e+07
   5.1417139e-10  -5.4305694e-03   3.4628434e+00   2.2693867e+00  -3.6982789e+07
   5.1517172e-10  -5.3936983e-03   3.4591592e+00   2.2734858e+00  -3.6735092e+07
   5.1617206e-10  -5.3570741e-03   3.4554982e+00   2.2775613e+00  -3.6489005e+07
   5.1717239e-10  -5.3206954e-03   3.4518603e+00   2.2816132e+00  -3.6244517e+07
   5.1817272e-10  -5.2845604e-03   3.4482454e+00   2.2856417e+00  -3.6001618e+07
   5.1917306e-10  -5.2486676e-03   3.4446533e+00   2.2896468e+00  -3.5760299e+07
   5.2017339e-10  -5.2130154e-03   3.4410840e+00   2.2936286e+00  -3.5520551e+07
   5.2117372e-10  -5.1776023e-03   3.4375373e+00   2.2975873e+00  -3.5282364e+07
   5.2217406e-10  -5.1424267e-03   3.4340131e+00   2.3015228e+00  -3.5045728e+07
   5.2317439e-10  -5.1074870e-03   3.4305112e+00   2.3054354e+00  -3.4810634e+07
   5.2417472e-10  -5.0727817e-03   3.4270317e+00   2.3093252e+00  -3.4577073e+07
   5.2517506e-10  -5.0383092e-03   3.4235742e+00   2.3131921e+00  -3.4345036e+07
   5.2617539e-10  -5.0040682e-03   3.4201387e+00   2.3170363e+00  -3.4114512e+07
   5.2717573e-10  -4.9700570e-03   3.4167252e+00   2.3208580e+00  -3.3885494e+07
   5.2817606e-10  -4.9362741e-03   3.4133334e+00   2.3246571e+00  -3.3657971e+07
   5.2917639e-10  -4.9027181e-03   3.4099632e+00   2.3284339e+00  -3.3431934e+07
   5.3017673e-10  -4.8693874e-03   3.4066146e+00   2.3321883e+00  -3.3207375e+07
   5.3117706e-10  -4.8362807e-03   3.4032874e+00   2.3359206e+00  -3.2984284e+07
   5.3217739e-10  -4.8033964e-03   3.3999815e+00   2.3396307e+00  -3.2762653e+07
   5.3317773e-10  -4.7707331e-03   3.3966968e+00   2.3433189e+00  -3.2542472e+07
   5.3417806e-10  -4.7382893e-03   3.3934331e+00   2.3469851e+00  -3.2323733e+07
   5.3517839e-10  -4.7060636e-03   3.3901904e+00   2.3506295e+00  -3.2106427e+07
   5.3617873e-10  -4.6740545e-03   3.3869685e+00   2.3542522e+00  -3.1890544e+07
   5.3717906e-10  -4.6422607e-03   3.3837673e+00   2.3578533e+00  -3.1676076e+07
   5.3817939e-10  -4.6106808e-03   3.3805867e+00   2.3614329e+00  -3.1463015e+07
   5.3917973e-10  -4.5793132e-03   3.3774266e+00   2.3649910e+00  -3.1251351e+07
   5.4018006e-10  -4.5481568e-03   3.3742869e+00   2.3685279e+00  -3.1041077e+07
   5.4118039e-10  -4.5172099e-03   3.3711673e+00   2.3720435e+00  -3.0832182e+07
   5.4218073e-10  -4.4864714e-03   3.3680680e+00   2.3755380e+00  -3.0624660e+07
   5.4318106e-10  -4.4559397e-03   3.3649886e+00   2.3790115e+00  -3.0418501e+07
   5.4418139e-10  -4.4256136e-03   3.3619291e+00   2.3824641e+00  -3.0213697e+07
   5.4518173e-10  -4.3954917e-03   3.3588894e+00   2.3858958e+00  -3.0010240e+07
   5.4618206e-10  -4.3655727e-03   3.3558694e+00   2.3893068e+00  -2.9808121e+07
   5.4718239e-10  -4.3358552e-03   3.3528690e+00   2.3926972e+00  -2.9607332e+07
   5.4818273e-10  -4.3063378e-03   3.3498880e+00   2.3960671e+00  -2.9407864e+07
   5.4918306e-10  -4.2770194e-03   3.3469263e+00   2.3994166e+00  -2.9209709e+07
   5.5018339e-10  -4.2478985e-03   3.3439839e+00   2.4027457e+00  -2.9012860e+07
   5.5118373e-10  -4.2189739e-03   3.3410605e+00   2.4060546e+00  -2.8817307e+07
   5.5218406e-10  -4.1902442e-03   3.3381562e+00   2.4093433e+00  -2.8623044e+07
   5.5318439e-10  -4.1617083e-03   3.3352707e+00   2.4126121e+00  -2.8430061e+07
   5.5418473e-10  -4.1333647e-03   3.3324041e+00   2.4158609e+00  -2.8238352e+07
   5.5518506e-10  -4.1052123e-03   3.3295561e+00   2.4190898e+00  -2.8047907e+07
   5.5618540e-10  -4.0772498e-03   3.3267266e+00   2.4222991e+00  -2.7858718e+07
   5.5718573e-10  -4.0494759e-03   3.3239156e+00   2.4254887e+00  -2.7670779e+07
   5.5818606e-10  -4.0218894e-03   3.3211230e+00   2.4286587e+00  -2.7484082e+07
   5.5918640e-10  -3.9944890e-03   3.3183485e+00   2.4318094e+00  -2.7298617e+07
   5.6018673e-10  -3.9672735e-03   3.3155922e+00   2.4349406e+00  -2.7114378e+07
   5.6118706e-10  -3.9402417e-03   3.3128539e+00   2.4380527e+00  -2.6931357e+07
   5.6218740e-10  -3.9133924e-03   3.3101336e+00   2.4411456e+00  -2.6749547e+07
   5.6318773e-10  -3.8867244e-03   3.3074310e+00   2.4442194e+00  -2.6568939e+07
   5.6418806e-10  -3.8602364e-03   3.3047461e+00   2.4472743e+00  -2.6389526e+07
   5.6518840e-10  -3.8339274e-03   3.3020788e+00   2.4503103e+00  -2.6211300e+07
   5.6618873e-10  -3.8077960e-03   3.2994290e+00   2.4533276e+00  -2.6034255e+07
   5.6718906e-10  -3.7818411e-03   3.2967966e+00   2.4563262e+00  -2.5858382e+07
   5.6818940e-10  -3.7560616e-03   3.2941814e+00   2.4593063e+00  -2.5683674e+07
   5.6918973e-10  -3.7304562e-03   3.2915835e+00   2.4622679e+00  -2.5510124e+07
   5.7019006e-10  -3.7050239e-03   3.2890026e+00   2.4652111e+00  -2.5337724e+07
   5.7119040e-10  -3.6797635e-03   3.2864386e+00   2.4681361e+00  -2.5166467e+07
   5.7219073e-10  -3.6546738e-03   3.2838915e+00   2.4710428e+00  -2.4996347e+07
   5.7319106e-10  -3.6297538e-03   3.2813612e+00   2.4739315e+00  -2.4827354e+07
   5.7419140e-10  -3.6050022e-03   3.2788475e+00   2.4768022e+00  -2.4659484e+07
   5.7519173e-10  -3.5804180e-03   3.2763504e+00   2.4796551e+00  -2.4492728e+07
   5.7619206e-10  -3.5560000e-03   3.2738698e+00   2.4824901e+00  -2.4327079e+07
   5.7719240e-10  -3.5317472e-03   3.2714055e+00   2.4853074e+00  -2.4162530e+07
   5.7819273e-10  -3.5076585e-03   3.2689574e+00   2.4881071e+00  -2.3999074e+07
   5.7919306e-10  -3.4837327e-03   3.2665256e+00   2.4908893e+00  -2.3836705e+07
   5.8019340e-10  -3.4599688e-03   3.2641097e+00   2.4936541e+00  -2.3675415e+07
   5.8119373e-10  -3.4363657e-03   3.2617099e+00   2.4964016e+00  -2.3515197e+07
   5.8219406e-10  -3.4129224e-03   3.2593258e+00   2.4991318e+00  -2.3356045e+07
   5.8319440e-10  -3.3896377e-03   3.2569576e+00   2.5018449e+00  -2.3197952e+07
   5.8419473e-10  -3.3665107e-03   3.2546050e+00   2.5045410e+00  -2.3040910e+07
   5.8519507e-10  -3.3435402e-03   3.2522680e+00   2.5072201e+00  -2.2884914e+07
   5.8619540e-10  -3.3207252e-03   3.2499465e+00   2.5098823e+00  -2.2729957e+07
   5.8719573e-10  -3.2980648e-03   3.2476403e+00   2.5125278e+00  -2.2576031e+07
   5.8819607e-10  -3.2755578e-03   3.2453494e+00   2.5151566e+00  -2.2423131e+07
   5.8919640e-10  -3.2532032e-03   3.2430737e+00   2.5177689e+00  -2.2271249e+07
   5.9019673e-10  -3.2310001e-03   3.2408131e+00   2.5203646e+00  -2.2120380e+07
   5.9119707e-10  -3.2089474e-03   3.2385675e+00   2.5229440e+00  -2.1970516e+07
   5.9219740e-10  -3.1870441e-03   3.2363368e+00   2.5255070e+00  -2.1821651e+07
   5.9319773e-10  -3.1652892e-03   3.2341209e+00   2.5280538e+00  -2.1673779e+07
   5.9419807e-10  -3.1436817e-03   3.2319197e+00   2.5305845e+00  -2.1526894e+07
   5.9519840e-10  -3.1222207e-03   3.2297332e+00   2.5330992e+00  -2.1380989e+07
   5.9619873e-10  -3.1009052e-03   3.2275612e+00   2.5355979e+00  -2.1236057e+07
   5.9719907e-10  -3.0797341e-03   3.2254036e+00   2.5380808e+00  -2.1092093e+07
   5.9819940e-10  -3.0587066e-03   3.2232604e+00   2.5405479e+00  -2.0949090e+07
   5.9919973e-10  -3.0378216e-03   3.2211315e+00   2.5429993e+00  -2.0807042e+07
   6.0020007e-10  -3.0170783e-03   3.2190167e+00   2.5454351e+00  -2.0665943e+07
   6.0120040e-10  -2.9964757e-03   3.2169160e+00   2.5478555e+00  -2.0525787e+07
   6.0220073e-10  -2.9760127e-03   3.2148293e+00   2.5502604e+00  -2.0386568e+07
   6.0320107e-10  -2.9556886e-03   3.2127565e+00   2.5526500e+00  -2.0248279e+07
   6.0420140e-10  -2.9355024e-03   3.2106976e+00   2.5550243e+00  -2.0110914e+07
   6.0520173e-10  -2.9154531e-03   3.2086523e+00   2.5573835e+00  -1.9974469e+07
   6.0620207e-10  -2.8955398e-03   3.2066208e+00   2.5597277e+00  -1.9838935e+07
   6.0720240e-10  -2.8757617e-03   3.2046027e+00   2.5620568e+00  -1.9704309e+07
   6.0820273e-10  -2.8561177e-03   3.2025982e+00   2.5643711e+00  -1.9570583e+07
   6.0920307e-10  -2.8366071e-03   3.2006070e+00   2.5666705e+00  -1.9437753e+07
   6.1020340e-10  -2.8172290e-03   3.1986291e+00   2.5689553e+00  -1.9305811e+07
   6.1120373e-10  -2.7979824e-03   3.1966645e+00   2.5712254e+00  -1.9174754e+07
   6.1220407e-10  -2.7788664e-03   3.1947130e+00   2.5734809e+00  -1.9044573e+07
   6.1320440e-10  -2.7598802e-03   3.1927745e+00   2.5757220e+00  -1.8915265e+07
   6.1420473e-10  -2.7410230e-03   3.1908490e+00   2.5779487e+00  -1.8786823e+07
   6.1520507e-10  -2.7222938e-03   3.1889364e+00   2.5801611e+00  -1.8659242e+07
   6.1620540e-10  -2.7036917e-03   3.1870366e+00   2.5823592e+00  -1.8532516e+07
   6.1720574e-10  -2.6852161e-03   3.1851495e+00   2.5845433e+00  -1.8406640e+07
   6.1820607e-10  -2.6668659e-03   3.1832751e+00   2.5867133e+00  -1.8281607e+07
   6.1920640e-10  -2.6486404e-03   3.1814132e+00   2.5888693e+00  -1.8157413e+07
   6.2020674e-10  -2.6305387e-03   3.1795638e+00   2.5910114e+00  -1.8034052e+07
   6.2120707e-10  -2.6125600e-03   3.1777267e+00   2.5931398e+00  -1.7911519e+07
   6.2220740e-10  -2.5947034e-03   3.1759020e+00   2.5952544e+00  -1.7789808e+07
   6.2320774e-10  -2.5769682e-03   3.1740896e+00   2.5973553e+00  -1.7668913e+07
   6.2420807e-10  -2.5593536e-03   3.1722893e+00   2.5994427e+00  -1.7548830e+07
   6.2520840e-10  -2.5418586e-03   3.1705011e+00   2.6015166e+00  -1.7429554e+07
   6.2620874e-10  -2.5244826e-03   3.1687248e+00   2.6035771e+00  -1.7311078e+07
   6.2720907e-10  -2.5072246e-03   3.1669605e+00   2.6056243e+00  -1.7193398e+07
   6.2820940e-10  -2.4900840e-03   3.1652081e+00   2.6076583e+00  -1.7076509e+07
   6.2920974e-10  -2.4730600e-03   3.1634674e+00   2.6096790e+00  -1.6960405e+07
   6.3021007e-10  -2.4561516e-03   3.1617384e+00   2.6116867e+00  -1.6845081e+07
   6.3121040e-10  -2.4393583e-03   3.1600211e+00   2.6136814e+00  -1.6730532e+07
   6.3221074e-10  -2.4226792e-03   3.1583153e+00   2.6156631e+00  -1.6616753e+07
   6.3321107e-10  -2.4061135e-03   3.1566209e+00   2.6176320e+00  -1.6503740e+07
   6.3421140e-10  -2.3896604e-03   3.1549380e+00   2.6195882e+00  -1.6391486e+07
   6.3521174e-10  -2.3733193e-03   3.1532663e+00   2.6215316e+00  -1.6279987e+07
   6.3621207e-10  -2.3570893e-03   3.1516060e+00   2.6234623e+00  -1.6169238e+07
   6.3721240e-10  -2.3409698e-03   3.1499568e+00   2.6253806e+00  -1.6059234e+07
   6.3821274e-10  -2.3249599e-03   3.1483187e+00   2.6272864e+00  -1.5949971e+07
   6.3921307e-10  -2.3090590e-03   3.1466916e+00   2.6291797e+00  -1.5841442e+07
   6.4021340e-10  -2.2932662e-03   3.1450755e+00   2.6310608e+00  -1.5733645e+07
   6.4121374e-10  -2.2775810e-03   3.1434703e+00   2.6329296e+00  -1.5626572e+07
   6.4221407e-10  -2.2620024e-03   3.1418759e+00   2.6347862e+00  -1.5520221e+07
   6.4321440e-10  -2.2465299e-03   3.1402922e+00   2.6366307e+00  -1.5414586e+07
   6.4421474e-10  -2.2311627e-03   3.1387192e+00   2.6384632e+00  -1.5309663e+07
   6.4521507e-10  -2.2159001e-03   3.1371568e+00   2.6402837e+00  -1.5205446e+07
   6.4621541e-10  -2.2007415e-03   3.1356050e+00   2.6420924e+00  -1.5101932e+07
   6.4721574e-10  -2.1856860e-03   3.1340636e+00   2.6438892e+00  -1.4999115e+07
   6.4821607e-10  -2.1707330e-03   3.1325326e+00   2.6456743e+00  -1.4896991e+07
   6.4921641e-10  -2.1558818e-03   3.1310120e+00   2.6474477e+00  -1.4795555e+07
   6.5021674e-10  -2.1411318e-03   3.1295016e+00   2.6492096e+00  -1.4694803e+07
   6.5121707e-10  -2.1264822e-03   3.1280014e+00   2.6509599e+00  -1.4594731e+07
   6.5221741e-10  -2.1119324e-03   3.1265114e+00   2.6526988e+00  -1.4495333e+07
   6.5321774e-10  -2.0974816e-03   3.1250314e+00   2.6544263e+00  -1.4396606e+07
   6.5421807e-10  -2.0831293e-03   3.1235614e+00   2.6561424e+00  -1.4298544e+07
   6.5521841e-10  -2.0688748e-03   3.1221013e+00   2.6578474e+00  -1.4201144e+07
   6.5621874e-10  -2.0547174e-03   3.1206511e+00   2.6595411e+00  -1.4104402e+07
   6.5721907e-10  -2.0406564e-03   3.1192107e+00   2.6612237e+00  -1.4008312e+07
   6.5821941e-10  -2.0266912e-03   3.1177801e+00   2.6628954e+00  -1.3912871e+07
   6.5921974e-10  -2.0128211e-03   3.1163591e+00   2.6645560e+00  -1.3818074e+07
   6.6022007e-10  -1.9990456e-03   3.1149477e+00   2.6662057e+00  -1.3723916e+07
   6.6122041e-10  -1.9853639e-03   3.1135459e+00   2.6678446e+00  -1.3630395e+07
   6.6222074e-10  -1.9717755e-03   3.1121535e+00   2.6694728e+00  -1.3537505e+07
   6.6322107e-10  -1.9582797e-03   3.1107706e+00   2.6710902e+00  -1.3445243e+07
   6.6422141e-10  -1.9448759e-03   3.1093970e+00   2.6726970e+00  -1.3353603e+07
   6.6522174e-10  -1.9315634e-03   3.1080328e+00   2.6742932e+00  -1.3262583e+07
   6.6622207e-10  -1.9183416e-03   3.1066777e+00   2.6758789e+00  -1.3172178e+07
   6.6722241e-10  -1.9052100e-03   3.1053318e+00   2.6774542e+00  -1.3082383e+07
   6.6822274e-10  -1.8921679e-03   3.1039951e+00   2.6790191e+00  -1.2993196e+07
   6.6922307e-10  -1.8792148e-03   3.1026674e+00   2.6805738e+00  -1.2904611e+07
   6.7022341e-10  -1.8663499e-03   3.1013487e+00   2.6821181e+00  -1.2816625e+07
   6.7122374e-10  -1.8535728e-03   3.1000389e+00   2.6836523e+00  -1.2729234e+07
   6.7222407e-10  -1.8408828e-03   3.0987380e+00   2.6851764e+00  -1.2642434e+07
   6.7322441e-10  -1.8282793e-03   3.0974459e+00   2.6866904e+00  -1.2556221e+07
   6.7422474e-10  -1.8157617e-03   3.0961626e+00   2.6881944e+00  -1.2470591e+07
   6.7522508e-10  -1.8033296e-03   3.0948880e+00   2.6896885e+00  -1.2385540e+07
   6.7622541e-10  -1.7909822e-03   3.0936220e+00   2.6911727e+00  -1.2301064e+07
   6.7722574e-10  -1.7787191e-03   3.0923646e+00   2.6926472e+00  -1.2217160e+07
   6.7822608e-10  -1.7665396e-03   3.0911157e+00   2.6941119e+00  -1.2133824e+07
   6.7922641e-10  -1.7544431e-03   3.0898753e+00   2.6955669e+00  -1.2051051e+07
   6.8022674e-10  -1.7424292e-03   3.0886433e+00   2.6970123e+00  -1.1968839e+07
   6.8122708e-10  -1.7304973e-03   3.0874197e+00   2.6984481e+00  -1.1887183e+07
   6.8222741e-10  -1.7186468e-03   3.0862044e+00   2.6998744e+00  -1.1806080e+07
   6.8322774e-10  -1.7068771e-03   3.0849973e+00   2.7012913e+00  -1.1725526e+07
   6.8422808e-10  -1.6951877e-03   3.0837984e+00   2.7026988e+00  -1.1645518e+07
   6.8522841e-10  -1.6835781e-03   3.0826076e+00   2.7040970e+00  -1.1566051e+07
   6.8622874e-10  -1.6720477e-03   3.0814250e+00   2.7054859e+00  -1.1487123e+07
   6.8722908e-10  -1.6605960e-03   3.0802503e+00   2.7068657e+00  -1.1408729e+07
   6.8822941e-10  -1.6492225e-03   3.0790837e+00   2.7082362e+00  -1.1330866e+07
   6.8922974e-10  -1.6379265e-03   3.0779249e+00   2.7095977e+00  -1.1253531e+07
   6.9023008e-10  -1.6267077e-03   3.0767741e+00   2.7109502e+00  -1.1176719e+07
   6.9123041e-10  -1.6155655e-03   3.0756310e+00   2.7122937e+00  -1.1100429e+07
   6.9223074e-10  -1.6044993e-03   3.0744957e+00   2.7136283e+00  -1.1024655e+07
   6.9323108e-10  -1.5935086e-03   3.0733682e+00   2.7149540e+00  -1.0949394e+07
   6.9423141e-10  -1.5825930e-03   3.0722482e+00   2.7162709e+00  -1.0874644e+07
   6.9523174e-10  -1.5717519e-03   3.0711359e+00   2.7175791e+00  -1.0800401e+07
   6.9623208e-10  -1.5609849e-03   3.0700312e+00   2.7188786e+00  -1.0726661e+07
   6.9723241e-10  -1.5502913e-03   3.0689340e+00   2.7201694e+00  -1.0653421e+07
   6.9823274e-10  -1.5396707e-03   3.0678442e+00   2.7214517e+00  -1.0580677e+07
   6.9923308e-10  -1.5291227e-03   3.0667619e+00   2.7227254e+00  -1.0508427e+07
   7.0023341e-10  -1.5186467e-03   3.0656869e+00   2.7239907e+00  -1.0436667e+07
   7.0123374e-10  -1.5082423e-03   3.0646192e+00   2.7252475e+00  -1.0365394e+07
   7.0223408e-10  -1.4979089e-03   3.0635588e+00   2.7264960e+00  -1.0294604e+07
   7.0323441e-10  -1.4876460e-03   3.0625056e+00   2.7277362e+00  -1.0224294e+07
   7.0423474e-10  -1.4774533e-03   3.0614595e+00   2.7289681e+00  -1.0154462e+07
   7.0523508e-10  -1.4673302e-03   3.0604206e+00   2.7301918e+00  -1.0085103e+07
   7.0623541e-10  -1.4572762e-03   3.0593887e+00   2.7314074e+00  -1.0016215e+07
   7.0723575e-10  -1.4472909e-03   3.0583639e+00   2.7326149e+00  -9.9477950e+06
   7.0823608e-10  -1.4373738e-03   3.0573460e+00   2.7338143e+00  -9.8798390e+06
   7.0923641e-10  -1.4275245e-03   3.0563351e+00   2.7350057e+00  -9.8123442e+06
   7.1023675e-10  -1.4177424e-03   3.0553311e+00   2.7361892e+00  -9.7453078e+06
   7.1123708e-10  -1.4080272e-03   3.0543338e+00   2.7373648e+00  -9.6787264e+06
   7.1223741e-10  -1.3983784e-03   3.0533434e+00   2.7385325e+00  -9.6125971e+06
   7.1323775e-10  -1.3887955e-03   3.0523597e+00   2.7396925e+00  -9.5469169e+06
   7.1423808e-10  -1.3792780e-03   3.0513828e+00   2.7408447e+00  -9.4816828e+06
   7.1523841e-10  -1.3698256e-03   3.0504124e+00   2.7419892e+00  -9.4168917e+06
   7.1623875e-10  -1.3604378e-03   3.0494487e+00   2.7431261e+00  -9.3525407e+06
   7.1723908e-10  -1.3511142e-03   3.0484916e+00   2.7442554e+00  -9.2886268e+06
   7.1823941e-10  -1.3418542e-03   3.0475409e+00   2.7453771e+00  -9.2251472e+06
   7.1923975e-10  -1.3326576e-03   3.0465968e+00   2.7464914e+00  -9.1620988e+06
   7.2024008e-10  -1.3235238e-03   3.0456590e+00   2.7475982e+00  -9.0994788e+06
   7.2124041e-10  -1.3144524e-03   3.0447277e+00   2.7486976e+00  -9.0372844e+06
   7.2224075e-10  -1.3054430e-03   3.0438027e+00   2.7497896e+00  -8.9755126e+06
   7.2324108e-10  -1.2964952e-03   3.0428840e+00   2.7508744e+00  -8.9141607e+06
   7.2424141e-10  -1.2876086e-03   3.0419716e+00   2.7519519e+00  -8.8532258e+06
   7.2524175e-10  -1.2787828e-03   3.0410654e+00   2.7530222e+00  -8.7927050e+06
   7.2624208e-10  -1.2700172e-03   3.0401654e+00   2.7540853e+00  -8.7325957e+06
   7.2724241e-10  -1.2613116e-03   3.0392715e+00   2.7551413e+00  -8.6728951e+06
   7.2824275e-10  -1.2526655e-03   3.0383837e+00   2.7561902e+00  -8.6136004e+06
   7.2924308e-10  -1.2440785e-03   3.0375020e+00   2.7572322e+00  -8.5547089e+06
   7.3024341e-10  -1.2355503e-03   3.0366263e+00   2.7582671e+00  -8.4962178e+06
   7.3124375e-10  -1.2270803e-03   3.0357565e+00   2.7592951e+00  -8.4381246e+06
   7.3224408e-10  -1.2186682e-03   3.0348927e+00   2.7603162e+00  -8.3804264e+06
   7.3324441e-10  -1.2103137e-03   3.0340347e+00   2.7613305e+00  -8.3231207e+06
   7.3424475e-10  -1.2020163e-03   3.0331827e+00   2.7623379e+00  -8.2662049e+06
   7.3524508e-10  -1.1937757e-03   3.0323364e+00   2.7633387e+00  -8.2096762e+06
   7.3624542e-10  -1.1855914e-03   3.0314959e+00   2.7643327e+00  -8.1535321e+06
   7.3724575e-10  -1.1774630e-03   3.0306612e+00   2.7653200e+00  -8.0977700e+06
   7.3824608e-10  -1.1693903e-03   3.0298321e+00   2.7663007e+00  -8.0423873e+06
   7.3924642e-10  -1.1613728e-03   3.0290087e+00   2.7672749e+00  -7.9873815e+06
   7.4024675e-10  -1.1534101e-03   3.0281909e+00   2.7682425e+00  -7.9327500e+06
   7.4124708e-10  -1.1455019e-03   3.0273787e+00   2.7692036e+00  -7.8784903e+06
   7.4224742e-10  -1.1376477e-03   3.0265720e+00   2.7701582e+00  -7.8246000e+06
   7.4324775e-10  -1.1298473e-03   3.0257709e+00   2.7711065e+00  -7.7710765e+06
   7.4424808e-10  -1.1221003e-03   3.0249752e+00   2.7720484e+00  -7.7179173e+06
   7.4524842e-10  -1.1144062e-03   3.0241850e+00   2.7729839e+00  -7.6651200e+06
   7.4624875e-10  -1.1067648e-03   3.0234001e+00   2.7739132e+00  -7.6126822e+06
   7.4724908e-10  -1.0991757e-03   3.0226206e+00   2.7748362e+00  -7.5606014e+06
   7.4824942e-10  -1.0916384e-03   3.0218464e+00   2.7757530e+00  -7.5088753e+06
   7.4924975e-10  -1.0841528e-03   3.0210775e+00   2.7766637e+00  -7.4575013e+06
   7.5025008e-10  -1.0767183e-03   3.0203139e+00   2.7775682e+00  -7.4064773e+06
   7.5125042e-10  -1.0693348e-03   3.0195555e+00   2.7784666e+00  -7.3558007e+06
   7.5225075e-10  -1.0620017e-03   3.0188022e+00   2.7793591e+00  -7.3054693e+06
   7.5325108e-10  -1.0547188e-03   3.0180541e+00   2.7802455e+00  -7.2554807e+06
   7.5425142e-10  -1.0474858e-03   3.0173111e+00   2.7811259e+00  -7.2058327e+06
   7.5525175e-10  -1.0403023e-03   3.0165732e+00   2.7820004e+00  -7.1565228e+06
   7.5625208e-10  -1.0331679e-03   3.0158404e+00   2.7828691e+00  -7.1075489e+06
   7.5725242e-10  -1.0260823e-03   3.0151125e+00   2.7837318e+00  -7.0589087e+06
   7.5825275e-10  -1.0190452e-03   3.0143896e+00   2.7845888e+00  -7.0105998e+06
   7.5925308e-10  -1.0120563e-03   3.0136716e+00   2.7854400e+00  -6.9626202e+06
   7.6025342e-10  -1.0051152e-03   3.0129586e+00   2.7862855e+00  -6.9149675e+06
   7.6125375e-10  -9.9822167e-04   3.0122504e+00   2.7871253e+00  -6.8676396e+06
   7.6225408e-10  -9.9137528e-04   3.0115471e+00   2.7879594e+00  -6.8206342e+06
   7.6325442e-10  -9.8457575e-04   3.0108486e+00   2.7887879e+00  -6.7739492e+06
   7.6425475e-10  -9.7782276e-04   3.0101548e+00   2.7896108e+00  -6.7275824e+06
   7.6525509e-10  -9.7111599e-04   3.0094658e+00   2.7904282e+00  -6.6815316e+06
   7.6625542e-10  -9.6445513e-04   3.0087815e+00   2.7912401e+00  -6.6357948e+06
   7.6725575e-10  -9.5783987e-04   3.0081019e+00   2.7920465e+00  -6.5903698e+06
   7.6825609e-10  -9.5126989e-04   3.0074269e+00   2.7928475e+00  -6.5452545e+06
   7.6925642e-10  -9.4474489e-04   3.0067565e+00   2.7936430e+00  -6.5004467e+06
   7.7025675e-10  -9.3826456e-04   3.0060907e+00   2.7944332e+00  -6.4559445e+06
   7.7125709e-10  -9.3182860e-04   3.0054295e+00   2.7952181e+00  -6.4117458e+06
   7.7225742e-10  -9.2543669e-04   3.0047728e+00   2.7959976e+00  -6.3678485e+06
   7.7325775e-10  -9.1908855e-04   3.0041206e+00   2.7967719e+00  -6.3242505e+06
   7.7425809e-10  -9.1278388e-04   3.0034728e+00   2.7975410e+00  -6.2809499e+06
   7.7525842e-10  -9.0652237e-04   3.0028295e+00   2.7983049e+00  -6.2379446e+06
   7.7625875e-10  -9.0030373e-04   3.0021905e+00   2.7990637e+00  -6.1952326e+06
   7.7725909e-10  -8.9412767e-04   3.0015560e+00   2.7998173e+00  -6.1528120e+06
   7.7825942e-10  -8.8799391e-04   3.0009258e+00   2.8005658e+00  -6.1106807e+06
   7.7925975e-10  -8.8190214e-04   3.0002998e+00   2.8013093e+00  -6.0688369e+06
   7.8026009e-10  -8.7585209e-04   2.9996782e+00   2.8020477e+00  -6.0272785e+06
   7.8126042e-10  -8.6984347e-04   2.9990608e+00   2.8027812e+00  -5.9860037e+06
   7.8226075e-10  -8.6387600e-04   2.9984477e+00   2.8035097e+00  -5.9450105e+06
   7.8326109e-10  -8.5794939e-04   2.9978387e+00   2.8042333e+00  -5.9042970e+06
   7.8426142e-10  -8.5206337e-04   2.9972339e+00   2.8049520e+00  -5.8638613e+06
   7.8526175e-10  -8.4621767e-04   2.9966333e+00   2.8056658e+00  -5.8237015e+06
   7.8626209e-10  -8.4041199e-04   2.9960367e+00   2.8063748e+00  -5.7838158e+06
   7.8726242e-10  -8.3464609e-04   2.9954443e+00   2.8070791e+00  -5.7442024e+06
   7.8826275e-10  -8.2891967e-04   2.9948558e+00   2.8077785e+00  -5.7048592e+06
   7.8926309e-10  -8.2323247e-04   2.9942715e+00   2.8084733e+00  -5.6657847e+06
   7.9026342e-10  -8.1758423e-04   2.9936911e+00   2.8091633e+00  -5.6269768e+06
   7.9126375e-10  -8.1197468e-04   2.9931146e+00   2.8098487e+00  -5.5884338e+06
   7.9226409e-10  -8.0640355e-04   2.9925422e+00   2.8105294e+00  -5.5501540e+06
   7.9326442e-10  -8.0087058e-04   2.9919736e+00   2.8112055e+00  -5.5121355e+06
   7.9426475e-10  -7.9537552e-04   2.9914090e+00   2.8118771e+00  -5.4743765e+06
   7.9526509e-10  -7.8991809e-04   2.9908482e+00   2.8125441e+00  -5.4368753e+06
   7.9626542e-10  -7.8449805e-04   2.9902912e+00   2.8132066e+00  -5.3996302e+06
   7.9726576e-10  -7.7911515e-04   2.9897381e+00   2.8138646e+00  -5.3626394e+06
   7.9826609e-10  -7.7376911e-04   2.9891887e+00   2.8145181e+00  -5.3259012e+06
   7.9926642e-10  -7.6845971e-04   2.9886431e+00   2.8151673e+00  -5.2894138e+06
   8.0026676e-10  -7.6318668e-04   2.9881012e+00   2.8158120e+00  -5.2531757e+06
   8.0126709e-10  -7.5794977e-04   2.9875631e+00   2.8164524e+00  -5.2171850e+06
   8.0226742e-10  -7.5274874e-04   2.9870286e+00   2.8170884e+00  -5.1814401e+06
   8.0326776e-10  -7.4758335e-04   2.9864978e+00   2.8177202e+00  -5.1459393e+06
   8.0426809e-10  -7.4245335e-04   2.9859706e+00   2.8183476e+00  -5.1106810e+06
   8.0526842e-10  -7.3735850e-04   2.9854470e+00   2.8189708e+00  -5.0756636e+06
   8.0626876e-10  -7.3229856e-04   2.9849271e+00   2.8195898e+00  -5.0408853e+06
   8.0726909e-10  -7.2727329e-04   2.9844106e+00   2.8202046e+00  -5.0063446e+06
   8.0826942e-10  -7.2228245e-04   2.9838977e+00   2.8208152e+00  -4.9720399e+06
   8.0926976e-10  -7.1732582e-04   2.9833884e+00   2.8214217e+00  -4.9379696e+06
   8.1027009e-10  -7.1240314e-04   2.9828825e+00   2.8220240e+00  -4.9041320e+06
   8.1127042e-10  -7.0751421e-04   2.9823801e+00   2.8226223e+00  -4.8705256e+06
   8.1227076e-10  -7.0265877e-04   2.9818811e+00   2.8232166e+00  -4.8371488e+06
   8.1327109e-10  -6.9783661e-04   2.9813855e+00   2.8238068e+00  -4.8040001e+06
   8.1427142e-10  -6.9304749e-04   2.9808933e+00   2.8243930e+00  -4.7710779e+06
   8.1527176e-10  -6.8829119e-04   2.9804045e+00   2.8249752e+00  -4.7383806e+06
   8.1627209e-10  -6.8356749e-04   2.9799191e+00   2.8255535e+00  -4.7059068e+06
   8.1727242e-10  -6.7887617e-04   2.9794370e+00   2.8261278e+00  -4.6736549e+06
   8.1827276e-10  -6.7421699e-04   2.9789581e+00   2.8266983e+00  -4.6416235e+06
   8.1927309e-10  -6.6958975e-04   2.9784826e+00   2.8272649e+00  -4.6098109e+06
   8.2027342e-10  -6.6499422e-04   2.9780103e+00   2.8278276e+00  -4.5782158e+06
   8.2127376e-10  -6.6043019e-04   2.9775412e+00   2.8283865e+00  -4.5468367e+06
   8.2227409e-10  -6.5589745e-04   2.9770754e+00   2.8289417e+00  -4.5156720e+06
   8.2327442e-10  -6.5139577e-04   2.9766128e+00   2.8294930e+00  -4.4847204e+06
   8.2427476e-10  -6.4692494e-04   2.9761533e+00   2.8300407e+00  -4.4539803e+06
   8.2527509e-10  -6.4248477e-04   2.9756970e+00   2.8305846e+00  -4.4234504e+06
   8.2627543e-10  -6.3807502e-04   2.9752437e+00   2.8311248e+00  -4.3931292e+06
   8.2727576e-10  -6.3369551e-04   2.9747936e+00   2.8316613e+00  -4.3630153e+06
   8.2827609e-10  -6.2934602e-04   2.9743466e+00   2.8321942e+00  -4.3331073e+06
   8.2927643e-10  -6.2502634e-04   2.9739027e+00   2.8327235e+00  -4.3034037e+06
   8.3027676e-10  -6.2073627e-04   2.9734618e+00   2.8332492e+00  -4.2739033e+06
   8.3127709e-10  -6.1647561e-04   2.9730239e+00   2.8337713e+00  -4.2446045e+06
   8.3227743e-10  -6.1224416e-04   2.9725890e+00   2.8342899e+00  -4.2155062e+06
   8.3327776e-10  -6.0804172e-04   2.9721571e+00   2.8348050e+00  -4.1866067e+06
   8.3427809e-10  -6.0386809e-04   2.9717281e+00   2.8353165e+00  -4.1579050e+06
   8.3527843e-10  -5.9972307e-04   2.9713021e+00   2.8358246e+00  -4.1293994e+06
   8.3627876e-10  -5.9560647e-04   2.9708790e+00   2.8363292e+00  -4.1010889e+06
   8.3727909e-10  -5.9151810e-04   2.9704588e+00   2.8368304e+00  -4.0729719e+06
   8.3827943e-10  -5.8745775e-04   2.9700415e+00   2.8373282e+00  -4.0450473e+06
   8.3927976e-10  -5.8342524e-04   2.9696271e+00   2.8378226e+00  -4.0173136e+06
   8.4028009e-10  -5.7942038e-04   2.9692155e+00   2.8383137e+00  -3.9897697e+06
   8.4128043e-10  -5.7544298e-04   2.9688067e+00   2.8388014e+00  -3.9624141e+06
   8.4228076e-10  -5.7149285e-04   2.9684007e+00   2.8392858e+00  -3.9352457e+06
   8.4328109e-10  -5.6756980e-04   2.9679975e+00   2.8397669e+00  -3.9082631e+06
   8.4428143e-10  -5.6367365e-04   2.9675970e+00   2.8402447e+00  -3.8814651e+06
   8.4528176e-10  -5.5980422e-04   2.9671993e+00   2.8407193e+00  -3.8548504e+06
   8.4628209e-10  -5.5596132e-04   2.9668044e+00   2.8411906e+00  -3.8284177e+06
   8.4728243e-10  -5.5214477e-04   2.9664121e+00   2.8416588e+00  -3.8021660e+06
   8.4828276e-10  -5.4835439e-04   2.9660225e+00   2.8421238e+00  -3.7760938e+06
   8.4928309e-10  -5.4459001e-04   2.9656356e+00   2.8425856e+00  -3.7502000e+06
   8.5028343e-10  -5.4085143e-04   2.9652514e+00   2.8430442e+00  -3.7244833e+06
   8.5128376e-10  -5.3713850e-04   2.9648698e+00   2.8434998e+00  -3.6989427e+06
   8.5228409e-10  -5.3345102e-04   2.9644908e+00   2.8439522e+00  -3.6735767e+06
   8.5328443e-10  -5.2978884e-04   2.9641144e+00   2.8444016e+00  -3.6483844e+06
   8.5428476e-10  -5.2615176e-04   2.9637405e+00   2.8448479e+00  -3.6233644e+06
   8.5528510e-10  -5.2253963e-04   2.9633693e+00   2.8452912e+00  -3.5985157e+06
   8.5628543e-10  -5.1895228e-04   2.9630006e+00   2.8457314e+00  -3.5738370e+06
   8.5728576e-10  -5.1538952e-04   2.9626344e+00   2.8461687e+00  -3.5493272e+06
   8.5828610e-10  -5.1185120e-04   2.9622707e+00   2.8466030e+00  -3.5249851e+06
   8.5928643e-10  -5.0833714e-04   2.9619095e+00   2.8470343e+00  -3.5008097e+06
   8.6028676e-10  -5.0484719e-04   2.9615508e+00   2.8474627e+00  -3.4767996e+06
   8.6128710e-10  -5.0138117e-04   2.9611946e+00   2.8478882e+00  -3.4529539e+06
   8.6228743e-10  -4.9793892e-04   2.9608408e+00   2.8483107e+00  -3.4292715e+06
   8.6328776e-10  -4.9452029e-04   2.9604894e+00   2.8487304e+00  -3.4057511e+06
   8.6428810e-10  -4.9112510e-04   2.9601404e+00   2.8491473e+00  -3.3823917e+06
   8.6528843e-10  -4.8775319e-04   2.9597938e+00   2.8495613e+00  -3.3591922e+06
   8.6628876e-10  -4.8440442e-04   2.9594497e+00   2.8499725e+00  -3.3361516e+06
   8.6728910e-10  -4.8107861e-04   2.9591078e+00   2.8503808e+00  -3.3132686e+06
   8.6828943e-10  -4.7777562e-04   2.9587683e+00   2.8507865e+00  -3.2905423e+06
   8.6928976e-10  -4.7449528e-04   2.9584312e+00   2.8511893e+00  -3.2679716e+06
   8.7029010e-10  -4.7123745e-04   2.9580963e+00   2.8515894e+00  -3.2455554e+06
   8.7129043e-10  -4.6800196e-04   2.9577637e+00   2.8519868e+00  -3.2232926e+06
   8.7229076e-10  -4.6478866e-04   2.9574335e+00   2.8523814e+00  -3.2011823e+06
   8.7329110e-10  -4.6159741e-04   2.9571055e+00   2.8527734e+00  -3.1792234e+06
   8.7429143e-10  -4.5842804e-04   2.9567797e+00   2.8531627e+00  -3.1574148e+06
   8.7529176e-10  -4.5528042e-04   2.9564562e+00   2.8535494e+00  -3.1357555e+06
   8.7629210e-10  -4.5215439e-04   2.9561349e+00   2.8539334e+00  -3.1142446e+06
   8.7729243e-10  -4.4904981e-04   2.9558158e+00   2.8543148e+00  -3.0928809e+06
   8.7829276e-10  -4.4596652e-04   2.9554988e+00   2.8546936e+00  -3.0716635e+06
   8.7929310e-10  -4.4290438e-04   2.9551841e+00   2.8550698e+00  -3.0505914e+06
   8.8029343e-10  -4.3986325e-04   2.9548715e+00   2.8554435e+00  -3.0296636e+06
   8.8129376e-10  -4.3684299e-04   2.9545611e+00   2.8558146e+00  -3.0088791e+06
   8.8229410e-10  -4.3384344e-04   2.9542528e+00   2.8561832e+00  -2.9882370e+06
   8.8329443e-10  -4.3086447e-04   2.9539466e+00   2.8565492e+00  -2.9677362e+06
   8.8429476e-10  -4.2790594e-04   2.9536425e+00   2.8569128e+00  -2.9473758e+06
   8.8529510e-10  -4.2496771e-04   2.9533405e+00   2.8572739e+00  -2.9271549e+06
   8.8629543e-10  -4.2204963e-04   2.9530405e+00   2.8576325e+00  -2.9070724e+06
   8.8729577e-10  -4.1915158e-04   2.9527427e+00   2.8579887e+00  -2.8871275e+06
   8.8829610e-10  -4.1627341e-04   2.9524468e+00   2.8583425e+00  -2.8673192e+06
   8.8929643e-10  -4.1341498e-04   2.9521530e+00   2.8586938e+00  -2.8476466e+06
   8.9029677e-10  -4.1057617e-04   2.9518612e+00   2.8590427e+00  -2.8281087e+06
   8.9129710e-10  -4.0775684e-04   2.9515714e+00   2.8593893e+00  -2.8087046e+06
   8.9229743e-10  -4.0495684e-04   2.9512836e+00   2.8597335e+00  -2.7894335e+06
   8.9329777e-10  -4.0217606e-04   2.9509978e+00   2.8600754e+00  -2.7702944e+06
   8.9429810e-10  -3.9941436e-04   2.9507140e+00   2.8604149e+00  -2.7512863e+06
   8.9529843e-10  -3.9667161e-04   2.9504320e+00   2.8607521e+00  -2.7324085e+06
   8.9629877e-10  -3.9394768e-04   2.9501521e+00   2.8610870e+00  -2.7136600e+06
   8.9729910e-10  -3.9124244e-04   2.9498740e+00   2.8614196e+00  -2.6950400e+06
   8.9829943e-10  -3.8855576e-04   2.9495978e+00   2.8617500e+00  -2.6765475e+06
   8.9929977e-10  -3.8588752e-04   2.9493236e+00   2.8620781e+00  -2.6581817e+06
   9.0030010e-10  -3.8323758e-04   2.9490512e+00   2.8624039e+00  -2.6399417e+06
   9.0130043e-10  -3.8060583e-04   2.9487807e+00   2.8627276e+00  -2.6218267e+06
   9.0230077e-10  -3.7799214e-04   2.9485120e+00   2.8630490e+00  -2.6038358e+06
   9.0330110e-10  -3.7539638e-04   2.9482452e+00   2.8633682e+00  -2.5859682e+06
   9.0430143e-10  -3.7281844e-04   2.9479803e+00   2.8636853e+00  -2.5682229e+06
   9.0530177e-10  -3.7025818e-04   2.9477171e+00   2.8640002e+00  -2.5505993e+06
   9.0630210e-10  -3.6771550e-04   2.9474557e+00   2.8643129e+00  -2.5330964e+06
   9.0730243e-10  -3.6519026e-04   2.9471962e+00   2.8646235e+00  -2.5157135e+06
   9.0830277e-10  -3.6268235e-04   2.9469384e+00   2.8649320e+00  -2.4984497e+06
   9.0930310e-10  -3.6019166e-04   2.9466824e+00   2.8652384e+00  -2.4813041e+06
   9.1030343e-10  -3.5771805e-04   2.9464281e+00   2.8655427e+00  -2.4642761e+06
   9.1130377e-10  -3.5526142e-04   2.9461756e+00   2.8658449e+00  -2.4473647e+06
   9.1230410e-10  -3.5282165e-04   2.9459248e+00   2.8661451e+00  -2.4305693e+06
   9.1330443e-10  -3.5039862e-04   2.9456758e+00   2.8664432e+00  -2.4138889e+06
   9.1430477e-10  -3.4799223e-04   2.9454284e+00   2.8667392e+00  -2.3973229e+06
   9.1530510e-10  -3.4560234e-04   2.9451828e+00   2.8670333e+00  -2.3808703e+06
   9.1630544e-10  -3.4322886e-04   2.9449388e+00   2.8673253e+00  -2.3645306e+06
   9.1730577e-10  -3.4087167e-04   2.9446965e+00   2.8676154e+00  -2.3483028e+06
   9.1830610e-10  -3.3853065e-04   2.9444559e+00   2.8679034e+00  -2.3321862e+06
   9.1930644e-10  -3.3620570e-04   2.9442169e+00   2.8681895e+00  -2.3161801e+06
   9.2030677e-10  -3.3389671e-04   2.9439796e+00   2.8684736e+00  -2.3002837e+06
   9.2130710e-10  -3.3160356e-04   2.9437439e+00   2.8687558e+00  -2.2844963e+06
   9.2230744e-10  -3.2932616e-04   2.9435098e+00   2.8690361e+00  -2.2688170e+06
   9.2330777e-10  -3.2706438e-04   2.9432773e+00   2.8693145e+00  -2.2532452e+06
   9.2430810e-10  -3.2481813e-04   2.9430464e+00   2.8695909e+00  -2.2377802e+06
   9.2530844e-10  -3.2258729e-04   2.9428171e+00   2.8698655e+00  -2.2224212e+06
   9.2630877e-10  -3.2037177e-04   2.9425894e+00   2.8701382e+00  -2.2071674e+06
   9.2730910e-10  -3.1817145e-04   2.9423632e+00   2.8704090e+00  -2.1920182e+06
   9.2830944e-10  -3.1598624e-04   2.9421386e+00   2.8706780e+00  -2.1769729e+06
   9.2930977e-10  -3.1381602e-04   2.9419156e+00   2.8709451e+00  -2.1620307e+06
   9.3031010e-10  -3.1166070e-04   2.9416940e+00   2.8712104e+00  -2.1471909e+06
   9.3131044e-10  -3.0952017e-04   2.9414740e+00   2.8714739e+00  -2.1324528e+06
   9.3231077e-10  -3.0739434e-04   2.9412555e+00   2.8717356e+00  -2.1178158e+06
   9.3331110e-10  -3.0528309e-04   2.9410385e+00   2.8719955e+00  -2.1032791e+06
   9.3431144e-10  -3.0318634e-04   2.9408230e+00   2.8722537e+00  -2.0888421e+06
   9.3531177e-10  -3.0110398e-04   2.9406089e+00   2.8725101e+00  -2.0745041e+06
   9.3631210e-10  -2.9903592e-04   2.9403963e+00   2.8727647e+00  -2.0602644e+06
   9.3731244e-10  -2.9698205e-04   2.9401852e+00   2.8730175e+00  -2.0461222e+06
   9.3831277e-10  -2.9494228e-04   2.9399756e+00   2.8732687e+00  -2.0320771e+06
   9.3931310e-10  -2.9291651e-04   2.9397673e+00   2.8735181e+00  -2.0181282e+06
   9.4031344e-10  -2.9090464e-04   2.9395605e+00   2.8737659e+00  -2.0042750e+06
   9.4131377e-10  -2.8890659e-04   2.9393552e+00   2.8740119e+00  -1.9905168e+06
   9.4231410e-10  -2.8692225e-04   2.9391512e+00   2.8742562e+00  -1.9768529e+06
   9.4331444e-10  -2.8495153e-04   2.9389486e+00   2.8744989e+00  -1.9632826e+06
   9.4431477e-10  -2.8299434e-04   2.9387475e+00   2.8747400e+00  -1.9498055e+06
   9.4531511e-10  -2.8105059e-04   2.9385477e+00   2.8749793e+00  -1.9364207e+06
   9.4631544e-10  -2.7912018e-04   2.9383492e+00   2.8752171e+00  -1.9231277e+06
   9.4731577e-10  -2.7720302e-04   2.9381522e+00   2.8754532e+00  -1.9099259e+06
   9.4831611e-10  -2.7529903e-04   2.9379565e+00   2.8756877e+00  -1.8968146e+06
   9.4931644e-10  -2.7340810e-04   2.9377621e+00   2.8759206e+00  -1.8837932e+06
   9.5031677e-10  -2.7153015e-04   2.9375691e+00   2.8761519e+00  -1.8708611e+06
   9.5131711e-10  -2.6966510e-04   2.9373774e+00   2.8763816e+00  -1.8580177e+06
   9.5231744e-10  -2.6781285e-04   2.9371870e+00   2.8766097e+00  -1.8452623e+06
   9.5331777e-10  -2.6597331e-04   2.9369979e+00   2.8768363e+00  -1.8325945e+06
   9.5431811e-10  -2.6414641e-04   2.9368101e+00   2.8770614e+00  -1.8200135e+06
   9.5531844e-10  -2.6233205e-04   2.9366236e+00   2.8772849e+00  -1.8075187e+06
   9.5631877e-10  -2.6053014e-04   2.9364384e+00   2.8775068e+00  -1.7951097e+06
   9.5731911e-10  -2.5874060e-04   2.9362545e+00   2.8777273e+00  -1.7827858e+06
   9.5831944e-10  -2.5696335e-04   2.9360718e+00   2.8779462e+00  -1.7705464e+06
   9.5931977e-10  -2.5519830e-04   2.9358904e+00   2.8781637e+00  -1.7583909e+06
   9.6032011e-10  -2.5344537e-04   2.9357102e+00   2.8783797e+00  -1.7463188e+06
   9.6132044e-10  -2.5170447e-04   2.9355313e+00   2.8785941e+00  -1.7343295e+06
   9.6232077e-10  -2.4997552e-04   2.9353535e+00   2.8788072e+00  -1.7224224e+06
   9.6332111e-10  -2.4825845e-04   2.9351770e+00   2.8790187e+00  -1.7105970e+06
   9.6432144e-10  -2.4655316e-04   2.9350018e+00   2.8792288e+00  -1.6988527e+06
   9.6532177e-10  -2.4485958e-04   2.9348277e+00   2.8794375e+00  -1.6871889e+06
   9.6632211e-10  -2.4317763e-04   2.9346548e+00   2.8796447e+00  -1.6756052e+06
   9.6732244e-10  -2.4150723e-04   2.9344831e+00   2.8798506e+00  -1.6641009e+06
   9.6832277e-10  -2.3984829e-04   2.9343126e+00   2.8800550e+00  -1.6526755e+06
   9.6932311e-10  -2.3820075e-04   2.9341432e+00   2.8802580e+00  -1.6413285e+06
   9.7032344e-10  -2.3656452e-04   2.9339751e+00   2.8804596e+00  -1.6300593e+06
   9.7132377e-10  -2.3493952e-04   2.9338080e+00   2.8806599e+00  -1.6188674e+06
   9.7232411e-10  -2.3332568e-04   2.9336421e+00   2.8808588e+00  -1.6077523e+06
   9.7332444e-10  -2.3172292e-04   2.9334774e+00   2.8810563e+00  -1.5967134e+06
   9.7432477e-10  -2.3013116e-04   2.9333138e+00   2.8812525e+00  -1.5857503e+06
   9.7532511e-10  -2.2855033e-04   2.9331513e+00   2.8814473e+00  -1.5748623e+06
   9.7632544e-10  -2.2698036e-04   2.9329899e+00   2.8816408e+00  -1.5640491e+06
   9.7732578e-10  -2.2542117e-04   2.9328297e+00   2.8818330e+00  -1.5533100e+06
   9.7832611e-10  -2.2387268e-04   2.9326705e+00   2.8820238e+00  -1.5426446e+06
   9.7932644e-10  -2.2233482e-04   2.9325124e+00   2.8822134e+00  -1.5320524e+06
   9.8032678e-10  -2.2080753e-04   2.9323554e+00   2.8824016e+00  -1.5215328e+06
   9.8132711e-10  -2.1929072e-04   2.9321995e+00   2.8825886e+00  -1.5110854e+06
   9.8232744e-10  -2.1778433e-04   2.9320447e+00   2.8827742e+00  -1.5007097e+06
   9.8332778e-10  -2.1628828e-04   2.9318909e+00   2.8829587e+00  -1.4904051e+06
   9.8432811e-10  -2.1480250e-04   2.9317382e+00   2.8831418e+00  -1.4801713e+06
   9.8532844e-10  -2.1332692e-04   2.9315865e+00   2.8833237e+00  -1.4700076e+06
   9.8632878e-10  -2.1186148e-04   2.9314359e+00   2.8835043e+00  -1.4599137e+06
   9.8732911e-10  -2.1040610e-04   2.9312863e+00   2.8836838e+00  -1.4498890e+06
   9.8832944e-10  -2.0896071e-04   2.9311377e+00   2.8838619e+00  -1.4399331e+06
   9.8932978e-10  -2.0752525e-04   2.9309902e+00   2.8840389e+00  -1.4300456e+06
   9.9033011e-10  -2.0609964e-04   2.9308437e+00   2.8842147e+00  -1.4202258e+06
   9.9133044e-10  -2.0468383e-04   2.9306981e+00   2.8843892e+00  -1.4104735e+06
   9.9233078e-10  -2.0327773e-04   2.9305536e+00   2.8845626e+00  -1.4007880e+06
   9.9333111e-10  -2.0188130e-04   2.9304101e+00   2.8847347e+00  -1.3911690e+06
   9.9433144e-10  -2.0049445e-04   2.9302675e+00   2.8849057e+00  -1.3816160e+06
   9.9533178e-10  -1.9911712e-04   2.9301259e+00   2.8850755e+00  -1.3721286e+06
   9.9633211e-10  -1.9774925e-04   2.9299853e+00   2.8852442e+00  -1.3627062e+06
   9.9733244e-10  -1.9639078e-04   2.9298457e+00   2.8854117e+00  -1.3533485e+06
   9.9833278e-10  -1.9504163e-04   2.9297070e+00   2.8855780e+00  -1.3440550e+06
   9.9933311e-10  -1.9370175e-04   2.9295693e+00   2.8857433e+00  -1.3348253e+06
   1.0003334e-09  -1.9237107e-04   2.9294325e+00   2.8859073e+00  -1.3256589e+06
   1.0013338e-09  -1.9104953e-04   2.9292967e+00   2.8860703e+00  -1.3165554e+06
   1.0023341e-09  -1.8973706e-04   2.9291618e+00   2.8862321e+00  -1.3075144e+06
   1.0033344e-09  -1.8843361e-04   2.9290278e+00   2.8863929e+00  -1.2985354e+06
   1.0043348e-09  -1.8713910e-04   2.9288948e+00   2.8865525e+00  -1.2896180e+06
   1.0053351e-09  -1.8585349e-04   2.9287626e+00   2.8867110e+00  -1.2807618e+06
   1.0063354e-09  -1.8457670e-04   2.9286314e+00   2.8868685e+00  -1.2719664e+06
   1.0073358e-09  -1.8330869e-04   2.9285010e+00   2.8870249e+00  -1.2632314e+06
   1.0083361e-09  -1.8204938e-04   2.9283716e+00   2.8871802e+00  -1.2545563e+06
   1.0093364e-09  -1.8079872e-04   2.9282431e+00   2.8873344e+00  -1.2459407e+06
   1.0103368e-09  -1.7955665e-04   2.9281154e+00   2.8874876e+00  -1.2373843e+06
   1.0113371e-09  -1.7832311e-04   2.9279886e+00   2.8876397e+00  -1.2288865e+06
   1.0123374e-09  -1.7709804e-04   2.9278627e+00   2.8877908e+00  -1.2204471e+06
   1.0133378e-09  -1.7588138e-04   2.9277376e+00   2.8879409e+00  -1.2120656e+06
   1.0143381e-09  -1.7467308e-04   2.9276134e+00   2.8880899e+00  -1.2037416e+06
   1.0153384e-09  -1.7347307e-04   2.9274901e+00   2.8882379e+00  -1.1954748e+06
   1.0163388e-09  -1.7228131e-04   2.9273676e+00   2.8883849e+00  -1.1872647e+06
   1.0173391e-09  -1.7109773e-04   2.9272459e+00   2.8885309e+00  -1.1791109e+06
   1.0183394e-09  -1.6992228e-04   2.9271251e+00   2.8886759e+00  -1.1710131e+06
   1.0193398e-09  -1.6875491e-04   2.9270051e+00   2.8888199e+00  -1.1629709e+06
   1.0203401e-09  -1.6759555e-04   2.9268859e+00   2.8889629e+00  -1.1549838e+06
   1.0213404e-09  -1.6644415e-04   2.9267676e+00   2.8891049e+00  -1.1470516e+06
   1.0223408e-09  -1.6530066e-04   2.9266501e+00   2.8892460e+00  -1.1391738e+06
   1.0233411e-09  -1.6416503e-04   2.9265333e+00   2.8893860e+00  -1.1313501e+06
   1.0243414e-09  -1.6303719e-04   2.9264174e+00   2.8895252e+00  -1.1235801e+06
   1.0253418e-09  -1.6191710e-04   2.9263023e+00   2.8896634e+00  -1.1158634e+06
   1.0263421e-09  -1.6080470e-04   2.9261879e+00   2.8898006e+00  -1.1081997e+06
   1.0273424e-09  -1.5969994e-04   2.9260744e+00   2.8899369e+00  -1.1005886e+06
   1.0283428e-09  -1.5860277e-04   2.9259616e+00   2.8900722e+00  -1.0930297e+06
   1.0293431e-09  -1.5751314e-04   2.9258496e+00   2.8902066e+00  -1.0855227e+06
   1.0303434e-09  -1.5643099e-04   2.9257384e+00   2.8903401e+00  -1.0780672e+06
   1.0313438e-09  -1.5535627e-04   2.9256279e+00   2.8904727e+00  -1.0706629e+06
   1.0323441e-09  -1.5428893e-04   2.9255182e+00   2.8906044e+00  -1.0633094e+06
   1.0333444e-09  -1.5322892e-04   2.9254093e+00   2.8907352e+00  -1.0560064e+06
   1.0343448e-09  -1.5217619e-04   2.9253011e+00   2.8908651e+00  -1.0487536e+06
   1.0353451e-09  -1.5113070e-04   2.9251936e+00   2.8909941e+00  -1.0415505e+06
   1.0363454e-09  -1.5009238e-04   2.9250869e+00   2.8911222e+00  -1.0343968e+06
   1.0373458e-09  -1.4906120e-04   2.9249809e+00   2.8912494e+00  -1.0272923e+06
   1.0383461e-09  -1.4803710e-04   2.9248756e+00   2.8913758e+00  -1.0202365e+06
   1.0393464e-09  -1.4702003e-04   2.9247711e+00   2.8915013e+00  -1.0132291e+06
   1.0403468e-09  -1.4600995e-04   2.9246673e+00   2.8916259e+00  -1.0062699e+06
   1.0413471e-09  -1.4500680e-04   2.9245641e+00   2.8917497e+00  -9.9935843e+05
   1.0423474e-09  -1.4401055e-04   2.9244617e+00   2.8918726e+00  -9.9249440e+05
   1.0433478e-09  -1.4302114e-04   2.9243600e+00   2.8919947e+00  -9.8567749e+05
   1.0443481e-09  -1.4203852e-04   2.9242590e+00   2.8921159e+00  -9.7890738e+05
   1.0453484e-09  -1.4106265e-04   2.9241587e+00   2.8922363e+00  -9.7218374e+05
   1.0463488e-09  -1.4009349e-04   2.9240591e+00   2.8923559e+00  -9.6550625e+05
   1.0473491e-09  -1.3913098e-04   2.9239602e+00   2.8924747e+00  -9.5887461e+05
   1.0483494e-09  -1.3817508e-04   2.9238619e+00   2.8925927e+00  -9.5228848e+05
   1.0493498e-09  -1.3722575e-04   2.9237644e+00   2.8927098e+00  -9.4574758e+05
   1.0503501e-09  -1.3628294e-04   2.9236675e+00   2.8928262e+00  -9.3925157e+05
   1.0513505e-09  -1.3534661e-04   2.9235712e+00   2.8929417e+00  -9.3280016e+05
   1.0523508e-09  -1.3441671e-04   2.9234756e+00   2.8930565e+00  -9.2639304e+05
   1.0533511e-09  -1.3349319e-04   2.9233807e+00   2.8931704e+00  -9.2002990e+05
   1.0543515e-09  -1.3257602e-04   2.9232864e+00   2.8932836e+00  -9.1371044e+05
   1.0553518e-09  -1.3166515e-04   2.9231928e+00   2.8933960e+00  -9.0743437e+05
   1.0563521e-09  -1.3076053e-04   2.9230998e+00   2.8935077e+00  -9.0120139e+05
   1.0573525e-09  -1.2986213e-04   2.9230075e+00   2.8936186e+00  -8.9501120e+05
   1.0583528e-09  -1.2896990e-04   2.9229158e+00   2.8937287e+00  -8.8886350e+05
   1.0593531e-09  -1.2808379e-04   2.9228247e+00   2.8938380e+00  -8.8275802e+05
   1.0603535e-09  -1.2720378e-04   2.9227343e+00   2.8939466e+00  -8.7669444e+05
   1.0613538e-09  -1.2632981e-04   2.9226444e+00   2.8940545e+00  -8.7067250e+05
   1.0623541e-09  -1.2546184e-04   2.9225552e+00   2.8941616e+00  -8.6469190e+05
   1.0633545e-09  -1.2459983e-04   2.9224666e+00   2.8942680e+00  -8.5875236e+05
   1.0643548e-09  -1.2374375e-04   2.9223786e+00   2.8943737e+00  -8.5285360e+05
   1.0653551e-09  -1.2289354e-04   2.9222912e+00   2.8944786e+00  -8.4699534e+05
   1.0663555e-09  -1.2204918e-04   2.9222044e+00   2.8945828e+00  -8.4117730e+05
   1.0673558e-09  -1.2121061e-04   2.9221183e+00   2.8946863e+00  -8.3539920e+05
   1.0683561e-09  -1.2037781e-04   2.9220327e+00   2.8947891e+00  -8.2966077e+05
   1.0693565e-09  -1.1955073e-04   2.9219476e+00   2.8948912e+00  -8.2396175e+05
   1.0703568e-09  -1.1872932e-04   2.9218632e+00   2.8949926e+00  -8.1830185e+05
   1.0713571e-09  -1.1791356e-04   2.9217794e+00   2.8950933e+00  -8.1268081e+05
   1.0723575e-09  -1.1710341e-04   2.9216961e+00   2.8951933e+00  -8.0709837e+05
   1.0733578e-09  -1.1629882e-04   2.9216134e+00   2.8952926e+00  -8.0155425e+05
   1.0743581e-09  -1.1549975e-04   2.9215313e+00   2.8953913e+00  -7.9604821e+05
   1.0753585e-09  -1.1470618e-04   2.9214497e+00   2.8954892e+00  -7.9057996e+05
   1.0763588e-09  -1.1391805e-04   2.9213687e+00   2.8955865e+00  -7.8514926e+05
   1.0773591e-09  -1.1313534e-04   2.9212882e+00   2.8956831e+00  -7.7975585e+05
   1.0783595e-09  -1.1235801e-04   2.9212083e+00   2.8957791e+00  -7.7439948e+05
   1.0793598e-09  -1.1158601e-04   2.9211290e+00   2.8958744e+00  -7.6907988e+05
   1.0803601e-09  -1.1081932e-04   2.9210502e+00   2.8959690e+00  -7.6379680e+05
   1.0813605e-09  -1.1005790e-04   2.9209719e+00   2.8960630e+00  -7.5855001e+05
   1.0823608e-09  -1.0930171e-04   2.9208942e+00   2.8961564e+00  -7.5333924e+05
   1.0833611e-09  -1.0855071e-04   2.9208170e+00   2.8962491e+00  -7.4816424e+05
   1.0843615e-09  -1.0780487e-04   2.9207404e+00   2.8963412e+00  -7.4302479e+05
   1.0853618e-09  -1.0706415e-04   2.9206642e+00   2.8964326e+00  -7.3792062e+05
   1.0863621e-09  -1.0632852e-04   2.9205886e+00   2.8965234e+00  -7.3285150e+05
   1.0873625e-09  -1.0559795e-04   2.9205135e+00   2.8966136e+00  -7.2781718e+05
   1.0883628e-09  -1.0487239e-04   2.9204389e+00   2.8967032e+00  -7.2281744e+05
   1.0893631e-09  -1.0415182e-04   2.9203649e+00   2.8967922e+00  -7.1785203e+05
   1.0903635e-09  -1.0343620e-04   2.9202913e+00   2.8968805e+00  -7.1292071e+05
   1.0913638e-09  -1.0272549e-04   2.9202183e+00   2.8969683e+00  -7.0802326e+05
   1.0923641e-09  -1.0201967e-04   2.9201457e+00   2.8970554e+00  -7.0315943e+05
   1.0933645e-09  -1.0131869e-04   2.9200737e+00   2.8971420e+00  -6.9832901e+05
   1.0943648e-09  -1.0062253e-04   2.9200021e+00   2.8972279e+00  -6.9353175e+05
   1.0953651e-09  -9.9931153e-05   2.9199311e+00   2.8973133e+00  -6.8876744e+05
   1.0963655e-09  -9.9244526e-05   2.9198605e+00   2.8973981e+00  -6.8403584e+05
   1.0973658e-09  -9.8562615e-05   2.9197904e+00   2.8974822e+00  -6.7933674e+05
   1.0983661e-09  -9.7885388e-05   2.9197208e+00   2.8975659e+00  -6.7466990e+05
   1.0993665e-09  -9.7212814e-05   2.9196517e+00   2.8976489e+00  -6.7003511e+05
   1.1003668e-09  -9.6544861e-05   2.9195830e+00   2.8977314e+00  -6.6543215e+05
   1.1013671e-09  -9.5881496e-05   2.9195148e+00   2.8978133e+00  -6.6086080e+05
   1.1023675e-09  -9.5222688e-05   2.9194471e+00   2.8978946e+00  -6.5632083e+05
   1.1033678e-09  -9.4568406e-05   2.9193799e+00   2.8979754e+00  -6.5181205e+05
   1.1043681e-09  -9.3918619e-05   2.9193131e+00   2.8980557e+00  -6.4733423e+05
   1.1053685e-09  -9.3273295e-05   2.9192467e+00   2.8981353e+00  -6.4288716e+05
   1.1063688e-09  -9.2632405e-05   2.9191809e+00   2.8982145e+00  -6.3847063e+05
   1.1073691e-09  -9.1995918e-05   2.9191154e+00   2.8982931e+00  -6.3408443e+05
   1.1083695e-09  -9.1363804e-05   2.9190505e+00   2.8983711e+00  -6.2972835e+05
   1.1093698e-09  -9.0736032e-05   2.9189860e+00   2.8984486e+00  -6.2540218e+05
   1.1103701e-09  -9.0112572e-05   2.9189219e+00   2.8985256e+00  -6.2110573e+05
   1.1113705e-09  -8.9493396e-05   2.9188582e+00   2.8986021e+00  -6.1683878e+05
   1.1123708e-09  -8.8878474e-05   2.9187950e+00   2.8986780e+00  -6.1260113e+05
   1.1133711e-09  -8.8267776e-05   2.9187323e+00   2.8987534e+00  -6.0839259e+05
   1.1143715e-09  -8.7661273e-05   2.9186699e+00   2.8988283e+00  -6.0421295e+05
   1.1153718e-09  -8.7058937e-05   2.9186080e+00   2.8989027e+00  -6.0006201e+05
   1.1163721e-09  -8.6460739e-05   2.9185465e+00   2.8989766e+00  -5.9593958e+05
   1.1173725e-09  -8.5866651e-05   2.9184855e+00   2.8990499e+00  -5.9184546e+05
   1.1183728e-09  -8.5276644e-05   2.9184248e+00   2.8991228e+00  -5.8777946e+05
   1.1193731e-09  -8.4690691e-05   2.9183646e+00   2.8991952e+00  -5.8374138e+05
   1.1203735e-09  -8.4108763e-05   2.9183048e+00   2.8992670e+00  -5.7973104e+05
   1.1213738e-09  -8.3530833e-05   2.9182454e+00   2.8993384e+00  -5.7574823e+05
   1.1223741e-09  -8.2956873e-05   2.9181864e+00   2.8994093e+00  -5.7179278e+05
   1.1233745e-09  -8.2386857e-05   2.9181278e+00   2.8994797e+00  -5.6786450e+05
   1.1243748e-09  -8.1820757e-05   2.9180696e+00   2.8995496e+00  -5.6396319e+05
   1.1253751e-09  -8.1258546e-05   2.9180118e+00   2.8996190e+00  -5.6008868e+05
   1.1263755e-09  -8.0700197e-05   2.9179544e+00   2.8996880e+00  -5.5624078e+05
   1.1273758e-09  -8.0145684e-05   2.9178974e+00   2.8997565e+00  -5.5241931e+05
   1.1283761e-09  -7.9594981e-05   2.9178408e+00   2.8998245e+00  -5.4862408e+05
   1.1293765e-09  -7.9048061e-05   2.9177846e+00   2.8998920e+00  -5.4485492e+05
   1.1303768e-09  -7.8504899e-05   2.9177288e+00   2.8999591e+00  -5.4111164e+05
   1.1313771e-09  -7.7965469e-05   2.9176734e+00   2.9000257e+00  -5.3739408e+05
   1.1323775e-09  -7.7429744e-05   2.9176183e+00   2.9000919e+00  -5.3370204e+05
   1.1333778e-09  -7.6897700e-05   2.9175636e+00   2.9001576e+00  -5.3003537e+05
   1.1343781e-09  -7.6369312e-05   2.9175093e+00   2.9002229e+00  -5.2639388e+05
   1.1353785e-09  -7.5844553e-05   2.9174554e+00   2.9002877e+00  -5.2277739e+05
   1.1363788e-09  -7.5323400e-05   2.9174018e+00   2.9003520e+00  -5.1918575e+05
   1.1373791e-09  -7.4805827e-05   2.9173486e+00   2.9004160e+00  -5.1561878e+05
   1.1383795e-09  -7.4291810e-05   2.9172958e+00   2.9004795e+00  -5.1207630e+05
   1.1393798e-09  -7.3781325e-05   2.9172433e+00   2.9005425e+00  -5.0855816e+05
   1.1403801e-09  -7.3274347e-05   2.9171912e+00   2.9006051e+00  -5.0506417e+05
   1.1413805e-09  -7.2770852e-05   2.9171394e+00   2.9006673e+00  -5.0159419e+05
   1.1423808e-09  -7.2270816e-05   2.9170880e+00   2.9007291e+00  -4.9814804e+05
   1.1433811e-09  -7.1774215e-05   2.9170370e+00   2.9007904e+00  -4.9472556e+05
   1.1443815e-09  -7.1281027e-05   2.9169863e+00   2.9008513e+00  -4.9132659e+05
   1.1453818e-09  -7.0791227e-05   2.9169360e+00   2.9009118e+00  -4.8795096e+05
   1.1463821e-09  -7.0304792e-05   2.9168860e+00   2.9009719e+00  -4.8459852e+05
   1.1473825e-09  -6.9821699e-05   2.9168363e+00   2.9010316e+00  -4.8126911e+05
   1.1483828e-09  -6.9341925e-05   2.9167870e+00   2.9010908e+00  -4.7796256e+05
   1.1493831e-09  -6.8865447e-05   2.9167380e+00   2.9011497e+00  -4.7467873e+05
   1.1503835e-09  -6.8392244e-05   2.9166894e+00   2.9012081e+00  -4.7141745e+05
   1.1513838e-09  -6.7922291e-05   2.9166411e+00   2.9012662e+00  -4.6817857e+05
   1.1523841e-09  -6.7455567e-05   2.9165931e+00   2.9013238e+00  -4.6496193e+05
   1.1533845e-09  -6.6992049e-05   2.9165455e+00   2.9013811e+00  -4.6176740e+05
   1.1543848e-09  -6.6531717e-05   2.9164982e+00   2.9014380e+00  -4.5859480e+05
   1.1553851e-09  -6.6074547e-05   2.9164512e+00   2.9014944e+00  -4.5544400e+05
   1.1563855e-09  -6.5620518e-05   2.9164045e+00   2.9015505e+00  -4.5231483e+05
   1.1573858e-09  -6.5169608e-05   2.9163582e+00   2.9016062e+00  -4.4920717e+05
   1.1583861e-09  -6.4721797e-05   2.9163121e+00   2.9016615e+00  -4.4612084e+05
   1.1593865e-09  -6.4277062e-05   2.9162664e+00   2.9017165e+00  -4.4305572e+05
   1.1603868e-09  -6.3835383e-05   2.9162210e+00   2.9017710e+00  -4.4001165e+05
   1.1613871e-09  -6.3396738e-05   2.9161759e+00   2.9018252e+00  -4.3698849e+05
   1.1623875e-09  -6.2961107e-05   2.9161312e+00   2.9018790e+00  -4.3398610e+05
   1.1633878e-09  -6.2528470e-05   2.9160867e+00   2.9019325e+00  -4.3100433e+05
   1.1643881e-09  -6.2098804e-05   2.9160425e+00   2.9019856e+00  -4.2804304e+05
   1.1653885e-09  -6.1672091e-05   2.9159987e+00   2.9020383e+00  -4.2510209e+05
   1.1663888e-09  -6.1248310e-05   2.9159551e+00   2.9020906e+00  -4.2218135e+05
   1.1673891e-09  -6.0827440e-05   2.9159119e+00   2.9021426e+00  -4.1928066e+05
   1.1683895e-09  -6.0409462e-05   2.9158689e+00   2.9021942e+00  -4.1639990e+05
   1.1693898e-09  -5.9994356e-05   2.9158262e+00   2.9022455e+00  -4.1353893e+05
   1.1703901e-09  -5.9582102e-05   2.9157839e+00   2.9022964e+00  -4.1069762e+05
   1.1713905e-09  -5.9172681e-05   2.9157418e+00   2.9023470e+00  -4.0787581e+05
   1.1723908e-09  -5.8766072e-05   2.9157000e+00   2.9023973e+00  -4.0507340e+05
   1.1733911e-09  -5.8362257e-05   2.9156585e+00   2.9024471e+00  -4.0229023e+05
   1.1743915e-09  -5.7961217e-05   2.9156173e+00   2.9024967e+00  -3.9952618e+05
   1.1753918e-09  -5.7562932e-05   2.9155763e+00   2.9025459e+00  -3.9678112e+05
   1.1763921e-09  -5.7167384e-05   2.9155357e+00   2.9025948e+00  -3.9405491e+05
   1.1773925e-09  -5.6774553e-05   2.9154953e+00   2.9026433e+00  -3.9134744e+05
   1.1783928e-09  -5.6384422e-05   2.9154552e+00   2.9026915e+00  -3.8865856e+05
   1.1793931e-09  -5.5996971e-05   2.9154154e+00   2.9027394e+00  -3.8598815e+05
   1.1803935e-09  -5.5612182e-05   2.9153758e+00   2.9027869e+00  -3.8333608e+05
   1.1813938e-09  -5.5230037e-05   2.9153366e+00   2.9028341e+00  -3.8070223e+05
   1.1823941e-09  -5.4850518e-05   2.9152975e+00   2.9028810e+00  -3.7808648e+05
   1.1833945e-09  -5.4473606e-05   2.9152588e+00   2.9029276e+00  -3.7548869e+05
   1.1843948e-09  -5.4099284e-05   2.9152203e+00   2.9029738e+00  -3.7290875e+05
   1.1853951e-09  -5.3727534e-05   2.9151821e+00   2.9030197e+00  -3.7034653e+05
   1.1863955e-09  -5.3358338e-05   2.9151442e+00   2.9030653e+00  -3.6780192e+05
   1.1873958e-09  -5.2991679e-05   2.9151065e+00   2.9031106e+00  -3.6527478e+05
   1.1883961e-09  -5.2627539e-05   2.9150691e+00   2.9031556e+00  -3.6276500e+05
   1.1893965e-09  -5.2265901e-05   2.9150319e+00   2.9032003e+00  -3.6027247e+05
   1.1903968e-09  -5.1906748e-05   2.9149950e+00   2.9032447e+00  -3.5779705e+05
   1.1913971e-09  -5.1550063e-05   2.9149583e+00   2.9032888e+00  -3.5533865e+05
   1.1923975e-09  -5.1195828e-05   2.9149219e+00   2.9033325e+00  -3.5289713e+05
   1.1933978e-09  -5.0844027e-05   2.9148858e+00   2.9033760e+00  -3.5047238e+05
   1.1943981e-09  -5.0494644e-05   2.9148498e+00   2.9034191e+00  -3.4806429e+05
   1.1953985e-09  -5.0147661e-05   2.9148142e+00   2.9034620e+00  -3.4567274e+05
   1.1963988e-09  -4.9803063e-05   2.9147788e+00   2.9035046e+00  -3.4329762e+05
   1.1973991e-09  -4.9460832e-05   2.9147436e+00   2.9035469e+00  -3.4093882e+05
   1.1983995e-09  -4.9120952e-05   2.9147087e+00   2.9035889e+00  -3.3859622e+05
   1.1993998e-09  -4.8783408e-05   2.9146740e+00   2.9036306e+00  -3.3626971e+05
   1.2004001e-09  -4.8448183e-05   2.9146395e+00   2.9036720e+00  -3.3395919e+05
   1.2014005e-09  -4.8115262e-05   2.9146053e+00   2.9037131e+00  -3.3166454e+05
   1.2024008e-09  -4.7784628e-05   2.9145713e+00   2.9037540e+00  -3.2938565e+05
   1.2034011e-09  -4.7456265e-05   2.9145376e+00   2.9037946e+00  -3.2712242e+05
   1.2044015e-09  -4.7130159e-05   2.9145040e+00   2.9038348e+00  -3.2487474e+05
   1.2054018e-09  -4.6806294e-05   2.9144707e+00   2.9038749e+00  -3.2264250e+05
   1.2064021e-09  -4.6484654e-05   2.9144377e+00   2.9039146e+00  -3.2042559e+05
   1.2074025e-09  -4.6165224e-05   2.9144049e+00   2.9039541e+00  -3.1822391e+05
   1.2084028e-09  -4.5847989e-05   2.9143723e+00   2.9039933e+00  -3.1603736e+05
   1.2094031e-09  -4.5532934e-05   2.9143399e+00   2.9040322e+00  -3.1386583e+05
   1.2104035e-09  -4.5220043e-05   2.9143077e+00   2.9040709e+00  -3.1170922e+05
   1.2114038e-09  -4.4909302e-05   2.9142758e+00   2.9041093e+00  -3.0956742e+05
   1.2124041e-09  -4.4600697e-05   2.9142441e+00   2.9041474e+00  -3.0744034e+05
   1.2134045e-09  -4.4294212e-05   2.9142126e+00   2.9041853e+00  -3.0532787e+05
   1.2144048e-09  -4.3989833e-05   2.9141813e+00   2.9042229e+00  -3.0322991e+05
   1.2154051e-09  -4.3687545e-05   2.9141502e+00   2.9042602e+00  -3.0114637e+05
   1.2164055e-09  -4.3387334e-05   2.9141193e+00   2.9042973e+00  -2.9907713e+05
   1.2174058e-09  -4.3089186e-05   2.9140887e+00   2.9043341e+00  -2.9702212e+05
   1.2184061e-09  -4.2793087e-05   2.9140583e+00   2.9043707e+00  -2.9498122e+05
   1.2194065e-09  -4.2499023e-05   2.9140280e+00   2.9044071e+00  -2.9295435e+05
   1.2204068e-09  -4.2206978e-05   2.9139980e+00   2.9044432e+00  -2.9094140e+05
   1.2214071e-09  -4.1916941e-05   2.9139682e+00   2.9044790e+00  -2.8894227e+05
   1.2224075e-09  -4.1628897e-05   2.9139386e+00   2.9045146e+00  -2.8695689e+05
   1.2234078e-09  -4.1342831e-05   2.9139092e+00   2.9045499e+00  -2.8498514e+05
   1.2244081e-09  -4.1058732e-05   2.9138800e+00   2.9045850e+00  -2.8302694e+05
   1.2254085e-09  -4.0776584e-05   2.9138510e+00   2.9046199e+00  -2.8108219e+05
   1.2264088e-09  -4.0496376e-05   2.9138222e+00   2.9046545e+00  -2.7915080e+05
   1.2274091e-09  -4.0218092e-05   2.9137936e+00   2.9046889e+00  -2.7723268e+05
   1.2284095e-09  -3.9941721e-05   2.9137652e+00   2.9047231e+00  -2.7532774e+05
   1.2294098e-09  -3.9667249e-05   2.9137370e+00   2.9047570e+00  -2.7343588e+05
   1.2304101e-09  -3.9394662e-05   2.9137090e+00   2.9047907e+00  -2.7155703e+05
   1.2314105e-09  -3.9123949e-05   2.9136811e+00   2.9048241e+00  -2.6969108e+05
   1.2324108e-09  -3.8855096e-05   2.9136535e+00   2.9048573e+00  -2.6783795e+05
   1.2334111e-09  -3.8588090e-05   2.9136261e+00   2.9048903e+00  -2.6599755e+05
   1.2344115e-09  -3.8322919e-05   2.9135988e+00   2.9049231e+00  -2.6416980e+05
   1.2354118e-09  -3.8059570e-05   2.9135718e+00   2.9049557e+00  -2.6235460e+05
   1.2364121e-09  -3.7798031e-05   2.9135449e+00   2.9049880e+00  -2.6055188e+05
   1.2374125e-09  -3.7538289e-05   2.9135182e+00   2.9050201e+00  -2.5876154e+05
   1.2384128e-09  -3.7280331e-05   2.9134917e+00   2.9050519e+00  -2.5698350e+05
   1.2394131e-09  -3.7024146e-05   2.9134653e+00   2.9050836e+00  -2.5521768e+05
   1.2404135e-09  -3.6769722e-05   2.9134392e+00   2.9051150e+00  -2.5346398e+05
   1.2414138e-09  -3.6517045e-05   2.9134132e+00   2.9051463e+00  -2.5172234e+05
   1.2424141e-09  -3.6266105e-05   2.9133874e+00   2.9051773e+00  -2.4999266e+05
   1.2434145e-09  -3.6016889e-05   2.9133618e+00   2.9052081e+00  -2.4827487e+05
   1.2444148e-09  -3.5769386e-05   2.9133364e+00   2.9052387e+00  -2.4656888e+05
   1.2454151e-09  -3.5523583e-05   2.9133111e+00   2.9052690e+00  -2.4487460e+05
   1.2464155e-09  -3.5279469e-05   2.9132860e+00   2.9052992e+00  -2.4319197e+05
   1.2474158e-09  -3.5037033e-05   2.9132611e+00   2.9053292e+00  -2.4152090e+05
   1.2484161e-09  -3.4796263e-05   2.9132363e+00   2.9053589e+00  -2.3986131e+05
   1.2494165e-09  -3.4557147e-05   2.9132118e+00   2.9053885e+00  -2.3821312e+05
   1.2504168e-09  -3.4319674e-05   2.9131874e+00   2.9054178e+00  -2.3657626e+05
   1.2514171e-09  -3.4083833e-05   2.9131631e+00   2.9054470e+00  -2.3495064e+05
   1.2524175e-09  -3.3849612e-05   2.9131390e+00   2.9054759e+00  -2.3333619e+05
   1.2534178e-09  -3.3617001e-05   2.9131151e+00   2.9055046e+00  -2.3173284e+05
   1.2544181e-09  -3.3385988e-05   2.9130914e+00   2.9055332e+00  -2.3014050e+05
   1.2554185e-09  -3.3156563e-05   2.9130678e+00   2.9055615e+00  -2.2855910e+05
   1.2564188e-09  -3.2928714e-05   2.9130444e+00   2.9055897e+00  -2.2698856e+05
   1.2574191e-09  -3.2702431e-05   2.9130211e+00   2.9056177e+00  -2.2542882e+05
   1.2584195e-09  -3.2477702e-05   2.9129980e+00   2.9056454e+00  -2.2387979e+05
   1.2594198e-09  -3.2254518e-05   2.9129751e+00   2.9056730e+00  -2.2234140e+05
   1.2604201e-09  -3.2032868e-05   2.9129523e+00   2.9057004e+00  -2.2081359e+05
   1.2614205e-09  -3.1812740e-05   2.9129297e+00   2.9057276e+00  -2.1929627e+05
   1.2624208e-09  -3.1594126e-05   2.9129072e+00   2.9057546e+00  -2.1778937e+05
   1.2634211e-09  -3.1377013e-05   2.9128849e+00   2.9057815e+00  -2.1629283e+05
   1.2644215e-09  -3.1161392e-05   2.9128628e+00   2.9058081e+00  -2.1480657e+05
   1.2654218e-09  -3.0947253e-05   2.9128407e+00   2.9058346e+00  -2.1333053e+05
   1.2664221e-09  -3.0734585e-05   2.9128189e+00   2.9058609e+00  -2.1186462e+05
   1.2674225e-09  -3.0523379e-05   2.9127972e+00   2.9058870e+00  -2.1040879e+05
   1.2684228e-09  -3.0313624e-05   2.9127756e+00   2.9059129e+00  -2.0896296e+05
   1.2694231e-09  -3.0105311e-05   2.9127542e+00   2.9059386e+00  -2.0752706e+05
   1.2704235e-09  -2.9898428e-05   2.9127329e+00   2.9059642e+00  -2.0610103e+05
   1.2714238e-09  -2.9692968e-05   2.9127118e+00   2.9059896e+00  -2.0468479e+05
   1.2724241e-09  -2.9488919e-05   2.9126909e+00   2.9060148e+00  -2.0327829e+05
   1.2734245e-09  -2.9286272e-05   2.9126700e+00   2.9060399e+00  -2.0188145e+05
   1.2744248e-09  -2.9085018e-05   2.9126493e+00   2.9060647e+00  -2.0049421e+05
   1.2754251e-09  -2.8885147e-05   2.9126288e+00   2.9060894e+00  -1.9911650e+05
   1.2764255e-09  -2.8686649e-05   2.9126084e+00   2.9061140e+00  -1.9774826e+05
   1.2774258e-09  -2.8489516e-05   2.9125881e+00   2.9061383e+00  -1.9638941e+05
   1.2784261e-09  -2.8293736e-05   2.9125680e+00   2.9061625e+00  -1.9503990e+05
   1.2794265e-09  -2.8099303e-05   2.9125480e+00   2.9061866e+00  -1.9369967e+05
   1.2804268e-09  -2.7906205e-05   2.9125282e+00   2.9062104e+00  -1.9236864e+05
   1.2814271e-09  -2.7714434e-05   2.9125085e+00   2.9062341e+00  -1.9104676e+05
   1.2824275e-09  -2.7523981e-05   2.9124889e+00   2.9062577e+00  -1.8973396e+05
   1.2834278e-09  -2.7334837e-05   2.9124695e+00   2.9062810e+00  -1.8843018e+05
   1.2844281e-09  -2.7146992e-05   2.9124502e+00   2.9063042e+00  -1.8713536e+05
   1.2854285e-09  -2.6960438e-05   2.9124310e+00   2.9063273e+00  -1.8584944e+05
   1.2864288e-09  -2.6775166e-05   2.9124119e+00   2.9063502e+00  -1.8457235e+05
   1.2874291e-09  -2.6591167e-05   2.9123930e+00   2.9063729e+00  -1.8330404e+05
   1.2884295e-09  -2.6408433e-05   2.9123742e+00   2.9063955e+00  -1.8204444e+05
   1.2894298e-09  -2.6226954e-05   2.9123556e+00   2.9064180e+00  -1.8079349e+05
   1.2904301e-09  -2.6046722e-05   2.9123371e+00   2.9064402e+00  -1.7955114e+05
   1.2914305e-09  -2.5867729e-05   2.9123187e+00   2.9064624e+00  -1.7831733e+05
   1.2924308e-09  -2.5689966e-05   2.9123004e+00   2.9064843e+00  -1.7709200e+05
   1.2934311e-09  -2.5513424e-05   2.9122823e+00   2.9065061e+00  -1.7587508e+05
   1.2944315e-09  -2.5338096e-05   2.9122642e+00   2.9065278e+00  -1.7466652e+05
   1.2954318e-09  -2.5163972e-05   2.9122463e+00   2.9065493e+00  -1.7346627e+05
   1.2964321e-09  -2.4991045e-05   2.9122286e+00   2.9065707e+00  -1.7227427e+05
   1.2974325e-09  -2.4819306e-05   2.9122109e+00   2.9065919e+00  -1.7109045e+05
   1.2984328e-09  -2.4648747e-05   2.9121934e+00   2.9066130e+00  -1.6991477e+05
   1.2994331e-09  -2.4479360e-05   2.9121760e+00   2.9066340e+00  -1.6874717e+05
   1.3004335e-09  -2.4311138e-05   2.9121587e+00   2.9066547e+00  -1.6758759e+05
   1.3014338e-09  -2.4144071e-05   2.9121415e+00   2.9066754e+00  -1.6643598e+05
   1.3024341e-09  -2.3978152e-05   2.9121245e+00   2.9066959e+00  -1.6529228e+05
   1.3034345e-09  -2.3813373e-05   2.9121075e+00   2.9067163e+00  -1.6415644e+05
   1.3044348e-09  -2.3649727e-05   2.9120907e+00   2.9067365e+00  -1.6302840e+05
   1.3054351e-09  -2.3487205e-05   2.9120740e+00   2.9067566e+00  -1.6190812e+05
   1.3064355e-09  -2.3325800e-05   2.9120574e+00   2.9067765e+00  -1.6079553e+05
   1.3074358e-09  -2.3165504e-05   2.9120409e+00   2.9067963e+00  -1.5969059e+05
   1.3084361e-09  -2.3006310e-05   2.9120246e+00   2.9068160e+00  -1.5859324e+05
   1.3094365e-09  -2.2848210e-05   2.9120083e+00   2.9068356e+00  -1.5750343e+05
   1.3104368e-09  -2.2691196e-05   2.9119922e+00   2.9068550e+00  -1.5642110e+05
   1.3114371e-09  -2.2535261e-05   2.9119762e+00   2.9068742e+00  -1.5534622e+05
   1.3124375e-09  -2.2380397e-05   2.9119602e+00   2.9068934e+00  -1.5427872e+05
   1.3134378e-09  -2.2226598e-05   2.9119444e+00   2.9069124e+00  -1.5321855e+05
   1.3144381e-09  -2.2073855e-05   2.9119287e+00   2.9069313e+00  -1.5216567e+05
   1.3154385e-09  -2.1922163e-05   2.9119131e+00   2.9069500e+00  -1.5112003e+05
   1.3164388e-09  -2.1771512e-05   2.9118977e+00   2.9069686e+00  -1.5008156e+05
   1.3174391e-09  -2.1621897e-05   2.9118823e+00   2.9069871e+00  -1.4905024e+05
   1.3184395e-09  -2.1473310e-05   2.9118670e+00   2.9070055e+00  -1.4802600e+05
   1.3194398e-09  -2.1325744e-05   2.9118518e+00   2.9070237e+00  -1.4700880e+05
   1.3204401e-09  -2.1179192e-05   2.9118368e+00   2.9070418e+00  -1.4599858e+05
   1.3214405e-09  -2.1033647e-05   2.9118218e+00   2.9070598e+00  -1.4499531e+05
   1.3224408e-09  -2.0889102e-05   2.9118070e+00   2.9070777e+00  -1.4399894e+05
   1.3234411e-09  -2.0745551e-05   2.9117922e+00   2.9070954e+00  -1.4300941e+05
   1.3244415e-09  -2.0602986e-05   2.9117776e+00   2.9071131e+00  -1.4202667e+05
   1.3254418e-09  -2.0461400e-05   2.9117630e+00   2.9071306e+00  -1.4105070e+05
   1.3264421e-09  -2.0320788e-05   2.9117486e+00   2.9071479e+00  -1.4008142e+05
   1.3274425e-09  -2.0181142e-05   2.9117342e+00   2.9071652e+00  -1.3911881e+05
   1.3284428e-09  -2.0042455e-05   2.9117199e+00   2.9071823e+00  -1.3816281e+05
   1.3294431e-09  -1.9904722e-05   2.9117058e+00   2.9071994e+00  -1.3721338e+05
   1.3304435e-09  -1.9767935e-05   2.9116917e+00   2.9072163e+00  -1.3627048e+05
   1.3314438e-09  -1.9632088e-05   2.9116778e+00   2.9072331e+00  -1.3533405e+05
   1.3324441e-09  -1.9497175e-05   2.9116639e+00   2.9072497e+00  -1.3440406e+05
   1.3334445e-09  -1.9363188e-05   2.9116501e+00   2.9072663e+00  -1.3348046e+05
   1.3344448e-09  -1.9230122e-05   2.9116365e+00   2.9072828e+00  -1.3256320e+05
   1.3354451e-09  -1.9097971e-05   2.9116229e+00   2.9072991e+00  -1.3165225e+05
   1.3364455e-09  -1.8966728e-05   2.9116094e+00   2.9073153e+00  -1.3074755e+05
   1.3374458e-09  -1.8836387e-05   2.9115960e+00   2.9073314e+00  -1.2984908e+05
   1.3384461e-09  -1.8706941e-05   2.9115827e+00   2.9073474e+00  -1.2895677e+05
   1.3394465e-09  -1.8578385e-05   2.9115695e+00   2.9073633e+00  -1.2807060e+05
   1.3404468e-09  -1.8450713e-05   2.9115563e+00   2.9073791e+00  -1.2719052e+05
   1.3414471e-09  -1.8323917e-05   2.9115433e+00   2.9073948e+00  -1.2631648e+05
   1.3424475e-09  -1.8197993e-05   2.9115304e+00   2.9074103e+00  -1.2544845e+05
   1.3434478e-09  -1.8072935e-05   2.9115175e+00   2.9074258e+00  -1.2458639e+05
   1.3444481e-09  -1.7948736e-05   2.9115048e+00   2.9074411e+00  -1.2373025e+05
   1.3454485e-09  -1.7825390e-05   2.9114921e+00   2.9074564e+00  -1.2287999e+05
   1.3464488e-09  -1.7702892e-05   2.9114795e+00   2.9074715e+00  -1.2203557e+05
   1.3474491e-09  -1.7581235e-05   2.9114670e+00   2.9074866e+00  -1.2119696e+05
   1.3484495e-09  -1.7460415e-05   2.9114546e+00   2.9075015e+00  -1.2036411e+05
   1.3494498e-09  -1.7340425e-05   2.9114422e+00   2.9075163e+00  -1.1953698e+05
   1.3504502e-09  -1.7221259e-05   2.9114300e+00   2.9075311e+00  -1.1871554e+05
   1.3514505e-09  -1.7102913e-05   2.9114178e+00   2.9075457e+00  -1.1789974e+05
   1.3524508e-09  -1.6985379e-05   2.9114057e+00   2.9075602e+00  -1.1708954e+05
   1.3534512e-09  -1.6868654e-05   2.9113937e+00   2.9075746e+00  -1.1628491e+05
   1.3544515e-09  -1.6752730e-05   2.9113818e+00   2.9075890e+00  -1.1548582e+05
   1.3554518e-09  -1.6637603e-05   2.9113700e+00   2.9076032e+00  -1.1469221e+05
   1.3564522e-09  -1.6523268e-05   2.9113582e+00   2.9076173e+00  -1.1390405e+05
   1.3574525e-09  -1.6409717e-05   2.9113466e+00   2.9076314e+00  -1.1312131e+05
   1.3584528e-09  -1.6296948e-05   2.9113350e+00   2.9076453e+00  -1.1234395e+05
   1.3594532e-09  -1.6184953e-05   2.9113235e+00   2.9076592e+00  -1.1157194e+05
   1.3604535e-09  -1.6073728e-05   2.9113120e+00   2.9076729e+00  -1.1080522e+05
   1.3614538e-09  -1.5963267e-05   2.9113007e+00   2.9076866e+00  -1.1004378e+05
   1.3624542e-09  -1.5853565e-05   2.9112894e+00   2.9077001e+00  -1.0928757e+05
   1.3634545e-09  -1.5744617e-05   2.9112782e+00   2.9077136e+00  -1.0853655e+05
   1.3644548e-09  -1.5636418e-05   2.9112671e+00   2.9077270e+00  -1.0779069e+05
   1.3654552e-09  -1.5528962e-05   2.9112561e+00   2.9077402e+00  -1.0704996e+05
   1.3664555e-09  -1.5422245e-05   2.9112451e+00   2.9077534e+00  -1.0631432e+05
   1.3674558e-09  -1.5316261e-05   2.9112342e+00   2.9077665e+00  -1.0558374e+05
   1.3684562e-09  -1.5211005e-05   2.9112234e+00   2.9077796e+00  -1.0485817e+05
   1.3694565e-09  -1.5106473e-05   2.9112126e+00   2.9077925e+00  -1.0413759e+05
   1.3704568e-09  -1.5002659e-05   2.9112020e+00   2.9078053e+00  -1.0342196e+05
   1.3714572e-09  -1.4899558e-05   2.9111914e+00   2.9078180e+00  -1.0271125e+05
   1.3724575e-09  -1.4797166e-05   2.9111808e+00   2.9078307e+00  -1.0200543e+05
   1.3734578e-09  -1.4695478e-05   2.9111704e+00   2.9078433e+00  -1.0130445e+05
   1.3744582e-09  -1.4594488e-05   2.9111600e+00   2.9078558e+00  -1.0060829e+05
   1.3754585e-09  -1.4494192e-05   2.9111497e+00   2.9078682e+00  -9.9916912e+04
   1.3764588e-09  -1.4394586e-05   2.9111395e+00   2.9078805e+00  -9.9230287e+04
   1.3774592e-09  -1.4295664e-05   2.9111293e+00   2.9078927e+00  -9.8548379e+04
   1.3784595e-09  -1.4197422e-05   2.9111192e+00   2.9079048e+00  -9.7871158e+04
   1.3794598e-09  -1.4099855e-05   2.9111092e+00   2.9079169e+00  -9.7198590e+04
   1.3804602e-09  -1.4002958e-05   2.9110992e+00   2.9079289e+00  -9.6530644e+04
   1.3814605e-09  -1.3906728e-05   2.9110893e+00   2.9079408e+00  -9.5867287e+04
   1.3824608e-09  -1.3811158e-05   2.9110795e+00   2.9079526e+00  -9.5208489e+04
   1.3834612e-09  -1.3716246e-05   2.9110697e+00   2.9079643e+00  -9.4554218e+04
   1.3844615e-09  -1.3621985e-05   2.9110601e+00   2.9079760e+00  -9.3904442e+04
   1.3854618e-09  -1.3528373e-05   2.9110504e+00   2.9079875e+00  -9.3259132e+04
   1.3864622e-09  -1.3435404e-05   2.9110409e+00   2.9079990e+00  -9.2618256e+04
   1.3874625e-09  -1.3343073e-05   2.9110314e+00   2.9080105e+00  -9.1981784e+04
   1.3884628e-09  -1.3251377e-05   2.9110220e+00   2.9080218e+00  -9.1349686e+04
   1.3894632e-09  -1.3160311e-05   2.9110126e+00   2.9080330e+00  -9.0721931e+04
   1.3904635e-09  -1.3069871e-05   2.9110033e+00   2.9080442e+00  -9.0098490e+04
   1.3914638e-09  -1.2980053e-05   2.9109941e+00   2.9080553e+00  -8.9479332e+04
   1.3924642e-09  -1.2890852e-05   2.9109849e+00   2.9080664e+00  -8.8864430e+04
   1.3934645e-09  -1.2802263e-05   2.9109758e+00   2.9080773e+00  -8.8253753e+04
   1.3944648e-09  -1.2714284e-05   2.9109668e+00   2.9080882e+00  -8.7647272e+04
   1.3954652e-09  -1.2626909e-05   2.9109578e+00   2.9080990e+00  -8.7044959e+04
   1.3964655e-09  -1.2540134e-05   2.9109489e+00   2.9081097e+00  -8.6446785e+04
   1.3974658e-09  -1.2453956e-05   2.9109400e+00   2.9081204e+00  -8.5852721e+04
   1.3984662e-09  -1.2368370e-05   2.9109312e+00   2.9081309e+00  -8.5262739e+04
   1.3994665e-09  -1.2283373e-05   2.9109225e+00   2.9081414e+00  -8.4676812e+04
   1.4004668e-09  -1.2198959e-05   2.9109138e+00   2.9081519e+00  -8.4094911e+04
   1.4014672e-09  -1.2115125e-05   2.9109052e+00   2.9081622e+00  -8.3517008e+04
   1.4024675e-09  -1.2031868e-05   2.9108966e+00   2.9081725e+00  -8.2943077e+04
   1.4034678e-09  -1.1949183e-05   2.9108881e+00   2.9081828e+00  -8.2373089e+04
   1.4044682e-09  -1.1867065e-05   2.9108797e+00   2.9081929e+00  -8.1807019e+04
   1.4054685e-09  -1.1785513e-05   2.9108713e+00   2.9082030e+00  -8.1244838e+04
   1.4064688e-09  -1.1704520e-05   2.9108630e+00   2.9082130e+00  -8.0686520e+04
   1.4074692e-09  -1.1624085e-05   2.9108547e+00   2.9082229e+00  -8.0132039e+04
   1.4084695e-09  -1.1544202e-05   2.9108465e+00   2.9082328e+00  -7.9581369e+04
   1.4094698e-09  -1.1464867e-05   2.9108383e+00   2.9082426e+00  -7.9034482e+04
   1.4104702e-09  -1.1386079e-05   2.9108302e+00   2.9082524e+00  -7.8491353e+04
   1.4114705e-09  -1.1307831e-05   2.9108222e+00   2.9082620e+00  -7.7951957e+04
   1.4124708e-09  -1.1230121e-05   2.9108142e+00   2.9082716e+00  -7.7416267e+04
   1.4134712e-09  -1.1152946e-05   2.9108063e+00   2.9082812e+00  -7.6884258e+04
   1.4144715e-09  -1.1076300e-05   2.9107984e+00   2.9082907e+00  -7.6355905e+04
   1.4154718e-09  -1.1000182e-05   2.9107906e+00   2.9083001e+00  -7.5831183e+04
   1.4164722e-09  -1.0924586e-05   2.9107828e+00   2.9083094e+00  -7.5310067e+04
   1.4174725e-09  -1.0849510e-05   2.9107751e+00   2.9083187e+00  -7.4792532e+04
   1.4184728e-09  -1.0774950e-05   2.9107674e+00   2.9083279e+00  -7.4278553e+04
   1.4194732e-09  -1.0700902e-05   2.9107598e+00   2.9083371e+00  -7.3768105e+04
   1.4204735e-09  -1.0627364e-05   2.9107523e+00   2.9083462e+00  -7.3261166e+04
   1.4214738e-09  -1.0554330e-05   2.9107448e+00   2.9083552e+00  -7.2757710e+04
   1.4224742e-09  -1.0481799e-05   2.9107373e+00   2.9083642e+00  -7.2257714e+04
   1.4234745e-09  -1.0409765e-05   2.9107299e+00   2.9083731e+00  -7.1761154e+04
   1.4244748e-09  -1.0338227e-05   2.9107226e+00   2.9083819e+00  -7.1268006e+04
   1.4254752e-09  -1.0267181e-05   2.9107152e+00   2.9083907e+00  -7.0778247e+04
   1.4264755e-09  -1.0196622e-05   2.9107080e+00   2.9083994e+00  -7.0291853e+04
   1.4274758e-09  -1.0126549e-05   2.9107008e+00   2.9084081e+00  -6.9808802e+04
   1.4284762e-09  -1.0056957e-05   2.9106936e+00   2.9084167e+00  -6.9329070e+04
   1.4294765e-09  -9.9878435e-06   2.9106865e+00   2.9084252e+00  -6.8852635e+04
   1.4304768e-09  -9.9192048e-06   2.9106795e+00   2.9084337e+00  -6.8379473e+04
   1.4314772e-09  -9.8510379e-06   2.9106725e+00   2.9084421e+00  -6.7909564e+04
   1.4324775e-09  -9.7833393e-06   2.9106655e+00   2.9084505e+00  -6.7442883e+04
   1.4334778e-09  -9.7161060e-06   2.9106586e+00   2.9084588e+00  -6.6979409e+04
   1.4344782e-09  -9.6493348e-06   2.9106517e+00   2.9084671e+00  -6.6519120e+04
   1.4354785e-09  -9.5830224e-06   2.9106449e+00   2.9084753e+00  -6.6061995e+04
   1.4364788e-09  -9.5171657e-06   2.9106382e+00   2.9084834e+00  -6.5608010e+04
   1.4374792e-09  -9.4517616e-06   2.9106314e+00   2.9084915e+00  -6.5157145e+04
   1.4384795e-09  -9.3868069e-06   2.9106248e+00   2.9084995e+00  -6.4709379e+04
   1.4394798e-09  -9.3222986e-06   2.9106181e+00   2.9085075e+00  -6.4264690e+04
   1.4404802e-09  -9.2582337e-06   2.9106116e+00   2.9085154e+00  -6.3823056e+04
   1.4414805e-09  -9.1946089e-06   2.9106050e+00   2.9085233e+00  -6.3384457e+04
   1.4424808e-09  -9.1314215e-06   2.9105985e+00   2.9085311e+00  -6.2948872e+04
   1.4434812e-09  -9.0686682e-06   2.9105921e+00   2.9085388e+00  -6.2516281e+04
   1.4444815e-09  -9.0063462e-06   2.9105857e+00   2.9085466e+00  -6.2086662e+04
   1.4454818e-09  -8.9444525e-06   2.9105793e+00   2.9085542e+00  -6.1659995e+04
   1.4464822e-09  -8.8829841e-06   2.9105730e+00   2.9085618e+00  -6.1236261e+04
   1.4474825e-09  -8.8219382e-06   2.9105667e+00   2.9085693e+00  -6.0815438e+04
   1.4484828e-09  -8.7613117e-06   2.9105605e+00   2.9085768e+00  -6.0397507e+04
   1.4494832e-09  -8.7011019e-06   2.9105543e+00   2.9085843e+00  -5.9982448e+04
   1.4504835e-09  -8.6413059e-06   2.9105481e+00   2.9085917e+00  -5.9570242e+04
   1.4514838e-09  -8.5819208e-06   2.9105420e+00   2.9085990e+00  -5.9160868e+04
   1.4524842e-09  -8.5229437e-06   2.9105360e+00   2.9086063e+00  -5.8754307e+04
   1.4534845e-09  -8.4643720e-06   2.9105300e+00   2.9086136e+00  -5.8350540e+04
   1.4544848e-09  -8.4062028e-06   2.9105240e+00   2.9086207e+00  -5.7949548e+04
   1.4554852e-09  -8.3484334e-06   2.9105180e+00   2.9086279e+00  -5.7551311e+04
   1.4564855e-09  -8.2910609e-06   2.9105121e+00   2.9086350e+00  -5.7155811e+04
   1.4574858e-09  -8.2340827e-06   2.9105063e+00   2.9086420e+00  -5.6763028e+04
   1.4584862e-09  -8.1774961e-06   2.9105005e+00   2.9086490e+00  -5.6372945e+04
   1.4594865e-09  -8.1212983e-06   2.9104947e+00   2.9086560e+00  -5.5985543e+04
   1.4604868e-09  -8.0654868e-06   2.9104890e+00   2.9086629e+00  -5.5600803e+04
   1.4614872e-09  -8.0100588e-06   2.9104833e+00   2.9086697e+00  -5.5218706e+04
   1.4624875e-09  -7.9550117e-06   2.9104776e+00   2.9086765e+00  -5.4839236e+04
