   0.0000000e+00  -1.2618720e-01   6.3235521e+00   3.4395788e-04  -5.2059942e+08
   1.0003334e-12  -1.2566714e-01   6.3221284e+00   3.5808224e-04  -5.1919749e+08
   2.0006669e-12  -1.2514848e-01   6.3206799e+00   3.7274444e-04  -5.1779541e+08
   3.0010003e-12  -1.2463122e-01   6.3192064e+00   3.8796310e-04  -5.1639319e+08
   4.0013338e-12  -1.2411537e-01   6.3177075e+00   4.0375740e-04  -5.1499084e+08
   5.0016672e-12  -1.2360092e-01   6.3161828e+00   4.2014710e-04  -5.1358834e+08
   6.0020007e-12  -1.2308787e-01   6.3146322e+00   4.3715254e-04  -5.1218572e+08
   7.0023341e-12  -1.2257623e-01   6.3130551e+00   4.5479468e-04  -5.1078297e+08
   8.0026676e-12  -1.2206598e-01   6.3114513e+00   4.7309512e-04  -5.0938008e+08
   9.0030010e-12  -1.2155715e-01   6.3098204e+00   4.9207605e-04  -5.0797707e+08
   1.0003334e-11  -1.2104971e-01   6.3081622e+00   5.1176036e-04  -5.0657394e+08
   1.1003668e-11  -1.2054368e-01   6.3064761e+00   5.3217158e-04  -5.0517069e+08
   1.2004001e-11  -1.2003906e-01   6.3047620e+00   5.5333394e-04  -5.0376732e+08
   1.3004335e-11  -1.1953583e-01   6.3030193e+00   5.7527234e-04  -5.0236384e+08
   1.4004668e-11  -1.1903402e-01   6.3012479e+00   5.9801244e-04  -5.0096025e+08
   1.5005002e-11  -1.1853360e-01   6.2994473e+00   6.2158059e-04  -4.9955655e+08
   1.6005335e-11  -1.1803459e-01   6.2976172e+00   6.4600390e-04  -4.9815275e+08
   1.7005669e-11  -1.1753699e-01   6.2957573e+00   6.7131025e-04  -4.9674885e+08
   1.8006002e-11  -1.1704078e-01   6.2938671e+00   6.9752831e-04  -4.9534485e+08
   1.9006335e-11  -1.1654599e-01   6.2919463e+00   7.2468751e-04  -4.9394077e+08
   2.0006669e-11  -1.1605259e-01   6.2899945e+00   7.5281813e-04  -4.9253659e+08
   2.1007002e-11  -1.1556061e-01   6.2880115e+00   7.8195127e-04  -4.9113233e+08
   2.2007336e-11  -1.1507002e-01   6.2859968e+00   8.1211887e-04  -4.8972800e+08
   2.3007669e-11  -1.1458085e-01   6.2839501e+00   8.4335375e-04  -4.8832359e+08
   2.4008003e-11  -1.1409307e-01   6.2818709e+00   8.7568960e-04  -4.8691911e+08
   2.5008336e-11  -1.1360671e-01   6.2797590e+00   9.0916103e-04  -4.8551457e+08
   2.6008670e-11  -1.1312174e-01   6.2776140e+00   9.4380355e-04  -4.8410997e+08
   2.7009003e-11  -1.1263819e-01   6.2754355e+00   9.7965361e-04  -4.8270532e+08
   2.8009336e-11  -1.1215603e-01   6.2732231e+00   1.0167486e-03  -4.8130062e+08
   2.9009670e-11  -1.1167529e-01   6.2709765e+00   1.0551270e-03  -4.7989587e+08
   3.0010003e-11  -1.1119594e-01   6.2686953e+00   1.0948281e-03  -4.7849109e+08
   3.1010337e-11  -1.1071801e-01   6.2663791e+00   1.1358924e-03  -4.7708629e+08
   3.2010670e-11  -1.1024147e-01   6.2640276e+00   1.1783611e-03  -4.7568145e+08
   3.3011004e-11  -1.0976635e-01   6.2616404e+00   1.2222769e-03  -4.7427660e+08
   3.4011337e-11  -1.0929263e-01   6.2592171e+00   1.2676833e-03  -4.7287174e+08
   3.5011671e-11  -1.0882031e-01   6.2567574e+00   1.3146248e-03  -4.7146687e+08
   3.6012004e-11  -1.0834940e-01   6.2542609e+00   1.3631472e-03  -4.7006201e+08
   3.7012337e-11  -1.0787990e-01   6.2517271e+00   1.4132974e-03  -4.6865716e+08
   3.8012671e-11  -1.0741180e-01   6.2491559e+00   1.4651233e-03  -4.6725232e+08
   3.9013004e-11  -1.0694510e-01   6.2465466e+00   1.5186741e-03  -4.6584751e+08
   4.0013338e-11  -1.0647981e-01   6.2438991e+00   1.5740002e-03  -4.6444273e+08
   4.1013671e-11  -1.0601593e-01   6.2412130e+00   1.6311530e-03  -4.6303799e+08
   4.2014005e-11  -1.0555345e-01   6.2384878e+00   1.6901854e-03  -4.6163330e+08
   4.3014338e-11  -1.0509238e-01   6.2357232e+00   1.7511514e-03  -4.6022867e+08
   4.4014672e-11  -1.0463271e-01   6.2329189e+00   1.8141061e-03  -4.5882410e+08
   4.5015005e-11  -1.0417444e-01   6.2300744e+00   1.8791062e-03  -4.5741960e+08
   4.6015338e-11  -1.0371759e-01   6.2271894e+00   1.9462094e-03  -4.5601519e+08
   4.7015672e-11  -1.0326213e-01   6.2242636e+00   2.0154748e-03  -4.5461087e+08
   4.8016005e-11  -1.0280808e-01   6.2212965e+00   2.0869630e-03  -4.5320666e+08
   4.9016339e-11  -1.0235544e-01   6.2182879e+00   2.1607357e-03  -4.5180255e+08
   5.0016672e-11  -1.0190420e-01   6.2152373e+00   2.2368561e-03  -4.5039857e+08
   5.1017006e-11  -1.0145436e-01   6.2121445e+00   2.3153888e-03  -4.4899471e+08
   5.2017339e-11  -1.0100593e-01   6.2090089e+00   2.3963998e-03  -4.4759100e+08
   5.3017673e-11  -1.0055890e-01   6.2058304e+00   2.4799563e-03  -4.4618744e+08
   5.4018006e-11  -1.0011328e-01   6.2026085e+00   2.5661273e-03  -4.4478404e+08
   5.5018339e-11  -9.9669060e-02   6.1993429e+00   2.6549831e-03  -4.4338082e+08
   5.6018673e-11  -9.9226244e-02   6.1960332e+00   2.7465952e-03  -4.4197778e+08
   5.7019006e-11  -9.8784831e-02   6.1926791e+00   2.8410371e-03  -4.4057494e+08
   5.8019340e-11  -9.8344822e-02   6.1892803e+00   2.9383834e-03  -4.3917230e+08
   5.9019673e-11  -9.7906215e-02   6.1858363e+00   3.0387104e-03  -4.3776988e+08
   6.0020007e-11  -9.7469011e-02   6.1823470e+00   3.1420958e-03  -4.3636770e+08
   6.1020340e-11  -9.7033210e-02   6.1788118e+00   3.2486191e-03  -4.3496576e+08
   6.2020674e-11  -9.6598811e-02   6.1752306e+00   3.3583610e-03  -4.3356408e+08
   6.3021007e-11  -9.6165813e-02   6.1716029e+00   3.4714041e-03  -4.3216266e+08
   6.4021340e-11  -9.5734218e-02   6.1679285e+00   3.5878325e-03  -4.3076153e+08
   6.5021674e-11  -9.5304024e-02   6.1642069e+00   3.7077318e-03  -4.2936070e+08
   6.6022007e-11  -9.4875231e-02   6.1604380e+00   3.8311893e-03  -4.2796017e+08
   6.7022341e-11  -9.4447839e-02   6.1566213e+00   3.9582940e-03  -4.2655997e+08
   6.8022674e-11  -9.4021847e-02   6.1527566e+00   4.0891364e-03  -4.2516010e+08
   6.9023008e-11  -9.3597255e-02   6.1488436e+00   4.2238087e-03  -4.2376059e+08
   7.0023341e-11  -9.3174064e-02   6.1448819e+00   4.3624048e-03  -4.2236144e+08
   7.1023675e-11  -9.2752271e-02   6.1408712e+00   4.5050203e-03  -4.2096268e+08
   7.2024008e-11  -9.2331878e-02   6.1368113e+00   4.6517525e-03  -4.1956430e+08
   7.3024341e-11  -9.1912883e-02   6.1327018e+00   4.8027002e-03  -4.1816634e+08
   7.4024675e-11  -9.1495286e-02   6.1285425e+00   4.9579641e-03  -4.1676881e+08
   7.5025008e-11  -9.1079087e-02   6.1243331e+00   5.1176466e-03  -4.1537172e+08
   7.6025342e-11  -9.0664285e-02   6.1200733e+00   5.2818517e-03  -4.1397509e+08
   7.7025675e-11  -9.0250880e-02   6.1157628e+00   5.4506852e-03  -4.1257893e+08
   7.8026009e-11  -8.9838872e-02   6.1114013e+00   5.6242546e-03  -4.1118326e+08
   7.9026342e-11  -8.9428259e-02   6.1069886e+00   5.8026691e-03  -4.0978810e+08
   8.0026676e-11  -8.9019041e-02   6.1025245e+00   5.9860398e-03  -4.0839346e+08
   8.1027009e-11  -8.8611219e-02   6.0980086e+00   6.1744793e-03  -4.0699937e+08
   8.2027342e-11  -8.8204790e-02   6.0934408e+00   6.3681021e-03  -4.0560584e+08
   8.3027676e-11  -8.7799755e-02   6.0888207e+00   6.5670244e-03  -4.0421288e+08
   8.4028009e-11  -8.7396113e-02   6.0841481e+00   6.7713642e-03  -4.0282052e+08
   8.5028343e-11  -8.6993864e-02   6.0794229e+00   6.9812410e-03  -4.0142877e+08
   8.6028676e-11  -8.6593007e-02   6.0746447e+00   7.1967764e-03  -4.0003765e+08
   8.7029010e-11  -8.6193540e-02   6.0698134e+00   7.4180935e-03  -3.9864718e+08
   8.8029343e-11  -8.5795465e-02   6.0649287e+00   7.6453172e-03  -3.9725739e+08
   8.9029677e-11  -8.5398779e-02   6.0599905e+00   7.8785740e-03  -3.9586828e+08
   9.0030010e-11  -8.5003482e-02   6.0549984e+00   8.1179925e-03  -3.9447988e+08
   9.1030343e-11  -8.4609574e-02   6.0499525e+00   8.3637025e-03  -3.9309220e+08
   9.2030677e-11  -8.4217053e-02   6.0448523e+00   8.6158359e-03  -3.9170527e+08
   9.3031010e-11  -8.3825919e-02   6.0396978e+00   8.8745261e-03  -3.9031912e+08
   9.4031344e-11  -8.3436172e-02   6.0344889e+00   9.1399084e-03  -3.8893374e+08
   9.5031677e-11  -8.3047810e-02   6.0292252e+00   9.4121195e-03  -3.8754918e+08
   9.6032011e-11  -8.2660832e-02   6.0239067e+00   9.6912980e-03  -3.8616545e+08
   9.7032344e-11  -8.2275238e-02   6.0185332e+00   9.9775840e-03  -3.8478256e+08
   9.8032678e-11  -8.1891027e-02   6.0131045e+00   1.0271119e-02  -3.8340055e+08
   9.9033011e-11  -8.1508198e-02   6.0076206e+00   1.0572048e-02  -3.8201943e+08
   1.0003334e-10  -8.1126750e-02   6.0020812e+00   1.0880514e-02  -3.8063922e+08
   1.0103368e-10  -8.0746682e-02   5.9964863e+00   1.1196664e-02  -3.7925995e+08
   1.0203401e-10  -8.0367993e-02   5.9908357e+00   1.1520647e-02  -3.7788164e+08
   1.0303434e-10  -7.9990682e-02   5.9851294e+00   1.1852613e-02  -3.7650431e+08
   1.0403468e-10  -7.9614749e-02   5.9793672e+00   1.2192713e-02  -3.7512798e+08
   1.0503501e-10  -7.9240192e-02   5.9735490e+00   1.2541099e-02  -3.7375268e+08
   1.0603535e-10  -7.8867010e-02   5.9676748e+00   1.2897926e-02  -3.7237843e+08
   1.0703568e-10  -7.8495202e-02   5.9617445e+00   1.3263349e-02  -3.7100525e+08
   1.0803601e-10  -7.8124767e-02   5.9557580e+00   1.3637527e-02  -3.6963317e+08
   1.0903635e-10  -7.7755704e-02   5.9497152e+00   1.4020617e-02  -3.6826220e+08
   1.1003668e-10  -7.7388012e-02   5.9436161e+00   1.4412779e-02  -3.6689238e+08
   1.1103701e-10  -7.7021689e-02   5.9374607e+00   1.4814175e-02  -3.6552372e+08
   1.1203735e-10  -7.6656735e-02   5.9312488e+00   1.5224968e-02  -3.6415626e+08
   1.1303768e-10  -7.6293148e-02   5.9249806e+00   1.5645321e-02  -3.6279000e+08
   1.1403801e-10  -7.5930927e-02   5.9186559e+00   1.6075400e-02  -3.6142499e+08
   1.1503835e-10  -7.5570071e-02   5.9122748e+00   1.6515370e-02  -3.6006124e+08
   1.1603868e-10  -7.5210578e-02   5.9058372e+00   1.6965401e-02  -3.5869878e+08
   1.1703901e-10  -7.4852448e-02   5.8993433e+00   1.7425659e-02  -3.5733764e+08
   1.1803935e-10  -7.4495678e-02   5.8927929e+00   1.7896316e-02  -3.5597783e+08
   1.1903968e-10  -7.4140268e-02   5.8861861e+00   1.8377542e-02  -3.5461939e+08
   1.2004001e-10  -7.3786216e-02   5.8795229e+00   1.8869509e-02  -3.5326233e+08
   1.2104035e-10  -7.3433521e-02   5.8728035e+00   1.9372390e-02  -3.5190669e+08
   1.2204068e-10  -7.3082181e-02   5.8660278e+00   1.9886359e-02  -3.5055249e+08
   1.2304101e-10  -7.2732195e-02   5.8591959e+00   2.0411590e-02  -3.4919976e+08
   1.2404135e-10  -7.2383561e-02   5.8523078e+00   2.0948260e-02  -3.4784852e+08
   1.2504168e-10  -7.2036278e-02   5.8453638e+00   2.1496544e-02  -3.4649879e+08
   1.2604201e-10  -7.1690344e-02   5.8383638e+00   2.2056621e-02  -3.4515061e+08
   1.2704235e-10  -7.1345758e-02   5.8313079e+00   2.2628667e-02  -3.4380400e+08
   1.2804268e-10  -7.1002519e-02   5.8241963e+00   2.3212861e-02  -3.4245899e+08
   1.2904301e-10  -7.0660624e-02   5.8170291e+00   2.3809383e-02  -3.4111560e+08
   1.3004335e-10  -7.0320072e-02   5.8098064e+00   2.4418412e-02  -3.3977386e+08
   1.3104368e-10  -6.9980861e-02   5.8025283e+00   2.5040128e-02  -3.3843380e+08
   1.3204401e-10  -6.9642989e-02   5.7951950e+00   2.5674712e-02  -3.3709544e+08
   1.3304435e-10  -6.9306456e-02   5.7878067e+00   2.6322345e-02  -3.3575881e+08
   1.3404468e-10  -6.8971259e-02   5.7803634e+00   2.6983209e-02  -3.3442394e+08
   1.3504502e-10  -6.8637396e-02   5.7728655e+00   2.7657485e-02  -3.3309085e+08
   1.3604535e-10  -6.8304865e-02   5.7653130e+00   2.8345354e-02  -3.3175957e+08
   1.3704568e-10  -6.7973666e-02   5.7577061e+00   2.9047000e-02  -3.3043013e+08
   1.3804602e-10  -6.7643795e-02   5.7500451e+00   2.9762604e-02  -3.2910256e+08
   1.3904635e-10  -6.7315251e-02   5.7423302e+00   3.0492348e-02  -3.2777688e+08
   1.4004668e-10  -6.6988032e-02   5.7345616e+00   3.1236414e-02  -3.2645312e+08
   1.4104702e-10  -6.6662137e-02   5.7267395e+00   3.1994985e-02  -3.2513130e+08
   1.4204735e-10  -6.6337562e-02   5.7188642e+00   3.2768243e-02  -3.2381146e+08
   1.4304768e-10  -6.6014307e-02   5.7109359e+00   3.3556369e-02  -3.2249362e+08
   1.4404802e-10  -6.5692369e-02   5.7029548e+00   3.4359544e-02  -3.2117781e+08
   1.4504835e-10  -6.5371747e-02   5.6949213e+00   3.5177950e-02  -3.1986405e+08
   1.4604868e-10  -6.5052437e-02   5.6868356e+00   3.6011768e-02  -3.1855238e+08
   1.4704902e-10  -6.4734438e-02   5.6786979e+00   3.6861178e-02  -3.1724282e+08
   1.4804935e-10  -6.4417748e-02   5.6705087e+00   3.7726359e-02  -3.1593540e+08
   1.4904968e-10  -6.4102365e-02   5.6622681e+00   3.8607490e-02  -3.1463014e+08
   1.5005002e-10  -6.3788287e-02   5.6539766e+00   3.9504751e-02  -3.1332707e+08
   1.5105035e-10  -6.3475510e-02   5.6456344e+00   4.0418319e-02  -3.1202623e+08
   1.5205068e-10  -6.3164034e-02   5.6372418e+00   4.1348370e-02  -3.1072763e+08
   1.5305102e-10  -6.2853856e-02   5.6287992e+00   4.2295081e-02  -3.0943130e+08
   1.5405135e-10  -6.2544973e-02   5.6203069e+00   4.3258627e-02  -3.0813728e+08
   1.5505168e-10  -6.2237384e-02   5.6117653e+00   4.4239182e-02  -3.0684558e+08
   1.5605202e-10  -6.1931085e-02   5.6031747e+00   4.5236920e-02  -3.0555624e+08
   1.5705235e-10  -6.1626075e-02   5.5945356e+00   4.6252011e-02  -3.0426928e+08
   1.5805268e-10  -6.1322351e-02   5.5858482e+00   4.7284627e-02  -3.0298473e+08
   1.5905302e-10  -6.1019911e-02   5.5771131e+00   4.8334937e-02  -3.0170262e+08
   1.6005335e-10  -6.0718752e-02   5.5683305e+00   4.9403109e-02  -3.0042296e+08
   1.6105368e-10  -6.0418871e-02   5.5595009e+00   5.0489310e-02  -2.9914580e+08
   1.6205402e-10  -6.0120267e-02   5.5506246e+00   5.1593705e-02  -2.9787115e+08
   1.6305435e-10  -5.9822937e-02   5.5417022e+00   5.2716458e-02  -2.9659904e+08
   1.6405468e-10  -5.9526878e-02   5.5327340e+00   5.3857731e-02  -2.9532950e+08
   1.6505502e-10  -5.9232088e-02   5.5237205e+00   5.5017683e-02  -2.9406255e+08
   1.6605535e-10  -5.8938563e-02   5.5146621e+00   5.6196475e-02  -2.9279822e+08
   1.6705569e-10  -5.8646302e-02   5.5055592e+00   5.7394261e-02  -2.9153654e+08
   1.6805602e-10  -5.8355302e-02   5.4964124e+00   5.8611198e-02  -2.9027753e+08
   1.6905635e-10  -5.8065560e-02   5.4872220e+00   5.9847439e-02  -2.8902121e+08
   1.7005669e-10  -5.7777073e-02   5.4779886e+00   6.1103133e-02  -2.8776762e+08
   1.7105702e-10  -5.7489839e-02   5.4687126e+00   6.2378431e-02  -2.8651677e+08
   1.7205735e-10  -5.7203854e-02   5.4593944e+00   6.3673478e-02  -2.8526870e+08
   1.7305769e-10  -5.6919117e-02   5.4500347e+00   6.4988420e-02  -2.8402342e+08
   1.7405802e-10  -5.6635624e-02   5.4406338e+00   6.6323398e-02  -2.8278096e+08
   1.7505835e-10  -5.6353372e-02   5.4311923e+00   6.7678552e-02  -2.8154135e+08
   1.7605869e-10  -5.6072359e-02   5.4217107e+00   6.9054021e-02  -2.8030462e+08
   1.7705902e-10  -5.5792581e-02   5.4121896e+00   7.0449938e-02  -2.7907077e+08
   1.7805935e-10  -5.5514037e-02   5.4026293e+00   7.1866437e-02  -2.7783984e+08
   1.7905969e-10  -5.5236722e-02   5.3930305e+00   7.3303648e-02  -2.7661186e+08
   1.8006002e-10  -5.4960634e-02   5.3833936e+00   7.4761698e-02  -2.7538684e+08
   1.8106035e-10  -5.4685770e-02   5.3737193e+00   7.6240711e-02  -2.7416481e+08
   1.8206069e-10  -5.4412126e-02   5.3640080e+00   7.7740811e-02  -2.7294579e+08
   1.8306102e-10  -5.4139701e-02   5.3542603e+00   7.9262115e-02  -2.7172981e+08
   1.8406135e-10  -5.3868491e-02   5.3444768e+00   8.0804741e-02  -2.7051688e+08
   1.8506169e-10  -5.3598492e-02   5.3346579e+00   8.2368801e-02  -2.6930704e+08
   1.8606202e-10  -5.3329702e-02   5.3248044e+00   8.3954407e-02  -2.6810029e+08
   1.8706235e-10  -5.3062117e-02   5.3149166e+00   8.5561665e-02  -2.6689667e+08
   1.8806269e-10  -5.2795735e-02   5.3049953e+00   8.7190681e-02  -2.6569620e+08
   1.8906302e-10  -5.2530553e-02   5.2950409e+00   8.8841555e-02  -2.6449889e+08
   1.9006335e-10  -5.2266566e-02   5.2850541e+00   9.0514387e-02  -2.6330477e+08
   1.9106369e-10  -5.2003772e-02   5.2750354e+00   9.2209270e-02  -2.6211386e+08
   1.9206402e-10  -5.1742168e-02   5.2649854e+00   9.3926298e-02  -2.6092617e+08
   1.9306435e-10  -5.1481750e-02   5.2549047e+00   9.5665558e-02  -2.5974174e+08
   1.9406469e-10  -5.1222516e-02   5.2447939e+00   9.7427136e-02  -2.5856058e+08
   1.9506502e-10  -5.0964461e-02   5.2346536e+00   9.9211114e-02  -2.5738270e+08
   1.9606536e-10  -5.0707583e-02   5.2244843e+00   1.0101757e-01  -2.5620814e+08
   1.9706569e-10  -5.0451879e-02   5.2142867e+00   1.0284658e-01  -2.5503690e+08
   1.9806602e-10  -5.0197344e-02   5.2040615e+00   1.0469822e-01  -2.5386900e+08
   1.9906636e-10  -4.9943976e-02   5.1938091e+00   1.0657255e-01  -2.5270448e+08
   2.0006669e-10  -4.9691771e-02   5.1835302e+00   1.0846964e-01  -2.5154333e+08
   2.0106702e-10  -4.9440726e-02   5.1732254e+00   1.1038954e-01  -2.5038559e+08
   2.0206736e-10  -4.9190837e-02   5.1628953e+00   1.1233233e-01  -2.4923127e+08
   2.0306769e-10  -4.8942102e-02   5.1525406e+00   1.1429805e-01  -2.4808038e+08
   2.0406802e-10  -4.8694515e-02   5.1421618e+00   1.1628675e-01  -2.4693295e+08
   2.0506836e-10  -4.8448075e-02   5.1317595e+00   1.1829847e-01  -2.4578899e+08
   2.0606869e-10  -4.8202778e-02   5.1213345e+00   1.2033327e-01  -2.4464851e+08
   2.0706902e-10  -4.7958619e-02   5.1108872e+00   1.2239119e-01  -2.4351154e+08
   2.0806936e-10  -4.7715597e-02   5.1004184e+00   1.2447225e-01  -2.4237808e+08
   2.0906969e-10  -4.7473706e-02   5.0899286e+00   1.2657649e-01  -2.4124816e+08
   2.1007002e-10  -4.7232944e-02   5.0794185e+00   1.2870393e-01  -2.4012179e+08
   2.1107036e-10  -4.6993307e-02   5.0688886e+00   1.3085461e-01  -2.3899898e+08
   2.1207069e-10  -4.6754791e-02   5.0583397e+00   1.3302854e-01  -2.3787975e+08
   2.1307102e-10  -4.6517393e-02   5.0477723e+00   1.3522575e-01  -2.3676411e+08
   2.1407136e-10  -4.6281109e-02   5.0371871e+00   1.3744624e-01  -2.3565208e+08
   2.1507169e-10  -4.6045936e-02   5.0265846e+00   1.3969002e-01  -2.3454367e+08
   2.1607202e-10  -4.5811870e-02   5.0159655e+00   1.4195710e-01  -2.3343889e+08
   2.1707236e-10  -4.5578907e-02   5.0053305e+00   1.4424748e-01  -2.3233776e+08
   2.1807269e-10  -4.5347044e-02   4.9946801e+00   1.4656116e-01  -2.3124028e+08
   2.1907302e-10  -4.5116277e-02   4.9840150e+00   1.4889813e-01  -2.3014647e+08
   2.2007336e-10  -4.4886602e-02   4.9733358e+00   1.5125839e-01  -2.2905635e+08
   2.2107369e-10  -4.4658016e-02   4.9626431e+00   1.5364192e-01  -2.2796992e+08
   2.2207402e-10  -4.4430514e-02   4.9519375e+00   1.5604871e-01  -2.2688719e+08
   2.2307436e-10  -4.4204094e-02   4.9412197e+00   1.5847873e-01  -2.2580818e+08
   2.2407469e-10  -4.3978752e-02   4.9304902e+00   1.6093196e-01  -2.2473290e+08
   2.2507503e-10  -4.3754483e-02   4.9197498e+00   1.6340837e-01  -2.2366135e+08
   2.2607536e-10  -4.3531285e-02   4.9089989e+00   1.6590793e-01  -2.2259355e+08
   2.2707569e-10  -4.3309152e-02   4.8982382e+00   1.6843060e-01  -2.2152950e+08
   2.2807603e-10  -4.3088083e-02   4.8874684e+00   1.7097635e-01  -2.2046922e+08
   2.2907636e-10  -4.2868072e-02   4.8766900e+00   1.7354513e-01  -2.1941271e+08
   2.3007669e-10  -4.2649116e-02   4.8659036e+00   1.7613689e-01  -2.1835998e+08
   2.3107703e-10  -4.2431211e-02   4.8551098e+00   1.7875159e-01  -2.1731104e+08
   2.3207736e-10  -4.2214353e-02   4.8443093e+00   1.8138917e-01  -2.1626589e+08
   2.3307769e-10  -4.1998540e-02   4.8335027e+00   1.8404957e-01  -2.1522455e+08
   2.3407803e-10  -4.1783766e-02   4.8226904e+00   1.8673273e-01  -2.1418703e+08
   2.3507836e-10  -4.1570028e-02   4.8118732e+00   1.8943858e-01  -2.1315332e+08
   2.3607869e-10  -4.1357322e-02   4.8010516e+00   1.9216707e-01  -2.1212343e+08
   2.3707903e-10  -4.1145644e-02   4.7902263e+00   1.9491811e-01  -2.1109738e+08
   2.3807936e-10  -4.0934991e-02   4.7793977e+00   1.9769163e-01  -2.1007516e+08
   2.3907969e-10  -4.0725359e-02   4.7685665e+00   2.0048755e-01  -2.0905679e+08
   2.4008003e-10  -4.0516743e-02   4.7577332e+00   2.0330579e-01  -2.0804226e+08
   2.4108036e-10  -4.0309141e-02   4.7468985e+00   2.0614627e-01  -2.0703158e+08
   2.4208069e-10  -4.0102547e-02   4.7360629e+00   2.0900889e-01  -2.0602476e+08
   2.4308103e-10  -3.9896959e-02   4.7252270e+00   2.1189356e-01  -2.0502180e+08
   2.4408136e-10  -3.9692372e-02   4.7143913e+00   2.1480019e-01  -2.0402271e+08
   2.4508169e-10  -3.9488782e-02   4.7035564e+00   2.1772867e-01  -2.0302748e+08
   2.4608203e-10  -3.9286187e-02   4.6927228e+00   2.2067891e-01  -2.0203612e+08
   2.4708236e-10  -3.9084581e-02   4.6818912e+00   2.2365080e-01  -2.0104864e+08
   2.4808269e-10  -3.8883961e-02   4.6710620e+00   2.2664423e-01  -2.0006503e+08
   2.4908303e-10  -3.8684323e-02   4.6602358e+00   2.2965908e-01  -1.9908531e+08
   2.5008336e-10  -3.8485663e-02   4.6494132e+00   2.3269525e-01  -1.9810946e+08
   2.5108369e-10  -3.8287977e-02   4.6385947e+00   2.3575262e-01  -1.9713749e+08
   2.5208403e-10  -3.8091262e-02   4.6277807e+00   2.3883106e-01  -1.9616941e+08
   2.5308436e-10  -3.7895513e-02   4.6169720e+00   2.4193045e-01  -1.9520521e+08
   2.5408469e-10  -3.7700727e-02   4.6061689e+00   2.4505067e-01  -1.9424490e+08
   2.5508503e-10  -3.7506899e-02   4.5953719e+00   2.4819158e-01  -1.9328847e+08
   2.5608536e-10  -3.7314027e-02   4.5845817e+00   2.5135305e-01  -1.9233593e+08
   2.5708570e-10  -3.7122105e-02   4.5737987e+00   2.5453495e-01  -1.9138727e+08
   2.5808603e-10  -3.6931130e-02   4.5630235e+00   2.5773714e-01  -1.9044250e+08
   2.5908636e-10  -3.6741099e-02   4.5522564e+00   2.6095948e-01  -1.8950161e+08
   2.6008670e-10  -3.6552006e-02   4.5414981e+00   2.6420183e-01  -1.8856461e+08
   2.6108703e-10  -3.6363849e-02   4.5307490e+00   2.6746403e-01  -1.8763149e+08
   2.6208736e-10  -3.6176624e-02   4.5200095e+00   2.7074594e-01  -1.8670225e+08
   2.6308770e-10  -3.5990326e-02   4.5092803e+00   2.7404741e-01  -1.8577689e+08
   2.6408803e-10  -3.5804952e-02   4.4985617e+00   2.7736829e-01  -1.8485540e+08
   2.6508836e-10  -3.5620498e-02   4.4878543e+00   2.8070842e-01  -1.8393779e+08
   2.6608870e-10  -3.5436960e-02   4.4771584e+00   2.8406765e-01  -1.8302406e+08
   2.6708903e-10  -3.5254334e-02   4.4664746e+00   2.8744580e-01  -1.8211419e+08
   2.6808936e-10  -3.5072616e-02   4.4558033e+00   2.9084273e-01  -1.8120819e+08
   2.6908970e-10  -3.4891803e-02   4.4451450e+00   2.9425825e-01  -1.8030605e+08
   2.7009003e-10  -3.4711890e-02   4.4345001e+00   2.9769222e-01  -1.7940776e+08
   2.7109036e-10  -3.4532874e-02   4.4238691e+00   3.0114446e-01  -1.7851334e+08
   2.7209070e-10  -3.4354750e-02   4.4132523e+00   3.0461479e-01  -1.7762277e+08
   2.7309103e-10  -3.4177516e-02   4.4026503e+00   3.0810305e-01  -1.7673604e+08
   2.7409136e-10  -3.4001167e-02   4.3920634e+00   3.1160906e-01  -1.7585315e+08
   2.7509170e-10  -3.3825699e-02   4.3814920e+00   3.1513265e-01  -1.7497411e+08
   2.7609203e-10  -3.3651108e-02   4.3709367e+00   3.1867362e-01  -1.7409889e+08
   2.7709236e-10  -3.3477391e-02   4.3603977e+00   3.2223181e-01  -1.7322751e+08
   2.7809270e-10  -3.3304544e-02   4.3498756e+00   3.2580704e-01  -1.7235994e+08
   2.7909303e-10  -3.3132563e-02   4.3393706e+00   3.2939911e-01  -1.7149619e+08
   2.8009336e-10  -3.2961444e-02   4.3288832e+00   3.3300784e-01  -1.7063626e+08
   2.8109370e-10  -3.2791183e-02   4.3184137e+00   3.3663305e-01  -1.6978012e+08
   2.8209403e-10  -3.2621777e-02   4.3079626e+00   3.4027454e-01  -1.6892779e+08
   2.8309436e-10  -3.2453221e-02   4.2975303e+00   3.4393214e-01  -1.6807924e+08
   2.8409470e-10  -3.2285512e-02   4.2871170e+00   3.4760564e-01  -1.6723449e+08
   2.8509503e-10  -3.2118647e-02   4.2767232e+00   3.5129485e-01  -1.6639351e+08
   2.8609537e-10  -3.1952621e-02   4.2663493e+00   3.5499958e-01  -1.6555630e+08
   2.8709570e-10  -3.1787430e-02   4.2559955e+00   3.5871963e-01  -1.6472285e+08
   2.8809603e-10  -3.1623072e-02   4.2456622e+00   3.6245482e-01  -1.6389317e+08
   2.8909637e-10  -3.1459541e-02   4.2353498e+00   3.6620493e-01  -1.6306723e+08
   2.9009670e-10  -3.1296835e-02   4.2250587e+00   3.6996977e-01  -1.6224503e+08
   2.9109703e-10  -3.1134950e-02   4.2147890e+00   3.7374915e-01  -1.6142656e+08
   2.9209737e-10  -3.0973881e-02   4.2045413e+00   3.7754285e-01  -1.6061183e+08
   2.9309770e-10  -3.0813626e-02   4.1943157e+00   3.8135069e-01  -1.5980080e+08
   2.9409803e-10  -3.0654179e-02   4.1841127e+00   3.8517245e-01  -1.5899349e+08
   2.9509837e-10  -3.0495539e-02   4.1739324e+00   3.8900793e-01  -1.5818988e+08
   2.9609870e-10  -3.0337701e-02   4.1637753e+00   3.9285693e-01  -1.5738995e+08
   2.9709903e-10  -3.0180661e-02   4.1536416e+00   3.9671925e-01  -1.5659371e+08
   2.9809937e-10  -3.0024416e-02   4.1435317e+00   4.0059468e-01  -1.5580115e+08
   2.9909970e-10  -2.9868961e-02   4.1334457e+00   4.0448300e-01  -1.5501224e+08
   3.0010003e-10  -2.9714294e-02   4.1233841e+00   4.0838403e-01  -1.5422699e+08
   3.0110037e-10  -2.9560411e-02   4.1133470e+00   4.1229754e-01  -1.5344539e+08
   3.0210070e-10  -2.9407308e-02   4.1033348e+00   4.1622333e-01  -1.5266742e+08
   3.0310103e-10  -2.9254981e-02   4.0933477e+00   4.2016119e-01  -1.5189308e+08
   3.0410137e-10  -2.9103427e-02   4.0833859e+00   4.2411092e-01  -1.5112236e+08
   3.0510170e-10  -2.8952642e-02   4.0734498e+00   4.2807230e-01  -1.5035524e+08
   3.0610203e-10  -2.8802623e-02   4.0635396e+00   4.3204512e-01  -1.4959171e+08
   3.0710237e-10  -2.8653366e-02   4.0536556e+00   4.3602918e-01  -1.4883178e+08
   3.0810270e-10  -2.8504867e-02   4.0437979e+00   4.4002426e-01  -1.4807541e+08
   3.0910303e-10  -2.8357123e-02   4.0339669e+00   4.4403016e-01  -1.4732262e+08
   3.1010337e-10  -2.8210130e-02   4.0241627e+00   4.4804666e-01  -1.4657337e+08
   3.1110370e-10  -2.8063885e-02   4.0143856e+00   4.5207355e-01  -1.4582767e+08
   3.1210403e-10  -2.7918384e-02   4.0046357e+00   4.5611063e-01  -1.4508551e+08
   3.1310437e-10  -2.7773624e-02   3.9949134e+00   4.6015769e-01  -1.4434686e+08
   3.1410470e-10  -2.7629600e-02   3.9852189e+00   4.6421450e-01  -1.4361173e+08
   3.1510504e-10  -2.7486311e-02   3.9755523e+00   4.6828087e-01  -1.4288010e+08
   3.1610537e-10  -2.7343751e-02   3.9659138e+00   4.7235657e-01  -1.4215195e+08
   3.1710570e-10  -2.7201919e-02   3.9563037e+00   4.7644141e-01  -1.4142729e+08
   3.1810604e-10  -2.7060809e-02   3.9467221e+00   4.8053518e-01  -1.4070609e+08
   3.1910637e-10  -2.6920419e-02   3.9371692e+00   4.8463765e-01  -1.3998834e+08
   3.2010670e-10  -2.6780746e-02   3.9276452e+00   4.8874863e-01  -1.3927404e+08
   3.2110704e-10  -2.6641785e-02   3.9181503e+00   4.9286790e-01  -1.3856317e+08
   3.2210737e-10  -2.6503533e-02   3.9086847e+00   4.9699525e-01  -1.3785572e+08
   3.2310770e-10  -2.6365988e-02   3.8992485e+00   5.0113048e-01  -1.3715168e+08
   3.2410804e-10  -2.6229145e-02   3.8898419e+00   5.0527338e-01  -1.3645103e+08
   3.2510837e-10  -2.6093001e-02   3.8804651e+00   5.0942374e-01  -1.3575378e+08
   3.2610870e-10  -2.5957553e-02   3.8711181e+00   5.1358135e-01  -1.3505989e+08
   3.2710904e-10  -2.5822798e-02   3.8618012e+00   5.1774601e-01  -1.3436936e+08
   3.2810937e-10  -2.5688731e-02   3.8525146e+00   5.2191751e-01  -1.3368219e+08
   3.2910970e-10  -2.5555350e-02   3.8432583e+00   5.2609564e-01  -1.3299835e+08
   3.3011004e-10  -2.5422652e-02   3.8340324e+00   5.3028021e-01  -1.3231783e+08
   3.3111037e-10  -2.5290633e-02   3.8248372e+00   5.3447100e-01  -1.3164063e+08
   3.3211070e-10  -2.5159289e-02   3.8156728e+00   5.3866781e-01  -1.3096673e+08
   3.3311104e-10  -2.5028618e-02   3.8065392e+00   5.4287044e-01  -1.3029612e+08
   3.3411137e-10  -2.4898616e-02   3.7974367e+00   5.4707868e-01  -1.2962878e+08
   3.3511170e-10  -2.4769280e-02   3.7883652e+00   5.5129235e-01  -1.2896471e+08
   3.3611204e-10  -2.4640607e-02   3.7793250e+00   5.5551122e-01  -1.2830389e+08
   3.3711237e-10  -2.4512593e-02   3.7703161e+00   5.5973511e-01  -1.2764630e+08
   3.3811270e-10  -2.4385235e-02   3.7613387e+00   5.6396382e-01  -1.2699194e+08
   3.3911304e-10  -2.4258531e-02   3.7523928e+00   5.6819714e-01  -1.2634080e+08
   3.4011337e-10  -2.4132475e-02   3.7434786e+00   5.7243488e-01  -1.2569286e+08
   3.4111370e-10  -2.4007067e-02   3.7345961e+00   5.7667685e-01  -1.2504810e+08
   3.4211404e-10  -2.3882302e-02   3.7257454e+00   5.8092284e-01  -1.2440652e+08
   3.4311437e-10  -2.3758177e-02   3.7169267e+00   5.8517266e-01  -1.2376811e+08
   3.4411470e-10  -2.3634689e-02   3.7081399e+00   5.8942613e-01  -1.2313284e+08
   3.4511504e-10  -2.3511835e-02   3.6993852e+00   5.9368304e-01  -1.2250072e+08
   3.4611537e-10  -2.3389612e-02   3.6906627e+00   5.9794320e-01  -1.2187172e+08
   3.4711571e-10  -2.3268016e-02   3.6819723e+00   6.0220643e-01  -1.2124583e+08
   3.4811604e-10  -2.3147045e-02   3.6733143e+00   6.0647253e-01  -1.2062304e+08
   3.4911637e-10  -2.3026695e-02   3.6646886e+00   6.1074132e-01  -1.2000334e+08
   3.5011671e-10  -2.2906964e-02   3.6560953e+00   6.1501261e-01  -1.1938671e+08
   3.5111704e-10  -2.2787848e-02   3.6475345e+00   6.1928621e-01  -1.1877315e+08
   3.5211737e-10  -2.2669344e-02   3.6390062e+00   6.2356193e-01  -1.1816263e+08
   3.5311771e-10  -2.2551449e-02   3.6305105e+00   6.2783960e-01  -1.1755515e+08
   3.5411804e-10  -2.2434161e-02   3.6220474e+00   6.3211903e-01  -1.1695069e+08
   3.5511837e-10  -2.2317475e-02   3.6136170e+00   6.3640004e-01  -1.1634925e+08
   3.5611871e-10  -2.2201390e-02   3.6052192e+00   6.4068245e-01  -1.1575080e+08
   3.5711904e-10  -2.2085902e-02   3.5968543e+00   6.4496607e-01  -1.1515533e+08
   3.5811937e-10  -2.1971008e-02   3.5885220e+00   6.4925074e-01  -1.1456284e+08
   3.5911971e-10  -2.1856705e-02   3.5802226e+00   6.5353627e-01  -1.1397331e+08
   3.6012004e-10  -2.1742991e-02   3.5719561e+00   6.5782249e-01  -1.1338672e+08
   3.6112037e-10  -2.1629861e-02   3.5637224e+00   6.6210922e-01  -1.1280307e+08
   3.6212071e-10  -2.1517315e-02   3.5555215e+00   6.6639629e-01  -1.1222234e+08
   3.6312104e-10  -2.1405347e-02   3.5473536e+00   6.7068354e-01  -1.1164452e+08
   3.6412137e-10  -2.1293956e-02   3.5392186e+00   6.7497078e-01  -1.1106959e+08
   3.6512171e-10  -2.1183139e-02   3.5311165e+00   6.7925785e-01  -1.1049755e+08
   3.6612204e-10  -2.1072892e-02   3.5230474e+00   6.8354458e-01  -1.0992838e+08
   3.6712237e-10  -2.0963214e-02   3.5150112e+00   6.8783081e-01  -1.0936206e+08
   3.6812271e-10  -2.0854100e-02   3.5070080e+00   6.9211637e-01  -1.0879859e+08
   3.6912304e-10  -2.0745549e-02   3.4990377e+00   6.9640110e-01  -1.0823795e+08
   3.7012337e-10  -2.0637557e-02   3.4911004e+00   7.0068483e-01  -1.0768013e+08
   3.7112371e-10  -2.0530122e-02   3.4831961e+00   7.0496741e-01  -1.0712511e+08
   3.7212404e-10  -2.0423240e-02   3.4753247e+00   7.0924867e-01  -1.0657289e+08
   3.7312437e-10  -2.0316910e-02   3.4674862e+00   7.1352846e-01  -1.0602346e+08
   3.7412471e-10  -2.0211127e-02   3.4596807e+00   7.1780661e-01  -1.0547679e+08
   3.7512504e-10  -2.0105891e-02   3.4519081e+00   7.2208298e-01  -1.0493287e+08
   3.7612538e-10  -2.0001196e-02   3.4441684e+00   7.2635741e-01  -1.0439170e+08
   3.7712571e-10  -1.9897042e-02   3.4364616e+00   7.3062974e-01  -1.0385326e+08
   3.7812604e-10  -1.9793425e-02   3.4287877e+00   7.3489983e-01  -1.0331754e+08
   3.7912638e-10  -1.9690343e-02   3.4211466e+00   7.3916753e-01  -1.0278453e+08
   3.8012671e-10  -1.9587792e-02   3.4135384e+00   7.4343268e-01  -1.0225421e+08
   3.8112704e-10  -1.9485770e-02   3.4059630e+00   7.4769515e-01  -1.0172657e+08
   3.8212738e-10  -1.9384275e-02   3.3984203e+00   7.5195478e-01  -1.0120159e+08
   3.8312771e-10  -1.9283304e-02   3.3909104e+00   7.5621143e-01  -1.0067928e+08
   3.8412804e-10  -1.9182854e-02   3.3834332e+00   7.6046496e-01  -1.0015961e+08
   3.8512838e-10  -1.9082922e-02   3.3759886e+00   7.6471523e-01  -9.9642568e+07
   3.8612871e-10  -1.8983507e-02   3.3685767e+00   7.6896209e-01  -9.9128147e+07
   3.8712904e-10  -1.8884604e-02   3.3611975e+00   7.7320542e-01  -9.8616334e+07
   3.8812938e-10  -1.8786212e-02   3.3538507e+00   7.7744507e-01  -9.8107115e+07
   3.8912971e-10  -1.8688329e-02   3.3465365e+00   7.8168090e-01  -9.7600478e+07
   3.9013004e-10  -1.8590950e-02   3.3392548e+00   7.8591279e-01  -9.7096412e+07
   3.9113038e-10  -1.8494075e-02   3.3320055e+00   7.9014060e-01  -9.6594904e+07
   3.9213071e-10  -1.8397700e-02   3.3247886e+00   7.9436421e-01  -9.6095943e+07
   3.9313104e-10  -1.8301823e-02   3.3176040e+00   7.9858347e-01  -9.5599515e+07
   3.9413138e-10  -1.8206441e-02   3.3104517e+00   8.0279826e-01  -9.5105609e+07
   3.9513171e-10  -1.8111552e-02   3.3033317e+00   8.0700846e-01  -9.4614213e+07
   3.9613204e-10  -1.8017153e-02   3.2962438e+00   8.1121394e-01  -9.4125315e+07
   3.9713238e-10  -1.7923242e-02   3.2891880e+00   8.1541458e-01  -9.3638902e+07
   3.9813271e-10  -1.7829817e-02   3.2821643e+00   8.1961025e-01  -9.3154964e+07
   3.9913304e-10  -1.7736874e-02   3.2751726e+00   8.2380084e-01  -9.2673488e+07
   4.0013338e-10  -1.7644412e-02   3.2682129e+00   8.2798622e-01  -9.2194463e+07
   4.0113371e-10  -1.7552427e-02   3.2612850e+00   8.3216628e-01  -9.1717876e+07
   4.0213404e-10  -1.7460918e-02   3.2543890e+00   8.3634090e-01  -9.1243716e+07
   4.0313438e-10  -1.7369882e-02   3.2475247e+00   8.4050996e-01  -9.0771971e+07
   4.0413471e-10  -1.7279317e-02   3.2406921e+00   8.4467335e-01  -9.0302629e+07
   4.0513505e-10  -1.7189220e-02   3.2338912e+00   8.4883096e-01  -8.9835680e+07
   4.0613538e-10  -1.7099589e-02   3.2271218e+00   8.5298269e-01  -8.9371110e+07
   4.0713571e-10  -1.7010422e-02   3.2203838e+00   8.5712841e-01  -8.8908909e+07
   4.0813605e-10  -1.6921716e-02   3.2136773e+00   8.6126802e-01  -8.8449065e+07
   4.0913638e-10  -1.6833468e-02   3.2070022e+00   8.6540141e-01  -8.7991567e+07
   4.1013671e-10  -1.6745677e-02   3.2003582e+00   8.6952849e-01  -8.7536403e+07
   4.1113705e-10  -1.6658340e-02   3.1937455e+00   8.7364914e-01  -8.7083562e+07
   4.1213738e-10  -1.6571455e-02   3.1871639e+00   8.7776326e-01  -8.6633032e+07
   4.1313771e-10  -1.6485019e-02   3.1806134e+00   8.8187076e-01  -8.6184803e+07
   4.1413805e-10  -1.6399031e-02   3.1740938e+00   8.8597153e-01  -8.5738862e+07
   4.1513838e-10  -1.6313487e-02   3.1676051e+00   8.9006547e-01  -8.5295199e+07
   4.1613871e-10  -1.6228387e-02   3.1611471e+00   8.9415249e-01  -8.4853802e+07
   4.1713905e-10  -1.6143726e-02   3.1547199e+00   8.9823250e-01  -8.4414661e+07
   4.1813938e-10  -1.6059504e-02   3.1483234e+00   9.0230539e-01  -8.3977764e+07
   4.1913971e-10  -1.5975718e-02   3.1419574e+00   9.0637108e-01  -8.3543100e+07
   4.2014005e-10  -1.5892365e-02   3.1356218e+00   9.1042948e-01  -8.3110658e+07
   4.2114038e-10  -1.5809444e-02   3.1293167e+00   9.1448049e-01  -8.2680428e+07
   4.2214071e-10  -1.5726952e-02   3.1230418e+00   9.1852402e-01  -8.2252398e+07
   4.2314105e-10  -1.5644887e-02   3.1167972e+00   9.2255999e-01  -8.1826557e+07
   4.2414138e-10  -1.5563247e-02   3.1105827e+00   9.2658832e-01  -8.1402894e+07
   4.2514171e-10  -1.5482029e-02   3.1043982e+00   9.3060892e-01  -8.0981399e+07
   4.2614205e-10  -1.5401232e-02   3.0982436e+00   9.3462170e-01  -8.0562062e+07
   4.2714238e-10  -1.5320854e-02   3.0921190e+00   9.3862658e-01  -8.0144870e+07
   4.2814271e-10  -1.5240892e-02   3.0860240e+00   9.4262349e-01  -7.9729814e+07
   4.2914305e-10  -1.5161344e-02   3.0799588e+00   9.4661233e-01  -7.9316884e+07
   4.3014338e-10  -1.5082208e-02   3.0739231e+00   9.5059305e-01  -7.8906067e+07
   4.3114371e-10  -1.5003481e-02   3.0679169e+00   9.5456555e-01  -7.8497355e+07
   4.3214405e-10  -1.4925163e-02   3.0619401e+00   9.5852977e-01  -7.8090735e+07
   4.3314438e-10  -1.4847250e-02   3.0559926e+00   9.6248562e-01  -7.7686199e+07
   4.3414471e-10  -1.4769741e-02   3.0500744e+00   9.6643304e-01  -7.7283736e+07
   4.3514505e-10  -1.4692633e-02   3.0441852e+00   9.7037195e-01  -7.6883334e+07
   4.3614538e-10  -1.4615925e-02   3.0383250e+00   9.7430228e-01  -7.6484985e+07
   4.3714572e-10  -1.4539615e-02   3.0324938e+00   9.7822397e-01  -7.6088677e+07
   4.3814605e-10  -1.4463700e-02   3.0266913e+00   9.8213695e-01  -7.5694401e+07
   4.3914638e-10  -1.4388178e-02   3.0209176e+00   9.8604114e-01  -7.5302145e+07
   4.4014672e-10  -1.4313047e-02   3.0151725e+00   9.8993648e-01  -7.4911901e+07
   4.4114705e-10  -1.4238306e-02   3.0094559e+00   9.9382292e-01  -7.4523658e+07
   4.4214738e-10  -1.4163952e-02   3.0037678e+00   9.9770038e-01  -7.4137406e+07
   4.4314772e-10  -1.4089984e-02   2.9981080e+00   1.0015688e+00  -7.3753136e+07
   4.4414805e-10  -1.4016399e-02   2.9924764e+00   1.0054281e+00  -7.3370836e+07
   4.4514838e-10  -1.3943195e-02   2.9868729e+00   1.0092783e+00  -7.2990497e+07
   4.4614872e-10  -1.3870371e-02   2.9812974e+00   1.0131193e+00  -7.2612110e+07
   4.4714905e-10  -1.3797924e-02   2.9757499e+00   1.0169509e+00  -7.2235664e+07
   4.4814938e-10  -1.3725853e-02   2.9702302e+00   1.0207733e+00  -7.1861150e+07
   4.4914972e-10  -1.3654156e-02   2.9647382e+00   1.0245862e+00  -7.1488557e+07
   4.5015005e-10  -1.3582830e-02   2.9592738e+00   1.0283898e+00  -7.1117877e+07
   4.5115038e-10  -1.3511875e-02   2.9538369e+00   1.0321838e+00  -7.0749100e+07
   4.5215072e-10  -1.3441287e-02   2.9484274e+00   1.0359683e+00  -7.0382216e+07
   4.5315105e-10  -1.3371065e-02   2.9430453e+00   1.0397432e+00  -7.0017216e+07
   4.5415138e-10  -1.3301207e-02   2.9376903e+00   1.0435085e+00  -6.9654089e+07
   4.5515172e-10  -1.3231712e-02   2.9323624e+00   1.0472640e+00  -6.9292827e+07
   4.5615205e-10  -1.3162577e-02   2.9270616e+00   1.0510098e+00  -6.8933420e+07
   4.5715238e-10  -1.3093801e-02   2.9217876e+00   1.0547459e+00  -6.8575859e+07
   4.5815272e-10  -1.3025381e-02   2.9165404e+00   1.0584721e+00  -6.8220135e+07
   4.5915305e-10  -1.2957317e-02   2.9113199e+00   1.0621884e+00  -6.7866238e+07
   4.6015338e-10  -1.2889605e-02   2.9061259e+00   1.0658948e+00  -6.7514158e+07
   4.6115372e-10  -1.2822245e-02   2.9009584e+00   1.0695913e+00  -6.7163888e+07
   4.6215405e-10  -1.2755234e-02   2.8958173e+00   1.0732777e+00  -6.6815417e+07
   4.6315438e-10  -1.2688571e-02   2.8907024e+00   1.0769541e+00  -6.6468736e+07
   4.6415472e-10  -1.2622254e-02   2.8856137e+00   1.0806204e+00  -6.6123837e+07
   4.6515505e-10  -1.2556281e-02   2.8805511e+00   1.0842766e+00  -6.5780710e+07
   4.6615539e-10  -1.2490650e-02   2.8755144e+00   1.0879227e+00  -6.5439347e+07
   4.6715572e-10  -1.2425360e-02   2.8705035e+00   1.0915585e+00  -6.5099738e+07
   4.6815605e-10  -1.2360408e-02   2.8655183e+00   1.0951842e+00  -6.4761875e+07
   4.6915639e-10  -1.2295794e-02   2.8605588e+00   1.0987995e+00  -6.4425748e+07
   4.7015672e-10  -1.2231515e-02   2.8556248e+00   1.1024046e+00  -6.4091349e+07
   4.7115705e-10  -1.2167570e-02   2.8507162e+00   1.1059993e+00  -6.3758670e+07
   4.7215739e-10  -1.2103957e-02   2.8458328e+00   1.1095837e+00  -6.3427701e+07
   4.7315772e-10  -1.2040674e-02   2.8409747e+00   1.1131577e+00  -6.3098434e+07
   4.7415805e-10  -1.1977719e-02   2.8361417e+00   1.1167212e+00  -6.2770860e+07
   4.7515839e-10  -1.1915091e-02   2.8313337e+00   1.1202743e+00  -6.2444970e+07
   4.7615872e-10  -1.1852788e-02   2.8265505e+00   1.1238169e+00  -6.2120756e+07
   4.7715905e-10  -1.1790809e-02   2.8217922e+00   1.1273491e+00  -6.1798210e+07
   4.7815939e-10  -1.1729152e-02   2.8170584e+00   1.1308706e+00  -6.1477323e+07
   4.7915972e-10  -1.1667815e-02   2.8123493e+00   1.1343817e+00  -6.1158086e+07
   4.8016005e-10  -1.1606796e-02   2.8076646e+00   1.1378821e+00  -6.0840492e+07
   4.8116039e-10  -1.1546094e-02   2.8030042e+00   1.1413720e+00  -6.0524531e+07
   4.8216072e-10  -1.1485708e-02   2.7983681e+00   1.1448512e+00  -6.0210196e+07
   4.8316105e-10  -1.1425635e-02   2.7937561e+00   1.1483197e+00  -5.9897478e+07
   4.8416139e-10  -1.1365874e-02   2.7891682e+00   1.1517776e+00  -5.9586369e+07
   4.8516172e-10  -1.1306423e-02   2.7846041e+00   1.1552248e+00  -5.9276861e+07
   4.8616205e-10  -1.1247282e-02   2.7800639e+00   1.1586613e+00  -5.8968945e+07
   4.8716239e-10  -1.1188447e-02   2.7755474e+00   1.1620871e+00  -5.8662614e+07
   4.8816272e-10  -1.1129918e-02   2.7710545e+00   1.1655021e+00  -5.8357860e+07
   4.8916305e-10  -1.1071693e-02   2.7665851e+00   1.1689063e+00  -5.8054674e+07
   4.9016339e-10  -1.1013771e-02   2.7621391e+00   1.1722998e+00  -5.7753048e+07
   4.9116372e-10  -1.0956150e-02   2.7577164e+00   1.1756825e+00  -5.7452976e+07
   4.9216405e-10  -1.0898828e-02   2.7533168e+00   1.1790543e+00  -5.7154447e+07
   4.9316439e-10  -1.0841803e-02   2.7489404e+00   1.1824153e+00  -5.6857456e+07
   4.9416472e-10  -1.0785076e-02   2.7445869e+00   1.1857655e+00  -5.6561993e+07
   4.9516506e-10  -1.0728642e-02   2.7402563e+00   1.1891048e+00  -5.6268052e+07
   4.9616539e-10  -1.0672503e-02   2.7359484e+00   1.1924333e+00  -5.5975624e+07
   4.9716572e-10  -1.0616655e-02   2.7316632e+00   1.1957509e+00  -5.5684702e+07
   4.9816606e-10  -1.0561097e-02   2.7274006e+00   1.1990576e+00  -5.5395278e+07
   4.9916639e-10  -1.0505828e-02   2.7231604e+00   1.2023534e+00  -5.5107344e+07
   5.0016672e-10  -1.0450846e-02   2.7189425e+00   1.2056383e+00  -5.4820893e+07
   5.0116706e-10  -1.0396150e-02   2.7147469e+00   1.2089123e+00  -5.4535917e+07
   5.0216739e-10  -1.0341739e-02   2.7105734e+00   1.2121753e+00  -5.4252409e+07
   5.0316772e-10  -1.0287610e-02   2.7064220e+00   1.2154274e+00  -5.3970361e+07
   5.0416806e-10  -1.0233763e-02   2.7022925e+00   1.2186686e+00  -5.3689767e+07
   5.0516839e-10  -1.0180195e-02   2.6981848e+00   1.2218989e+00  -5.3410617e+07
   5.0616872e-10  -1.0126906e-02   2.6940989e+00   1.2251182e+00  -5.3132905e+07
   5.0716906e-10  -1.0073895e-02   2.6900346e+00   1.2283265e+00  -5.2856624e+07
   5.0816939e-10  -1.0021158e-02   2.6859918e+00   1.2315239e+00  -5.2581767e+07
   5.0916972e-10  -9.9686966e-03   2.6819704e+00   1.2347103e+00  -5.2308326e+07
   5.1017006e-10  -9.9165075e-03   2.6779703e+00   1.2378858e+00  -5.2036293e+07
   5.1117039e-10  -9.8645899e-03   2.6739915e+00   1.2410503e+00  -5.1765662e+07
   5.1217072e-10  -9.8129422e-03   2.6700337e+00   1.2442038e+00  -5.1496426e+07
   5.1317106e-10  -9.7615632e-03   2.6660970e+00   1.2473463e+00  -5.1228577e+07
   5.1417139e-10  -9.7104514e-03   2.6621812e+00   1.2504779e+00  -5.0962109e+07
   5.1517172e-10  -9.6596055e-03   2.6582862e+00   1.2535985e+00  -5.0697014e+07
   5.1617206e-10  -9.6090241e-03   2.6544119e+00   1.2567082e+00  -5.0433285e+07
   5.1717239e-10  -9.5587058e-03   2.6505583e+00   1.2598068e+00  -5.0170916e+07
   5.1817272e-10  -9.5086492e-03   2.6467251e+00   1.2628945e+00  -4.9909899e+07
   5.1917306e-10  -9.4588531e-03   2.6429123e+00   1.2659713e+00  -4.9650227e+07
   5.2017339e-10  -9.4093161e-03   2.6391199e+00   1.2690371e+00  -4.9391895e+07
   5.2117372e-10  -9.3600368e-03   2.6353477e+00   1.2720919e+00  -4.9134894e+07
   5.2217406e-10  -9.3110140e-03   2.6315956e+00   1.2751357e+00  -4.8879218e+07
   5.2317439e-10  -9.2622462e-03   2.6278635e+00   1.2781687e+00  -4.8624860e+07
   5.2417472e-10  -9.2137322e-03   2.6241513e+00   1.2811906e+00  -4.8371814e+07
   5.2517506e-10  -9.1654707e-03   2.6204590e+00   1.2842017e+00  -4.8120072e+07
   5.2617539e-10  -9.1174604e-03   2.6167864e+00   1.2872017e+00  -4.7869629e+07
   5.2717573e-10  -9.0696999e-03   2.6131334e+00   1.2901909e+00  -4.7620477e+07
   5.2817606e-10  -9.0221880e-03   2.6094999e+00   1.2931691e+00  -4.7372610e+07
   5.2917639e-10  -8.9749234e-03   2.6058858e+00   1.2961365e+00  -4.7126022e+07
   5.3017673e-10  -8.9279049e-03   2.6022911e+00   1.2990929e+00  -4.6880705e+07
   5.3117706e-10  -8.8811311e-03   2.5987157e+00   1.3020384e+00  -4.6636654e+07
   5.3217739e-10  -8.8346008e-03   2.5951594e+00   1.3049730e+00  -4.6393862e+07
   5.3317773e-10  -8.7883127e-03   2.5916221e+00   1.3078968e+00  -4.6152322e+07
   5.3417806e-10  -8.7422657e-03   2.5881038e+00   1.3108096e+00  -4.5912028e+07
   5.3517839e-10  -8.6964583e-03   2.5846043e+00   1.3137116e+00  -4.5672974e+07
   5.3617873e-10  -8.6508895e-03   2.5811236e+00   1.3166028e+00  -4.5435154e+07
   5.3717906e-10  -8.6055580e-03   2.5776616e+00   1.3194831e+00  -4.5198560e+07
   5.3817939e-10  -8.5604625e-03   2.5742181e+00   1.3223526e+00  -4.4963187e+07
   5.3917973e-10  -8.5156019e-03   2.5707932e+00   1.3252112e+00  -4.4729029e+07
   5.4018006e-10  -8.4709749e-03   2.5673866e+00   1.3280591e+00  -4.4496079e+07
   5.4118039e-10  -8.4265803e-03   2.5639983e+00   1.3308961e+00  -4.4264332e+07
   5.4218073e-10  -8.3824169e-03   2.5606283e+00   1.3337224e+00  -4.4033780e+07
   5.4318106e-10  -8.3384836e-03   2.5572763e+00   1.3365379e+00  -4.3804418e+07
   5.4418139e-10  -8.2947791e-03   2.5539424e+00   1.3393426e+00  -4.3576240e+07
   5.4518173e-10  -8.2513022e-03   2.5506263e+00   1.3421366e+00  -4.3349240e+07
   5.4618206e-10  -8.2080519e-03   2.5473282e+00   1.3449199e+00  -4.3123412e+07
   5.4718239e-10  -8.1650268e-03   2.5440477e+00   1.3476925e+00  -4.2898750e+07
   5.4818273e-10  -8.1222259e-03   2.5407850e+00   1.3504543e+00  -4.2675247e+07
   5.4918306e-10  -8.0796480e-03   2.5375398e+00   1.3532055e+00  -4.2452899e+07
   5.5018339e-10  -8.0372920e-03   2.5343120e+00   1.3559460e+00  -4.2231698e+07
   5.5118373e-10  -7.9951566e-03   2.5311017e+00   1.3586758e+00  -4.2011640e+07
   5.5218406e-10  -7.9532408e-03   2.5279087e+00   1.3613950e+00  -4.1792718e+07
   5.5318439e-10  -7.9115435e-03   2.5247328e+00   1.3641036e+00  -4.1574926e+07
   5.5418473e-10  -7.8700634e-03   2.5215741e+00   1.3668016e+00  -4.1358260e+07
   5.5518506e-10  -7.8287995e-03   2.5184324e+00   1.3694890e+00  -4.1142712e+07
   5.5618540e-10  -7.7877507e-03   2.5153077e+00   1.3721658e+00  -4.0928277e+07
   5.5718573e-10  -7.7469158e-03   2.5121998e+00   1.3748320e+00  -4.0714951e+07
   5.5818606e-10  -7.7062937e-03   2.5091087e+00   1.3774878e+00  -4.0502726e+07
   5.5918640e-10  -7.6658834e-03   2.5060343e+00   1.3801330e+00  -4.0291597e+07
   5.6018673e-10  -7.6256837e-03   2.5029765e+00   1.3827677e+00  -4.0081559e+07
   5.6118706e-10  -7.5856936e-03   2.4999351e+00   1.3853919e+00  -3.9872606e+07
   5.6218740e-10  -7.5459120e-03   2.4969102e+00   1.3880057e+00  -3.9664733e+07
   5.6318773e-10  -7.5063378e-03   2.4939017e+00   1.3906091e+00  -3.9457934e+07
   5.6418806e-10  -7.4669699e-03   2.4909094e+00   1.3932020e+00  -3.9252203e+07
   5.6518840e-10  -7.4278073e-03   2.4879333e+00   1.3957845e+00  -3.9047536e+07
   5.6618873e-10  -7.3888489e-03   2.4849732e+00   1.3983566e+00  -3.8843926e+07
   5.6718906e-10  -7.3500936e-03   2.4820292e+00   1.4009184e+00  -3.8641368e+07
   5.6818940e-10  -7.3115404e-03   2.4791011e+00   1.4034698e+00  -3.8439858e+07
   5.6918973e-10  -7.2731883e-03   2.4761888e+00   1.4060109e+00  -3.8239389e+07
   5.7019006e-10  -7.2350362e-03   2.4732923e+00   1.4085417e+00  -3.8039956e+07
   5.7119040e-10  -7.1970830e-03   2.4704114e+00   1.4110623e+00  -3.7841554e+07
   5.7219073e-10  -7.1593279e-03   2.4675462e+00   1.4135725e+00  -3.7644177e+07
   5.7319106e-10  -7.1217696e-03   2.4646964e+00   1.4160726e+00  -3.7447821e+07
   5.7419140e-10  -7.0844073e-03   2.4618621e+00   1.4185624e+00  -3.7252481e+07
   5.7519173e-10  -7.0472398e-03   2.4590431e+00   1.4210421e+00  -3.7058150e+07
   5.7619206e-10  -7.0102663e-03   2.4562394e+00   1.4235115e+00  -3.6864824e+07
   5.7719240e-10  -6.9734856e-03   2.4534508e+00   1.4259709e+00  -3.6672498e+07
   5.7819273e-10  -6.9368968e-03   2.4506774e+00   1.4284201e+00  -3.6481166e+07
   5.7919306e-10  -6.9004989e-03   2.4479190e+00   1.4308592e+00  -3.6290824e+07
   5.8019340e-10  -6.8642910e-03   2.4451755e+00   1.4332882e+00  -3.6101466e+07
   5.8119373e-10  -6.8282719e-03   2.4424469e+00   1.4357072e+00  -3.5913087e+07
   5.8219406e-10  -6.7924408e-03   2.4397331e+00   1.4381161e+00  -3.5725683e+07
   5.8319440e-10  -6.7567967e-03   2.4370340e+00   1.4405151e+00  -3.5539249e+07
   5.8419473e-10  -6.7213386e-03   2.4343495e+00   1.4429041e+00  -3.5353778e+07
   5.8519507e-10  -6.6860656e-03   2.4316796e+00   1.4452831e+00  -3.5169268e+07
   5.8619540e-10  -6.6509766e-03   2.4290242e+00   1.4476521e+00  -3.4985712e+07
   5.8719573e-10  -6.6160708e-03   2.4263831e+00   1.4500113e+00  -3.4803105e+07
   5.8819607e-10  -6.5813471e-03   2.4237564e+00   1.4523606e+00  -3.4621444e+07
   5.8919640e-10  -6.5468048e-03   2.4211439e+00   1.4547000e+00  -3.4440722e+07
   5.9019673e-10  -6.5124427e-03   2.4185456e+00   1.4570296e+00  -3.4260936e+07
   5.9119707e-10  -6.4782600e-03   2.4159614e+00   1.4593494e+00  -3.4082080e+07
   5.9219740e-10  -6.4442558e-03   2.4133913e+00   1.4616594e+00  -3.3904150e+07
   5.9319773e-10  -6.4104290e-03   2.4108350e+00   1.4639596e+00  -3.3727141e+07
   5.9419807e-10  -6.3767789e-03   2.4082927e+00   1.4662501e+00  -3.3551048e+07
   5.9519840e-10  -6.3433045e-03   2.4057641e+00   1.4685309e+00  -3.3375866e+07
   5.9619873e-10  -6.3100049e-03   2.4032493e+00   1.4708020e+00  -3.3201592e+07
   5.9719907e-10  -6.2768791e-03   2.4007481e+00   1.4730635e+00  -3.3028219e+07
   5.9819940e-10  -6.2439263e-03   2.3982605e+00   1.4753153e+00  -3.2855744e+07
   5.9919973e-10  -6.2111457e-03   2.3957864e+00   1.4775576e+00  -3.2684163e+07
   6.0020007e-10  -6.1785362e-03   2.3933257e+00   1.4797902e+00  -3.2513469e+07
   6.0120040e-10  -6.1460970e-03   2.3908784e+00   1.4820133e+00  -3.2343660e+07
   6.0220073e-10  -6.1138272e-03   2.3884444e+00   1.4842269e+00  -3.2174730e+07
   6.0320107e-10  -6.0817260e-03   2.3860236e+00   1.4864310e+00  -3.2006675e+07
   6.0420140e-10  -6.0497924e-03   2.3836159e+00   1.4886256e+00  -3.1839490e+07
   6.0520173e-10  -6.0180257e-03   2.3812213e+00   1.4908108e+00  -3.1673171e+07
   6.0620207e-10  -5.9864249e-03   2.3788398e+00   1.4929865e+00  -3.1507713e+07
   6.0720240e-10  -5.9549891e-03   2.3764711e+00   1.4951529e+00  -3.1343113e+07
   6.0820273e-10  -5.9237176e-03   2.3741154e+00   1.4973099e+00  -3.1179366e+07
   6.0920307e-10  -5.8926095e-03   2.3717724e+00   1.4994575e+00  -3.1016466e+07
   6.1020340e-10  -5.8616639e-03   2.3694422e+00   1.5015959e+00  -3.0854411e+07
   6.1120373e-10  -5.8308800e-03   2.3671246e+00   1.5037249e+00  -3.0693195e+07
   6.1220407e-10  -5.8002570e-03   2.3648196e+00   1.5058448e+00  -3.0532815e+07
   6.1320440e-10  -5.7697939e-03   2.3625272e+00   1.5079553e+00  -3.0373266e+07
   6.1420473e-10  -5.7394901e-03   2.3602472e+00   1.5100567e+00  -3.0214544e+07
   6.1520507e-10  -5.7093446e-03   2.3579796e+00   1.5121490e+00  -3.0056644e+07
   6.1620540e-10  -5.6793567e-03   2.3557243e+00   1.5142320e+00  -2.9899563e+07
   6.1720574e-10  -5.6495254e-03   2.3534813e+00   1.5163060e+00  -2.9743295e+07
   6.1820607e-10  -5.6198501e-03   2.3512505e+00   1.5183709e+00  -2.9587838e+07
   6.1920640e-10  -5.5903299e-03   2.3490318e+00   1.5204267e+00  -2.9433187e+07
   6.2020674e-10  -5.5609640e-03   2.3468251e+00   1.5224735e+00  -2.9279338e+07
   6.2120707e-10  -5.5317516e-03   2.3446305e+00   1.5245113e+00  -2.9126286e+07
   6.2220740e-10  -5.5026919e-03   2.3424478e+00   1.5265401e+00  -2.8974027e+07
   6.2320774e-10  -5.4737841e-03   2.3402769e+00   1.5285599e+00  -2.8822558e+07
   6.2420807e-10  -5.4450274e-03   2.3381179e+00   1.5305709e+00  -2.8671875e+07
   6.2520840e-10  -5.4164211e-03   2.3359705e+00   1.5325729e+00  -2.8521973e+07
   6.2620874e-10  -5.3879643e-03   2.3338349e+00   1.5345661e+00  -2.8372848e+07
   6.2720907e-10  -5.3596564e-03   2.3317109e+00   1.5365505e+00  -2.8224497e+07
   6.2820940e-10  -5.3314964e-03   2.3295984e+00   1.5385260e+00  -2.8076915e+07
   6.2920974e-10  -5.3034837e-03   2.3274974e+00   1.5404928e+00  -2.7930099e+07
   6.3021007e-10  -5.2756175e-03   2.3254078e+00   1.5424508e+00  -2.7784044e+07
   6.3121040e-10  -5.2478969e-03   2.3233296e+00   1.5444002e+00  -2.7638748e+07
   6.3221074e-10  -5.2203214e-03   2.3212627e+00   1.5463408e+00  -2.7494204e+07
   6.3321107e-10  -5.1928901e-03   2.3192070e+00   1.5482727e+00  -2.7350411e+07
   6.3421140e-10  -5.1656022e-03   2.3171625e+00   1.5501961e+00  -2.7207364e+07
   6.3521174e-10  -5.1384571e-03   2.3151292e+00   1.5521108e+00  -2.7065059e+07
   6.3621207e-10  -5.1114539e-03   2.3131068e+00   1.5540169e+00  -2.6923493e+07
   6.3721240e-10  -5.0845920e-03   2.3110955e+00   1.5559145e+00  -2.6782661e+07
   6.3821274e-10  -5.0578706e-03   2.3090951e+00   1.5578036e+00  -2.6642560e+07
   6.3921307e-10  -5.0312890e-03   2.3071056e+00   1.5596842e+00  -2.6503186e+07
   6.4021340e-10  -5.0048464e-03   2.3051269e+00   1.5615564e+00  -2.6364536e+07
   6.4121374e-10  -4.9785422e-03   2.3031590e+00   1.5634201e+00  -2.6226605e+07
   6.4221407e-10  -4.9523756e-03   2.3012017e+00   1.5652754e+00  -2.6089391e+07
   6.4321440e-10  -4.9263459e-03   2.2992551e+00   1.5671223e+00  -2.5952888e+07
   6.4421474e-10  -4.9004523e-03   2.2973191e+00   1.5689609e+00  -2.5817095e+07
   6.4521507e-10  -4.8746943e-03   2.2953936e+00   1.5707911e+00  -2.5682006e+07
   6.4621541e-10  -4.8490711e-03   2.2934786e+00   1.5726131e+00  -2.5547619e+07
   6.4721574e-10  -4.8235819e-03   2.2915740e+00   1.5744268e+00  -2.5413930e+07
   6.4821607e-10  -4.7982261e-03   2.2896798e+00   1.5762323e+00  -2.5280935e+07
   6.4921641e-10  -4.7730030e-03   2.2877958e+00   1.5780296e+00  -2.5148631e+07
   6.5021674e-10  -4.7479119e-03   2.2859221e+00   1.5798188e+00  -2.5017013e+07
   6.5121707e-10  -4.7229522e-03   2.2840586e+00   1.5815997e+00  -2.4886080e+07
   6.5221741e-10  -4.6981230e-03   2.2822052e+00   1.5833726e+00  -2.4755826e+07
   6.5321774e-10  -4.6734239e-03   2.2803619e+00   1.5851374e+00  -2.4626249e+07
   6.5421807e-10  -4.6488540e-03   2.2785286e+00   1.5868941e+00  -2.4497346e+07
   6.5521841e-10  -4.6244127e-03   2.2767052e+00   1.5886428e+00  -2.4369112e+07
   6.5621874e-10  -4.6000994e-03   2.2748918e+00   1.5903835e+00  -2.4241544e+07
   6.5721907e-10  -4.5759133e-03   2.2730883e+00   1.5921163e+00  -2.4114639e+07
   6.5821941e-10  -4.5518538e-03   2.2712945e+00   1.5938411e+00  -2.3988393e+07
   6.5921974e-10  -4.5279204e-03   2.2695105e+00   1.5955580e+00  -2.3862804e+07
   6.6022007e-10  -4.5041122e-03   2.2677362e+00   1.5972670e+00  -2.3737867e+07
   6.6122041e-10  -4.4804287e-03   2.2659715e+00   1.5989681e+00  -2.3613579e+07
   6.6222074e-10  -4.4568691e-03   2.2642165e+00   1.6006614e+00  -2.3489938e+07
   6.6322107e-10  -4.4334330e-03   2.2624709e+00   1.6023470e+00  -2.3366939e+07
   6.6422141e-10  -4.4101195e-03   2.2607349e+00   1.6040247e+00  -2.3244579e+07
   6.6522174e-10  -4.3869282e-03   2.2590083e+00   1.6056948e+00  -2.3122856e+07
   6.6622207e-10  -4.3638582e-03   2.2572910e+00   1.6073571e+00  -2.3001765e+07
   6.6722241e-10  -4.3409091e-03   2.2555832e+00   1.6090117e+00  -2.2881304e+07
   6.6822274e-10  -4.3180802e-03   2.2538845e+00   1.6106587e+00  -2.2761469e+07
   6.6922307e-10  -4.2953709e-03   2.2521952e+00   1.6122981e+00  -2.2642257e+07
   6.7022341e-10  -4.2727805e-03   2.2505149e+00   1.6139299e+00  -2.2523665e+07
   6.7122374e-10  -4.2503084e-03   2.2488439e+00   1.6155541e+00  -2.2405690e+07
   6.7222407e-10  -4.2279540e-03   2.2471819e+00   1.6171707e+00  -2.2288328e+07
   6.7322441e-10  -4.2057167e-03   2.2455289e+00   1.6187799e+00  -2.2171577e+07
   6.7422474e-10  -4.1835959e-03   2.2438849e+00   1.6203816e+00  -2.2055433e+07
   6.7522508e-10  -4.1615910e-03   2.2422499e+00   1.6219758e+00  -2.1939893e+07
   6.7622541e-10  -4.1397013e-03   2.2406237e+00   1.6235626e+00  -2.1824954e+07
   6.7722574e-10  -4.1179264e-03   2.2390064e+00   1.6251420e+00  -2.1710613e+07
   6.7822608e-10  -4.0962655e-03   2.2373978e+00   1.6267141e+00  -2.1596867e+07
   6.7922641e-10  -4.0747181e-03   2.2357980e+00   1.6282788e+00  -2.1483713e+07
   6.8022674e-10  -4.0532836e-03   2.2342069e+00   1.6298362e+00  -2.1371147e+07
   6.8122708e-10  -4.0319614e-03   2.2326244e+00   1.6313863e+00  -2.1259167e+07
   6.8222741e-10  -4.0107509e-03   2.2310505e+00   1.6329292e+00  -2.1147770e+07
   6.8322774e-10  -3.9896516e-03   2.2294851e+00   1.6344649e+00  -2.1036952e+07
   6.8422808e-10  -3.9686628e-03   2.2279283e+00   1.6359933e+00  -2.0926711e+07
   6.8522841e-10  -3.9477840e-03   2.2263799e+00   1.6375146e+00  -2.0817044e+07
   6.8622874e-10  -3.9270147e-03   2.2248399e+00   1.6390287e+00  -2.0707948e+07
   6.8722908e-10  -3.9063542e-03   2.2233083e+00   1.6405358e+00  -2.0599420e+07
   6.8822941e-10  -3.8858020e-03   2.2217850e+00   1.6420357e+00  -2.0491456e+07
   6.8922974e-10  -3.8653575e-03   2.2202700e+00   1.6435286e+00  -2.0384055e+07
   6.9023008e-10  -3.8450201e-03   2.2187632e+00   1.6450145e+00  -2.0277212e+07
   6.9123041e-10  -3.8247894e-03   2.2172645e+00   1.6464933e+00  -2.0170926e+07
   6.9223074e-10  -3.8046647e-03   2.2157740e+00   1.6479652e+00  -2.0065193e+07
   6.9323108e-10  -3.7846454e-03   2.2142916e+00   1.6494302e+00  -1.9960011e+07
   6.9423141e-10  -3.7647312e-03   2.2128173e+00   1.6508882e+00  -1.9855377e+07
   6.9523174e-10  -3.7449213e-03   2.2113509e+00   1.6523394e+00  -1.9751287e+07
   6.9623208e-10  -3.7252153e-03   2.2098925e+00   1.6537837e+00  -1.9647739e+07
   6.9723241e-10  -3.7056126e-03   2.2084420e+00   1.6552211e+00  -1.9544731e+07
   6.9823274e-10  -3.6861126e-03   2.2069994e+00   1.6566518e+00  -1.9442259e+07
   6.9923308e-10  -3.6667149e-03   2.2055646e+00   1.6580756e+00  -1.9340321e+07
   7.0023341e-10  -3.6474189e-03   2.2041376e+00   1.6594927e+00  -1.9238914e+07
   7.0123374e-10  -3.6282241e-03   2.2027184e+00   1.6609031e+00  -1.9138036e+07
   7.0223408e-10  -3.6091300e-03   2.2013068e+00   1.6623068e+00  -1.9037682e+07
   7.0323441e-10  -3.5901359e-03   2.1999029e+00   1.6637039e+00  -1.8937852e+07
   7.0423474e-10  -3.5712415e-03   2.1985066e+00   1.6650942e+00  -1.8838542e+07
   7.0523508e-10  -3.5524461e-03   2.1971179e+00   1.6664780e+00  -1.8739749e+07
   7.0623541e-10  -3.5337493e-03   2.1957367e+00   1.6678552e+00  -1.8641471e+07
   7.0723575e-10  -3.5151506e-03   2.1943630e+00   1.6692258e+00  -1.8543705e+07
   7.0823608e-10  -3.4966494e-03   2.1929968e+00   1.6705899e+00  -1.8446449e+07
   7.0923641e-10  -3.4782453e-03   2.1916380e+00   1.6719475e+00  -1.8349699e+07
   7.1023675e-10  -3.4599376e-03   2.1902865e+00   1.6732986e+00  -1.8253454e+07
   7.1123708e-10  -3.4417260e-03   2.1889424e+00   1.6746432e+00  -1.8157710e+07
   7.1223741e-10  -3.4236100e-03   2.1876055e+00   1.6759815e+00  -1.8062465e+07
   7.1323775e-10  -3.4055889e-03   2.1862759e+00   1.6773133e+00  -1.7967717e+07
   7.1423808e-10  -3.3876624e-03   2.1849535e+00   1.6786387e+00  -1.7873463e+07
   7.1523841e-10  -3.3698299e-03   2.1836383e+00   1.6799578e+00  -1.7779700e+07
   7.1623875e-10  -3.3520910e-03   2.1823302e+00   1.6812706e+00  -1.7686426e+07
   7.1723908e-10  -3.3344451e-03   2.1810292e+00   1.6825771e+00  -1.7593638e+07
   7.1823941e-10  -3.3168918e-03   2.1797352e+00   1.6838773e+00  -1.7501335e+07
   7.1923975e-10  -3.2994306e-03   2.1784483e+00   1.6851713e+00  -1.7409512e+07
   7.2024008e-10  -3.2820611e-03   2.1771683e+00   1.6864591e+00  -1.7318168e+07
   7.2124041e-10  -3.2647826e-03   2.1758953e+00   1.6877406e+00  -1.7227301e+07
   7.2224075e-10  -3.2475948e-03   2.1746291e+00   1.6890161e+00  -1.7136908e+07
   7.2324108e-10  -3.2304972e-03   2.1733699e+00   1.6902853e+00  -1.7046986e+07
   7.2424141e-10  -3.2134894e-03   2.1721174e+00   1.6915485e+00  -1.6957533e+07
   7.2524175e-10  -3.1965707e-03   2.1708717e+00   1.6928056e+00  -1.6868546e+07
   7.2624208e-10  -3.1797409e-03   2.1696328e+00   1.6940566e+00  -1.6780024e+07
   7.2724241e-10  -3.1629993e-03   2.1684006e+00   1.6953016e+00  -1.6691964e+07
   7.2824275e-10  -3.1463457e-03   2.1671751e+00   1.6965406e+00  -1.6604363e+07
   7.2924308e-10  -3.1297794e-03   2.1659562e+00   1.6977736e+00  -1.6517219e+07
   7.3024341e-10  -3.1133001e-03   2.1647439e+00   1.6990006e+00  -1.6430529e+07
   7.3124375e-10  -3.0969073e-03   2.1635381e+00   1.7002217e+00  -1.6344292e+07
   7.3224408e-10  -3.0806005e-03   2.1623389e+00   1.7014369e+00  -1.6258505e+07
   7.3324441e-10  -3.0643793e-03   2.1611462e+00   1.7026463e+00  -1.6173166e+07
   7.3424475e-10  -3.0482432e-03   2.1599599e+00   1.7038498e+00  -1.6088272e+07
   7.3524508e-10  -3.0321918e-03   2.1587801e+00   1.7050474e+00  -1.6003821e+07
   7.3624542e-10  -3.0162248e-03   2.1576066e+00   1.7062392e+00  -1.5919811e+07
   7.3724575e-10  -3.0003415e-03   2.1564395e+00   1.7074253e+00  -1.5836240e+07
   7.3824608e-10  -2.9845416e-03   2.1552788e+00   1.7086056e+00  -1.5753104e+07
   7.3924642e-10  -2.9688246e-03   2.1541243e+00   1.7097802e+00  -1.5670403e+07
   7.4024675e-10  -2.9531902e-03   2.1529760e+00   1.7109490e+00  -1.5588133e+07
   7.4124708e-10  -2.9376378e-03   2.1518340e+00   1.7121122e+00  -1.5506293e+07
   7.4224742e-10  -2.9221671e-03   2.1506981e+00   1.7132698e+00  -1.5424880e+07
   7.4324775e-10  -2.9067776e-03   2.1495684e+00   1.7144217e+00  -1.5343892e+07
   7.4424808e-10  -2.8914690e-03   2.1484448e+00   1.7155680e+00  -1.5263327e+07
   7.4524842e-10  -2.8762407e-03   2.1473272e+00   1.7167087e+00  -1.5183182e+07
   7.4624875e-10  -2.8610924e-03   2.1462158e+00   1.7178438e+00  -1.5103457e+07
   7.4724908e-10  -2.8460236e-03   2.1451103e+00   1.7189735e+00  -1.5024147e+07
   7.4824942e-10  -2.8310339e-03   2.1440108e+00   1.7200976e+00  -1.4945252e+07
   7.4924975e-10  -2.8161230e-03   2.1429172e+00   1.7212162e+00  -1.4866768e+07
   7.5025008e-10  -2.8012903e-03   2.1418296e+00   1.7223294e+00  -1.4788695e+07
   7.5125042e-10  -2.7865356e-03   2.1407479e+00   1.7234371e+00  -1.4711029e+07
   7.5225075e-10  -2.7718583e-03   2.1396719e+00   1.7245394e+00  -1.4633770e+07
   7.5325108e-10  -2.7572582e-03   2.1386019e+00   1.7256364e+00  -1.4556913e+07
   7.5425142e-10  -2.7427347e-03   2.1375376e+00   1.7267279e+00  -1.4480458e+07
   7.5525175e-10  -2.7282875e-03   2.1364790e+00   1.7278142e+00  -1.4404403e+07
   7.5625208e-10  -2.7139161e-03   2.1354262e+00   1.7288951e+00  -1.4328745e+07
   7.5725242e-10  -2.6996203e-03   2.1343790e+00   1.7299707e+00  -1.4253482e+07
   7.5825275e-10  -2.6853995e-03   2.1333375e+00   1.7310410e+00  -1.4178612e+07
   7.5925308e-10  -2.6712535e-03   2.1323017e+00   1.7321061e+00  -1.4104134e+07
   7.6025342e-10  -2.6571817e-03   2.1312714e+00   1.7331660e+00  -1.4030045e+07
   7.6125375e-10  -2.6431839e-03   2.1302468e+00   1.7342207e+00  -1.3956343e+07
   7.6225408e-10  -2.6292596e-03   2.1292276e+00   1.7352702e+00  -1.3883026e+07
   7.6325442e-10  -2.6154085e-03   2.1282139e+00   1.7363145e+00  -1.3810092e+07
   7.6425475e-10  -2.6016301e-03   2.1272058e+00   1.7373537e+00  -1.3737540e+07
   7.6525509e-10  -2.5879241e-03   2.1262030e+00   1.7383878e+00  -1.3665367e+07
   7.6625542e-10  -2.5742901e-03   2.1252057e+00   1.7394168e+00  -1.3593571e+07
   7.6725575e-10  -2.5607278e-03   2.1242138e+00   1.7404408e+00  -1.3522150e+07
   7.6825609e-10  -2.5472367e-03   2.1232272e+00   1.7414597e+00  -1.3451103e+07
   7.6925642e-10  -2.5338165e-03   2.1222460e+00   1.7424736e+00  -1.3380427e+07
   7.7025675e-10  -2.5204668e-03   2.1212701e+00   1.7434825e+00  -1.3310120e+07
   7.7125709e-10  -2.5071872e-03   2.1202994e+00   1.7444864e+00  -1.3240181e+07
   7.7225742e-10  -2.4939775e-03   2.1193339e+00   1.7454854e+00  -1.3170608e+07
   7.7325775e-10  -2.4808371e-03   2.1183737e+00   1.7464795e+00  -1.3101399e+07
   7.7425809e-10  -2.4677658e-03   2.1174187e+00   1.7474686e+00  -1.3032551e+07
   7.7525842e-10  -2.4547632e-03   2.1164688e+00   1.7484529e+00  -1.2964064e+07
   7.7625875e-10  -2.4418289e-03   2.1155240e+00   1.7494323e+00  -1.2895934e+07
   7.7725909e-10  -2.4289626e-03   2.1145844e+00   1.7504069e+00  -1.2828161e+07
   7.7825942e-10  -2.4161639e-03   2.1136498e+00   1.7513766e+00  -1.2760743e+07
   7.7925975e-10  -2.4034325e-03   2.1127202e+00   1.7523416e+00  -1.2693677e+07
   7.8026009e-10  -2.3907680e-03   2.1117957e+00   1.7533018e+00  -1.2626961e+07
   7.8126042e-10  -2.3781701e-03   2.1108762e+00   1.7542572e+00  -1.2560595e+07
   7.8226075e-10  -2.3656383e-03   2.1099616e+00   1.7552079e+00  -1.2494576e+07
   7.8326109e-10  -2.3531725e-03   2.1090519e+00   1.7561539e+00  -1.2428902e+07
   7.8426142e-10  -2.3407721e-03   2.1081472e+00   1.7570952e+00  -1.2363572e+07
   7.8526175e-10  -2.3284370e-03   2.1072473e+00   1.7580318e+00  -1.2298584e+07
   7.8626209e-10  -2.3161666e-03   2.1063523e+00   1.7589638e+00  -1.2233935e+07
   7.8726242e-10  -2.3039608e-03   2.1054621e+00   1.7598912e+00  -1.2169625e+07
   7.8826275e-10  -2.2918192e-03   2.1045767e+00   1.7608140e+00  -1.2105651e+07
   7.8926309e-10  -2.2797413e-03   2.1036961e+00   1.7617322e+00  -1.2042012e+07
   7.9026342e-10  -2.2677270e-03   2.1028203e+00   1.7626458e+00  -1.1978706e+07
   7.9126375e-10  -2.2557758e-03   2.1019491e+00   1.7635549e+00  -1.1915732e+07
   7.9226409e-10  -2.2438875e-03   2.1010827e+00   1.7644595e+00  -1.1853087e+07
   7.9326442e-10  -2.2320616e-03   2.1002209e+00   1.7653595e+00  -1.1790769e+07
   7.9426475e-10  -2.2202980e-03   2.0993638e+00   1.7662552e+00  -1.1728778e+07
   7.9526509e-10  -2.2085961e-03   2.0985113e+00   1.7671463e+00  -1.1667112e+07
   7.9626542e-10  -2.1969558e-03   2.0976633e+00   1.7680330e+00  -1.1605768e+07
   7.9726576e-10  -2.1853768e-03   2.0968200e+00   1.7689153e+00  -1.1544745e+07
   7.9826609e-10  -2.1738585e-03   2.0959812e+00   1.7697932e+00  -1.1484041e+07
   7.9926642e-10  -2.1624009e-03   2.0951469e+00   1.7706668e+00  -1.1423656e+07
   8.0026676e-10  -2.1510035e-03   2.0943171e+00   1.7715359e+00  -1.1363586e+07
   8.0126709e-10  -2.1396660e-03   2.0934918e+00   1.7724008e+00  -1.1303831e+07
   8.0226742e-10  -2.1283882e-03   2.0926709e+00   1.7732613e+00  -1.1244389e+07
   8.0326776e-10  -2.1171697e-03   2.0918545e+00   1.7741176e+00  -1.1185258e+07
   8.0426809e-10  -2.1060101e-03   2.0910424e+00   1.7749695e+00  -1.1126437e+07
   8.0526842e-10  -2.0949093e-03   2.0902347e+00   1.7758173e+00  -1.1067923e+07
   8.0626876e-10  -2.0838668e-03   2.0894314e+00   1.7766607e+00  -1.1009717e+07
   8.0726909e-10  -2.0728824e-03   2.0886324e+00   1.7775000e+00  -1.0951814e+07
   8.0826942e-10  -2.0619558e-03   2.0878377e+00   1.7783351e+00  -1.0894215e+07
   8.0926976e-10  -2.0510866e-03   2.0870472e+00   1.7791660e+00  -1.0836918e+07
   8.1027009e-10  -2.0402746e-03   2.0862611e+00   1.7799927e+00  -1.0779921e+07
   8.1127042e-10  -2.0295195e-03   2.0854791e+00   1.7808153e+00  -1.0723222e+07
   8.1227076e-10  -2.0188209e-03   2.0847014e+00   1.7816338e+00  -1.0666820e+07
   8.1327109e-10  -2.0081786e-03   2.0839279e+00   1.7824482e+00  -1.0610714e+07
   8.1427142e-10  -1.9975923e-03   2.0831585e+00   1.7832586e+00  -1.0554902e+07
   8.1527176e-10  -1.9870617e-03   2.0823932e+00   1.7840648e+00  -1.0499382e+07
   8.1627209e-10  -1.9765864e-03   2.0816321e+00   1.7848671e+00  -1.0444152e+07
   8.1727242e-10  -1.9661663e-03   2.0808751e+00   1.7856653e+00  -1.0389212e+07
   8.1827276e-10  -1.9558010e-03   2.0801221e+00   1.7864595e+00  -1.0334560e+07
   8.1927309e-10  -1.9454902e-03   2.0793732e+00   1.7872497e+00  -1.0280194e+07
   8.2027342e-10  -1.9352336e-03   2.0786283e+00   1.7880359e+00  -1.0226114e+07
   8.2127376e-10  -1.9250310e-03   2.0778875e+00   1.7888183e+00  -1.0172316e+07
   8.2227409e-10  -1.9148821e-03   2.0771506e+00   1.7895966e+00  -1.0118800e+07
   8.2327442e-10  -1.9047866e-03   2.0764177e+00   1.7903711e+00  -1.0065565e+07
   8.2427476e-10  -1.8947442e-03   2.0756887e+00   1.7911417e+00  -1.0012609e+07
   8.2527509e-10  -1.8847546e-03   2.0749636e+00   1.7919084e+00  -9.9599298e+06
   8.2627543e-10  -1.8748176e-03   2.0742425e+00   1.7926713e+00  -9.9075270e+06
   8.2727576e-10  -1.8649328e-03   2.0735252e+00   1.7934303e+00  -9.8553989e+06
   8.2827609e-10  -1.8551001e-03   2.0728118e+00   1.7941855e+00  -9.8035439e+06
   8.2927643e-10  -1.8453191e-03   2.0721022e+00   1.7949369e+00  -9.7519608e+06
   8.3027676e-10  -1.8355896e-03   2.0713964e+00   1.7956846e+00  -9.7006479e+06
   8.3127709e-10  -1.8259113e-03   2.0706944e+00   1.7964284e+00  -9.6496041e+06
   8.3227743e-10  -1.8162839e-03   2.0699962e+00   1.7971686e+00  -9.5988278e+06
   8.3327776e-10  -1.8067071e-03   2.0693017e+00   1.7979050e+00  -9.5483177e+06
   8.3427809e-10  -1.7971808e-03   2.0686110e+00   1.7986377e+00  -9.4980723e+06
   8.3527843e-10  -1.7877046e-03   2.0679240e+00   1.7993667e+00  -9.4480904e+06
   8.3627876e-10  -1.7782782e-03   2.0672407e+00   1.8000920e+00  -9.3983704e+06
   8.3727909e-10  -1.7689015e-03   2.0665610e+00   1.8008137e+00  -9.3489112e+06
   8.3827943e-10  -1.7595741e-03   2.0658850e+00   1.8015317e+00  -9.2997112e+06
   8.3927976e-10  -1.7502957e-03   2.0652127e+00   1.8022461e+00  -9.2507692e+06
   8.4028009e-10  -1.7410663e-03   2.0645439e+00   1.8029569e+00  -9.2020838e+06
   8.4128043e-10  -1.7318854e-03   2.0638787e+00   1.8036641e+00  -9.1536537e+06
   8.4228076e-10  -1.7227528e-03   2.0632172e+00   1.8043678e+00  -9.1054776e+06
   8.4328109e-10  -1.7136682e-03   2.0625591e+00   1.8050679e+00  -9.0575540e+06
   8.4428143e-10  -1.7046315e-03   2.0619046e+00   1.8057644e+00  -9.0098818e+06
   8.4528176e-10  -1.6956424e-03   2.0612536e+00   1.8064575e+00  -8.9624596e+06
   8.4628209e-10  -1.6867005e-03   2.0606061e+00   1.8071470e+00  -8.9152861e+06
   8.4728243e-10  -1.6778058e-03   2.0599621e+00   1.8078331e+00  -8.8683600e+06
   8.4828276e-10  -1.6689578e-03   2.0593216e+00   1.8085157e+00  -8.8216800e+06
   8.4928309e-10  -1.6601564e-03   2.0586844e+00   1.8091948e+00  -8.7752448e+06
   8.5028343e-10  -1.6514014e-03   2.0580507e+00   1.8098705e+00  -8.7290532e+06
   8.5128376e-10  -1.6426924e-03   2.0574205e+00   1.8105428e+00  -8.6831039e+06
   8.5228409e-10  -1.6340293e-03   2.0567935e+00   1.8112116e+00  -8.6373956e+06
   8.5328443e-10  -1.6254118e-03   2.0561700e+00   1.8118771e+00  -8.5919270e+06
   8.5428476e-10  -1.6168397e-03   2.0555498e+00   1.8125393e+00  -8.5466970e+06
   8.5528510e-10  -1.6083126e-03   2.0549329e+00   1.8131980e+00  -8.5017043e+06
   8.5628543e-10  -1.5998305e-03   2.0543194e+00   1.8138535e+00  -8.4569476e+06
   8.5728576e-10  -1.5913930e-03   2.0537091e+00   1.8145056e+00  -8.4124257e+06
   8.5828610e-10  -1.5829999e-03   2.0531021e+00   1.8151544e+00  -8.3681374e+06
   8.5928643e-10  -1.5746511e-03   2.0524983e+00   1.8157999e+00  -8.3240815e+06
   8.6028676e-10  -1.5663462e-03   2.0518978e+00   1.8164421e+00  -8.2802567e+06
   8.6128710e-10  -1.5580850e-03   2.0513006e+00   1.8170811e+00  -8.2366619e+06
   8.6228743e-10  -1.5498673e-03   2.0507065e+00   1.8177169e+00  -8.1932958e+06
   8.6328776e-10  -1.5416928e-03   2.0501156e+00   1.8183494e+00  -8.1501573e+06
   8.6428810e-10  -1.5335614e-03   2.0495279e+00   1.8189787e+00  -8.1072452e+06
   8.6528843e-10  -1.5254728e-03   2.0489433e+00   1.8196048e+00  -8.0645582e+06
   8.6628876e-10  -1.5174269e-03   2.0483619e+00   1.8202278e+00  -8.0220953e+06
   8.6728910e-10  -1.5094232e-03   2.0477836e+00   1.8208475e+00  -7.9798552e+06
   8.6828943e-10  -1.5014617e-03   2.0472084e+00   1.8214642e+00  -7.9378368e+06
   8.6928976e-10  -1.4935422e-03   2.0466362e+00   1.8220776e+00  -7.8960390e+06
   8.7029010e-10  -1.4856643e-03   2.0460672e+00   1.8226880e+00  -7.8544605e+06
   8.7129043e-10  -1.4778280e-03   2.0455012e+00   1.8232953e+00  -7.8131003e+06
   8.7229076e-10  -1.4700328e-03   2.0449382e+00   1.8238995e+00  -7.7719571e+06
   8.7329110e-10  -1.4622788e-03   2.0443782e+00   1.8245006e+00  -7.7310300e+06
   8.7429143e-10  -1.4545656e-03   2.0438213e+00   1.8250986e+00  -7.6903176e+06
   8.7529176e-10  -1.4468929e-03   2.0432673e+00   1.8256936e+00  -7.6498190e+06
   8.7629210e-10  -1.4392607e-03   2.0427163e+00   1.8262856e+00  -7.6095330e+06
   8.7729243e-10  -1.4316687e-03   2.0421682e+00   1.8268746e+00  -7.5694585e+06
   8.7829276e-10  -1.4241167e-03   2.0416231e+00   1.8274605e+00  -7.5295943e+06
   8.7929310e-10  -1.4166044e-03   2.0410809e+00   1.8280435e+00  -7.4899395e+06
   8.8029343e-10  -1.4091318e-03   2.0405416e+00   1.8286235e+00  -7.4504928e+06
   8.8129376e-10  -1.4016984e-03   2.0400052e+00   1.8292006e+00  -7.4112533e+06
   8.8229410e-10  -1.3943042e-03   2.0394717e+00   1.8297747e+00  -7.3722198e+06
   8.8329443e-10  -1.3869490e-03   2.0389411e+00   1.8303459e+00  -7.3333912e+06
   8.8429476e-10  -1.3796325e-03   2.0384132e+00   1.8309142e+00  -7.2947666e+06
   8.8529510e-10  -1.3723545e-03   2.0378882e+00   1.8314796e+00  -7.2563447e+06
   8.8629543e-10  -1.3651149e-03   2.0373661e+00   1.8320421e+00  -7.2181247e+06
   8.8729577e-10  -1.3579134e-03   2.0368467e+00   1.8326017e+00  -7.1801053e+06
   8.8829610e-10  -1.3507498e-03   2.0363301e+00   1.8331585e+00  -7.1422856e+06
   8.8929643e-10  -1.3436240e-03   2.0358162e+00   1.8337124e+00  -7.1046645e+06
   8.9029677e-10  -1.3365357e-03   2.0353051e+00   1.8342635e+00  -7.0672410e+06
   8.9129710e-10  -1.3294847e-03   2.0347968e+00   1.8348118e+00  -7.0300140e+06
   8.9229743e-10  -1.3224709e-03   2.0342912e+00   1.8353573e+00  -6.9929826e+06
   8.9329777e-10  -1.3154940e-03   2.0337882e+00   1.8359000e+00  -6.9561456e+06
   8.9429810e-10  -1.3085539e-03   2.0332880e+00   1.8364400e+00  -6.9195022e+06
   8.9529843e-10  -1.3016503e-03   2.0327905e+00   1.8369772e+00  -6.8830512e+06
   8.9629877e-10  -1.2947831e-03   2.0322956e+00   1.8375116e+00  -6.8467917e+06
   8.9729910e-10  -1.2879521e-03   2.0318033e+00   1.8380433e+00  -6.8107226e+06
   8.9829943e-10  -1.2811571e-03   2.0313137e+00   1.8385723e+00  -6.7748430e+06
   8.9929977e-10  -1.2743979e-03   2.0308267e+00   1.8390986e+00  -6.7391519e+06
   9.0030010e-10  -1.2676742e-03   2.0303424e+00   1.8396222e+00  -6.7036484e+06
   9.0130043e-10  -1.2609860e-03   2.0298606e+00   1.8401431e+00  -6.6683313e+06
   9.0230077e-10  -1.2543331e-03   2.0293814e+00   1.8406613e+00  -6.6331998e+06
   9.0330110e-10  -1.2477151e-03   2.0289047e+00   1.8411769e+00  -6.5982528e+06
   9.0430143e-10  -1.2411321e-03   2.0284306e+00   1.8416899e+00  -6.5634895e+06
   9.0530177e-10  -1.2345837e-03   2.0279591e+00   1.8422002e+00  -6.5289088e+06
   9.0630210e-10  -1.2280698e-03   2.0274900e+00   1.8427079e+00  -6.4945098e+06
   9.0730243e-10  -1.2215903e-03   2.0270235e+00   1.8432130e+00  -6.4602915e+06
   9.0830277e-10  -1.2151449e-03   2.0265595e+00   1.8437156e+00  -6.4262531e+06
   9.0930310e-10  -1.2087334e-03   2.0260979e+00   1.8442155e+00  -6.3923935e+06
   9.1030343e-10  -1.2023558e-03   2.0256389e+00   1.8447129e+00  -6.3587118e+06
   9.1130377e-10  -1.1960117e-03   2.0251822e+00   1.8452078e+00  -6.3252071e+06
   9.1230410e-10  -1.1897011e-03   2.0247281e+00   1.8457001e+00  -6.2918786e+06
   9.1330443e-10  -1.1834237e-03   2.0242763e+00   1.8461899e+00  -6.2587251e+06
   9.1430477e-10  -1.1771794e-03   2.0238270e+00   1.8466772e+00  -6.2257459e+06
   9.1530510e-10  -1.1709680e-03   2.0233800e+00   1.8471619e+00  -6.1929400e+06
   9.1630544e-10  -1.1647893e-03   2.0229355e+00   1.8476442e+00  -6.1603065e+06
   9.1730577e-10  -1.1586432e-03   2.0224933e+00   1.8481241e+00  -6.1278446e+06
   9.1830610e-10  -1.1525295e-03   2.0220535e+00   1.8486014e+00  -6.0955532e+06
   9.1930644e-10  -1.1464480e-03   2.0216161e+00   1.8490763e+00  -6.0634316e+06
   9.2030677e-10  -1.1403985e-03   2.0211810e+00   1.8495488e+00  -6.0314788e+06
   9.2130710e-10  -1.1343810e-03   2.0207482e+00   1.8500189e+00  -5.9996940e+06
   9.2230744e-10  -1.1283951e-03   2.0203177e+00   1.8504865e+00  -5.9680763e+06
   9.2330777e-10  -1.1224408e-03   2.0198895e+00   1.8509517e+00  -5.9366247e+06
   9.2430810e-10  -1.1165178e-03   2.0194636e+00   1.8514146e+00  -5.9053385e+06
   9.2530844e-10  -1.1106261e-03   2.0190400e+00   1.8518750e+00  -5.8742168e+06
   9.2630877e-10  -1.1047654e-03   2.0186187e+00   1.8523331e+00  -5.8432587e+06
   9.2730910e-10  -1.0989356e-03   2.0181996e+00   1.8527889e+00  -5.8124633e+06
   9.2830944e-10  -1.0931366e-03   2.0177828e+00   1.8532423e+00  -5.7818298e+06
   9.2930977e-10  -1.0873680e-03   2.0173681e+00   1.8536934e+00  -5.7513574e+06
   9.3031010e-10  -1.0816299e-03   2.0169557e+00   1.8541421e+00  -5.7210451e+06
   9.3131044e-10  -1.0759221e-03   2.0165455e+00   1.8545886e+00  -5.6908923e+06
   9.3231077e-10  -1.0702443e-03   2.0161375e+00   1.8550328e+00  -5.6608980e+06
   9.3331110e-10  -1.0645965e-03   2.0157317e+00   1.8554746e+00  -5.6310614e+06
   9.3431144e-10  -1.0589784e-03   2.0153280e+00   1.8559142e+00  -5.6013817e+06
   9.3531177e-10  -1.0533899e-03   2.0149265e+00   1.8563516e+00  -5.5718580e+06
   9.3631210e-10  -1.0478309e-03   2.0145271e+00   1.8567867e+00  -5.5424896e+06
   9.3731244e-10  -1.0423012e-03   2.0141299e+00   1.8572195e+00  -5.5132756e+06
   9.3831277e-10  -1.0368006e-03   2.0137348e+00   1.8576501e+00  -5.4842152e+06
   9.3931310e-10  -1.0313290e-03   2.0133418e+00   1.8580785e+00  -5.4553077e+06
   9.4031344e-10  -1.0258863e-03   2.0129509e+00   1.8585047e+00  -5.4265522e+06
   9.4131377e-10  -1.0204723e-03   2.0125620e+00   1.8589288e+00  -5.3979479e+06
   9.4231410e-10  -1.0150868e-03   2.0121753e+00   1.8593506e+00  -5.3694940e+06
   9.4331444e-10  -1.0097296e-03   2.0117906e+00   1.8597702e+00  -5.3411898e+06
   9.4431477e-10  -1.0044008e-03   2.0114080e+00   1.8601877e+00  -5.3130344e+06
   9.4531511e-10  -9.9909997e-04   2.0110274e+00   1.8606031e+00  -5.2850272e+06
   9.4631544e-10  -9.9382713e-04   2.0106489e+00   1.8610163e+00  -5.2571672e+06
   9.4731577e-10  -9.8858208e-04   2.0102724e+00   1.8614273e+00  -5.2294538e+06
   9.4831611e-10  -9.8336468e-04   2.0098979e+00   1.8618363e+00  -5.2018861e+06
   9.4931644e-10  -9.7817479e-04   2.0095253e+00   1.8622431e+00  -5.1744634e+06
   9.5031677e-10  -9.7301226e-04   2.0091548e+00   1.8626479e+00  -5.1471850e+06
   9.5131711e-10  -9.6787694e-04   2.0087863e+00   1.8630505e+00  -5.1200501e+06
   9.5231744e-10  -9.6276869e-04   2.0084197e+00   1.8634511e+00  -5.0930579e+06
   9.5331777e-10  -9.5768738e-04   2.0080551e+00   1.8638497e+00  -5.0662076e+06
   9.5431811e-10  -9.5263285e-04   2.0076924e+00   1.8642461e+00  -5.0394987e+06
   9.5531844e-10  -9.4760497e-04   2.0073316e+00   1.8646405e+00  -5.0129302e+06
   9.5631877e-10  -9.4260360e-04   2.0069728e+00   1.8650329e+00  -4.9865015e+06
   9.5731911e-10  -9.3762859e-04   2.0066159e+00   1.8654233e+00  -4.9602119e+06
   9.5831944e-10  -9.3267982e-04   2.0062609e+00   1.8658116e+00  -4.9340605e+06
   9.5931977e-10  -9.2775713e-04   2.0059078e+00   1.8661980e+00  -4.9080468e+06
   9.6032011e-10  -9.2286040e-04   2.0055566e+00   1.8665823e+00  -4.8821699e+06
   9.6132044e-10  -9.1798949e-04   2.0052072e+00   1.8669647e+00  -4.8564291e+06
   9.6232077e-10  -9.1314426e-04   2.0048597e+00   1.8673451e+00  -4.8308238e+06
   9.6332111e-10  -9.0832457e-04   2.0045141e+00   1.8677235e+00  -4.8053532e+06
   9.6432144e-10  -9.0353030e-04   2.0041703e+00   1.8681000e+00  -4.7800166e+06
   9.6532177e-10  -8.9876131e-04   2.0038284e+00   1.8684745e+00  -4.7548134e+06
   9.6632211e-10  -8.9401746e-04   2.0034882e+00   1.8688471e+00  -4.7297427e+06
   9.6732244e-10  -8.8929862e-04   2.0031499e+00   1.8692177e+00  -4.7048040e+06
   9.6832277e-10  -8.8460466e-04   2.0028134e+00   1.8695865e+00  -4.6799965e+06
   9.6932311e-10  -8.7993546e-04   2.0024787e+00   1.8699533e+00  -4.6553195e+06
   9.7032344e-10  -8.7529088e-04   2.0021458e+00   1.8703183e+00  -4.6307724e+06
   9.7132377e-10  -8.7067078e-04   2.0018146e+00   1.8706813e+00  -4.6063545e+06
   9.7232411e-10  -8.6607505e-04   2.0014852e+00   1.8710425e+00  -4.5820651e+06
   9.7332444e-10  -8.6150355e-04   2.0011576e+00   1.8714018e+00  -4.5579035e+06
   9.7432477e-10  -8.5695616e-04   2.0008317e+00   1.8717593e+00  -4.5338690e+06
   9.7532511e-10  -8.5243275e-04   2.0005075e+00   1.8721149e+00  -4.5099611e+06
   9.7632544e-10  -8.4793319e-04   2.0001851e+00   1.8724687e+00  -4.4861790e+06
   9.7732578e-10  -8.4345735e-04   1.9998644e+00   1.8728206e+00  -4.4625220e+06
   9.7832611e-10  -8.3900512e-04   1.9995454e+00   1.8731707e+00  -4.4389896e+06
   9.7932644e-10  -8.3457637e-04   1.9992281e+00   1.8735191e+00  -4.4155810e+06
   9.8032678e-10  -8.3017097e-04   1.9989125e+00   1.8738656e+00  -4.3922956e+06
   9.8132711e-10  -8.2578881e-04   1.9985986e+00   1.8742103e+00  -4.3691327e+06
   9.8232744e-10  -8.2142975e-04   1.9982864e+00   1.8745532e+00  -4.3460918e+06
   9.8332778e-10  -8.1709368e-04   1.9979758e+00   1.8748944e+00  -4.3231722e+06
   9.8432811e-10  -8.1278048e-04   1.9976669e+00   1.8752338e+00  -4.3003732e+06
   9.8532844e-10  -8.0849003e-04   1.9973596e+00   1.8755714e+00  -4.2776943e+06
   9.8632878e-10  -8.0422220e-04   1.9970539e+00   1.8759073e+00  -4.2551347e+06
   9.8732911e-10  -7.9997688e-04   1.9967499e+00   1.8762414e+00  -4.2326938e+06
   9.8832944e-10  -7.9575395e-04   1.9964475e+00   1.8765738e+00  -4.2103711e+06
   9.8932978e-10  -7.9155329e-04   1.9961468e+00   1.8769045e+00  -4.1881659e+06
   9.9033011e-10  -7.8737478e-04   1.9958476e+00   1.8772335e+00  -4.1660776e+06
   9.9133044e-10  -7.8321831e-04   1.9955500e+00   1.8775608e+00  -4.1441056e+06
   9.9233078e-10  -7.7908377e-04   1.9952540e+00   1.8778863e+00  -4.1222493e+06
   9.9333111e-10  -7.7497103e-04   1.9949596e+00   1.8782102e+00  -4.1005080e+06
   9.9433144e-10  -7.7087998e-04   1.9946667e+00   1.8785324e+00  -4.0788812e+06
   9.9533178e-10  -7.6681050e-04   1.9943754e+00   1.8788530e+00  -4.0573682e+06
   9.9633211e-10  -7.6276249e-04   1.9940857e+00   1.8791719e+00  -4.0359685e+06
   9.9733244e-10  -7.5873584e-04   1.9937975e+00   1.8794891e+00  -4.0146815e+06
   9.9833278e-10  -7.5473041e-04   1.9935108e+00   1.8798047e+00  -3.9935066e+06
   9.9933311e-10  -7.5074612e-04   1.9932257e+00   1.8801186e+00  -3.9724431e+06
   1.0003334e-09  -7.4678284e-04   1.9929421e+00   1.8804309e+00  -3.9514906e+06
   1.0013338e-09  -7.4284047e-04   1.9926600e+00   1.8807416e+00  -3.9306484e+06
   1.0023341e-09  -7.3891888e-04   1.9923794e+00   1.8810507e+00  -3.9099159e+06
   1.0033344e-09  -7.3501799e-04   1.9921003e+00   1.8813582e+00  -3.8892926e+06
   1.0043348e-09  -7.3113767e-04   1.9918226e+00   1.8816641e+00  -3.8687779e+06
   1.0053351e-09  -7.2727782e-04   1.9915465e+00   1.8819684e+00  -3.8483712e+06
   1.0063354e-09  -7.2343832e-04   1.9912718e+00   1.8822711e+00  -3.8280720e+06
   1.0073358e-09  -7.1961908e-04   1.9909986e+00   1.8825723e+00  -3.8078796e+06
   1.0083361e-09  -7.1581999e-04   1.9907268e+00   1.8828719e+00  -3.7877936e+06
   1.0093364e-09  -7.1204093e-04   1.9904565e+00   1.8831699e+00  -3.7678134e+06
   1.0103368e-09  -7.0828181e-04   1.9901877e+00   1.8834664e+00  -3.7479384e+06
   1.0113371e-09  -7.0454252e-04   1.9899202e+00   1.8837613e+00  -3.7281681e+06
   1.0123374e-09  -7.0082295e-04   1.9896542e+00   1.8840547e+00  -3.7085019e+06
   1.0133378e-09  -6.9712301e-04   1.9893896e+00   1.8843466e+00  -3.6889392e+06
   1.0143381e-09  -6.9344258e-04   1.9891264e+00   1.8846370e+00  -3.6694796e+06
   1.0153384e-09  -6.8978156e-04   1.9888646e+00   1.8849259e+00  -3.6501225e+06
   1.0163388e-09  -6.8613986e-04   1.9886042e+00   1.8852132e+00  -3.6308673e+06
   1.0173391e-09  -6.8251737e-04   1.9883452e+00   1.8854991e+00  -3.6117135e+06
   1.0183394e-09  -6.7891399e-04   1.9880876e+00   1.8857835e+00  -3.5926607e+06
   1.0193398e-09  -6.7532962e-04   1.9878313e+00   1.8860664e+00  -3.5737081e+06
   1.0203401e-09  -6.7176416e-04   1.9875764e+00   1.8863479e+00  -3.5548554e+06
   1.0213404e-09  -6.6821750e-04   1.9873229e+00   1.8866278e+00  -3.5361020e+06
   1.0223408e-09  -6.6468956e-04   1.9870707e+00   1.8869064e+00  -3.5174474e+06
   1.0233411e-09  -6.6118023e-04   1.9868198e+00   1.8871834e+00  -3.4988910e+06
   1.0243414e-09  -6.5768941e-04   1.9865703e+00   1.8874591e+00  -3.4804324e+06
   1.0253418e-09  -6.5421701e-04   1.9863222e+00   1.8877333e+00  -3.4620710e+06
   1.0263421e-09  -6.5076293e-04   1.9860753e+00   1.8880061e+00  -3.4438064e+06
   1.0273424e-09  -6.4732707e-04   1.9858297e+00   1.8882774e+00  -3.4256379e+06
   1.0283428e-09  -6.4390933e-04   1.9855855e+00   1.8885474e+00  -3.4075651e+06
   1.0293431e-09  -6.4050963e-04   1.9853425e+00   1.8888159e+00  -3.3895876e+06
   1.0303434e-09  -6.3712787e-04   1.9851009e+00   1.8890831e+00  -3.3717048e+06
   1.0313438e-09  -6.3376394e-04   1.9848605e+00   1.8893488e+00  -3.3539161e+06
   1.0323441e-09  -6.3041776e-04   1.9846214e+00   1.8896132e+00  -3.3362212e+06
   1.0333444e-09  -6.2708924e-04   1.9843836e+00   1.8898762e+00  -3.3186195e+06
   1.0343448e-09  -6.2377828e-04   1.9841471e+00   1.8901378e+00  -3.3011105e+06
   1.0353451e-09  -6.2048479e-04   1.9839118e+00   1.8903981e+00  -3.2836938e+06
   1.0363454e-09  -6.1720867e-04   1.9836777e+00   1.8906570e+00  -3.2663688e+06
   1.0373458e-09  -6.1394984e-04   1.9834449e+00   1.8909146e+00  -3.2491351e+06
   1.0383461e-09  -6.1070820e-04   1.9832134e+00   1.8911708e+00  -3.2319922e+06
   1.0393464e-09  -6.0748367e-04   1.9829831e+00   1.8914257e+00  -3.2149397e+06
   1.0403468e-09  -6.0427615e-04   1.9827540e+00   1.8916793e+00  -3.1979769e+06
   1.0413471e-09  -6.0108555e-04   1.9825261e+00   1.8919315e+00  -3.1811036e+06
   1.0423474e-09  -5.9791179e-04   1.9822994e+00   1.8921825e+00  -3.1643191e+06
   1.0433478e-09  -5.9475477e-04   1.9820739e+00   1.8924321e+00  -3.1476231e+06
   1.0443481e-09  -5.9161441e-04   1.9818497e+00   1.8926804e+00  -3.1310151e+06
   1.0453484e-09  -5.8849062e-04   1.9816266e+00   1.8929275e+00  -3.1144945e+06
   1.0463488e-09  -5.8538332e-04   1.9814047e+00   1.8931732e+00  -3.0980610e+06
   1.0473491e-09  -5.8229241e-04   1.9811840e+00   1.8934177e+00  -3.0817141e+06
   1.0483494e-09  -5.7921780e-04   1.9809645e+00   1.8936609e+00  -3.0654534e+06
   1.0493498e-09  -5.7615942e-04   1.9807461e+00   1.8939028e+00  -3.0492783e+06
   1.0503501e-09  -5.7311718e-04   1.9805289e+00   1.8941435e+00  -3.0331885e+06
   1.0513505e-09  -5.7009100e-04   1.9803128e+00   1.8943829e+00  -3.0171834e+06
   1.0523508e-09  -5.6708078e-04   1.9800979e+00   1.8946211e+00  -3.0012627e+06
   1.0533511e-09  -5.6408644e-04   1.9798842e+00   1.8948580e+00  -2.9854259e+06
   1.0543515e-09  -5.6110790e-04   1.9796716e+00   1.8950937e+00  -2.9696725e+06
   1.0553518e-09  -5.5814509e-04   1.9794601e+00   1.8953281e+00  -2.9540022e+06
   1.0563521e-09  -5.5519790e-04   1.9792497e+00   1.8955614e+00  -2.9384144e+06
   1.0573525e-09  -5.5226627e-04   1.9790404e+00   1.8957934e+00  -2.9229088e+06
   1.0583528e-09  -5.4935011e-04   1.9788323e+00   1.8960242e+00  -2.9074849e+06
   1.0593531e-09  -5.4644933e-04   1.9786253e+00   1.8962538e+00  -2.8921423e+06
   1.0603535e-09  -5.4356386e-04   1.9784193e+00   1.8964823e+00  -2.8768805e+06
   1.0613538e-09  -5.4069362e-04   1.9782145e+00   1.8967095e+00  -2.8616992e+06
   1.0623541e-09  -5.3783853e-04   1.9780108e+00   1.8969355e+00  -2.8465979e+06
   1.0633545e-09  -5.3499850e-04   1.9778081e+00   1.8971604e+00  -2.8315762e+06
   1.0643548e-09  -5.3217346e-04   1.9776065e+00   1.8973841e+00  -2.8166337e+06
   1.0653551e-09  -5.2936333e-04   1.9774060e+00   1.8976066e+00  -2.8017699e+06
   1.0663555e-09  -5.2656803e-04   1.9772065e+00   1.8978280e+00  -2.7869844e+06
   1.0673558e-09  -5.2378748e-04   1.9770082e+00   1.8980482e+00  -2.7722769e+06
   1.0683561e-09  -5.2102160e-04   1.9768108e+00   1.8982672e+00  -2.7576469e+06
   1.0693565e-09  -5.1827032e-04   1.9766145e+00   1.8984851e+00  -2.7430940e+06
   1.0703568e-09  -5.1553355e-04   1.9764193e+00   1.8987019e+00  -2.7286178e+06
   1.0713571e-09  -5.1281123e-04   1.9762251e+00   1.8989176e+00  -2.7142179e+06
   1.0723575e-09  -5.1010328e-04   1.9760319e+00   1.8991321e+00  -2.6998939e+06
   1.0733578e-09  -5.0740962e-04   1.9758398e+00   1.8993455e+00  -2.6856455e+06
   1.0743581e-09  -5.0473017e-04   1.9756486e+00   1.8995578e+00  -2.6714721e+06
   1.0753585e-09  -5.0206487e-04   1.9754585e+00   1.8997690e+00  -2.6573734e+06
   1.0763588e-09  -4.9941363e-04   1.9752694e+00   1.8999791e+00  -2.6433491e+06
   1.0773591e-09  -4.9677638e-04   1.9750813e+00   1.9001880e+00  -2.6293987e+06
   1.0783595e-09  -4.9415305e-04   1.9748942e+00   1.9003959e+00  -2.6155218e+06
   1.0793598e-09  -4.9154357e-04   1.9747081e+00   1.9006027e+00  -2.6017181e+06
   1.0803601e-09  -4.8894786e-04   1.9745230e+00   1.9008085e+00  -2.5879871e+06
   1.0813605e-09  -4.8636584e-04   1.9743389e+00   1.9010131e+00  -2.5743285e+06
   1.0823608e-09  -4.8379746e-04   1.9741557e+00   1.9012167e+00  -2.5607420e+06
   1.0833611e-09  -4.8124263e-04   1.9739735e+00   1.9014192e+00  -2.5472270e+06
   1.0843615e-09  -4.7870128e-04   1.9737923e+00   1.9016207e+00  -2.5337833e+06
   1.0853618e-09  -4.7617335e-04   1.9736121e+00   1.9018211e+00  -2.5204105e+06
   1.0863621e-09  -4.7365876e-04   1.9734328e+00   1.9020205e+00  -2.5071082e+06
   1.0873625e-09  -4.7115743e-04   1.9732544e+00   1.9022188e+00  -2.4938760e+06
   1.0883628e-09  -4.6866932e-04   1.9730770e+00   1.9024161e+00  -2.4807135e+06
   1.0893631e-09  -4.6619433e-04   1.9729006e+00   1.9026124e+00  -2.4676205e+06
   1.0903635e-09  -4.6373241e-04   1.9727251e+00   1.9028076e+00  -2.4545965e+06
   1.0913638e-09  -4.6128348e-04   1.9725505e+00   1.9030018e+00  -2.4416411e+06
   1.0923641e-09  -4.5884747e-04   1.9723768e+00   1.9031950e+00  -2.4287541e+06
   1.0933645e-09  -4.5642432e-04   1.9722041e+00   1.9033872e+00  -2.4159350e+06
   1.0943648e-09  -4.5401397e-04   1.9720323e+00   1.9035784e+00  -2.4031835e+06
   1.0953651e-09  -4.5161633e-04   1.9718614e+00   1.9037686e+00  -2.3904992e+06
   1.0963655e-09  -4.4923135e-04   1.9716914e+00   1.9039578e+00  -2.3778818e+06
   1.0973658e-09  -4.4685896e-04   1.9715223e+00   1.9041460e+00  -2.3653309e+06
   1.0983661e-09  -4.4449909e-04   1.9713541e+00   1.9043332e+00  -2.3528462e+06
   1.0993665e-09  -4.4215168e-04   1.9711868e+00   1.9045194e+00  -2.3404273e+06
   1.1003668e-09  -4.3981665e-04   1.9710204e+00   1.9047047e+00  -2.3280739e+06
   1.1013671e-09  -4.3749395e-04   1.9708548e+00   1.9048890e+00  -2.3157857e+06
   1.1023675e-09  -4.3518351e-04   1.9706902e+00   1.9050723e+00  -2.3035622e+06
   1.1033678e-09  -4.3288527e-04   1.9705264e+00   1.9052547e+00  -2.2914032e+06
   1.1043681e-09  -4.3059916e-04   1.9703635e+00   1.9054361e+00  -2.2793083e+06
   1.1053685e-09  -4.2832511e-04   1.9702015e+00   1.9056166e+00  -2.2672772e+06
   1.1063688e-09  -4.2606307e-04   1.9700403e+00   1.9057961e+00  -2.2553095e+06
   1.1073691e-09  -4.2381297e-04   1.9698800e+00   1.9059747e+00  -2.2434050e+06
   1.1083695e-09  -4.2157474e-04   1.9697205e+00   1.9061524e+00  -2.2315632e+06
   1.1093698e-09  -4.1934833e-04   1.9695619e+00   1.9063291e+00  -2.2197838e+06
   1.1103701e-09  -4.1713367e-04   1.9694041e+00   1.9065049e+00  -2.2080666e+06
   1.1113705e-09  -4.1493070e-04   1.9692471e+00   1.9066798e+00  -2.1964111e+06
   1.1123708e-09  -4.1273936e-04   1.9690910e+00   1.9068538e+00  -2.1848171e+06
   1.1133711e-09  -4.1055959e-04   1.9689357e+00   1.9070268e+00  -2.1732843e+06
   1.1143715e-09  -4.0839133e-04   1.9687813e+00   1.9071990e+00  -2.1618123e+06
   1.1153718e-09  -4.0623450e-04   1.9686276e+00   1.9073703e+00  -2.1504008e+06
   1.1163721e-09  -4.0408907e-04   1.9684748e+00   1.9075406e+00  -2.1390494e+06
   1.1173725e-09  -4.0195496e-04   1.9683228e+00   1.9077101e+00  -2.1277579e+06
   1.1183728e-09  -3.9983211e-04   1.9681716e+00   1.9078787e+00  -2.1165260e+06
   1.1193731e-09  -3.9772048e-04   1.9680211e+00   1.9080464e+00  -2.1053533e+06
   1.1203735e-09  -3.9561998e-04   1.9678715e+00   1.9082132e+00  -2.0942395e+06
   1.1213738e-09  -3.9353058e-04   1.9677227e+00   1.9083791e+00  -2.0831844e+06
   1.1223741e-09  -3.9145221e-04   1.9675747e+00   1.9085442e+00  -2.0721875e+06
   1.1233745e-09  -3.8938480e-04   1.9674275e+00   1.9087084e+00  -2.0612486e+06
   1.1243748e-09  -3.8732831e-04   1.9672810e+00   1.9088718e+00  -2.0503675e+06
   1.1253751e-09  -3.8528268e-04   1.9671353e+00   1.9090343e+00  -2.0395437e+06
   1.1263755e-09  -3.8324785e-04   1.9669904e+00   1.9091959e+00  -2.0287770e+06
   1.1273758e-09  -3.8122375e-04   1.9668463e+00   1.9093568e+00  -2.0180671e+06
   1.1283761e-09  -3.7921035e-04   1.9667029e+00   1.9095167e+00  -2.0074137e+06
   1.1293765e-09  -3.7720757e-04   1.9665603e+00   1.9096758e+00  -1.9968164e+06
   1.1303768e-09  -3.7521536e-04   1.9664184e+00   1.9098341e+00  -1.9862751e+06
   1.1313771e-09  -3.7323368e-04   1.9662773e+00   1.9099916e+00  -1.9757893e+06
   1.1323775e-09  -3.7126245e-04   1.9661370e+00   1.9101482e+00  -1.9653589e+06
   1.1333778e-09  -3.6930163e-04   1.9659974e+00   1.9103041e+00  -1.9549835e+06
   1.1343781e-09  -3.6735116e-04   1.9658585e+00   1.9104591e+00  -1.9446628e+06
   1.1353785e-09  -3.6541099e-04   1.9657203e+00   1.9106133e+00  -1.9343965e+06
   1.1363788e-09  -3.6348106e-04   1.9655829e+00   1.9107666e+00  -1.9241844e+06
   1.1373791e-09  -3.6156132e-04   1.9654463e+00   1.9109192e+00  -1.9140262e+06
   1.1383795e-09  -3.5965171e-04   1.9653103e+00   1.9110710e+00  -1.9039215e+06
   1.1393798e-09  -3.5775219e-04   1.9651751e+00   1.9112220e+00  -1.8938702e+06
   1.1403801e-09  -3.5586269e-04   1.9650406e+00   1.9113722e+00  -1.8838718e+06
   1.1413805e-09  -3.5398317e-04   1.9649068e+00   1.9115216e+00  -1.8739262e+06
   1.1423808e-09  -3.5211357e-04   1.9647737e+00   1.9116702e+00  -1.8640331e+06
   1.1433811e-09  -3.5025384e-04   1.9646413e+00   1.9118181e+00  -1.8541921e+06
   1.1443815e-09  -3.4840393e-04   1.9645097e+00   1.9119651e+00  -1.8444031e+06
   1.1453818e-09  -3.4656379e-04   1.9643787e+00   1.9121114e+00  -1.8346657e+06
   1.1463821e-09  -3.4473336e-04   1.9642484e+00   1.9122570e+00  -1.8249796e+06
   1.1473825e-09  -3.4291259e-04   1.9641188e+00   1.9124018e+00  -1.8153447e+06
   1.1483828e-09  -3.4110144e-04   1.9639899e+00   1.9125458e+00  -1.8057606e+06
   1.1493831e-09  -3.3929985e-04   1.9638617e+00   1.9126890e+00  -1.7962270e+06
   1.1503835e-09  -3.3750777e-04   1.9637341e+00   1.9128315e+00  -1.7867437e+06
   1.1513838e-09  -3.3572515e-04   1.9636073e+00   1.9129733e+00  -1.7773105e+06
   1.1523841e-09  -3.3395195e-04   1.9634811e+00   1.9131143e+00  -1.7679270e+06
   1.1533845e-09  -3.3218810e-04   1.9633556e+00   1.9132546e+00  -1.7585931e+06
   1.1543848e-09  -3.3043357e-04   1.9632307e+00   1.9133941e+00  -1.7493083e+06
   1.1553851e-09  -3.2868830e-04   1.9631065e+00   1.9135330e+00  -1.7400726e+06
   1.1563855e-09  -3.2695225e-04   1.9629830e+00   1.9136710e+00  -1.7308855e+06
   1.1573858e-09  -3.2522536e-04   1.9628601e+00   1.9138084e+00  -1.7217470e+06
   1.1583861e-09  -3.2350759e-04   1.9627379e+00   1.9139451e+00  -1.7126566e+06
   1.1593865e-09  -3.2179889e-04   1.9626163e+00   1.9140810e+00  -1.7036142e+06
   1.1603868e-09  -3.2009921e-04   1.9624953e+00   1.9142162e+00  -1.6946195e+06
   1.1613871e-09  -3.1840851e-04   1.9623751e+00   1.9143507e+00  -1.6856723e+06
   1.1623875e-09  -3.1672673e-04   1.9622554e+00   1.9144845e+00  -1.6767723e+06
   1.1633878e-09  -3.1505383e-04   1.9621364e+00   1.9146176e+00  -1.6679192e+06
   1.1643881e-09  -3.1338976e-04   1.9620180e+00   1.9147500e+00  -1.6591128e+06
   1.1653885e-09  -3.1173448e-04   1.9619002e+00   1.9148817e+00  -1.6503529e+06
   1.1663888e-09  -3.1008794e-04   1.9617831e+00   1.9150127e+00  -1.6416392e+06
   1.1673891e-09  -3.0845009e-04   1.9616666e+00   1.9151430e+00  -1.6329715e+06
   1.1683895e-09  -3.0682089e-04   1.9615507e+00   1.9152727e+00  -1.6243495e+06
   1.1693898e-09  -3.0520029e-04   1.9614354e+00   1.9154016e+00  -1.6157730e+06
   1.1703901e-09  -3.0358825e-04   1.9613207e+00   1.9155299e+00  -1.6072418e+06
   1.1713905e-09  -3.0198472e-04   1.9612066e+00   1.9156576e+00  -1.5987556e+06
   1.1723908e-09  -3.0038966e-04   1.9610932e+00   1.9157845e+00  -1.5903141e+06
   1.1733911e-09  -2.9880302e-04   1.9609803e+00   1.9159108e+00  -1.5819172e+06
   1.1743915e-09  -2.9722475e-04   1.9608680e+00   1.9160364e+00  -1.5735646e+06
   1.1753918e-09  -2.9565482e-04   1.9607564e+00   1.9161614e+00  -1.5652560e+06
   1.1763921e-09  -2.9409318e-04   1.9606453e+00   1.9162857e+00  -1.5569913e+06
   1.1773925e-09  -2.9253979e-04   1.9605348e+00   1.9164093e+00  -1.5487702e+06
   1.1783928e-09  -2.9099459e-04   1.9604249e+00   1.9165323e+00  -1.5405925e+06
   1.1793931e-09  -2.8945756e-04   1.9603156e+00   1.9166547e+00  -1.5324580e+06
   1.1803935e-09  -2.8792864e-04   1.9602069e+00   1.9167764e+00  -1.5243663e+06
   1.1813938e-09  -2.8640780e-04   1.9600987e+00   1.9168975e+00  -1.5163174e+06
   1.1823941e-09  -2.8489498e-04   1.9599911e+00   1.9170179e+00  -1.5083109e+06
   1.1833945e-09  -2.8339015e-04   1.9598841e+00   1.9171377e+00  -1.5003466e+06
   1.1843948e-09  -2.8189327e-04   1.9597776e+00   1.9172569e+00  -1.4924244e+06
   1.1853951e-09  -2.8040430e-04   1.9596718e+00   1.9173754e+00  -1.4845440e+06
   1.1863955e-09  -2.7892318e-04   1.9595664e+00   1.9174934e+00  -1.4767052e+06
   1.1873958e-09  -2.7744989e-04   1.9594617e+00   1.9176107e+00  -1.4689078e+06
   1.1883961e-09  -2.7598437e-04   1.9593575e+00   1.9177274e+00  -1.4611514e+06
   1.1893965e-09  -2.7452660e-04   1.9592538e+00   1.9178435e+00  -1.4534361e+06
   1.1903968e-09  -2.7307652e-04   1.9591507e+00   1.9179589e+00  -1.4457614e+06
   1.1913971e-09  -2.7163410e-04   1.9590481e+00   1.9180738e+00  -1.4381272e+06
   1.1923975e-09  -2.7019929e-04   1.9589461e+00   1.9181881e+00  -1.4305333e+06
   1.1933978e-09  -2.6877206e-04   1.9588446e+00   1.9183017e+00  -1.4229795e+06
   1.1943981e-09  -2.6735237e-04   1.9587437e+00   1.9184148e+00  -1.4154656e+06
   1.1953985e-09  -2.6594017e-04   1.9586433e+00   1.9185273e+00  -1.4079913e+06
   1.1963988e-09  -2.6453543e-04   1.9585434e+00   1.9186392e+00  -1.4005564e+06
   1.1973991e-09  -2.6313811e-04   1.9584441e+00   1.9187505e+00  -1.3931608e+06
   1.1983995e-09  -2.6174817e-04   1.9583452e+00   1.9188612e+00  -1.3858042e+06
   1.1993998e-09  -2.6036557e-04   1.9582469e+00   1.9189713e+00  -1.3784864e+06
   1.2004001e-09  -2.5899026e-04   1.9581492e+00   1.9190809e+00  -1.3712073e+06
   1.2014005e-09  -2.5762222e-04   1.9580519e+00   1.9191899e+00  -1.3639665e+06
   1.2024008e-09  -2.5626141e-04   1.9579552e+00   1.9192983e+00  -1.3567640e+06
   1.2034011e-09  -2.5490778e-04   1.9578589e+00   1.9194061e+00  -1.3495995e+06
   1.2044015e-09  -2.5356130e-04   1.9577632e+00   1.9195134e+00  -1.3424728e+06
   1.2054018e-09  -2.5222193e-04   1.9576680e+00   1.9196201e+00  -1.3353837e+06
   1.2064021e-09  -2.5088963e-04   1.9575733e+00   1.9197262e+00  -1.3283320e+06
   1.2074025e-09  -2.4956436e-04   1.9574791e+00   1.9198318e+00  -1.3213175e+06
   1.2084028e-09  -2.4824610e-04   1.9573854e+00   1.9199369e+00  -1.3143401e+06
   1.2094031e-09  -2.4693479e-04   1.9572922e+00   1.9200413e+00  -1.3073994e+06
   1.2104035e-09  -2.4563041e-04   1.9571995e+00   1.9201453e+00  -1.3004954e+06
   1.2114038e-09  -2.4433292e-04   1.9571073e+00   1.9202487e+00  -1.2936279e+06
   1.2124041e-09  -2.4304228e-04   1.9570155e+00   1.9203515e+00  -1.2867965e+06
   1.2134045e-09  -2.4175846e-04   1.9569243e+00   1.9204538e+00  -1.2800013e+06
   1.2144048e-09  -2.4048142e-04   1.9568335e+00   1.9205556e+00  -1.2732419e+06
   1.2154051e-09  -2.3921112e-04   1.9567432e+00   1.9206568e+00  -1.2665182e+06
   1.2164055e-09  -2.3794752e-04   1.9566534e+00   1.9207575e+00  -1.2598299e+06
   1.2174058e-09  -2.3669060e-04   1.9565641e+00   1.9208577e+00  -1.2531770e+06
   1.2184061e-09  -2.3544032e-04   1.9564752e+00   1.9209573e+00  -1.2465591e+06
   1.2194065e-09  -2.3419664e-04   1.9563868e+00   1.9210565e+00  -1.2399762e+06
   1.2204068e-09  -2.3295953e-04   1.9562989e+00   1.9211551e+00  -1.2334281e+06
   1.2214071e-09  -2.3172895e-04   1.9562115e+00   1.9212532e+00  -1.2269145e+06
   1.2224075e-09  -2.3050487e-04   1.9561245e+00   1.9213507e+00  -1.2204353e+06
   1.2234078e-09  -2.2928726e-04   1.9560379e+00   1.9214478e+00  -1.2139903e+06
   1.2244081e-09  -2.2807607e-04   1.9559519e+00   1.9215443e+00  -1.2075792e+06
   1.2254085e-09  -2.2687128e-04   1.9558663e+00   1.9216404e+00  -1.2012021e+06
   1.2264088e-09  -2.2567285e-04   1.9557811e+00   1.9217359e+00  -1.1948586e+06
   1.2274091e-09  -2.2448075e-04   1.9556964e+00   1.9218309e+00  -1.1885486e+06
   1.2284095e-09  -2.2329495e-04   1.9556121e+00   1.9219255e+00  -1.1822718e+06
   1.2294098e-09  -2.2211541e-04   1.9555283e+00   1.9220195e+00  -1.1760282e+06
   1.2304101e-09  -2.2094210e-04   1.9554450e+00   1.9221130e+00  -1.1698176e+06
   1.2314105e-09  -2.1977499e-04   1.9553620e+00   1.9222061e+00  -1.1636398e+06
   1.2324108e-09  -2.1861403e-04   1.9552795e+00   1.9222987e+00  -1.1574945e+06
   1.2334111e-09  -2.1745921e-04   1.9551975e+00   1.9223907e+00  -1.1513817e+06
   1.2344115e-09  -2.1631049e-04   1.9551159e+00   1.9224823e+00  -1.1453012e+06
   1.2354118e-09  -2.1516784e-04   1.9550347e+00   1.9225734e+00  -1.1392527e+06
   1.2364121e-09  -2.1403122e-04   1.9549539e+00   1.9226641e+00  -1.1332362e+06
   1.2374125e-09  -2.1290060e-04   1.9548736e+00   1.9227542e+00  -1.1272514e+06
   1.2384128e-09  -2.1177595e-04   1.9547937e+00   1.9228439e+00  -1.1212982e+06
   1.2394131e-09  -2.1065724e-04   1.9547142e+00   1.9229331e+00  -1.1153765e+06
   1.2404135e-09  -2.0954444e-04   1.9546352e+00   1.9230218e+00  -1.1094860e+06
   1.2414138e-09  -2.0843752e-04   1.9545565e+00   1.9231101e+00  -1.1036266e+06
   1.2424141e-09  -2.0733644e-04   1.9544783e+00   1.9231979e+00  -1.0977981e+06
   1.2434145e-09  -2.0624118e-04   1.9544005e+00   1.9232853e+00  -1.0920004e+06
   1.2444148e-09  -2.0515170e-04   1.9543231e+00   1.9233722e+00  -1.0862333e+06
   1.2454151e-09  -2.0406798e-04   1.9542461e+00   1.9234586e+00  -1.0804967e+06
   1.2464155e-09  -2.0298998e-04   1.9541695e+00   1.9235446e+00  -1.0747903e+06
   1.2474158e-09  -2.0191767e-04   1.9540934e+00   1.9236301e+00  -1.0691140e+06
   1.2484161e-09  -2.0085103e-04   1.9540176e+00   1.9237152e+00  -1.0634677e+06
   1.2494165e-09  -1.9979002e-04   1.9539422e+00   1.9237998e+00  -1.0578513e+06
   1.2504168e-09  -1.9873461e-04   1.9538672e+00   1.9238840e+00  -1.0522644e+06
   1.2514171e-09  -1.9768478e-04   1.9537927e+00   1.9239677e+00  -1.0467071e+06
   1.2524175e-09  -1.9664049e-04   1.9537185e+00   1.9240510e+00  -1.0411791e+06
   1.2534178e-09  -1.9560171e-04   1.9536447e+00   1.9241339e+00  -1.0356802e+06
   1.2544181e-09  -1.9456843e-04   1.9535713e+00   1.9242163e+00  -1.0302104e+06
   1.2554185e-09  -1.9354060e-04   1.9534983e+00   1.9242983e+00  -1.0247695e+06
   1.2564188e-09  -1.9251820e-04   1.9534257e+00   1.9243799e+00  -1.0193573e+06
   1.2574191e-09  -1.9150119e-04   1.9533535e+00   1.9244610e+00  -1.0139737e+06
   1.2584195e-09  -1.9048956e-04   1.9532816e+00   1.9245417e+00  -1.0086184e+06
   1.2594198e-09  -1.8948327e-04   1.9532101e+00   1.9246220e+00  -1.0032915e+06
   1.2604201e-09  -1.8848230e-04   1.9531390e+00   1.9247018e+00  -9.9799268e+05
   1.2614205e-09  -1.8748661e-04   1.9530683e+00   1.9247813e+00  -9.9272183e+05
   1.2624208e-09  -1.8649619e-04   1.9529980e+00   1.9248603e+00  -9.8747881e+05
   1.2634211e-09  -1.8551099e-04   1.9529280e+00   1.9249389e+00  -9.8226346e+05
   1.2644215e-09  -1.8453099e-04   1.9528584e+00   1.9250171e+00  -9.7707565e+05
   1.2654218e-09  -1.8355618e-04   1.9527892e+00   1.9250949e+00  -9.7191522e+05
   1.2664221e-09  -1.8258651e-04   1.9527203e+00   1.9251723e+00  -9.6678203e+05
   1.2674225e-09  -1.8162196e-04   1.9526518e+00   1.9252492e+00  -9.6167595e+05
   1.2684228e-09  -1.8066250e-04   1.9525837e+00   1.9253258e+00  -9.5659682e+05
   1.2694231e-09  -1.7970812e-04   1.9525159e+00   1.9254019e+00  -9.5154451e+05
   1.2704235e-09  -1.7875877e-04   1.9524485e+00   1.9254777e+00  -9.4651886e+05
   1.2714238e-09  -1.7781444e-04   1.9523814e+00   1.9255530e+00  -9.4151975e+05
   1.2724241e-09  -1.7687510e-04   1.9523147e+00   1.9256280e+00  -9.3654703e+05
   1.2734245e-09  -1.7594071e-04   1.9522484e+00   1.9257026e+00  -9.3160057e+05
   1.2744248e-09  -1.7501126e-04   1.9521824e+00   1.9257767e+00  -9.2668022e+05
   1.2754251e-09  -1.7408673e-04   1.9521167e+00   1.9258505e+00  -9.2178584e+05
   1.2764255e-09  -1.7316707e-04   1.9520514e+00   1.9259239e+00  -9.1691731e+05
   1.2774258e-09  -1.7225227e-04   1.9519865e+00   1.9259969e+00  -9.1207447e+05
   1.2784261e-09  -1.7134230e-04   1.9519219e+00   1.9260696e+00  -9.0725721e+05
   1.2794265e-09  -1.7043714e-04   1.9518576e+00   1.9261418e+00  -9.0246537e+05
   1.2804268e-09  -1.6953676e-04   1.9517937e+00   1.9262137e+00  -8.9769884e+05
   1.2814271e-09  -1.6864114e-04   1.9517301e+00   1.9262852e+00  -8.9295747e+05
   1.2824275e-09  -1.6775024e-04   1.9516668e+00   1.9263563e+00  -8.8824113e+05
   1.2834278e-09  -1.6686405e-04   1.9516039e+00   1.9264270e+00  -8.8354970e+05
   1.2844281e-09  -1.6598255e-04   1.9515413e+00   1.9264974e+00  -8.7888303e+05
   1.2854285e-09  -1.6510569e-04   1.9514790e+00   1.9265674e+00  -8.7424100e+05
   1.2864288e-09  -1.6423347e-04   1.9514171e+00   1.9266370e+00  -8.6962348e+05
   1.2874291e-09  -1.6336586e-04   1.9513555e+00   1.9267062e+00  -8.6503034e+05
   1.2884295e-09  -1.6250283e-04   1.9512942e+00   1.9267751e+00  -8.6046145e+05
   1.2894298e-09  -1.6164435e-04   1.9512333e+00   1.9268437e+00  -8.5591668e+05
   1.2904301e-09  -1.6079042e-04   1.9511727e+00   1.9269118e+00  -8.5139590e+05
   1.2914305e-09  -1.5994099e-04   1.9511124e+00   1.9269796e+00  -8.4689900e+05
   1.2924308e-09  -1.5909604e-04   1.9510524e+00   1.9270471e+00  -8.4242583e+05
   1.2934311e-09  -1.5825557e-04   1.9509927e+00   1.9271142e+00  -8.3797629e+05
   1.2944315e-09  -1.5741953e-04   1.9509333e+00   1.9271809e+00  -8.3355023e+05
   1.2954318e-09  -1.5658790e-04   1.9508743e+00   1.9272473e+00  -8.2914755e+05
   1.2964321e-09  -1.5576067e-04   1.9508156e+00   1.9273134e+00  -8.2476811e+05
   1.2974325e-09  -1.5493781e-04   1.9507572e+00   1.9273791e+00  -8.2041179e+05
   1.2984328e-09  -1.5411929e-04   1.9506991e+00   1.9274444e+00  -8.1607848e+05
   1.2994331e-09  -1.5330510e-04   1.9506413e+00   1.9275094e+00  -8.1176804e+05
   1.3004335e-09  -1.5249521e-04   1.9505838e+00   1.9275741e+00  -8.0748037e+05
   1.3014338e-09  -1.5168959e-04   1.9505266e+00   1.9276384e+00  -8.0321533e+05
   1.3024341e-09  -1.5088823e-04   1.9504697e+00   1.9277024e+00  -7.9897281e+05
   1.3034345e-09  -1.5009111e-04   1.9504131e+00   1.9277660e+00  -7.9475269e+05
   1.3044348e-09  -1.4929819e-04   1.9503568e+00   1.9278294e+00  -7.9055486e+05
   1.3054351e-09  -1.4850946e-04   1.9503008e+00   1.9278923e+00  -7.8637919e+05
   1.3064355e-09  -1.4772490e-04   1.9502451e+00   1.9279550e+00  -7.8222556e+05
   1.3074358e-09  -1.4694448e-04   1.9501898e+00   1.9280173e+00  -7.7809387e+05
   1.3084361e-09  -1.4616818e-04   1.9501346e+00   1.9280793e+00  -7.7398399e+05
   1.3094365e-09  -1.4539599e-04   1.9500798e+00   1.9281410e+00  -7.6989582e+05
   1.3104368e-09  -1.4462787e-04   1.9500253e+00   1.9282023e+00  -7.6582923e+05
   1.3114371e-09  -1.4386381e-04   1.9499711e+00   1.9282633e+00  -7.6178411e+05
   1.3124375e-09  -1.4310379e-04   1.9499171e+00   1.9283240e+00  -7.5776035e+05
   1.3134378e-09  -1.4234778e-04   1.9498635e+00   1.9283844e+00  -7.5375784e+05
   1.3144381e-09  -1.4159576e-04   1.9498101e+00   1.9284444e+00  -7.4977646e+05
   1.3154385e-09  -1.4084772e-04   1.9497570e+00   1.9285042e+00  -7.4581611e+05
   1.3164388e-09  -1.4010363e-04   1.9497042e+00   1.9285636e+00  -7.4187667e+05
   1.3174391e-09  -1.3936346e-04   1.9496517e+00   1.9286227e+00  -7.3795802e+05
   1.3184395e-09  -1.3862721e-04   1.9495994e+00   1.9286815e+00  -7.3406007e+05
   1.3194398e-09  -1.3789485e-04   1.9495474e+00   1.9287400e+00  -7.3018270e+05
   1.3204401e-09  -1.3716635e-04   1.9494957e+00   1.9287982e+00  -7.2632581e+05
   1.3214405e-09  -1.3644171e-04   1.9494443e+00   1.9288561e+00  -7.2248928e+05
   1.3224408e-09  -1.3572089e-04   1.9493931e+00   1.9289137e+00  -7.1867301e+05
   1.3234411e-09  -1.3500387e-04   1.9493423e+00   1.9289709e+00  -7.1487689e+05
   1.3244415e-09  -1.3429065e-04   1.9492916e+00   1.9290279e+00  -7.1110082e+05
   1.3254418e-09  -1.3358119e-04   1.9492413e+00   1.9290846e+00  -7.0734468e+05
   1.3264421e-09  -1.3287548e-04   1.9491912e+00   1.9291409e+00  -7.0360838e+05
   1.3274425e-09  -1.3217350e-04   1.9491414e+00   1.9291970e+00  -6.9989181e+05
   1.3284428e-09  -1.3147522e-04   1.9490918e+00   1.9292528e+00  -6.9619486e+05
   1.3294431e-09  -1.3078064e-04   1.9490425e+00   1.9293083e+00  -6.9251744e+05
   1.3304435e-09  -1.3008972e-04   1.9489935e+00   1.9293635e+00  -6.8885943e+05
   1.3314438e-09  -1.2940245e-04   1.9489447e+00   1.9294184e+00  -6.8522075e+05
   1.3324441e-09  -1.2871882e-04   1.9488962e+00   1.9294730e+00  -6.8160127e+05
   1.3334445e-09  -1.2803879e-04   1.9488480e+00   1.9295273e+00  -6.7800091e+05
   1.3344448e-09  -1.2736235e-04   1.9488000e+00   1.9295813e+00  -6.7441956e+05
   1.3354451e-09  -1.2668949e-04   1.9487522e+00   1.9296351e+00  -6.7085712e+05
   1.3364455e-09  -1.2602019e-04   1.9487047e+00   1.9296886e+00  -6.6731349e+05
   1.3374458e-09  -1.2535442e-04   1.9486575e+00   1.9297418e+00  -6.6378858e+05
   1.3384461e-09  -1.2469216e-04   1.9486105e+00   1.9297947e+00  -6.6028228e+05
   1.3394465e-09  -1.2403340e-04   1.9485637e+00   1.9298473e+00  -6.5679449e+05
   1.3404468e-09  -1.2337813e-04   1.9485172e+00   1.9298997e+00  -6.5332512e+05
   1.3414471e-09  -1.2272631e-04   1.9484710e+00   1.9299517e+00  -6.4987408e+05
   1.3424475e-09  -1.2207794e-04   1.9484250e+00   1.9300035e+00  -6.4644126e+05
   1.3434478e-09  -1.2143299e-04   1.9483792e+00   1.9300551e+00  -6.4302656e+05
   1.3444481e-09  -1.2079145e-04   1.9483337e+00   1.9301063e+00  -6.3962990e+05
   1.3454485e-09  -1.2015330e-04   1.9482884e+00   1.9301573e+00  -6.3625117e+05
   1.3464488e-09  -1.1951852e-04   1.9482434e+00   1.9302080e+00  -6.3289029e+05
   1.3474491e-09  -1.1888709e-04   1.9481986e+00   1.9302585e+00  -6.2954716e+05
   1.3484495e-09  -1.1825900e-04   1.9481540e+00   1.9303087e+00  -6.2622167e+05
   1.3494498e-09  -1.1763422e-04   1.9481097e+00   1.9303586e+00  -6.2291376e+05
   1.3504502e-09  -1.1701275e-04   1.9480656e+00   1.9304082e+00  -6.1962330e+05
   1.3514505e-09  -1.1639456e-04   1.9480217e+00   1.9304576e+00  -6.1635023e+05
   1.3524508e-09  -1.1577963e-04   1.9479781e+00   1.9305068e+00  -6.1309444e+05
   1.3534512e-09  -1.1516796e-04   1.9479347e+00   1.9305557e+00  -6.0985585e+05
   1.3544515e-09  -1.1455951e-04   1.9478915e+00   1.9306043e+00  -6.0663435e+05
   1.3554518e-09  -1.1395428e-04   1.9478486e+00   1.9306526e+00  -6.0342987e+05
   1.3564522e-09  -1.1335224e-04   1.9478059e+00   1.9307008e+00  -6.0024231e+05
   1.3574525e-09  -1.1275339e-04   1.9477634e+00   1.9307486e+00  -5.9707159e+05
   1.3584528e-09  -1.1215769e-04   1.9477211e+00   1.9307962e+00  -5.9391761e+05
   1.3594532e-09  -1.1156515e-04   1.9476791e+00   1.9308436e+00  -5.9078028e+05
   1.3604535e-09  -1.1097573e-04   1.9476373e+00   1.9308907e+00  -5.8765953e+05
   1.3614538e-09  -1.1038943e-04   1.9475957e+00   1.9309375e+00  -5.8455525e+05
   1.3624542e-09  -1.0980623e-04   1.9475543e+00   1.9309841e+00  -5.8146737e+05
   1.3634545e-09  -1.0922610e-04   1.9475131e+00   1.9310305e+00  -5.7839580e+05
   1.3644548e-09  -1.0864905e-04   1.9474722e+00   1.9310766e+00  -5.7534044e+05
   1.3654552e-09  -1.0807503e-04   1.9474315e+00   1.9311225e+00  -5.7230123e+05
   1.3664555e-09  -1.0750406e-04   1.9473910e+00   1.9311681e+00  -5.6927806e+05
   1.3674558e-09  -1.0693609e-04   1.9473507e+00   1.9312135e+00  -5.6627086e+05
   1.3684562e-09  -1.0637113e-04   1.9473106e+00   1.9312587e+00  -5.6327954e+05
   1.3694565e-09  -1.0580915e-04   1.9472707e+00   1.9313036e+00  -5.6030401e+05
   1.3704568e-09  -1.0525014e-04   1.9472311e+00   1.9313483e+00  -5.5734421e+05
   1.3714572e-09  -1.0469409e-04   1.9471916e+00   1.9313927e+00  -5.5440003e+05
   1.3724575e-09  -1.0414097e-04   1.9471524e+00   1.9314369e+00  -5.5147140e+05
   1.3734578e-09  -1.0359077e-04   1.9471133e+00   1.9314809e+00  -5.4855824e+05
   1.3744582e-09  -1.0304348e-04   1.9470745e+00   1.9315246e+00  -5.4566046e+05
   1.3754585e-09  -1.0249908e-04   1.9470359e+00   1.9315681e+00  -5.4277799e+05
   1.3764588e-09  -1.0195756e-04   1.9469975e+00   1.9316114e+00  -5.3991074e+05
   1.3774592e-09  -1.0141890e-04   1.9469593e+00   1.9316545e+00  -5.3705863e+05
   1.3784595e-09  -1.0088308e-04   1.9469213e+00   1.9316973e+00  -5.3422159e+05
   1.3794598e-09  -1.0035009e-04   1.9468835e+00   1.9317399e+00  -5.3139952e+05
   1.3804602e-09  -9.9819920e-05   1.9468458e+00   1.9317823e+00  -5.2859237e+05
   1.3814605e-09  -9.9292549e-05   1.9468084e+00   1.9318245e+00  -5.2580003e+05
   1.3824608e-09  -9.8767965e-05   1.9467712e+00   1.9318664e+00  -5.2302245e+05
   1.3834612e-09  -9.8246151e-05   1.9467342e+00   1.9319081e+00  -5.2025953e+05
   1.3844615e-09  -9.7727094e-05   1.9466974e+00   1.9319496e+00  -5.1751121e+05
   1.3854618e-09  -9.7210778e-05   1.9466608e+00   1.9319909e+00  -5.1477740e+05
   1.3864622e-09  -9.6697191e-05   1.9466243e+00   1.9320319e+00  -5.1205803e+05
   1.3874625e-09  -9.6186316e-05   1.9465881e+00   1.9320728e+00  -5.0935302e+05
   1.3884628e-09  -9.5678140e-05   1.9465521e+00   1.9321134e+00  -5.0666230e+05
   1.3894632e-09  -9.5172649e-05   1.9465162e+00   1.9321538e+00  -5.0398579e+05
   1.3904635e-09  -9.4669828e-05   1.9464805e+00   1.9321940e+00  -5.0132341e+05
   1.3914638e-09  -9.4169663e-05   1.9464451e+00   1.9322340e+00  -4.9867510e+05
   1.3924642e-09  -9.3672140e-05   1.9464098e+00   1.9322738e+00  -4.9604077e+05
   1.3934645e-09  -9.3177246e-05   1.9463747e+00   1.9323133e+00  -4.9342036e+05
   1.3944648e-09  -9.2684966e-05   1.9463397e+00   1.9323527e+00  -4.9081378e+05
   1.3954652e-09  -9.2195286e-05   1.9463050e+00   1.9323918e+00  -4.8822097e+05
   1.3964655e-09  -9.1708194e-05   1.9462705e+00   1.9324308e+00  -4.8564186e+05
   1.3974658e-09  -9.1223674e-05   1.9462361e+00   1.9324695e+00  -4.8307637e+05
   1.3984662e-09  -9.0741714e-05   1.9462019e+00   1.9325080e+00  -4.8052442e+05
   1.3994665e-09  -9.0262300e-05   1.9461679e+00   1.9325464e+00  -4.7798596e+05
   1.4004668e-09  -8.9785419e-05   1.9461341e+00   1.9325845e+00  -4.7546090e+05
   1.4014672e-09  -8.9311057e-05   1.9461004e+00   1.9326224e+00  -4.7294918e+05
   1.4024675e-09  -8.8839201e-05   1.9460670e+00   1.9326601e+00  -4.7045072e+05
   1.4034678e-09  -8.8369838e-05   1.9460337e+00   1.9326977e+00  -4.6796546e+05
   1.4044682e-09  -8.7902954e-05   1.9460006e+00   1.9327350e+00  -4.6549333e+05
   1.4054685e-09  -8.7438536e-05   1.9459676e+00   1.9327721e+00  -4.6303425e+05
   1.4064688e-09  -8.6976572e-05   1.9459349e+00   1.9328091e+00  -4.6058816e+05
   1.4074692e-09  -8.6517048e-05   1.9459023e+00   1.9328458e+00  -4.5815499e+05
   1.4084695e-09  -8.6059952e-05   1.9458699e+00   1.9328824e+00  -4.5573467e+05
   1.4094698e-09  -8.5605271e-05   1.9458376e+00   1.9329187e+00  -4.5332714e+05
   1.4104702e-09  -8.5152991e-05   1.9458055e+00   1.9329549e+00  -4.5093232e+05
   1.4114705e-09  -8.4703101e-05   1.9457736e+00   1.9329909e+00  -4.4855015e+05
   1.4124708e-09  -8.4255588e-05   1.9457419e+00   1.9330266e+00  -4.4618056e+05
   1.4134712e-09  -8.3810438e-05   1.9457103e+00   1.9330622e+00  -4.4382348e+05
   1.4144715e-09  -8.3367641e-05   1.9456789e+00   1.9330976e+00  -4.4147886e+05
   1.4154718e-09  -8.2927182e-05   1.9456477e+00   1.9331329e+00  -4.3914662e+05
   1.4164722e-09  -8.2489050e-05   1.9456166e+00   1.9331679e+00  -4.3682670e+05
   1.4174725e-09  -8.2053233e-05   1.9455857e+00   1.9332028e+00  -4.3451903e+05
   1.4184728e-09  -8.1619718e-05   1.9455550e+00   1.9332374e+00  -4.3222355e+05
   1.4194732e-09  -8.1188494e-05   1.9455244e+00   1.9332719e+00  -4.2994019e+05
   1.4204735e-09  -8.0759547e-05   1.9454940e+00   1.9333062e+00  -4.2766889e+05
   1.4214738e-09  -8.0332867e-05   1.9454637e+00   1.9333403e+00  -4.2540959e+05
   1.4224742e-09  -7.9908440e-05   1.9454336e+00   1.9333743e+00  -4.2316223e+05
   1.4234745e-09  -7.9486256e-05   1.9454037e+00   1.9334080e+00  -4.2092673e+05
   1.4244748e-09  -7.9066302e-05   1.9453739e+00   1.9334416e+00  -4.1870304e+05
   1.4254752e-09  -7.8648567e-05   1.9453443e+00   1.9334750e+00  -4.1649110e+05
   1.4264755e-09  -7.8233038e-05   1.9453148e+00   1.9335083e+00  -4.1429084e+05
   1.4274758e-09  -7.7819705e-05   1.9452855e+00   1.9335413e+00  -4.1210220e+05
   1.4284762e-09  -7.7408555e-05   1.9452563e+00   1.9335742e+00  -4.0992512e+05
   1.4294765e-09  -7.6999578e-05   1.9452273e+00   1.9336069e+00  -4.0775954e+05
   1.4304768e-09  -7.6592760e-05   1.9451985e+00   1.9336394e+00  -4.0560540e+05
   1.4314772e-09  -7.6188092e-05   1.9451698e+00   1.9336718e+00  -4.0346263e+05
   1.4324775e-09  -7.5785562e-05   1.9451412e+00   1.9337040e+00  -4.0133119e+05
   1.4334778e-09  -7.5385159e-05   1.9451128e+00   1.9337360e+00  -3.9921100e+05
   1.4344782e-09  -7.4986870e-05   1.9450846e+00   1.9337679e+00  -3.9710201e+05
   1.4354785e-09  -7.4590686e-05   1.9450565e+00   1.9337996e+00  -3.9500416e+05
   1.4364788e-09  -7.4196595e-05   1.9450286e+00   1.9338311e+00  -3.9291739e+05
   1.4374792e-09  -7.3804586e-05   1.9450008e+00   1.9338624e+00  -3.9084165e+05
   1.4384795e-09  -7.3414647e-05   1.9449731e+00   1.9338936e+00  -3.8877686e+05
   1.4394798e-09  -7.3026769e-05   1.9449456e+00   1.9339246e+00  -3.8672299e+05
   1.4404802e-09  -7.2640940e-05   1.9449183e+00   1.9339555e+00  -3.8467996e+05
   1.4414805e-09  -7.2257149e-05   1.9448910e+00   1.9339862e+00  -3.8264772e+05
   1.4424808e-09  -7.1875386e-05   1.9448640e+00   1.9340167e+00  -3.8062622e+05
   1.4434812e-09  -7.1495639e-05   1.9448370e+00   1.9340471e+00  -3.7861539e+05
   1.4444815e-09  -7.1117899e-05   1.9448103e+00   1.9340773e+00  -3.7661519e+05
   1.4454818e-09  -7.0742154e-05   1.9447836e+00   1.9341074e+00  -3.7462555e+05
   1.4464822e-09  -7.0368394e-05   1.9447571e+00   1.9341373e+00  -3.7264642e+05
   1.4474825e-09  -6.9996609e-05   1.9447308e+00   1.9341670e+00  -3.7067775e+05
   1.4484828e-09  -6.9626788e-05   1.9447045e+00   1.9341966e+00  -3.6871947e+05
   1.4494832e-09  -6.9258921e-05   1.9446784e+00   1.9342260e+00  -3.6677154e+05
   1.4504835e-09  -6.8892997e-05   1.9446525e+00   1.9342553e+00  -3.6483389e+05
   1.4514838e-09  -6.8529006e-05   1.9446267e+00   1.9342844e+00  -3.6290649e+05
   1.4524842e-09  -6.8166939e-05   1.9446010e+00   1.9343133e+00  -3.6098926e+05
   1.4534845e-09  -6.7806784e-05   1.9445755e+00   1.9343422e+00  -3.5908216e+05
   1.4544848e-09  -6.7448531e-05   1.9445501e+00   1.9343708e+00  -3.5718513e+05
   1.4554852e-09  -6.7092172e-05   1.9445248e+00   1.9343993e+00  -3.5529812e+05
   1.4564855e-09  -6.6737695e-05   1.9444997e+00   1.9344277e+00  -3.5342108e+05
   1.4574858e-09  -6.6385091e-05   1.9444747e+00   1.9344559e+00  -3.5155396e+05
   1.4584862e-09  -6.6034349e-05   1.9444498e+00   1.9344839e+00  -3.4969669e+05
   1.4594865e-09  -6.5685461e-05   1.9444251e+00   1.9345118e+00  -3.4784924e+05
   1.4604868e-09  -6.5338416e-05   1.9444005e+00   1.9345396e+00  -3.4601155e+05
   1.4614872e-09  -6.4993204e-05   1.9443760e+00   1.9345672e+00  -3.4418356e+05
   1.4624875e-09  -6.4649816e-05   1.9443516e+00   1.9345947e+00  -3.4236523e+05
