   0.0000000e+00  -1.3614171e-01   6.2774237e+00   1.5736790e-04  -5.1934544e+08
   1.0003334e-12  -1.3562292e-01   6.2750940e+00   1.6378994e-04  -5.1793200e+08
   2.0006669e-12  -1.3510555e-01   6.2727250e+00   1.7045420e-04  -5.1651832e+08
   3.0010003e-12  -1.3458959e-01   6.2703162e+00   1.7736894e-04  -5.1510442e+08
   4.0013338e-12  -1.3407504e-01   6.2678672e+00   1.8454266e-04  -5.1369029e+08
   5.0016672e-12  -1.3356191e-01   6.2653774e+00   1.9198410e-04  -5.1227594e+08
   6.0020007e-12  -1.3305020e-01   6.2628464e+00   1.9970228e-04  -5.1086137e+08
   7.0023341e-12  -1.3253990e-01   6.2602736e+00   2.0770645e-04  -5.0944660e+08
   8.0026676e-12  -1.3203101e-01   6.2576587e+00   2.1600615e-04  -5.0803161e+08
   9.0030010e-12  -1.3152355e-01   6.2550011e+00   2.2461117e-04  -5.0661642e+08
   1.0003334e-11  -1.3101749e-01   6.2523003e+00   2.3353160e-04  -5.0520103e+08
   1.1003668e-11  -1.3051286e-01   6.2495559e+00   2.4277782e-04  -5.0378545e+08
   1.2004001e-11  -1.3000964e-01   6.2467673e+00   2.5236047e-04  -5.0236968e+08
   1.3004335e-11  -1.2950783e-01   6.2439340e+00   2.6229052e-04  -5.0095372e+08
   1.4004668e-11  -1.2900745e-01   6.2410556e+00   2.7257923e-04  -4.9953758e+08
   1.5005002e-11  -1.2850848e-01   6.2381315e+00   2.8323816e-04  -4.9812128e+08
   1.6005335e-11  -1.2801092e-01   6.2351613e+00   2.9427921e-04  -4.9670480e+08
   1.7005669e-11  -1.2751479e-01   6.2321445e+00   3.0571458e-04  -4.9528817e+08
   1.8006002e-11  -1.2702007e-01   6.2290806e+00   3.1755682e-04  -4.9387138e+08
   1.9006335e-11  -1.2652677e-01   6.2259690e+00   3.2981880e-04  -4.9245444e+08
   2.0006669e-11  -1.2603489e-01   6.2228094e+00   3.4251374e-04  -4.9103736e+08
   2.1007002e-11  -1.2554442e-01   6.2196011e+00   3.5565521e-04  -4.8962015e+08
   2.2007336e-11  -1.2505537e-01   6.2163438e+00   3.6925712e-04  -4.8820281e+08
   2.3007669e-11  -1.2456774e-01   6.2130369e+00   3.8333378e-04  -4.8678535e+08
   2.4008003e-11  -1.2408153e-01   6.2096800e+00   3.9789983e-04  -4.8536778e+08
   2.5008336e-11  -1.2359674e-01   6.2062725e+00   4.1297031e-04  -4.8395010e+08
   2.6008670e-11  -1.2311336e-01   6.2028140e+00   4.2856062e-04  -4.8253233e+08
   2.7009003e-11  -1.2263140e-01   6.1993040e+00   4.4468658e-04  -4.8111448e+08
   2.8009336e-11  -1.2215086e-01   6.1957420e+00   4.6136438e-04  -4.7969654e+08
   2.9009670e-11  -1.2167174e-01   6.1921275e+00   4.7861063e-04  -4.7827854e+08
   3.0010003e-11  -1.2119404e-01   6.1884600e+00   4.9644234e-04  -4.7686048e+08
   3.1010337e-11  -1.2071776e-01   6.1847392e+00   5.1487693e-04  -4.7544237e+08
   3.2010670e-11  -1.2024290e-01   6.1809644e+00   5.3393227e-04  -4.7402422e+08
   3.3011004e-11  -1.1976945e-01   6.1771353e+00   5.5362664e-04  -4.7260603e+08
   3.4011337e-11  -1.1929742e-01   6.1732513e+00   5.7397876e-04  -4.7118783e+08
   3.5011671e-11  -1.1882682e-01   6.1693121e+00   5.9500778e-04  -4.6976962e+08
   3.6012004e-11  -1.1835763e-01   6.1653171e+00   6.1673334e-04  -4.6835141e+08
   3.7012337e-11  -1.1788986e-01   6.1612659e+00   6.3917548e-04  -4.6693321e+08
   3.8012671e-11  -1.1742350e-01   6.1571580e+00   6.6235476e-04  -4.6551504e+08
   3.9013004e-11  -1.1695857e-01   6.1529930e+00   6.8629218e-04  -4.6409691e+08
   4.0013338e-11  -1.1649506e-01   6.1487704e+00   7.1100922e-04  -4.6267882e+08
   4.1013671e-11  -1.1603296e-01   6.1444899e+00   7.3652784e-04  -4.6126079e+08
   4.2014005e-11  -1.1557228e-01   6.1401509e+00   7.6287050e-04  -4.5984284e+08
   4.3014338e-11  -1.1511302e-01   6.1357531e+00   7.9006015e-04  -4.5842497e+08
   4.4014672e-11  -1.1465518e-01   6.1312959e+00   8.1812023e-04  -4.5700721e+08
   4.5015005e-11  -1.1419876e-01   6.1267791e+00   8.4707472e-04  -4.5558955e+08
   4.6015338e-11  -1.1374376e-01   6.1222021e+00   8.7694808e-04  -4.5417203e+08
   4.7015672e-11  -1.1329017e-01   6.1175646e+00   9.0776532e-04  -4.5275464e+08
   4.8016005e-11  -1.1283800e-01   6.1128662e+00   9.3955194e-04  -4.5133741e+08
   4.9016339e-11  -1.1238725e-01   6.1081064e+00   9.7233400e-04  -4.4992035e+08
   5.0016672e-11  -1.1193792e-01   6.1032849e+00   1.0061381e-03  -4.4850347e+08
   5.1017006e-11  -1.1149000e-01   6.0984012e+00   1.0409914e-03  -4.4708680e+08
   5.2017339e-11  -1.1104350e-01   6.0934551e+00   1.0769214e-03  -4.4567034e+08
   5.3017673e-11  -1.1059842e-01   6.0884460e+00   1.1139566e-03  -4.4425412e+08
   5.4018006e-11  -1.1015476e-01   6.0833738e+00   1.1521257e-03  -4.4283814e+08
   5.5018339e-11  -1.0971251e-01   6.0782379e+00   1.1914579e-03  -4.4142243e+08
   5.6018673e-11  -1.0927167e-01   6.0730381e+00   1.2319833e-03  -4.4000700e+08
   5.7019006e-11  -1.0883226e-01   6.0677740e+00   1.2737324e-03  -4.3859187e+08
   5.8019340e-11  -1.0839426e-01   6.0624453e+00   1.3167361e-03  -4.3717706e+08
   5.9019673e-11  -1.0795767e-01   6.0570516e+00   1.3610262e-03  -4.3576258e+08
   6.0020007e-11  -1.0752250e-01   6.0515926e+00   1.4066349e-03  -4.3434845e+08
   6.1020340e-11  -1.0708874e-01   6.0460680e+00   1.4535951e-03  -4.3293470e+08
   6.2020674e-11  -1.0665640e-01   6.0404776e+00   1.5019400e-03  -4.3152133e+08
   6.3021007e-11  -1.0622547e-01   6.0348209e+00   1.5517039e-03  -4.3010838e+08
   6.4021340e-11  -1.0579595e-01   6.0290978e+00   1.6029211e-03  -4.2869585e+08
   6.5021674e-11  -1.0536785e-01   6.0233079e+00   1.6556271e-03  -4.2728377e+08
   6.6022007e-11  -1.0494115e-01   6.0174510e+00   1.7098575e-03  -4.2587216e+08
   6.7022341e-11  -1.0451588e-01   6.0115268e+00   1.7656488e-03  -4.2446104e+08
   6.8022674e-11  -1.0409201e-01   6.0055351e+00   1.8230381e-03  -4.2305042e+08
   6.9023008e-11  -1.0366955e-01   5.9994757e+00   1.8820629e-03  -4.2164034e+08
   7.0023341e-11  -1.0324850e-01   5.9933482e+00   1.9427616e-03  -4.2023081e+08
   7.1023675e-11  -1.0282886e-01   5.9871525e+00   2.0051730e-03  -4.1882185e+08
   7.2024008e-11  -1.0241064e-01   5.9808884e+00   2.0693365e-03  -4.1741349e+08
   7.3024341e-11  -1.0199382e-01   5.9745557e+00   2.1352922e-03  -4.1600574e+08
   7.4024675e-11  -1.0157840e-01   5.9681542e+00   2.2030809e-03  -4.1459863e+08
   7.5025008e-11  -1.0116440e-01   5.9616837e+00   2.2727439e-03  -4.1319218e+08
   7.6025342e-11  -1.0075180e-01   5.9551441e+00   2.3443231e-03  -4.1178642e+08
   7.7025675e-11  -1.0034061e-01   5.9485351e+00   2.4178611e-03  -4.1038137e+08
   7.8026009e-11  -9.9930822e-02   5.9418567e+00   2.4934009e-03  -4.0897705e+08
   7.9026342e-11  -9.9522439e-02   5.9351088e+00   2.5709865e-03  -4.0757348e+08
   8.0026676e-11  -9.9115460e-02   5.9282912e+00   2.6506621e-03  -4.0617070e+08
   8.1027009e-11  -9.8709883e-02   5.9214037e+00   2.7324728e-03  -4.0476872e+08
   8.2027342e-11  -9.8305709e-02   5.9144464e+00   2.8164641e-03  -4.0336757e+08
   8.3027676e-11  -9.7902936e-02   5.9074191e+00   2.9026822e-03  -4.0196727e+08
   8.4028009e-11  -9.7501563e-02   5.9003218e+00   2.9911740e-03  -4.0056785e+08
   8.5028343e-11  -9.7101589e-02   5.8931543e+00   3.0819868e-03  -3.9916934e+08
   8.6028676e-11  -9.6703014e-02   5.8859167e+00   3.1751687e-03  -3.9777176e+08
   8.7029010e-11  -9.6305836e-02   5.8786089e+00   3.2707681e-03  -3.9637514e+08
   8.8029343e-11  -9.5910055e-02   5.8712310e+00   3.3688342e-03  -3.9497950e+08
   8.9029677e-11  -9.5515669e-02   5.8637828e+00   3.4694168e-03  -3.9358486e+08
   9.0030010e-11  -9.5122678e-02   5.8562644e+00   3.5725662e-03  -3.9219127e+08
   9.1030343e-11  -9.4731081e-02   5.8486758e+00   3.6783333e-03  -3.9079874e+08
   9.2030677e-11  -9.4340875e-02   5.8410170e+00   3.7867694e-03  -3.8940730e+08
   9.3031010e-11  -9.3952061e-02   5.8332882e+00   3.8979267e-03  -3.8801698e+08
   9.4031344e-11  -9.3564638e-02   5.8254892e+00   4.0118575e-03  -3.8662780e+08
   9.5031677e-11  -9.3178603e-02   5.8176203e+00   4.1286151e-03  -3.8523980e+08
   9.6032011e-11  -9.2793956e-02   5.8096815e+00   4.2482530e-03  -3.8385301e+08
   9.7032344e-11  -9.2410695e-02   5.8016729e+00   4.3708253e-03  -3.8246744e+08
   9.8032678e-11  -9.2028820e-02   5.7935946e+00   4.4963867e-03  -3.8108313e+08
   9.9033011e-11  -9.1648329e-02   5.7854467e+00   4.6249924e-03  -3.7970011e+08
   1.0003334e-10  -9.1269221e-02   5.7772293e+00   4.7566981e-03  -3.7831841e+08
   1.0103368e-10  -9.0891494e-02   5.7689427e+00   4.8915598e-03  -3.7693806e+08
   1.0203401e-10  -9.0515147e-02   5.7605870e+00   5.0296342e-03  -3.7555908e+08
   1.0303434e-10  -9.0140179e-02   5.7521623e+00   5.1709785e-03  -3.7418151e+08
   1.0403468e-10  -8.9766587e-02   5.7436689e+00   5.3156501e-03  -3.7280537e+08
   1.0503501e-10  -8.9394372e-02   5.7351070e+00   5.4637070e-03  -3.7143069e+08
   1.0603535e-10  -8.9023531e-02   5.7264767e+00   5.6152078e-03  -3.7005752e+08
   1.0703568e-10  -8.8654063e-02   5.7177783e+00   5.7702111e-03  -3.6868586e+08
   1.0803601e-10  -8.8285966e-02   5.7090120e+00   5.9287764e-03  -3.6731577e+08
   1.0903635e-10  -8.7919239e-02   5.7001782e+00   6.0909633e-03  -3.6594725e+08
   1.1003668e-10  -8.7553879e-02   5.6912771e+00   6.2568318e-03  -3.6458036e+08
   1.1103701e-10  -8.7189886e-02   5.6823089e+00   6.4264423e-03  -3.6321511e+08
   1.1203735e-10  -8.6827258e-02   5.6732740e+00   6.5998556e-03  -3.6185154e+08
   1.1303768e-10  -8.6465993e-02   5.6641727e+00   6.7771328e-03  -3.6048968e+08
   1.1403801e-10  -8.6106090e-02   5.6550053e+00   6.9583354e-03  -3.5912956e+08
   1.1503835e-10  -8.5747546e-02   5.6457722e+00   7.1435250e-03  -3.5777121e+08
   1.1603868e-10  -8.5390359e-02   5.6364737e+00   7.3327639e-03  -3.5641466e+08
   1.1703901e-10  -8.5034529e-02   5.6271101e+00   7.5261142e-03  -3.5505995e+08
   1.1803935e-10  -8.4680053e-02   5.6176819e+00   7.7236387e-03  -3.5370710e+08
   1.1903968e-10  -8.4326928e-02   5.6081894e+00   7.9254000e-03  -3.5235615e+08
   1.2004001e-10  -8.3975155e-02   5.5986331e+00   8.1314614e-03  -3.5100712e+08
   1.2104035e-10  -8.3624729e-02   5.5890134e+00   8.3418861e-03  -3.4966006e+08
   1.2204068e-10  -8.3275650e-02   5.5793306e+00   8.5567377e-03  -3.4831498e+08
   1.2304101e-10  -8.2927916e-02   5.5695853e+00   8.7760797e-03  -3.4697193e+08
   1.2404135e-10  -8.2581524e-02   5.5597779e+00   8.9999761e-03  -3.4563093e+08
   1.2504168e-10  -8.2236472e-02   5.5499089e+00   9.2284908e-03  -3.4429201e+08
   1.2604201e-10  -8.1892758e-02   5.5399787e+00   9.4616879e-03  -3.4295522e+08
   1.2704235e-10  -8.1550380e-02   5.5299878e+00   9.6996318e-03  -3.4162057e+08
   1.2804268e-10  -8.1209336e-02   5.5199368e+00   9.9423866e-03  -3.4028810e+08
   1.2904301e-10  -8.0869624e-02   5.5098261e+00   1.0190017e-02  -3.3895784e+08
   1.3004335e-10  -8.0531241e-02   5.4996563e+00   1.0442587e-02  -3.3762982e+08
   1.3104368e-10  -8.0194186e-02   5.4894280e+00   1.0700161e-02  -3.3630408e+08
   1.3204401e-10  -7.9858455e-02   5.4791416e+00   1.0962804e-02  -3.3498064e+08
   1.3304435e-10  -7.9524047e-02   5.4687977e+00   1.1230581e-02  -3.3365954e+08
   1.3404468e-10  -7.9190959e-02   5.4583970e+00   1.1503555e-02  -3.3234081e+08
   1.3504502e-10  -7.8859189e-02   5.4479399e+00   1.1781791e-02  -3.3102447e+08
   1.3604535e-10  -7.8528735e-02   5.4374271e+00   1.2065354e-02  -3.2971057e+08
   1.3704568e-10  -7.8199593e-02   5.4268592e+00   1.2354308e-02  -3.2839912e+08
   1.3804602e-10  -7.7871762e-02   5.4162368e+00   1.2648716e-02  -3.2709017e+08
   1.3904635e-10  -7.7545239e-02   5.4055606e+00   1.2948644e-02  -3.2578374e+08
   1.4004668e-10  -7.7220021e-02   5.3948310e+00   1.3254154e-02  -3.2447987e+08
   1.4104702e-10  -7.6896106e-02   5.3840489e+00   1.3565312e-02  -3.2317858e+08
   1.4204735e-10  -7.6573491e-02   5.3732148e+00   1.3882179e-02  -3.2187990e+08
   1.4304768e-10  -7.6252174e-02   5.3623294e+00   1.4204820e-02  -3.2058386e+08
   1.4404802e-10  -7.5932152e-02   5.3513934e+00   1.4533297e-02  -3.1929050e+08
   1.4504835e-10  -7.5613423e-02   5.3404075e+00   1.4867674e-02  -3.1799985e+08
   1.4604868e-10  -7.5295982e-02   5.3293722e+00   1.5208014e-02  -3.1671193e+08
   1.4704902e-10  -7.4979829e-02   5.3182885e+00   1.5554377e-02  -3.1542677e+08
   1.4804935e-10  -7.4664960e-02   5.3071568e+00   1.5906827e-02  -3.1414440e+08
   1.4904968e-10  -7.4351372e-02   5.2959781e+00   1.6265426e-02  -3.1286486e+08
   1.5005002e-10  -7.4039062e-02   5.2847528e+00   1.6630233e-02  -3.1158817e+08
   1.5105035e-10  -7.3728028e-02   5.2734819e+00   1.7001311e-02  -3.1031436e+08
   1.5205068e-10  -7.3418266e-02   5.2621660e+00   1.7378720e-02  -3.0904345e+08
   1.5305102e-10  -7.3109775e-02   5.2508059e+00   1.7762521e-02  -3.0777548e+08
   1.5405135e-10  -7.2802550e-02   5.2394022e+00   1.8152772e-02  -3.0651048e+08
   1.5505168e-10  -7.2496588e-02   5.2279559e+00   1.8549533e-02  -3.0524847e+08
   1.5605202e-10  -7.2191888e-02   5.2164675e+00   1.8952863e-02  -3.0398948e+08
   1.5705235e-10  -7.1888445e-02   5.2049379e+00   1.9362821e-02  -3.0273353e+08
   1.5805268e-10  -7.1586257e-02   5.1933679e+00   1.9779464e-02  -3.0148066e+08
   1.5905302e-10  -7.1285320e-02   5.1817582e+00   2.0202849e-02  -3.0023090e+08
   1.6005335e-10  -7.0985632e-02   5.1701096e+00   2.0633034e-02  -2.9898425e+08
   1.6105368e-10  -7.0687189e-02   5.1584228e+00   2.1070074e-02  -2.9774077e+08
   1.6205402e-10  -7.0389989e-02   5.1466988e+00   2.1514025e-02  -2.9650046e+08
   1.6305435e-10  -7.0094027e-02   5.1349382e+00   2.1964942e-02  -2.9526336e+08
   1.6405468e-10  -6.9799301e-02   5.1231418e+00   2.2422880e-02  -2.9402949e+08
   1.6505502e-10  -6.9505808e-02   5.1113105e+00   2.2887892e-02  -2.9279888e+08
   1.6605535e-10  -6.9213544e-02   5.0994451e+00   2.3360032e-02  -2.9157154e+08
   1.6705569e-10  -6.8922505e-02   5.0875463e+00   2.3839351e-02  -2.9034752e+08
   1.6805602e-10  -6.8632690e-02   5.0756150e+00   2.4325902e-02  -2.8912682e+08
   1.6905635e-10  -6.8344093e-02   5.0636519e+00   2.4819735e-02  -2.8790947e+08
   1.7005669e-10  -6.8056713e-02   5.0516580e+00   2.5320902e-02  -2.8669550e+08
   1.7105702e-10  -6.7770545e-02   5.0396339e+00   2.5829451e-02  -2.8548493e+08
   1.7205735e-10  -6.7485586e-02   5.0275806e+00   2.6345432e-02  -2.8427779e+08
   1.7305769e-10  -6.7201833e-02   5.0154989e+00   2.6868893e-02  -2.8307408e+08
   1.7405802e-10  -6.6919282e-02   5.0033895e+00   2.7399880e-02  -2.8187385e+08
   1.7505835e-10  -6.6637929e-02   4.9912532e+00   2.7938441e-02  -2.8067710e+08
   1.7605869e-10  -6.6357772e-02   4.9790910e+00   2.8484621e-02  -2.7948386e+08
   1.7705902e-10  -6.6078807e-02   4.9669036e+00   2.9038465e-02  -2.7829416e+08
   1.7805935e-10  -6.5801030e-02   4.9546919e+00   2.9600017e-02  -2.7710800e+08
   1.7905969e-10  -6.5524437e-02   4.9424566e+00   3.0169321e-02  -2.7592542e+08
   1.8006002e-10  -6.5249026e-02   4.9301986e+00   3.0746418e-02  -2.7474643e+08
   1.8106035e-10  -6.4974792e-02   4.9179188e+00   3.1331350e-02  -2.7357105e+08
   1.8206069e-10  -6.4701732e-02   4.9056178e+00   3.1924159e-02  -2.7239930e+08
   1.8306102e-10  -6.4429841e-02   4.8932967e+00   3.2524882e-02  -2.7123120e+08
   1.8406135e-10  -6.4159118e-02   4.8809561e+00   3.3133560e-02  -2.7006676e+08
   1.8506169e-10  -6.3889557e-02   4.8685969e+00   3.3750231e-02  -2.6890601e+08
   1.8606202e-10  -6.3621155e-02   4.8562199e+00   3.4374930e-02  -2.6774897e+08
   1.8706235e-10  -6.3353909e-02   4.8438259e+00   3.5007694e-02  -2.6659564e+08
   1.8806269e-10  -6.3087814e-02   4.8314158e+00   3.5648559e-02  -2.6544605e+08
   1.8906302e-10  -6.2822868e-02   4.8189903e+00   3.6297557e-02  -2.6430021e+08
   1.9006335e-10  -6.2559065e-02   4.8065503e+00   3.6954724e-02  -2.6315814e+08
   1.9106369e-10  -6.2296403e-02   4.7940966e+00   3.7620089e-02  -2.6201986e+08
   1.9206402e-10  -6.2034878e-02   4.7816299e+00   3.8293686e-02  -2.6088537e+08
   1.9306435e-10  -6.1774485e-02   4.7691511e+00   3.8975543e-02  -2.5975470e+08
   1.9406469e-10  -6.1515222e-02   4.7566609e+00   3.9665691e-02  -2.5862785e+08
   1.9506502e-10  -6.1257083e-02   4.7441602e+00   4.0364156e-02  -2.5750485e+08
   1.9606536e-10  -6.1000066e-02   4.7316498e+00   4.1070968e-02  -2.5638570e+08
   1.9706569e-10  -6.0744166e-02   4.7191303e+00   4.1786151e-02  -2.5527042e+08
   1.9806602e-10  -6.0489380e-02   4.7066027e+00   4.2509731e-02  -2.5415903e+08
   1.9906636e-10  -6.0235704e-02   4.6940677e+00   4.3241732e-02  -2.5305152e+08
   2.0006669e-10  -5.9983133e-02   4.6815260e+00   4.3982177e-02  -2.5194792e+08
   2.0106702e-10  -5.9731664e-02   4.6689785e+00   4.4731088e-02  -2.5084824e+08
   2.0206736e-10  -5.9481293e-02   4.6564259e+00   4.5488486e-02  -2.4975248e+08
   2.0306769e-10  -5.9232016e-02   4.6438689e+00   4.6254392e-02  -2.4866067e+08
   2.0406802e-10  -5.8983829e-02   4.6313083e+00   4.7028823e-02  -2.4757280e+08
   2.0506836e-10  -5.8736729e-02   4.6187449e+00   4.7811799e-02  -2.4648888e+08
   2.0606869e-10  -5.8490710e-02   4.6061794e+00   4.8603336e-02  -2.4540894e+08
   2.0706902e-10  -5.8245770e-02   4.5936125e+00   4.9403449e-02  -2.4433297e+08
   2.0806936e-10  -5.8001903e-02   4.5810451e+00   5.0212154e-02  -2.4326099e+08
   2.0906969e-10  -5.7759107e-02   4.5684777e+00   5.1029464e-02  -2.4219300e+08
   2.1007002e-10  -5.7517378e-02   4.5559111e+00   5.1855392e-02  -2.4112901e+08
   2.1107036e-10  -5.7276710e-02   4.5433461e+00   5.2689950e-02  -2.4006902e+08
   2.1207069e-10  -5.7037101e-02   4.5307833e+00   5.3533148e-02  -2.3901306e+08
   2.1307102e-10  -5.6798545e-02   4.5182235e+00   5.4384996e-02  -2.3796111e+08
   2.1407136e-10  -5.6561040e-02   4.5056673e+00   5.5245501e-02  -2.3691319e+08
   2.1507169e-10  -5.6324581e-02   4.4931155e+00   5.6114673e-02  -2.3586930e+08
   2.1607202e-10  -5.6089164e-02   4.4805687e+00   5.6992516e-02  -2.3482945e+08
   2.1707236e-10  -5.5854786e-02   4.4680276e+00   5.7879037e-02  -2.3379365e+08
   2.1807269e-10  -5.5621441e-02   4.4554929e+00   5.8774239e-02  -2.3276189e+08
   2.1907302e-10  -5.5389126e-02   4.4429653e+00   5.9678127e-02  -2.3173418e+08
   2.2007336e-10  -5.5157837e-02   4.4304453e+00   6.0590702e-02  -2.3071053e+08
   2.2107369e-10  -5.4927570e-02   4.4179337e+00   6.1511965e-02  -2.2969094e+08
   2.2207402e-10  -5.4698320e-02   4.4054311e+00   6.2441917e-02  -2.2867541e+08
   2.2307436e-10  -5.4470085e-02   4.3929381e+00   6.3380557e-02  -2.2766394e+08
   2.2407469e-10  -5.4242859e-02   4.3804554e+00   6.4327883e-02  -2.2665654e+08
   2.2507503e-10  -5.4016638e-02   4.3679836e+00   6.5283892e-02  -2.2565321e+08
   2.2607536e-10  -5.3791419e-02   4.3555232e+00   6.6248581e-02  -2.2465394e+08
   2.2707569e-10  -5.3567198e-02   4.3430750e+00   6.7221944e-02  -2.2365875e+08
   2.2807603e-10  -5.3343970e-02   4.3306395e+00   6.8203976e-02  -2.2266763e+08
   2.2907636e-10  -5.3121731e-02   4.3182173e+00   6.9194670e-02  -2.2168059e+08
   2.3007669e-10  -5.2900477e-02   4.3058090e+00   7.0194018e-02  -2.2069761e+08
   2.3107703e-10  -5.2680205e-02   4.2934151e+00   7.1202012e-02  -2.1971871e+08
   2.3207736e-10  -5.2460909e-02   4.2810363e+00   7.2218641e-02  -2.1874387e+08
   2.3307769e-10  -5.2242587e-02   4.2686731e+00   7.3243895e-02  -2.1777311e+08
   2.3407803e-10  -5.2025234e-02   4.2563260e+00   7.4277762e-02  -2.1680642e+08
   2.3507836e-10  -5.1808845e-02   4.2439957e+00   7.5320230e-02  -2.1584379e+08
   2.3607869e-10  -5.1593417e-02   4.2316826e+00   7.6371286e-02  -2.1488523e+08
   2.3707903e-10  -5.1378946e-02   4.2193873e+00   7.7430914e-02  -2.1393073e+08
   2.3807936e-10  -5.1165428e-02   4.2071102e+00   7.8499099e-02  -2.1298030e+08
   2.3907969e-10  -5.0952858e-02   4.1948520e+00   7.9575826e-02  -2.1203392e+08
   2.4008003e-10  -5.0741233e-02   4.1826131e+00   8.0661076e-02  -2.1109159e+08
   2.4108036e-10  -5.0530548e-02   4.1703941e+00   8.1754832e-02  -2.1015331e+08
   2.4208069e-10  -5.0320800e-02   4.1581954e+00   8.2857075e-02  -2.0921908e+08
   2.4308103e-10  -5.0111984e-02   4.1460175e+00   8.3967785e-02  -2.0828890e+08
   2.4408136e-10  -4.9904097e-02   4.1338608e+00   8.5086941e-02  -2.0736275e+08
   2.4508169e-10  -4.9697134e-02   4.1217260e+00   8.6214522e-02  -2.0644063e+08
   2.4608203e-10  -4.9491091e-02   4.1096133e+00   8.7350505e-02  -2.0552254e+08
   2.4708236e-10  -4.9285965e-02   4.0975234e+00   8.8494867e-02  -2.0460848e+08
   2.4808269e-10  -4.9081750e-02   4.0854565e+00   8.9647584e-02  -2.0369843e+08
   2.4908303e-10  -4.8878445e-02   4.0734133e+00   9.0808631e-02  -2.0279239e+08
   2.5008336e-10  -4.8676043e-02   4.0613940e+00   9.1977982e-02  -2.0189036e+08
   2.5108369e-10  -4.8474541e-02   4.0493991e+00   9.3155611e-02  -2.0099233e+08
   2.5208403e-10  -4.8273936e-02   4.0374291e+00   9.4341491e-02  -2.0009829e+08
   2.5308436e-10  -4.8074223e-02   4.0254843e+00   9.5535593e-02  -1.9920823e+08
   2.5408469e-10  -4.7875398e-02   4.0135652e+00   9.6737888e-02  -1.9832215e+08
   2.5508503e-10  -4.7677458e-02   4.0016721e+00   9.7948348e-02  -1.9744004e+08
   2.5608536e-10  -4.7480398e-02   3.9898055e+00   9.9166941e-02  -1.9656189e+08
   2.5708570e-10  -4.7284214e-02   3.9779656e+00   1.0039364e-01  -1.9568770e+08
   2.5808603e-10  -4.7088903e-02   3.9661529e+00   1.0162840e-01  -1.9481746e+08
   2.5908636e-10  -4.6894460e-02   3.9543678e+00   1.0287121e-01  -1.9395115e+08
   2.6008670e-10  -4.6700882e-02   3.9426106e+00   1.0412202e-01  -1.9308877e+08
   2.6108703e-10  -4.6508164e-02   3.9308816e+00   1.0538080e-01  -1.9223031e+08
   2.6208736e-10  -4.6316303e-02   3.9191812e+00   1.0664752e-01  -1.9137577e+08
   2.6308770e-10  -4.6125295e-02   3.9075097e+00   1.0792214e-01  -1.9052512e+08
   2.6408803e-10  -4.5935136e-02   3.8958675e+00   1.0920462e-01  -1.8967837e+08
   2.6508836e-10  -4.5745821e-02   3.8842548e+00   1.1049493e-01  -1.8883550e+08
   2.6608870e-10  -4.5557348e-02   3.8726720e+00   1.1179304e-01  -1.8799651e+08
   2.6708903e-10  -4.5369712e-02   3.8611194e+00   1.1309890e-01  -1.8716137e+08
   2.6808936e-10  -4.5182910e-02   3.8495973e+00   1.1441247e-01  -1.8633010e+08
   2.6908970e-10  -4.4996937e-02   3.8381060e+00   1.1573372e-01  -1.8550266e+08
   2.7009003e-10  -4.4811790e-02   3.8266457e+00   1.1706261e-01  -1.8467905e+08
   2.7109036e-10  -4.4627464e-02   3.8152168e+00   1.1839910e-01  -1.8385927e+08
   2.7209070e-10  -4.4443957e-02   3.8038195e+00   1.1974314e-01  -1.8304330e+08
   2.7309103e-10  -4.4261264e-02   3.7924541e+00   1.2109469e-01  -1.8223112e+08
   2.7409136e-10  -4.4079382e-02   3.7811208e+00   1.2245372e-01  -1.8142273e+08
   2.7509170e-10  -4.3898306e-02   3.7698198e+00   1.2382018e-01  -1.8061812e+08
   2.7609203e-10  -4.3718033e-02   3.7585515e+00   1.2519403e-01  -1.7981728e+08
   2.7709236e-10  -4.3538559e-02   3.7473161e+00   1.2657522e-01  -1.7902018e+08
   2.7809270e-10  -4.3359881e-02   3.7361138e+00   1.2796371e-01  -1.7822683e+08
   2.7909303e-10  -4.3181995e-02   3.7249448e+00   1.2935946e-01  -1.7743721e+08
   2.8009336e-10  -4.3004896e-02   3.7138093e+00   1.3076242e-01  -1.7665130e+08
   2.8109370e-10  -4.2828582e-02   3.7027076e+00   1.3217254e-01  -1.7586910e+08
   2.8209403e-10  -4.2653048e-02   3.6916398e+00   1.3358979e-01  -1.7509059e+08
   2.8309436e-10  -4.2478291e-02   3.6806062e+00   1.3501411e-01  -1.7431575e+08
   2.8409470e-10  -4.2304307e-02   3.6696069e+00   1.3644545e-01  -1.7354459e+08
   2.8509503e-10  -4.2131093e-02   3.6586422e+00   1.3788378e-01  -1.7277708e+08
   2.8609537e-10  -4.1958644e-02   3.6477122e+00   1.3932904e-01  -1.7201321e+08
   2.8709570e-10  -4.1786958e-02   3.6368171e+00   1.4078119e-01  -1.7125297e+08
   2.8809603e-10  -4.1616031e-02   3.6259571e+00   1.4224017e-01  -1.7049634e+08
   2.8909637e-10  -4.1445858e-02   3.6151323e+00   1.4370594e-01  -1.6974332e+08
   2.9009670e-10  -4.1276437e-02   3.6043429e+00   1.4517845e-01  -1.6899388e+08
   2.9109703e-10  -4.1107764e-02   3.5935890e+00   1.4665765e-01  -1.6824802e+08
   2.9209737e-10  -4.0939835e-02   3.5828708e+00   1.4814348e-01  -1.6750572e+08
   2.9309770e-10  -4.0772647e-02   3.5721884e+00   1.4963591e-01  -1.6676697e+08
   2.9409803e-10  -4.0606196e-02   3.5615420e+00   1.5113488e-01  -1.6603175e+08
   2.9509837e-10  -4.0440478e-02   3.5509317e+00   1.5264034e-01  -1.6530006e+08
   2.9609870e-10  -4.0275491e-02   3.5403576e+00   1.5415224e-01  -1.6457186e+08
   2.9709903e-10  -4.0111231e-02   3.5298199e+00   1.5567052e-01  -1.6384717e+08
   2.9809937e-10  -3.9947693e-02   3.5193186e+00   1.5719514e-01  -1.6312595e+08
   2.9909970e-10  -3.9784875e-02   3.5088539e+00   1.5872604e-01  -1.6240819e+08
   3.0010003e-10  -3.9622774e-02   3.4984258e+00   1.6026318e-01  -1.6169389e+08
   3.0110037e-10  -3.9461385e-02   3.4880346e+00   1.6180649e-01  -1.6098302e+08
   3.0210070e-10  -3.9300705e-02   3.4776802e+00   1.6335593e-01  -1.6027558e+08
   3.0310103e-10  -3.9140732e-02   3.4673627e+00   1.6491145e-01  -1.5957154e+08
   3.0410137e-10  -3.8981461e-02   3.4570823e+00   1.6647298e-01  -1.5887090e+08
   3.0510170e-10  -3.8822889e-02   3.4468390e+00   1.6804049e-01  -1.5817364e+08
   3.0610203e-10  -3.8665013e-02   3.4366329e+00   1.6961391e-01  -1.5747974e+08
   3.0710237e-10  -3.8507829e-02   3.4264641e+00   1.7119319e-01  -1.5678919e+08
   3.0810270e-10  -3.8351334e-02   3.4163327e+00   1.7277827e-01  -1.5610197e+08
   3.0910303e-10  -3.8195525e-02   3.4062386e+00   1.7436911e-01  -1.5541808e+08
   3.1010337e-10  -3.8040399e-02   3.3961820e+00   1.7596565e-01  -1.5473750e+08
   3.1110370e-10  -3.7885951e-02   3.3861630e+00   1.7756783e-01  -1.5406021e+08
   3.1210403e-10  -3.7732180e-02   3.3761815e+00   1.7917560e-01  -1.5338619e+08
   3.1310437e-10  -3.7579081e-02   3.3662376e+00   1.8078891e-01  -1.5271544e+08
   3.1410470e-10  -3.7426651e-02   3.3563313e+00   1.8240770e-01  -1.5204794e+08
   3.1510504e-10  -3.7274887e-02   3.3464628e+00   1.8403191e-01  -1.5138367e+08
   3.1610537e-10  -3.7123787e-02   3.3366320e+00   1.8566150e-01  -1.5072261e+08
   3.1710570e-10  -3.6973346e-02   3.3268389e+00   1.8729640e-01  -1.5006477e+08
   3.1810604e-10  -3.6823561e-02   3.3170836e+00   1.8893656e-01  -1.4941011e+08
   3.1910637e-10  -3.6674429e-02   3.3073662e+00   1.9058193e-01  -1.4875863e+08
   3.2010670e-10  -3.6525948e-02   3.2976865e+00   1.9223244e-01  -1.4811030e+08
   3.2110704e-10  -3.6378113e-02   3.2880447e+00   1.9388805e-01  -1.4746512e+08
   3.2210737e-10  -3.6230923e-02   3.2784408e+00   1.9554870e-01  -1.4682308e+08
   3.2310770e-10  -3.6084373e-02   3.2688747e+00   1.9721433e-01  -1.4618414e+08
   3.2410804e-10  -3.5938460e-02   3.2593465e+00   1.9888490e-01  -1.4554831e+08
   3.2510837e-10  -3.5793182e-02   3.2498562e+00   2.0056033e-01  -1.4491557e+08
   3.2610870e-10  -3.5648536e-02   3.2404037e+00   2.0224058e-01  -1.4428589e+08
   3.2710904e-10  -3.5504517e-02   3.2309891e+00   2.0392559e-01  -1.4365927e+08
   3.2810937e-10  -3.5361124e-02   3.2216123e+00   2.0561530e-01  -1.4303570e+08
   3.2910970e-10  -3.5218354e-02   3.2122734e+00   2.0730966e-01  -1.4241515e+08
   3.3011004e-10  -3.5076202e-02   3.2029723e+00   2.0900862e-01  -1.4179761e+08
   3.3111037e-10  -3.4934667e-02   3.1937090e+00   2.1071211e-01  -1.4118307e+08
   3.3211070e-10  -3.4793745e-02   3.1844835e+00   2.1242008e-01  -1.4057151e+08
   3.3311104e-10  -3.4653433e-02   3.1752958e+00   2.1413248e-01  -1.3996292e+08
   3.3411137e-10  -3.4513728e-02   3.1661458e+00   2.1584925e-01  -1.3935729e+08
   3.3511170e-10  -3.4374628e-02   3.1570336e+00   2.1757034e-01  -1.3875459e+08
   3.3611204e-10  -3.4236129e-02   3.1479590e+00   2.1929568e-01  -1.3815482e+08
   3.3711237e-10  -3.4098229e-02   3.1389220e+00   2.2102522e-01  -1.3755795e+08
   3.3811270e-10  -3.3960924e-02   3.1299227e+00   2.2275892e-01  -1.3696398e+08
   3.3911304e-10  -3.3824212e-02   3.1209609e+00   2.2449670e-01  -1.3637289e+08
   3.4011337e-10  -3.3688089e-02   3.1120367e+00   2.2623852e-01  -1.3578467e+08
   3.4111370e-10  -3.3552554e-02   3.1031500e+00   2.2798431e-01  -1.3519930e+08
   3.4211404e-10  -3.3417603e-02   3.0943006e+00   2.2973404e-01  -1.3461676e+08
   3.4311437e-10  -3.3283233e-02   3.0854887e+00   2.3148763e-01  -1.3403705e+08
   3.4411470e-10  -3.3149442e-02   3.0767141e+00   2.3324503e-01  -1.3346015e+08
   3.4511504e-10  -3.3016226e-02   3.0679768e+00   2.3500620e-01  -1.3288604e+08
   3.4611537e-10  -3.2883583e-02   3.0592767e+00   2.3677107e-01  -1.3231470e+08
   3.4711571e-10  -3.2751510e-02   3.0506138e+00   2.3853958e-01  -1.3174614e+08
   3.4811604e-10  -3.2620005e-02   3.0419880e+00   2.4031169e-01  -1.3118032e+08
   3.4911637e-10  -3.2489064e-02   3.0333992e+00   2.4208734e-01  -1.3061724e+08
   3.5011671e-10  -3.2358685e-02   3.0248474e+00   2.4386647e-01  -1.3005688e+08
   3.5111704e-10  -3.2228865e-02   3.0163325e+00   2.4564903e-01  -1.2949923e+08
   3.5211737e-10  -3.2099602e-02   3.0078545e+00   2.4743497e-01  -1.2894428e+08
   3.5311771e-10  -3.1970893e-02   2.9994132e+00   2.4922422e-01  -1.2839200e+08
   3.5411804e-10  -3.1842734e-02   2.9910087e+00   2.5101674e-01  -1.2784239e+08
   3.5511837e-10  -3.1715124e-02   2.9826407e+00   2.5281248e-01  -1.2729543e+08
   3.5611871e-10  -3.1588060e-02   2.9743094e+00   2.5461137e-01  -1.2675111e+08
   3.5711904e-10  -3.1461539e-02   2.9660145e+00   2.5641336e-01  -1.2620942e+08
   3.5811937e-10  -3.1335559e-02   2.9577560e+00   2.5821840e-01  -1.2567033e+08
   3.5911971e-10  -3.1210116e-02   2.9495338e+00   2.6002644e-01  -1.2513384e+08
   3.6012004e-10  -3.1085209e-02   2.9413478e+00   2.6183742e-01  -1.2459993e+08
   3.6112037e-10  -3.0960835e-02   2.9331980e+00   2.6365129e-01  -1.2406859e+08
   3.6212071e-10  -3.0836990e-02   2.9250842e+00   2.6546800e-01  -1.2353981e+08
   3.6312104e-10  -3.0713674e-02   2.9170065e+00   2.6728749e-01  -1.2301357e+08
   3.6412137e-10  -3.0590883e-02   2.9089646e+00   2.6910971e-01  -1.2248986e+08
   3.6512171e-10  -3.0468614e-02   2.9009585e+00   2.7093461e-01  -1.2196866e+08
   3.6612204e-10  -3.0346865e-02   2.8929881e+00   2.7276213e-01  -1.2144996e+08
   3.6712237e-10  -3.0225634e-02   2.8850533e+00   2.7459222e-01  -1.2093375e+08
   3.6812271e-10  -3.0104918e-02   2.8771541e+00   2.7642484e-01  -1.2042002e+08
   3.6912304e-10  -2.9984715e-02   2.8692903e+00   2.7825992e-01  -1.1990875e+08
   3.7012337e-10  -2.9865022e-02   2.8614618e+00   2.8009742e-01  -1.1939992e+08
   3.7112371e-10  -2.9745837e-02   2.8536685e+00   2.8193729e-01  -1.1889353e+08
   3.7212404e-10  -2.9627157e-02   2.8459104e+00   2.8377946e-01  -1.1838956e+08
   3.7312437e-10  -2.9508980e-02   2.8381873e+00   2.8562390e-01  -1.1788800e+08
   3.7412471e-10  -2.9391303e-02   2.8304991e+00   2.8747055e-01  -1.1738884e+08
   3.7512504e-10  -2.9274125e-02   2.8228458e+00   2.8931936e-01  -1.1689206e+08
   3.7612538e-10  -2.9157442e-02   2.8152272e+00   2.9117028e-01  -1.1639764e+08
   3.7712571e-10  -2.9041253e-02   2.8076432e+00   2.9302326e-01  -1.1590559e+08
   3.7812604e-10  -2.8925555e-02   2.8000937e+00   2.9487825e-01  -1.1541588e+08
   3.7912638e-10  -2.8810345e-02   2.7925787e+00   2.9673519e-01  -1.1492850e+08
   3.8012671e-10  -2.8695622e-02   2.7850980e+00   2.9859405e-01  -1.1444344e+08
   3.8112704e-10  -2.8581383e-02   2.7776514e+00   3.0045476e-01  -1.1396069e+08
   3.8212738e-10  -2.8467625e-02   2.7702390e+00   3.0231728e-01  -1.1348023e+08
   3.8312771e-10  -2.8354347e-02   2.7628605e+00   3.0418156e-01  -1.1300205e+08
   3.8412804e-10  -2.8241547e-02   2.7555159e+00   3.0604756e-01  -1.1252614e+08
   3.8512838e-10  -2.8129221e-02   2.7482051e+00   3.0791522e-01  -1.1205249e+08
   3.8612871e-10  -2.8017368e-02   2.7409279e+00   3.0978449e-01  -1.1158108e+08
   3.8712904e-10  -2.7905985e-02   2.7336843e+00   3.1165532e-01  -1.1111190e+08
   3.8812938e-10  -2.7795071e-02   2.7264741e+00   3.1352768e-01  -1.1064494e+08
   3.8912971e-10  -2.7684622e-02   2.7192972e+00   3.1540150e-01  -1.1018020e+08
   3.9013004e-10  -2.7574637e-02   2.7121535e+00   3.1727675e-01  -1.0971764e+08
   3.9113038e-10  -2.7465114e-02   2.7050429e+00   3.1915337e-01  -1.0925727e+08
   3.9213071e-10  -2.7356051e-02   2.6979652e+00   3.2103131e-01  -1.0879907e+08
   3.9313104e-10  -2.7247444e-02   2.6909204e+00   3.2291054e-01  -1.0834304e+08
   3.9413138e-10  -2.7139293e-02   2.6839084e+00   3.2479100e-01  -1.0788915e+08
   3.9513171e-10  -2.7031594e-02   2.6769289e+00   3.2667265e-01  -1.0743739e+08
   3.9613204e-10  -2.6924347e-02   2.6699820e+00   3.2855544e-01  -1.0698776e+08
   3.9713238e-10  -2.6817548e-02   2.6630674e+00   3.3043933e-01  -1.0654025e+08
   3.9813271e-10  -2.6711196e-02   2.6561852e+00   3.3232427e-01  -1.0609483e+08
   3.9913304e-10  -2.6605288e-02   2.6493350e+00   3.3421020e-01  -1.0565151e+08
   4.0013338e-10  -2.6499823e-02   2.6425169e+00   3.3609710e-01  -1.0521026e+08
   4.0113371e-10  -2.6394798e-02   2.6357307e+00   3.3798491e-01  -1.0477109e+08
   4.0213404e-10  -2.6290211e-02   2.6289763e+00   3.3987359e-01  -1.0433396e+08
   4.0313438e-10  -2.6186061e-02   2.6222536e+00   3.4176310e-01  -1.0389889e+08
   4.0413471e-10  -2.6082345e-02   2.6155624e+00   3.4365338e-01  -1.0346584e+08
   4.0513505e-10  -2.5979061e-02   2.6089027e+00   3.4554440e-01  -1.0303482e+08
   4.0613538e-10  -2.5876207e-02   2.6022742e+00   3.4743611e-01  -1.0260581e+08
   4.0713571e-10  -2.5773781e-02   2.5956770e+00   3.4932848e-01  -1.0217880e+08
   4.0813605e-10  -2.5671781e-02   2.5891108e+00   3.5122144e-01  -1.0175378e+08
   4.0913638e-10  -2.5570206e-02   2.5825755e+00   3.5311497e-01  -1.0133073e+08
   4.1013671e-10  -2.5469053e-02   2.5760711e+00   3.5500902e-01  -1.0090966e+08
   4.1113705e-10  -2.5368320e-02   2.5695974e+00   3.5690355e-01  -1.0049054e+08
   4.1213738e-10  -2.5268005e-02   2.5631543e+00   3.5879851e-01  -1.0007337e+08
   4.1313771e-10  -2.5168106e-02   2.5567416e+00   3.6069386e-01  -9.9658130e+07
   4.1413805e-10  -2.5068622e-02   2.5503592e+00   3.6258957e-01  -9.9244818e+07
   4.1513838e-10  -2.4969551e-02   2.5440071e+00   3.6448559e-01  -9.8833421e+07
   4.1613871e-10  -2.4870890e-02   2.5376850e+00   3.6638187e-01  -9.8423927e+07
   4.1713905e-10  -2.4772638e-02   2.5313929e+00   3.6827838e-01  -9.8016327e+07
   4.1813938e-10  -2.4674792e-02   2.5251307e+00   3.7017508e-01  -9.7610611e+07
   4.1913971e-10  -2.4577351e-02   2.5188982e+00   3.7207193e-01  -9.7206767e+07
   4.2014005e-10  -2.4480314e-02   2.5126952e+00   3.7396888e-01  -9.6804786e+07
   4.2114038e-10  -2.4383678e-02   2.5065218e+00   3.7586590e-01  -9.6404658e+07
   4.2214071e-10  -2.4287440e-02   2.5003777e+00   3.7776295e-01  -9.6006372e+07
   4.2314105e-10  -2.4191601e-02   2.4942628e+00   3.7965998e-01  -9.5609918e+07
   4.2414138e-10  -2.4096157e-02   2.4881770e+00   3.8155696e-01  -9.5215287e+07
   4.2514171e-10  -2.4001107e-02   2.4821202e+00   3.8345386e-01  -9.4822469e+07
   4.2614205e-10  -2.3906449e-02   2.4760923e+00   3.8535062e-01  -9.4431454e+07
   4.2714238e-10  -2.3812181e-02   2.4700931e+00   3.8724722e-01  -9.4042231e+07
   4.2814271e-10  -2.3718302e-02   2.4641225e+00   3.8914361e-01  -9.3654791e+07
   4.2914305e-10  -2.3624809e-02   2.4581804e+00   3.9103975e-01  -9.3269125e+07
   4.3014338e-10  -2.3531702e-02   2.4522667e+00   3.9293562e-01  -9.2885223e+07
   4.3114371e-10  -2.3438977e-02   2.4463812e+00   3.9483117e-01  -9.2503075e+07
   4.3214405e-10  -2.3346634e-02   2.4405239e+00   3.9672637e-01  -9.2122672e+07
   4.3314438e-10  -2.3254670e-02   2.4346945e+00   3.9862117e-01  -9.1744005e+07
   4.3414471e-10  -2.3163085e-02   2.4288930e+00   4.0051554e-01  -9.1367063e+07
   4.3514505e-10  -2.3071875e-02   2.4231193e+00   4.0240945e-01  -9.0991838e+07
   4.3614538e-10  -2.2981040e-02   2.4173732e+00   4.0430286e-01  -9.0618320e+07
   4.3714572e-10  -2.2890578e-02   2.4116546e+00   4.0619574e-01  -9.0246501e+07
   4.3814605e-10  -2.2800487e-02   2.4059634e+00   4.0808804e-01  -8.9876370e+07
   4.3914638e-10  -2.2710766e-02   2.4002995e+00   4.0997974e-01  -8.9507919e+07
   4.4014672e-10  -2.2621412e-02   2.3946627e+00   4.1187079e-01  -8.9141139e+07
   4.4114705e-10  -2.2532424e-02   2.3890529e+00   4.1376117e-01  -8.8776021e+07
   4.4214738e-10  -2.2443800e-02   2.3834700e+00   4.1565084e-01  -8.8412555e+07
   4.4314772e-10  -2.2355540e-02   2.3779139e+00   4.1753976e-01  -8.8050734e+07
   4.4414805e-10  -2.2267640e-02   2.3723845e+00   4.1942791e-01  -8.7690547e+07
   4.4514838e-10  -2.2180100e-02   2.3668816e+00   4.2131524e-01  -8.7331987e+07
   4.4614872e-10  -2.2092918e-02   2.3614051e+00   4.2320173e-01  -8.6975045e+07
   4.4714905e-10  -2.2006092e-02   2.3559550e+00   4.2508734e-01  -8.6619711e+07
   4.4814938e-10  -2.1919621e-02   2.3505310e+00   4.2697203e-01  -8.6265978e+07
   4.4914972e-10  -2.1833503e-02   2.3451331e+00   4.2885579e-01  -8.5913837e+07
   4.5015005e-10  -2.1747736e-02   2.3397611e+00   4.3073857e-01  -8.5563279e+07
   4.5115038e-10  -2.1662319e-02   2.3344149e+00   4.3262034e-01  -8.5214295e+07
   4.5215072e-10  -2.1577250e-02   2.3290944e+00   4.3450107e-01  -8.4866878e+07
   4.5315105e-10  -2.1492528e-02   2.3237995e+00   4.3638073e-01  -8.4521019e+07
   4.5415138e-10  -2.1408152e-02   2.3185301e+00   4.3825928e-01  -8.4176710e+07
   4.5515172e-10  -2.1324119e-02   2.3132861e+00   4.4013670e-01  -8.3833942e+07
   4.5615205e-10  -2.1240428e-02   2.3080672e+00   4.4201296e-01  -8.3492708e+07
   4.5715238e-10  -2.1157078e-02   2.3028735e+00   4.4388802e-01  -8.3152998e+07
   4.5815272e-10  -2.1074066e-02   2.2977047e+00   4.4576186e-01  -8.2814806e+07
   4.5915305e-10  -2.0991393e-02   2.2925609e+00   4.4763445e-01  -8.2478123e+07
   4.6015338e-10  -2.0909055e-02   2.2874418e+00   4.4950574e-01  -8.2142940e+07
   4.6115372e-10  -2.0827052e-02   2.2823473e+00   4.5137573e-01  -8.1809251e+07
   4.6215405e-10  -2.0745382e-02   2.2772774e+00   4.5324437e-01  -8.1477047e+07
   4.6315438e-10  -2.0664043e-02   2.2722319e+00   4.5511163e-01  -8.1146320e+07
   4.6415472e-10  -2.0583035e-02   2.2672107e+00   4.5697750e-01  -8.0817063e+07
   4.6515505e-10  -2.0502355e-02   2.2622137e+00   4.5884194e-01  -8.0489267e+07
   4.6615539e-10  -2.0422003e-02   2.2572407e+00   4.6070491e-01  -8.0162926e+07
   4.6715572e-10  -2.0341976e-02   2.2522917e+00   4.6256641e-01  -7.9838030e+07
   4.6815605e-10  -2.0262273e-02   2.2473665e+00   4.6442638e-01  -7.9514574e+07
   4.6915639e-10  -2.0182894e-02   2.2424651e+00   4.6628482e-01  -7.9192549e+07
   4.7015672e-10  -2.0103835e-02   2.2375872e+00   4.6814169e-01  -7.8871948e+07
   4.7115705e-10  -2.0025097e-02   2.2327329e+00   4.6999696e-01  -7.8552763e+07
   4.7215739e-10  -1.9946677e-02   2.2279020e+00   4.7185062e-01  -7.8234987e+07
   4.7315772e-10  -1.9868575e-02   2.2230943e+00   4.7370262e-01  -7.7918612e+07
   4.7415805e-10  -1.9790788e-02   2.2183098e+00   4.7555295e-01  -7.7603632e+07
   4.7515839e-10  -1.9713315e-02   2.2135484e+00   4.7740157e-01  -7.7290038e+07
   4.7615872e-10  -1.9636156e-02   2.2088098e+00   4.7924847e-01  -7.6977824e+07
   4.7715905e-10  -1.9559308e-02   2.2040942e+00   4.8109362e-01  -7.6666983e+07
   4.7815939e-10  -1.9482771e-02   2.1994012e+00   4.8293699e-01  -7.6357507e+07
   4.7915972e-10  -1.9406542e-02   2.1947309e+00   4.8477856e-01  -7.6049390e+07
   4.8016005e-10  -1.9330621e-02   2.1900830e+00   4.8661830e-01  -7.5742623e+07
   4.8116039e-10  -1.9255006e-02   2.1854575e+00   4.8845619e-01  -7.5437201e+07
   4.8216072e-10  -1.9179696e-02   2.1808544e+00   4.9029220e-01  -7.5133116e+07
   4.8316105e-10  -1.9104690e-02   2.1762734e+00   4.9212632e-01  -7.4830362e+07
   4.8416139e-10  -1.9029985e-02   2.1717144e+00   4.9395850e-01  -7.4528930e+07
   4.8516172e-10  -1.8955582e-02   2.1671775e+00   4.9578874e-01  -7.4228816e+07
   4.8616205e-10  -1.8881478e-02   2.1626623e+00   4.9761701e-01  -7.3930012e+07
   4.8716239e-10  -1.8807672e-02   2.1581689e+00   4.9944329e-01  -7.3632510e+07
   4.8816272e-10  -1.8734164e-02   2.1536972e+00   5.0126755e-01  -7.3336305e+07
   4.8916305e-10  -1.8660951e-02   2.1492470e+00   5.0308976e-01  -7.3041390e+07
   4.9016339e-10  -1.8588032e-02   2.1448182e+00   5.0490992e-01  -7.2747758e+07
   4.9116372e-10  -1.8515407e-02   2.1404107e+00   5.0672799e-01  -7.2455403e+07
   4.9216405e-10  -1.8443073e-02   2.1360245e+00   5.0854395e-01  -7.2164317e+07
   4.9316439e-10  -1.8371030e-02   2.1316593e+00   5.1035779e-01  -7.1874495e+07
   4.9416472e-10  -1.8299276e-02   2.1273152e+00   5.1216947e-01  -7.1585931e+07
   4.9516506e-10  -1.8227810e-02   2.1229919e+00   5.1397899e-01  -7.1298617e+07
   4.9616539e-10  -1.8156631e-02   2.1186895e+00   5.1578631e-01  -7.1012547e+07
   4.9716572e-10  -1.8085737e-02   2.1144078e+00   5.1759142e-01  -7.0727715e+07
   4.9816606e-10  -1.8015128e-02   2.1101466e+00   5.1939429e-01  -7.0444115e+07
   4.9916639e-10  -1.7944802e-02   2.1059060e+00   5.2119491e-01  -7.0161741e+07
   5.0016672e-10  -1.7874757e-02   2.1016857e+00   5.2299325e-01  -6.9880586e+07
   5.0116706e-10  -1.7804994e-02   2.0974858e+00   5.2478930e-01  -6.9600643e+07
   5.0216739e-10  -1.7735509e-02   2.0933060e+00   5.2658304e-01  -6.9321908e+07
   5.0316772e-10  -1.7666303e-02   2.0891463e+00   5.2837444e-01  -6.9044374e+07
   5.0416806e-10  -1.7597374e-02   2.0850066e+00   5.3016349e-01  -6.8768034e+07
   5.0516839e-10  -1.7528721e-02   2.0808868e+00   5.3195016e-01  -6.8492883e+07
   5.0616872e-10  -1.7460343e-02   2.0767868e+00   5.3373445e-01  -6.8218915e+07
   5.0716906e-10  -1.7392238e-02   2.0727065e+00   5.3551632e-01  -6.7946124e+07
   5.0816939e-10  -1.7324405e-02   2.0686457e+00   5.3729576e-01  -6.7674504e+07
   5.0916972e-10  -1.7256843e-02   2.0646045e+00   5.3907276e-01  -6.7404048e+07
   5.1017006e-10  -1.7189552e-02   2.0605827e+00   5.4084729e-01  -6.7134752e+07
   5.1117039e-10  -1.7122529e-02   2.0565801e+00   5.4261934e-01  -6.6866610e+07
   5.1217072e-10  -1.7055774e-02   2.0525968e+00   5.4438889e-01  -6.6599615e+07
   5.1317106e-10  -1.6989285e-02   2.0486326e+00   5.4615592e-01  -6.6333762e+07
   5.1417139e-10  -1.6923062e-02   2.0446874e+00   5.4792041e-01  -6.6069045e+07
   5.1517172e-10  -1.6857103e-02   2.0407611e+00   5.4968235e-01  -6.5805459e+07
   5.1617206e-10  -1.6791407e-02   2.0368536e+00   5.5144172e-01  -6.5542997e+07
   5.1717239e-10  -1.6725973e-02   2.0329649e+00   5.5319851e-01  -6.5281655e+07
   5.1817272e-10  -1.6660800e-02   2.0290948e+00   5.5495269e-01  -6.5021427e+07
   5.1917306e-10  -1.6595886e-02   2.0252432e+00   5.5670426e-01  -6.4762308e+07
   5.2017339e-10  -1.6531232e-02   2.0214101e+00   5.5845318e-01  -6.4504291e+07
   5.2117372e-10  -1.6466834e-02   2.0175954e+00   5.6019946e-01  -6.4247371e+07
   5.2217406e-10  -1.6402694e-02   2.0137989e+00   5.6194308e-01  -6.3991544e+07
   5.2317439e-10  -1.6338808e-02   2.0100206e+00   5.6368401e-01  -6.3736803e+07
   5.2417472e-10  -1.6275177e-02   2.0062603e+00   5.6542224e-01  -6.3483143e+07
   5.2517506e-10  -1.6211800e-02   2.0025181e+00   5.6715776e-01  -6.3230559e+07
   5.2617539e-10  -1.6148674e-02   1.9987937e+00   5.6889055e-01  -6.2979046e+07
   5.2717573e-10  -1.6085799e-02   1.9950872e+00   5.7062061e-01  -6.2728598e+07
   5.2817606e-10  -1.6023175e-02   1.9913983e+00   5.7234790e-01  -6.2479210e+07
   5.2917639e-10  -1.5960799e-02   1.9877271e+00   5.7407243e-01  -6.2230877e+07
   5.3017673e-10  -1.5898671e-02   1.9840735e+00   5.7579417e-01  -6.1983594e+07
   5.3117706e-10  -1.5836790e-02   1.9804373e+00   5.7751311e-01  -6.1737356e+07
   5.3217739e-10  -1.5775155e-02   1.9768184e+00   5.7922924e-01  -6.1492157e+07
   5.3317773e-10  -1.5713765e-02   1.9732168e+00   5.8094254e-01  -6.1247993e+07
   5.3417806e-10  -1.5652618e-02   1.9696325e+00   5.8265301e-01  -6.1004858e+07
   5.3517839e-10  -1.5591714e-02   1.9660652e+00   5.8436062e-01  -6.0762748e+07
   5.3617873e-10  -1.5531052e-02   1.9625149e+00   5.8606536e-01  -6.0521657e+07
   5.3717906e-10  -1.5470630e-02   1.9589816e+00   5.8776723e-01  -6.0281581e+07
   5.3817939e-10  -1.5410448e-02   1.9554651e+00   5.8946621e-01  -6.0042515e+07
   5.3917973e-10  -1.5350505e-02   1.9519653e+00   5.9116228e-01  -5.9804453e+07
   5.4018006e-10  -1.5290799e-02   1.9484822e+00   5.9285543e-01  -5.9567391e+07
   5.4118039e-10  -1.5231330e-02   1.9450158e+00   5.9454566e-01  -5.9331325e+07
   5.4218073e-10  -1.5172097e-02   1.9415658e+00   5.9623295e-01  -5.9096248e+07
   5.4318106e-10  -1.5113098e-02   1.9381322e+00   5.9791729e-01  -5.8862158e+07
   5.4418139e-10  -1.5054333e-02   1.9347150e+00   5.9959866e-01  -5.8629048e+07
   5.4518173e-10  -1.4995800e-02   1.9313140e+00   6.0127706e-01  -5.8396914e+07
   5.4618206e-10  -1.4937500e-02   1.9279292e+00   6.0295247e-01  -5.8165752e+07
   5.4718239e-10  -1.4879430e-02   1.9245605e+00   6.0462488e-01  -5.7935556e+07
   5.4818273e-10  -1.4821590e-02   1.9212078e+00   6.0629429e-01  -5.7706323e+07
   5.4918306e-10  -1.4763979e-02   1.9178711e+00   6.0796068e-01  -5.7478047e+07
   5.5018339e-10  -1.4706595e-02   1.9145501e+00   6.0962403e-01  -5.7250724e+07
   5.5118373e-10  -1.4649439e-02   1.9112450e+00   6.1128435e-01  -5.7024350e+07
   5.5218406e-10  -1.4592508e-02   1.9079555e+00   6.1294162e-01  -5.6798919e+07
   5.5318439e-10  -1.4535803e-02   1.9046816e+00   6.1459582e-01  -5.6574428e+07
   5.5418473e-10  -1.4479321e-02   1.9014233e+00   6.1624696e-01  -5.6350872e+07
   5.5518506e-10  -1.4423063e-02   1.8981804e+00   6.1789502e-01  -5.6128247e+07
   5.5618540e-10  -1.4367027e-02   1.8949529e+00   6.1953998e-01  -5.5906548e+07
   5.5718573e-10  -1.4311213e-02   1.8917406e+00   6.2118185e-01  -5.5685770e+07
   5.5818606e-10  -1.4255618e-02   1.8885436e+00   6.2282061e-01  -5.5465910e+07
   5.5918640e-10  -1.4200244e-02   1.8853617e+00   6.2445625e-01  -5.5246963e+07
   5.6018673e-10  -1.4145087e-02   1.8821949e+00   6.2608876e-01  -5.5028925e+07
   5.6118706e-10  -1.4090149e-02   1.8790431e+00   6.2771814e-01  -5.4811791e+07
   5.6218740e-10  -1.4035427e-02   1.8759061e+00   6.2934437e-01  -5.4595558e+07
   5.6318773e-10  -1.3980921e-02   1.8727840e+00   6.3096746e-01  -5.4380220e+07
   5.6418806e-10  -1.3926630e-02   1.8696767e+00   6.3258738e-01  -5.4165775e+07
   5.6518840e-10  -1.3872553e-02   1.8665840e+00   6.3420413e-01  -5.3952217e+07
   5.6618873e-10  -1.3818689e-02   1.8635060e+00   6.3581770e-01  -5.3739542e+07
   5.6718906e-10  -1.3765038e-02   1.8604424e+00   6.3742809e-01  -5.3527747e+07
   5.6818940e-10  -1.3711598e-02   1.8573934e+00   6.3903528e-01  -5.3316827e+07
   5.6918973e-10  -1.3658368e-02   1.8543587e+00   6.4063927e-01  -5.3106778e+07
   5.7019006e-10  -1.3605349e-02   1.8513383e+00   6.4224006e-01  -5.2897596e+07
   5.7119040e-10  -1.3552538e-02   1.8483322e+00   6.4383763e-01  -5.2689278e+07
   5.7219073e-10  -1.3499935e-02   1.8453402e+00   6.4543197e-01  -5.2481818e+07
   5.7319106e-10  -1.3447539e-02   1.8423623e+00   6.4702309e-01  -5.2275213e+07
   5.7419140e-10  -1.3395349e-02   1.8393985e+00   6.4861097e-01  -5.2069460e+07
   5.7519173e-10  -1.3343365e-02   1.8364486e+00   6.5019561e-01  -5.1864554e+07
   5.7619206e-10  -1.3291585e-02   1.8335125e+00   6.5177699e-01  -5.1660491e+07
   5.7719240e-10  -1.3240009e-02   1.8305903e+00   6.5335512e-01  -5.1457267e+07
   5.7819273e-10  -1.3188636e-02   1.8276819e+00   6.5492998e-01  -5.1254878e+07
   5.7919306e-10  -1.3137465e-02   1.8247871e+00   6.5650158e-01  -5.1053322e+07
   5.8019340e-10  -1.3086495e-02   1.8219059e+00   6.5806990e-01  -5.0852593e+07
   5.8119373e-10  -1.3035726e-02   1.8190382e+00   6.5963494e-01  -5.0652688e+07
   5.8219406e-10  -1.2985156e-02   1.8161840e+00   6.6119669e-01  -5.0453603e+07
   5.8319440e-10  -1.2934785e-02   1.8133432e+00   6.6275514e-01  -5.0255334e+07
   5.8419473e-10  -1.2884612e-02   1.8105157e+00   6.6431030e-01  -5.0057879e+07
   5.8519507e-10  -1.2834635e-02   1.8077015e+00   6.6586216e-01  -4.9861232e+07
   5.8619540e-10  -1.2784856e-02   1.8049005e+00   6.6741070e-01  -4.9665390e+07
   5.8719573e-10  -1.2735271e-02   1.8021126e+00   6.6895593e-01  -4.9470350e+07
   5.8819607e-10  -1.2685882e-02   1.7993377e+00   6.7049784e-01  -4.9276108e+07
   5.8919640e-10  -1.2636686e-02   1.7965759e+00   6.7203643e-01  -4.9082660e+07
   5.9019673e-10  -1.2587683e-02   1.7938269e+00   6.7357168e-01  -4.8890002e+07
   5.9119707e-10  -1.2538873e-02   1.7910909e+00   6.7510360e-01  -4.8698132e+07
   5.9219740e-10  -1.2490254e-02   1.7883676e+00   6.7663219e-01  -4.8507045e+07
   5.9319773e-10  -1.2441827e-02   1.7856571e+00   6.7815743e-01  -4.8316738e+07
   5.9419807e-10  -1.2393589e-02   1.7829592e+00   6.7967932e-01  -4.8127207e+07
   5.9519840e-10  -1.2345540e-02   1.7802739e+00   6.8119786e-01  -4.7938449e+07
   5.9619873e-10  -1.2297679e-02   1.7776012e+00   6.8271304e-01  -4.7750461e+07
   5.9719907e-10  -1.2250007e-02   1.7749409e+00   6.8422487e-01  -4.7563238e+07
   5.9819940e-10  -1.2202521e-02   1.7722931e+00   6.8573333e-01  -4.7376778e+07
   5.9919973e-10  -1.2155221e-02   1.7696576e+00   6.8723843e-01  -4.7191076e+07
   6.0020007e-10  -1.2108107e-02   1.7670344e+00   6.8874015e-01  -4.7006130e+07
   6.0120040e-10  -1.2061178e-02   1.7644234e+00   6.9023850e-01  -4.6821937e+07
   6.0220073e-10  -1.2014432e-02   1.7618246e+00   6.9173347e-01  -4.6638491e+07
   6.0320107e-10  -1.1967869e-02   1.7592378e+00   6.9322506e-01  -4.6455792e+07
   6.0420140e-10  -1.1921489e-02   1.7566631e+00   6.9471326e-01  -4.6273834e+07
   6.0520173e-10  -1.1875291e-02   1.7541004e+00   6.9619808e-01  -4.6092615e+07
   6.0620207e-10  -1.1829273e-02   1.7515496e+00   6.9767951e-01  -4.5912131e+07
   6.0720240e-10  -1.1783435e-02   1.7490107e+00   6.9915755e-01  -4.5732380e+07
   6.0820273e-10  -1.1737777e-02   1.7464836e+00   7.0063219e-01  -4.5553357e+07
   6.0920307e-10  -1.1692298e-02   1.7439682e+00   7.0210343e-01  -4.5375060e+07
   6.1020340e-10  -1.1646997e-02   1.7414645e+00   7.0357127e-01  -4.5197485e+07
   6.1120373e-10  -1.1601873e-02   1.7389724e+00   7.0503570e-01  -4.5020629e+07
   6.1220407e-10  -1.1556925e-02   1.7364918e+00   7.0649674e-01  -4.4844489e+07
   6.1320440e-10  -1.1512154e-02   1.7340228e+00   7.0795436e-01  -4.4669062e+07
   6.1420473e-10  -1.1467557e-02   1.7315652e+00   7.0940857e-01  -4.4494344e+07
   6.1520507e-10  -1.1423135e-02   1.7291190e+00   7.1085938e-01  -4.4320333e+07
   6.1620540e-10  -1.1378887e-02   1.7266841e+00   7.1230676e-01  -4.4147025e+07
   6.1720574e-10  -1.1334811e-02   1.7242605e+00   7.1375074e-01  -4.3974417e+07
   6.1820607e-10  -1.1290908e-02   1.7218481e+00   7.1519129e-01  -4.3802506e+07
   6.1920640e-10  -1.1247177e-02   1.7194469e+00   7.1662843e-01  -4.3631288e+07
   6.2020674e-10  -1.1203617e-02   1.7170568e+00   7.1806215e-01  -4.3460762e+07
   6.2120707e-10  -1.1160226e-02   1.7146777e+00   7.1949244e-01  -4.3290924e+07
   6.2220740e-10  -1.1117006e-02   1.7123096e+00   7.2091932e-01  -4.3121770e+07
   6.2320774e-10  -1.1073954e-02   1.7099525e+00   7.2234277e-01  -4.2953298e+07
   6.2420807e-10  -1.1031070e-02   1.7076062e+00   7.2376279e-01  -4.2785505e+07
   6.2520840e-10  -1.0988354e-02   1.7052708e+00   7.2517939e-01  -4.2618388e+07
   6.2620874e-10  -1.0945805e-02   1.7029461e+00   7.2659256e-01  -4.2451943e+07
   6.2720907e-10  -1.0903422e-02   1.7006322e+00   7.2800230e-01  -4.2286169e+07
   6.2820940e-10  -1.0861204e-02   1.6983289e+00   7.2940861e-01  -4.2121061e+07
   6.2920974e-10  -1.0819151e-02   1.6960362e+00   7.3081150e-01  -4.1956617e+07
   6.3021007e-10  -1.0777263e-02   1.6937541e+00   7.3221096e-01  -4.1792834e+07
   6.3121040e-10  -1.0735538e-02   1.6914825e+00   7.3360698e-01  -4.1629709e+07
   6.3221074e-10  -1.0693975e-02   1.6892213e+00   7.3499957e-01  -4.1467240e+07
   6.3321107e-10  -1.0652575e-02   1.6869705e+00   7.3638874e-01  -4.1305423e+07
   6.3421140e-10  -1.0611337e-02   1.6847301e+00   7.3777447e-01  -4.1144256e+07
   6.3521174e-10  -1.0570259e-02   1.6825000e+00   7.3915677e-01  -4.0983735e+07
   6.3621207e-10  -1.0529342e-02   1.6802801e+00   7.4053564e-01  -4.0823859e+07
   6.3721240e-10  -1.0488584e-02   1.6780704e+00   7.4191108e-01  -4.0664623e+07
   6.3821274e-10  -1.0447985e-02   1.6758709e+00   7.4328309e-01  -4.0506026e+07
   6.3921307e-10  -1.0407545e-02   1.6736814e+00   7.4465167e-01  -4.0348065e+07
   6.4021340e-10  -1.0367262e-02   1.6715020e+00   7.4601681e-01  -4.0190736e+07
   6.4121374e-10  -1.0327136e-02   1.6693326e+00   7.4737853e-01  -4.0034037e+07
   6.4221407e-10  -1.0287167e-02   1.6671731e+00   7.4873682e-01  -3.9877966e+07
   6.4321440e-10  -1.0247353e-02   1.6650235e+00   7.5009168e-01  -3.9722519e+07
   6.4421474e-10  -1.0207695e-02   1.6628837e+00   7.5144311e-01  -3.9567695e+07
   6.4521507e-10  -1.0168191e-02   1.6607538e+00   7.5279111e-01  -3.9413489e+07
   6.4621541e-10  -1.0128842e-02   1.6586336e+00   7.5413569e-01  -3.9259900e+07
   6.4721574e-10  -1.0089645e-02   1.6565230e+00   7.5547684e-01  -3.9106925e+07
   6.4821607e-10  -1.0050602e-02   1.6544221e+00   7.5681456e-01  -3.8954561e+07
   6.4921641e-10  -1.0011710e-02   1.6523309e+00   7.5814886e-01  -3.8802806e+07
   6.5021674e-10  -9.9729699e-03   1.6502491e+00   7.5947974e-01  -3.8651656e+07
   6.5121707e-10  -9.9343808e-03   1.6481769e+00   7.6080719e-01  -3.8501110e+07
   6.5221741e-10  -9.8959419e-03   1.6461141e+00   7.6213123e-01  -3.8351165e+07
   6.5321774e-10  -9.8576527e-03   1.6440607e+00   7.6345185e-01  -3.8201818e+07
   6.5421807e-10  -9.8195126e-03   1.6420167e+00   7.6476904e-01  -3.8053067e+07
   6.5521841e-10  -9.7815210e-03   1.6399820e+00   7.6608283e-01  -3.7904909e+07
   6.5621874e-10  -9.7436773e-03   1.6379566e+00   7.6739319e-01  -3.7757341e+07
   6.5721907e-10  -9.7059809e-03   1.6359404e+00   7.6870015e-01  -3.7610362e+07
   6.5821941e-10  -9.6684313e-03   1.6339334e+00   7.7000369e-01  -3.7463968e+07
   6.5921974e-10  -9.6310278e-03   1.6319355e+00   7.7130382e-01  -3.7318156e+07
   6.6022007e-10  -9.5937699e-03   1.6299466e+00   7.7260055e-01  -3.7172926e+07
   6.6122041e-10  -9.5566570e-03   1.6279669e+00   7.7389386e-01  -3.7028273e+07
   6.6222074e-10  -9.5196885e-03   1.6259961e+00   7.7518378e-01  -3.6884196e+07
   6.6322107e-10  -9.4828638e-03   1.6240342e+00   7.7647029e-01  -3.6740692e+07
   6.6422141e-10  -9.4461824e-03   1.6220813e+00   7.7775340e-01  -3.6597759e+07
   6.6522174e-10  -9.4096437e-03   1.6201373e+00   7.7903311e-01  -3.6455394e+07
   6.6622207e-10  -9.3732472e-03   1.6182020e+00   7.8030943e-01  -3.6313595e+07
   6.6722241e-10  -9.3369921e-03   1.6162755e+00   7.8158236e-01  -3.6172359e+07
   6.6822274e-10  -9.3008781e-03   1.6143578e+00   7.8285189e-01  -3.6031685e+07
   6.6922307e-10  -9.2649046e-03   1.6124487e+00   7.8411803e-01  -3.5891569e+07
   6.7022341e-10  -9.2290709e-03   1.6105483e+00   7.8538079e-01  -3.5752009e+07
   6.7122374e-10  -9.1933765e-03   1.6086565e+00   7.8664016e-01  -3.5613003e+07
   6.7222407e-10  -9.1578210e-03   1.6067733e+00   7.8789615e-01  -3.5474549e+07
   6.7322441e-10  -9.1224036e-03   1.6048985e+00   7.8914877e-01  -3.5336644e+07
   6.7422474e-10  -9.0871239e-03   1.6030323e+00   7.9039800e-01  -3.5199286e+07
   6.7522508e-10  -9.0519814e-03   1.6011745e+00   7.9164387e-01  -3.5062473e+07
   6.7622541e-10  -9.0169754e-03   1.5993250e+00   7.9288636e-01  -3.4926202e+07
   6.7722574e-10  -8.9821055e-03   1.5974840e+00   7.9412548e-01  -3.4790471e+07
   6.7822608e-10  -8.9473711e-03   1.5956512e+00   7.9536124e-01  -3.4655277e+07
   6.7922641e-10  -8.9127717e-03   1.5938267e+00   7.9659364e-01  -3.4520620e+07
   6.8022674e-10  -8.8783067e-03   1.5920104e+00   7.9782268e-01  -3.4386495e+07
   6.8122708e-10  -8.8439756e-03   1.5902023e+00   7.9904836e-01  -3.4252901e+07
   6.8222741e-10  -8.8097779e-03   1.5884024e+00   8.0027070e-01  -3.4119837e+07
   6.8322774e-10  -8.7757130e-03   1.5866105e+00   8.0148968e-01  -3.3987298e+07
   6.8422808e-10  -8.7417804e-03   1.5848268e+00   8.0270531e-01  -3.3855285e+07
   6.8522841e-10  -8.7079797e-03   1.5830510e+00   8.0391760e-01  -3.3723793e+07
   6.8622874e-10  -8.6743102e-03   1.5812833e+00   8.0512656e-01  -3.3592821e+07
   6.8722908e-10  -8.6407715e-03   1.5795235e+00   8.0633217e-01  -3.3462367e+07
   6.8822941e-10  -8.6073630e-03   1.5777716e+00   8.0753446e-01  -3.3332429e+07
   6.8922974e-10  -8.5740842e-03   1.5760276e+00   8.0873341e-01  -3.3203004e+07
   6.9023008e-10  -8.5409347e-03   1.5742914e+00   8.0992904e-01  -3.3074090e+07
   6.9123041e-10  -8.5079138e-03   1.5725630e+00   8.1112135e-01  -3.2945686e+07
   6.9223074e-10  -8.4750212e-03   1.5708423e+00   8.1231033e-01  -3.2817788e+07
   6.9323108e-10  -8.4422562e-03   1.5691294e+00   8.1349601e-01  -3.2690396e+07
   6.9423141e-10  -8.4096184e-03   1.5674242e+00   8.1467837e-01  -3.2563506e+07
   6.9523174e-10  -8.3771073e-03   1.5657266e+00   8.1585742e-01  -3.2437117e+07
   6.9623208e-10  -8.3447224e-03   1.5640366e+00   8.1703317e-01  -3.2311226e+07
   6.9723241e-10  -8.3124632e-03   1.5623542e+00   8.1820563e-01  -3.2185833e+07
   6.9823274e-10  -8.2803291e-03   1.5606793e+00   8.1937478e-01  -3.2060933e+07
   6.9923308e-10  -8.2483197e-03   1.5590119e+00   8.2054064e-01  -3.1936527e+07
   7.0023341e-10  -8.2164346e-03   1.5573519e+00   8.2170322e-01  -3.1812610e+07
   7.0123374e-10  -8.1846732e-03   1.5556994e+00   8.2286251e-01  -3.1689182e+07
   7.0223408e-10  -8.1530349e-03   1.5540542e+00   8.2401852e-01  -3.1566240e+07
   7.0323441e-10  -8.1215195e-03   1.5524165e+00   8.2517126e-01  -3.1443783e+07
   7.0423474e-10  -8.0901263e-03   1.5507860e+00   8.2632072e-01  -3.1321808e+07
   7.0523508e-10  -8.0588548e-03   1.5491628e+00   8.2746692e-01  -3.1200313e+07
   7.0623541e-10  -8.0277047e-03   1.5475468e+00   8.2860986e-01  -3.1079296e+07
   7.0723575e-10  -7.9966753e-03   1.5459381e+00   8.2974953e-01  -3.0958756e+07
   7.0823608e-10  -7.9657664e-03   1.5443365e+00   8.3088595e-01  -3.0838690e+07
   7.0923641e-10  -7.9349772e-03   1.5427421e+00   8.3201913e-01  -3.0719097e+07
   7.1023675e-10  -7.9043075e-03   1.5411547e+00   8.3314905e-01  -3.0599974e+07
   7.1123708e-10  -7.8737567e-03   1.5395745e+00   8.3427574e-01  -3.0481320e+07
   7.1223741e-10  -7.8433244e-03   1.5380012e+00   8.3539919e-01  -3.0363132e+07
   7.1323775e-10  -7.8130101e-03   1.5364350e+00   8.3651940e-01  -3.0245409e+07
   7.1423808e-10  -7.7828133e-03   1.5348757e+00   8.3763639e-01  -3.0128149e+07
   7.1523841e-10  -7.7527335e-03   1.5333234e+00   8.3875016e-01  -3.0011349e+07
   7.1623875e-10  -7.7227704e-03   1.5317779e+00   8.3986070e-01  -2.9895009e+07
   7.1723908e-10  -7.6929234e-03   1.5302394e+00   8.4096804e-01  -2.9779125e+07
   7.1823941e-10  -7.6631922e-03   1.5287076e+00   8.4207216e-01  -2.9663697e+07
   7.1923975e-10  -7.6335761e-03   1.5271827e+00   8.4317308e-01  -2.9548722e+07
   7.2024008e-10  -7.6040749e-03   1.5256645e+00   8.4427080e-01  -2.9434198e+07
   7.2124041e-10  -7.5746879e-03   1.5241530e+00   8.4536533e-01  -2.9320124e+07
   7.2224075e-10  -7.5454149e-03   1.5226483e+00   8.4645666e-01  -2.9206498e+07
   7.2324108e-10  -7.5162553e-03   1.5211502e+00   8.4754481e-01  -2.9093318e+07
   7.2424141e-10  -7.4872087e-03   1.5196588e+00   8.4862978e-01  -2.8980582e+07
   7.2524175e-10  -7.4582747e-03   1.5181740e+00   8.4971158e-01  -2.8868288e+07
   7.2624208e-10  -7.4294528e-03   1.5166957e+00   8.5079020e-01  -2.8756435e+07
   7.2724241e-10  -7.4007425e-03   1.5152240e+00   8.5186566e-01  -2.8645020e+07
   7.2824275e-10  -7.3721435e-03   1.5137588e+00   8.5293796e-01  -2.8534042e+07
   7.2924308e-10  -7.3436552e-03   1.5123000e+00   8.5400711e-01  -2.8423499e+07
   7.3024341e-10  -7.3152774e-03   1.5108477e+00   8.5507310e-01  -2.8313390e+07
   7.3124375e-10  -7.2870094e-03   1.5094019e+00   8.5613595e-01  -2.8203712e+07
   7.3224408e-10  -7.2588510e-03   1.5079624e+00   8.5719566e-01  -2.8094463e+07
   7.3324441e-10  -7.2308016e-03   1.5065292e+00   8.5825224e-01  -2.7985643e+07
   7.3424475e-10  -7.2028609e-03   1.5051024e+00   8.5930568e-01  -2.7877249e+07
   7.3524508e-10  -7.1750284e-03   1.5036819e+00   8.6035600e-01  -2.7769280e+07
   7.3624542e-10  -7.1473037e-03   1.5022677e+00   8.6140320e-01  -2.7661733e+07
   7.3724575e-10  -7.1196864e-03   1.5008596e+00   8.6244729e-01  -2.7554608e+07
   7.3824608e-10  -7.0921760e-03   1.4994578e+00   8.6348827e-01  -2.7447902e+07
   7.3924642e-10  -7.0647721e-03   1.4980622e+00   8.6452615e-01  -2.7341614e+07
   7.4024675e-10  -7.0374744e-03   1.4966727e+00   8.6556093e-01  -2.7235741e+07
   7.4124708e-10  -7.0102823e-03   1.4952893e+00   8.6659261e-01  -2.7130283e+07
   7.4224742e-10  -6.9831956e-03   1.4939120e+00   8.6762121e-01  -2.7025237e+07
   7.4324775e-10  -6.9562137e-03   1.4925408e+00   8.6864673e-01  -2.6920603e+07
   7.4424808e-10  -6.9293363e-03   1.4911755e+00   8.6966917e-01  -2.6816377e+07
   7.4524842e-10  -6.9025629e-03   1.4898163e+00   8.7068854e-01  -2.6712560e+07
   7.4624875e-10  -6.8758932e-03   1.4884631e+00   8.7170485e-01  -2.6609148e+07
   7.4724908e-10  -6.8493268e-03   1.4871158e+00   8.7271810e-01  -2.6506140e+07
   7.4824942e-10  -6.8228631e-03   1.4857744e+00   8.7372829e-01  -2.6403535e+07
   7.4924975e-10  -6.7965020e-03   1.4844389e+00   8.7473543e-01  -2.6301331e+07
   7.5025008e-10  -6.7702428e-03   1.4831092e+00   8.7573953e-01  -2.6199527e+07
   7.5125042e-10  -6.7440853e-03   1.4817854e+00   8.7674060e-01  -2.6098120e+07
   7.5225075e-10  -6.7180290e-03   1.4804674e+00   8.7773863e-01  -2.5997110e+07
   7.5325108e-10  -6.6920736e-03   1.4791551e+00   8.7873363e-01  -2.5896494e+07
   7.5425142e-10  -6.6662186e-03   1.4778487e+00   8.7972562e-01  -2.5796271e+07
   7.5525175e-10  -6.6404637e-03   1.4765479e+00   8.8071459e-01  -2.5696439e+07
   7.5625208e-10  -6.6148085e-03   1.4752528e+00   8.8170055e-01  -2.5596998e+07
   7.5725242e-10  -6.5892525e-03   1.4739634e+00   8.8268351e-01  -2.5497944e+07
   7.5825275e-10  -6.5637955e-03   1.4726796e+00   8.8366347e-01  -2.5399278e+07
   7.5925308e-10  -6.5384369e-03   1.4714014e+00   8.8464044e-01  -2.5300996e+07
   7.6025342e-10  -6.5131765e-03   1.4701288e+00   8.8561442e-01  -2.5203098e+07
   7.6125375e-10  -6.4880138e-03   1.4688618e+00   8.8658543e-01  -2.5105582e+07
   7.6225408e-10  -6.4629485e-03   1.4676003e+00   8.8755346e-01  -2.5008446e+07
   7.6325442e-10  -6.4379801e-03   1.4663443e+00   8.8851852e-01  -2.4911690e+07
   7.6425475e-10  -6.4131083e-03   1.4650938e+00   8.8948061e-01  -2.4815310e+07
   7.6525509e-10  -6.3883328e-03   1.4638487e+00   8.9043975e-01  -2.4719307e+07
   7.6625542e-10  -6.3636531e-03   1.4626091e+00   8.9139594e-01  -2.4623678e+07
   7.6725575e-10  -6.3390689e-03   1.4613749e+00   8.9234919e-01  -2.4528422e+07
   7.6825609e-10  -6.3145798e-03   1.4601460e+00   8.9329949e-01  -2.4433538e+07
   7.6925642e-10  -6.2901854e-03   1.4589225e+00   8.9424687e-01  -2.4339023e+07
   7.7025675e-10  -6.2658854e-03   1.4577043e+00   8.9519131e-01  -2.4244877e+07
   7.7125709e-10  -6.2416794e-03   1.4564915e+00   8.9613284e-01  -2.4151097e+07
   7.7225742e-10  -6.2175670e-03   1.4552839e+00   8.9707145e-01  -2.4057684e+07
   7.7325775e-10  -6.1935478e-03   1.4540815e+00   8.9800715e-01  -2.3964634e+07
   7.7425809e-10  -6.1696216e-03   1.4528844e+00   8.9893994e-01  -2.3871946e+07
   7.7525842e-10  -6.1457879e-03   1.4516925e+00   8.9986984e-01  -2.3779620e+07
   7.7625875e-10  -6.1220464e-03   1.4505057e+00   9.0079685e-01  -2.3687654e+07
   7.7725909e-10  -6.0983967e-03   1.4493242e+00   9.0172097e-01  -2.3596045e+07
   7.7825942e-10  -6.0748385e-03   1.4481477e+00   9.0264222e-01  -2.3504794e+07
   7.7925975e-10  -6.0513713e-03   1.4469763e+00   9.0356059e-01  -2.3413897e+07
   7.8026009e-10  -6.0279949e-03   1.4458101e+00   9.0447609e-01  -2.3323355e+07
   7.8126042e-10  -6.0047089e-03   1.4446489e+00   9.0538874e-01  -2.3233165e+07
   7.8226075e-10  -5.9815130e-03   1.4434927e+00   9.0629852e-01  -2.3143327e+07
   7.8326109e-10  -5.9584067e-03   1.4423415e+00   9.0720546e-01  -2.3053838e+07
   7.8426142e-10  -5.9353898e-03   1.4411953e+00   9.0810956e-01  -2.2964697e+07
   7.8526175e-10  -5.9124619e-03   1.4400541e+00   9.0901082e-01  -2.2875903e+07
   7.8626209e-10  -5.8896226e-03   1.4389178e+00   9.0990925e-01  -2.2787455e+07
   7.8726242e-10  -5.8668717e-03   1.4377864e+00   9.1080486e-01  -2.2699351e+07
   7.8826275e-10  -5.8442087e-03   1.4366600e+00   9.1169765e-01  -2.2611589e+07
   7.8926309e-10  -5.8216333e-03   1.4355384e+00   9.1258762e-01  -2.2524169e+07
   7.9026342e-10  -5.7991452e-03   1.4344216e+00   9.1347480e-01  -2.2437089e+07
   7.9126375e-10  -5.7767441e-03   1.4333097e+00   9.1435917e-01  -2.2350348e+07
   7.9226409e-10  -5.7544295e-03   1.4322026e+00   9.1524075e-01  -2.2263944e+07
   7.9326442e-10  -5.7322012e-03   1.4311002e+00   9.1611954e-01  -2.2177876e+07
   7.9426475e-10  -5.7100589e-03   1.4300026e+00   9.1699555e-01  -2.2092143e+07
   7.9526509e-10  -5.6880021e-03   1.4289098e+00   9.1786879e-01  -2.2006743e+07
   7.9626542e-10  -5.6660306e-03   1.4278216e+00   9.1873926e-01  -2.1921675e+07
   7.9726576e-10  -5.6441440e-03   1.4267382e+00   9.1960697e-01  -2.1836938e+07
   7.9826609e-10  -5.6223420e-03   1.4256594e+00   9.2047192e-01  -2.1752530e+07
   7.9926642e-10  -5.6006243e-03   1.4245853e+00   9.2133412e-01  -2.1668450e+07
   8.0026676e-10  -5.5789906e-03   1.4235158e+00   9.2219358e-01  -2.1584697e+07
   8.0126709e-10  -5.5574404e-03   1.4224509e+00   9.2305030e-01  -2.1501270e+07
   8.0226742e-10  -5.5359736e-03   1.4213906e+00   9.2390429e-01  -2.1418166e+07
   8.0326776e-10  -5.5145897e-03   1.4203348e+00   9.2475556e-01  -2.1335386e+07
   8.0426809e-10  -5.4932885e-03   1.4192836e+00   9.2560411e-01  -2.1252927e+07
   8.0526842e-10  -5.4720696e-03   1.4182369e+00   9.2644994e-01  -2.1170788e+07
   8.0626876e-10  -5.4509327e-03   1.4171948e+00   9.2729308e-01  -2.1088968e+07
   8.0726909e-10  -5.4298775e-03   1.4161571e+00   9.2813351e-01  -2.1007466e+07
   8.0826942e-10  -5.4089036e-03   1.4151238e+00   9.2897125e-01  -2.0926281e+07
   8.0926976e-10  -5.3880109e-03   1.4140950e+00   9.2980630e-01  -2.0845411e+07
   8.1027009e-10  -5.3671988e-03   1.4130706e+00   9.3063868e-01  -2.0764855e+07
   8.1127042e-10  -5.3464672e-03   1.4120506e+00   9.3146838e-01  -2.0684611e+07
   8.1227076e-10  -5.3258157e-03   1.4110350e+00   9.3229541e-01  -2.0604680e+07
   8.1327109e-10  -5.3052440e-03   1.4100237e+00   9.3311978e-01  -2.0525058e+07
   8.1427142e-10  -5.2847518e-03   1.4090168e+00   9.3394149e-01  -2.0445746e+07
   8.1527176e-10  -5.2643388e-03   1.4080142e+00   9.3476056e-01  -2.0366741e+07
   8.1627209e-10  -5.2440046e-03   1.4070158e+00   9.3557699e-01  -2.0288043e+07
   8.1727242e-10  -5.2237491e-03   1.4060218e+00   9.3639078e-01  -2.0209651e+07
   8.1827276e-10  -5.2035717e-03   1.4050320e+00   9.3720194e-01  -2.0131562e+07
   8.1927309e-10  -5.1834724e-03   1.4040464e+00   9.3801048e-01  -2.0053777e+07
   8.2027342e-10  -5.1634507e-03   1.4030651e+00   9.3881640e-01  -1.9976294e+07
   8.2127376e-10  -5.1435064e-03   1.4020880e+00   9.3961971e-01  -1.9899111e+07
   8.2227409e-10  -5.1236391e-03   1.4011150e+00   9.4042041e-01  -1.9822227e+07
   8.2327442e-10  -5.1038486e-03   1.4001462e+00   9.4121852e-01  -1.9745642e+07
   8.2427476e-10  -5.0841346e-03   1.3991816e+00   9.4201404e-01  -1.9669354e+07
   8.2527509e-10  -5.0644967e-03   1.3982210e+00   9.4280697e-01  -1.9593362e+07
   8.2627543e-10  -5.0449347e-03   1.3972646e+00   9.4359733e-01  -1.9517664e+07
   8.2727576e-10  -5.0254483e-03   1.3963122e+00   9.4438511e-01  -1.9442260e+07
   8.2827609e-10  -5.0060371e-03   1.3953639e+00   9.4517033e-01  -1.9367148e+07
   8.2927643e-10  -4.9867009e-03   1.3944197e+00   9.4595298e-01  -1.9292328e+07
   8.3027676e-10  -4.9674395e-03   1.3934795e+00   9.4673309e-01  -1.9217798e+07
   8.3127709e-10  -4.9482524e-03   1.3925433e+00   9.4751065e-01  -1.9143557e+07
   8.3227743e-10  -4.9291395e-03   1.3916111e+00   9.4828566e-01  -1.9069603e+07
   8.3327776e-10  -4.9101004e-03   1.3906828e+00   9.4905815e-01  -1.8995936e+07
   8.3427809e-10  -4.8911349e-03   1.3897585e+00   9.4982810e-01  -1.8922555e+07
   8.3527843e-10  -4.8722426e-03   1.3888382e+00   9.5059554e-01  -1.8849458e+07
   8.3627876e-10  -4.8534233e-03   1.3879217e+00   9.5136046e-01  -1.8776645e+07
   8.3727909e-10  -4.8346767e-03   1.3870092e+00   9.5212287e-01  -1.8704114e+07
   8.3827943e-10  -4.8160025e-03   1.3861006e+00   9.5288278e-01  -1.8631864e+07
   8.3927976e-10  -4.7974004e-03   1.3851958e+00   9.5364020e-01  -1.8559893e+07
   8.4028009e-10  -4.7788702e-03   1.3842948e+00   9.5439512e-01  -1.8488202e+07
   8.4128043e-10  -4.7604116e-03   1.3833977e+00   9.5514756e-01  -1.8416788e+07
   8.4228076e-10  -4.7420243e-03   1.3825044e+00   9.5589753e-01  -1.8345652e+07
   8.4328109e-10  -4.7237080e-03   1.3816149e+00   9.5664503e-01  -1.8274790e+07
   8.4428143e-10  -4.7054624e-03   1.3807292e+00   9.5739006e-01  -1.8204204e+07
   8.4528176e-10  -4.6872874e-03   1.3798472e+00   9.5813263e-01  -1.8133890e+07
   8.4628209e-10  -4.6691825e-03   1.3789690e+00   9.5887276e-01  -1.8063849e+07
   8.4728243e-10  -4.6511475e-03   1.3780945e+00   9.5961044e-01  -1.7994080e+07
   8.4828276e-10  -4.6331822e-03   1.3772237e+00   9.6034568e-01  -1.7924580e+07
   8.4928309e-10  -4.6152863e-03   1.3763566e+00   9.6107849e-01  -1.7855350e+07
   8.5028343e-10  -4.5974595e-03   1.3754932e+00   9.6180887e-01  -1.7786388e+07
   8.5128376e-10  -4.5797016e-03   1.3746334e+00   9.6253684e-01  -1.7717693e+07
   8.5228409e-10  -4.5620122e-03   1.3737773e+00   9.6326239e-01  -1.7649264e+07
   8.5328443e-10  -4.5443912e-03   1.3729248e+00   9.6398553e-01  -1.7581100e+07
   8.5428476e-10  -4.5268382e-03   1.3720759e+00   9.6470628e-01  -1.7513200e+07
   8.5528510e-10  -4.5093530e-03   1.3712307e+00   9.6542463e-01  -1.7445562e+07
   8.5628543e-10  -4.4919354e-03   1.3703889e+00   9.6614059e-01  -1.7378187e+07
   8.5728576e-10  -4.4745850e-03   1.3695508e+00   9.6685418e-01  -1.7311073e+07
   8.5828610e-10  -4.4573016e-03   1.3687162e+00   9.6756539e-01  -1.7244218e+07
   8.5928643e-10  -4.4400850e-03   1.3678851e+00   9.6827423e-01  -1.7177622e+07
   8.6028676e-10  -4.4229348e-03   1.3670575e+00   9.6898070e-01  -1.7111284e+07
   8.6128710e-10  -4.4058509e-03   1.3662335e+00   9.6968482e-01  -1.7045202e+07
   8.6228743e-10  -4.3888330e-03   1.3654129e+00   9.7038660e-01  -1.6979377e+07
   8.6328776e-10  -4.3718807e-03   1.3645957e+00   9.7108603e-01  -1.6913806e+07
   8.6428810e-10  -4.3549940e-03   1.3637821e+00   9.7178312e-01  -1.6848489e+07
   8.6528843e-10  -4.3381724e-03   1.3629718e+00   9.7247788e-01  -1.6783424e+07
   8.6628876e-10  -4.3214159e-03   1.3621650e+00   9.7317032e-01  -1.6718612e+07
   8.6728910e-10  -4.3047240e-03   1.3613616e+00   9.7386044e-01  -1.6654050e+07
   8.6828943e-10  -4.2880966e-03   1.3605615e+00   9.7454824e-01  -1.6589738e+07
   8.6928976e-10  -4.2715334e-03   1.3597649e+00   9.7523375e-01  -1.6525675e+07
   8.7029010e-10  -4.2550341e-03   1.3589716e+00   9.7591695e-01  -1.6461860e+07
   8.7129043e-10  -4.2385986e-03   1.3581816e+00   9.7659786e-01  -1.6398291e+07
   8.7229076e-10  -4.2222265e-03   1.3573950e+00   9.7727648e-01  -1.6334969e+07
   8.7329110e-10  -4.2059177e-03   1.3566117e+00   9.7795283e-01  -1.6271891e+07
   8.7429143e-10  -4.1896718e-03   1.3558316e+00   9.7862690e-01  -1.6209058e+07
   8.7529176e-10  -4.1734887e-03   1.3550549e+00   9.7929870e-01  -1.6146467e+07
   8.7629210e-10  -4.1573680e-03   1.3542814e+00   9.7996824e-01  -1.6084119e+07
   8.7729243e-10  -4.1413096e-03   1.3535112e+00   9.8063552e-01  -1.6022012e+07
   8.7829276e-10  -4.1253132e-03   1.3527442e+00   9.8130056e-01  -1.5960145e+07
   8.7929310e-10  -4.1093786e-03   1.3519804e+00   9.8196335e-01  -1.5898517e+07
   8.8029343e-10  -4.0935055e-03   1.3512199e+00   9.8262391e-01  -1.5837128e+07
   8.8129376e-10  -4.0776937e-03   1.3504625e+00   9.8328223e-01  -1.5775976e+07
   8.8229410e-10  -4.0619430e-03   1.3497084e+00   9.8393833e-01  -1.5715061e+07
   8.8329443e-10  -4.0462530e-03   1.3489574e+00   9.8459222e-01  -1.5654381e+07
   8.8429476e-10  -4.0306237e-03   1.3482095e+00   9.8524389e-01  -1.5593936e+07
   8.8529510e-10  -4.0150547e-03   1.3474648e+00   9.8589336e-01  -1.5533724e+07
   8.8629543e-10  -3.9995458e-03   1.3467232e+00   9.8654062e-01  -1.5473746e+07
   8.8729577e-10  -3.9840968e-03   1.3459847e+00   9.8718570e-01  -1.5413999e+07
   8.8829610e-10  -3.9687075e-03   1.3452493e+00   9.8782858e-01  -1.5354483e+07
   8.8929643e-10  -3.9533775e-03   1.3445170e+00   9.8846929e-01  -1.5295198e+07
   8.9029677e-10  -3.9381068e-03   1.3437878e+00   9.8910782e-01  -1.5236141e+07
   8.9129710e-10  -3.9228950e-03   1.3430616e+00   9.8974418e-01  -1.5177313e+07
   8.9229743e-10  -3.9077420e-03   1.3423385e+00   9.9037838e-01  -1.5118712e+07
   8.9329777e-10  -3.8926474e-03   1.3416184e+00   9.9101043e-01  -1.5060338e+07
   8.9429810e-10  -3.8776112e-03   1.3409013e+00   9.9164032e-01  -1.5002190e+07
   8.9529843e-10  -3.8626330e-03   1.3401872e+00   9.9226807e-01  -1.4944266e+07
   8.9629877e-10  -3.8477126e-03   1.3394761e+00   9.9289368e-01  -1.4886566e+07
   8.9729910e-10  -3.8328498e-03   1.3387679e+00   9.9351716e-01  -1.4829089e+07
   8.9829943e-10  -3.8180444e-03   1.3380628e+00   9.9413851e-01  -1.4771834e+07
   8.9929977e-10  -3.8032962e-03   1.3373605e+00   9.9475775e-01  -1.4714801e+07
   9.0030010e-10  -3.7886050e-03   1.3366613e+00   9.9537487e-01  -1.4657988e+07
   9.0130043e-10  -3.7739704e-03   1.3359649e+00   9.9598988e-01  -1.4601395e+07
   9.0230077e-10  -3.7593924e-03   1.3352714e+00   9.9660279e-01  -1.4545020e+07
   9.0330110e-10  -3.7448706e-03   1.3345809e+00   9.9721361e-01  -1.4488863e+07
   9.0430143e-10  -3.7304049e-03   1.3338932e+00   9.9782234e-01  -1.4432923e+07
   9.0530177e-10  -3.7159951e-03   1.3332084e+00   9.9842898e-01  -1.4377200e+07
   9.0630210e-10  -3.7016408e-03   1.3325264e+00   9.9903354e-01  -1.4321691e+07
   9.0730243e-10  -3.6873420e-03   1.3318473e+00   9.9963604e-01  -1.4266398e+07
   9.0830277e-10  -3.6730985e-03   1.3311711e+00   1.0002365e+00  -1.4211317e+07
   9.0930310e-10  -3.6589099e-03   1.3304976e+00   1.0008348e+00  -1.4156450e+07
   9.1030343e-10  -3.6447761e-03   1.3298270e+00   1.0014312e+00  -1.4101795e+07
   9.1130377e-10  -3.6306968e-03   1.3291591e+00   1.0020254e+00  -1.4047350e+07
   9.1230410e-10  -3.6166719e-03   1.3284941e+00   1.0026177e+00  -1.3993117e+07
   9.1330443e-10  -3.6027012e-03   1.3278318e+00   1.0032079e+00  -1.3939092e+07
   9.1430477e-10  -3.5887844e-03   1.3271722e+00   1.0037960e+00  -1.3885277e+07
   9.1530510e-10  -3.5749213e-03   1.3265154e+00   1.0043822e+00  -1.3831669e+07
   9.1630544e-10  -3.5611117e-03   1.3258614e+00   1.0049663e+00  -1.3778268e+07
   9.1730577e-10  -3.5473555e-03   1.3252100e+00   1.0055484e+00  -1.3725074e+07
   9.1830610e-10  -3.5336524e-03   1.3245614e+00   1.0061285e+00  -1.3672085e+07
   9.1930644e-10  -3.5200021e-03   1.3239155e+00   1.0067066e+00  -1.3619301e+07
   9.2030677e-10  -3.5064046e-03   1.3232722e+00   1.0072827e+00  -1.3566721e+07
   9.2130710e-10  -3.4928596e-03   1.3226317e+00   1.0078568e+00  -1.3514344e+07
   9.2230744e-10  -3.4793668e-03   1.3219938e+00   1.0084290e+00  -1.3462169e+07
   9.2330777e-10  -3.4659262e-03   1.3213585e+00   1.0089992e+00  -1.3410196e+07
   9.2430810e-10  -3.4525374e-03   1.3207259e+00   1.0095673e+00  -1.3358423e+07
   9.2530844e-10  -3.4392004e-03   1.3200959e+00   1.0101336e+00  -1.3306850e+07
   9.2630877e-10  -3.4259148e-03   1.3194685e+00   1.0106979e+00  -1.3255477e+07
   9.2730910e-10  -3.4126805e-03   1.3188438e+00   1.0112602e+00  -1.3204302e+07
   9.2830944e-10  -3.3994973e-03   1.3182216e+00   1.0118206e+00  -1.3153325e+07
   9.2930977e-10  -3.3863650e-03   1.3176020e+00   1.0123790e+00  -1.3102544e+07
   9.3031010e-10  -3.3732834e-03   1.3169850e+00   1.0129355e+00  -1.3051960e+07
   9.3131044e-10  -3.3602523e-03   1.3163705e+00   1.0134901e+00  -1.3001571e+07
   9.3231077e-10  -3.3472716e-03   1.3157586e+00   1.0140427e+00  -1.2951377e+07
   9.3331110e-10  -3.3343409e-03   1.3151492e+00   1.0145934e+00  -1.2901376e+07
   9.3431144e-10  -3.3214601e-03   1.3145423e+00   1.0151422e+00  -1.2851568e+07
   9.3531177e-10  -3.3086291e-03   1.3139380e+00   1.0156891e+00  -1.2801953e+07
   9.3631210e-10  -3.2958476e-03   1.3133362e+00   1.0162342e+00  -1.2752530e+07
   9.3731244e-10  -3.2831155e-03   1.3127368e+00   1.0167773e+00  -1.2703297e+07
   9.3831277e-10  -3.2704325e-03   1.3121399e+00   1.0173185e+00  -1.2654254e+07
   9.3931310e-10  -3.2577985e-03   1.3115456e+00   1.0178578e+00  -1.2605401e+07
   9.4031344e-10  -3.2452132e-03   1.3109536e+00   1.0183953e+00  -1.2556737e+07
   9.4131377e-10  -3.2326766e-03   1.3103641e+00   1.0189309e+00  -1.2508260e+07
   9.4231410e-10  -3.2201883e-03   1.3097771e+00   1.0194646e+00  -1.2459970e+07
   9.4331444e-10  -3.2077483e-03   1.3091925e+00   1.0199965e+00  -1.2411867e+07
   9.4431477e-10  -3.1953562e-03   1.3086103e+00   1.0205265e+00  -1.2363950e+07
   9.4531511e-10  -3.1830120e-03   1.3080305e+00   1.0210547e+00  -1.2316217e+07
   9.4631544e-10  -3.1707155e-03   1.3074531e+00   1.0215810e+00  -1.2268669e+07
   9.4731577e-10  -3.1584665e-03   1.3068781e+00   1.0221054e+00  -1.2221305e+07
   9.4831611e-10  -3.1462647e-03   1.3063054e+00   1.0226281e+00  -1.2174123e+07
   9.4931644e-10  -3.1341100e-03   1.3057351e+00   1.0231489e+00  -1.2127124e+07
   9.5031677e-10  -3.1220023e-03   1.3051672e+00   1.0236679e+00  -1.2080306e+07
   9.5131711e-10  -3.1099413e-03   1.3046016e+00   1.0241851e+00  -1.2033668e+07
   9.5231744e-10  -3.0979269e-03   1.3040384e+00   1.0247005e+00  -1.1987211e+07
   9.5331777e-10  -3.0859588e-03   1.3034775e+00   1.0252140e+00  -1.1940933e+07
   9.5431811e-10  -3.0740370e-03   1.3029189e+00   1.0257258e+00  -1.1894834e+07
   9.5531844e-10  -3.0621612e-03   1.3023626e+00   1.0262358e+00  -1.1848912e+07
   9.5631877e-10  -3.0503312e-03   1.3018086e+00   1.0267440e+00  -1.1803168e+07
   9.5731911e-10  -3.0385469e-03   1.3012568e+00   1.0272504e+00  -1.1757601e+07
   9.5831944e-10  -3.0268081e-03   1.3007074e+00   1.0277550e+00  -1.1712209e+07
   9.5931977e-10  -3.0151146e-03   1.3001602e+00   1.0282579e+00  -1.1666993e+07
   9.6032011e-10  -3.0034663e-03   1.2996153e+00   1.0287590e+00  -1.1621951e+07
   9.6132044e-10  -2.9918629e-03   1.2990726e+00   1.0292583e+00  -1.1577083e+07
   9.6232077e-10  -2.9803043e-03   1.2985321e+00   1.0297559e+00  -1.1532388e+07
   9.6332111e-10  -2.9687904e-03   1.2979939e+00   1.0302517e+00  -1.1487866e+07
   9.6432144e-10  -2.9573209e-03   1.2974579e+00   1.0307458e+00  -1.1443516e+07
   9.6532177e-10  -2.9458957e-03   1.2969241e+00   1.0312381e+00  -1.1399337e+07
   9.6632211e-10  -2.9345146e-03   1.2963925e+00   1.0317287e+00  -1.1355328e+07
   9.6732244e-10  -2.9231774e-03   1.2958631e+00   1.0322176e+00  -1.1311489e+07
   9.6832277e-10  -2.9118840e-03   1.2953358e+00   1.0327048e+00  -1.1267819e+07
   9.6932311e-10  -2.9006342e-03   1.2948107e+00   1.0331902e+00  -1.1224318e+07
   9.7032344e-10  -2.8894278e-03   1.2942878e+00   1.0336740e+00  -1.1180985e+07
   9.7132377e-10  -2.8782647e-03   1.2937671e+00   1.0341560e+00  -1.1137819e+07
   9.7232411e-10  -2.8671447e-03   1.2932484e+00   1.0346363e+00  -1.1094820e+07
   9.7332444e-10  -2.8560676e-03   1.2927319e+00   1.0351150e+00  -1.1051986e+07
   9.7432477e-10  -2.8450333e-03   1.2922175e+00   1.0355919e+00  -1.1009318e+07
   9.7532511e-10  -2.8340416e-03   1.2917053e+00   1.0360672e+00  -1.0966815e+07
   9.7632544e-10  -2.8230923e-03   1.2911951e+00   1.0365407e+00  -1.0924475e+07
   9.7732578e-10  -2.8121853e-03   1.2906870e+00   1.0370126e+00  -1.0882299e+07
   9.7832611e-10  -2.8013204e-03   1.2901811e+00   1.0374829e+00  -1.0840286e+07
   9.7932644e-10  -2.7904974e-03   1.2896772e+00   1.0379515e+00  -1.0798435e+07
   9.8032678e-10  -2.7797162e-03   1.2891753e+00   1.0384184e+00  -1.0756746e+07
   9.8132711e-10  -2.7689767e-03   1.2886755e+00   1.0388836e+00  -1.0715217e+07
   9.8232744e-10  -2.7582786e-03   1.2881778e+00   1.0393472e+00  -1.0673848e+07
   9.8332778e-10  -2.7476218e-03   1.2876821e+00   1.0398092e+00  -1.0632640e+07
   9.8432811e-10  -2.7370062e-03   1.2871884e+00   1.0402695e+00  -1.0591590e+07
   9.8532844e-10  -2.7264315e-03   1.2866968e+00   1.0407282e+00  -1.0550699e+07
   9.8632878e-10  -2.7158977e-03   1.2862072e+00   1.0411853e+00  -1.0509965e+07
   9.8732911e-10  -2.7054045e-03   1.2857196e+00   1.0416408e+00  -1.0469389e+07
   9.8832944e-10  -2.6949519e-03   1.2852339e+00   1.0420946e+00  -1.0428969e+07
   9.8932978e-10  -2.6845396e-03   1.2847503e+00   1.0425468e+00  -1.0388705e+07
   9.9033011e-10  -2.6741675e-03   1.2842686e+00   1.0429974e+00  -1.0348597e+07
   9.9133044e-10  -2.6638355e-03   1.2837890e+00   1.0434465e+00  -1.0308643e+07
   9.9233078e-10  -2.6535433e-03   1.2833112e+00   1.0438939e+00  -1.0268843e+07
   9.9333111e-10  -2.6432909e-03   1.2828355e+00   1.0443397e+00  -1.0229198e+07
   9.9433144e-10  -2.6330780e-03   1.2823617e+00   1.0447840e+00  -1.0189705e+07
   9.9533178e-10  -2.6229046e-03   1.2818898e+00   1.0452266e+00  -1.0150364e+07
   9.9633211e-10  -2.6127705e-03   1.2814198e+00   1.0456677e+00  -1.0111175e+07
   9.9733244e-10  -2.6026755e-03   1.2809518e+00   1.0461072e+00  -1.0072138e+07
   9.9833278e-10  -2.5926194e-03   1.2804857e+00   1.0465452e+00  -1.0033251e+07
   9.9933311e-10  -2.5826022e-03   1.2800215e+00   1.0469816e+00  -9.9945142e+06
   1.0003334e-09  -2.5726237e-03   1.2795591e+00   1.0474164e+00  -9.9559268e+06
   1.0013338e-09  -2.5626837e-03   1.2790987e+00   1.0478497e+00  -9.9174884e+06
   1.0023341e-09  -2.5527821e-03   1.2786402e+00   1.0482814e+00  -9.8791982e+06
   1.0033344e-09  -2.5429186e-03   1.2781835e+00   1.0487116e+00  -9.8410558e+06
   1.0043348e-09  -2.5330933e-03   1.2777287e+00   1.0491403e+00  -9.8030606e+06
   1.0053351e-09  -2.5233059e-03   1.2772757e+00   1.0495674e+00  -9.7652119e+06
   1.0063354e-09  -2.5135563e-03   1.2768246e+00   1.0499930e+00  -9.7275093e+06
   1.0073358e-09  -2.5038444e-03   1.2763753e+00   1.0504171e+00  -9.6899522e+06
   1.0083361e-09  -2.4941699e-03   1.2759279e+00   1.0508397e+00  -9.6525400e+06
   1.0093364e-09  -2.4845328e-03   1.2754823e+00   1.0512607e+00  -9.6152721e+06
   1.0103368e-09  -2.4749329e-03   1.2750385e+00   1.0516803e+00  -9.5781481e+06
   1.0113371e-09  -2.4653701e-03   1.2745965e+00   1.0520984e+00  -9.5411673e+06
   1.0123374e-09  -2.4558442e-03   1.2741563e+00   1.0525149e+00  -9.5043291e+06
   1.0133378e-09  -2.4463550e-03   1.2737180e+00   1.0529300e+00  -9.4676331e+06
   1.0143381e-09  -2.4369026e-03   1.2732814e+00   1.0533436e+00  -9.4310787e+06
   1.0153384e-09  -2.4274866e-03   1.2728465e+00   1.0537557e+00  -9.3946653e+06
   1.0163388e-09  -2.4181069e-03   1.2724135e+00   1.0541663e+00  -9.3583924e+06
   1.0173391e-09  -2.4087635e-03   1.2719822e+00   1.0545754e+00  -9.3222595e+06
   1.0183394e-09  -2.3994561e-03   1.2715527e+00   1.0549831e+00  -9.2862660e+06
   1.0193398e-09  -2.3901847e-03   1.2711249e+00   1.0553893e+00  -9.2504113e+06
   1.0203401e-09  -2.3809491e-03   1.2706989e+00   1.0557941e+00  -9.2146950e+06
   1.0213404e-09  -2.3717491e-03   1.2702745e+00   1.0561974e+00  -9.1791165e+06
   1.0223408e-09  -2.3625847e-03   1.2698520e+00   1.0565993e+00  -9.1436752e+06
   1.0233411e-09  -2.3534556e-03   1.2694311e+00   1.0569997e+00  -9.1083707e+06
   1.0243414e-09  -2.3443618e-03   1.2690120e+00   1.0573987e+00  -9.0732024e+06
   1.0253418e-09  -2.3353031e-03   1.2685945e+00   1.0577962e+00  -9.0381698e+06
   1.0263421e-09  -2.3262794e-03   1.2681788e+00   1.0581923e+00  -9.0032723e+06
   1.0273424e-09  -2.3172905e-03   1.2677647e+00   1.0585870e+00  -8.9685095e+06
   1.0283428e-09  -2.3083364e-03   1.2673523e+00   1.0589803e+00  -8.9338808e+06
   1.0293431e-09  -2.2994168e-03   1.2669416e+00   1.0593722e+00  -8.8993857e+06
   1.0303434e-09  -2.2905316e-03   1.2665326e+00   1.0597626e+00  -8.8650237e+06
   1.0313438e-09  -2.2816808e-03   1.2661252e+00   1.0601516e+00  -8.8307943e+06
   1.0323441e-09  -2.2728641e-03   1.2657195e+00   1.0605393e+00  -8.7966969e+06
   1.0333444e-09  -2.2640815e-03   1.2653154e+00   1.0609255e+00  -8.7627311e+06
   1.0343448e-09  -2.2553327e-03   1.2649130e+00   1.0613104e+00  -8.7288963e+06
   1.0353451e-09  -2.2466178e-03   1.2645122e+00   1.0616939e+00  -8.6951921e+06
   1.0363454e-09  -2.2379365e-03   1.2641131e+00   1.0620759e+00  -8.6616179e+06
   1.0373458e-09  -2.2292888e-03   1.2637155e+00   1.0624567e+00  -8.6281732e+06
   1.0383461e-09  -2.2206744e-03   1.2633196e+00   1.0628360e+00  -8.5948576e+06
   1.0393464e-09  -2.2120933e-03   1.2629253e+00   1.0632140e+00  -8.5616705e+06
   1.0403468e-09  -2.2035453e-03   1.2625325e+00   1.0635906e+00  -8.5286114e+06
   1.0413471e-09  -2.1950303e-03   1.2621414e+00   1.0639658e+00  -8.4956799e+06
   1.0423474e-09  -2.1865482e-03   1.2617518e+00   1.0643397e+00  -8.4628754e+06
   1.0433478e-09  -2.1780989e-03   1.2613639e+00   1.0647122e+00  -8.4301975e+06
   1.0443481e-09  -2.1696822e-03   1.2609775e+00   1.0650834e+00  -8.3976456e+06
   1.0453484e-09  -2.1612979e-03   1.2605926e+00   1.0654533e+00  -8.3652194e+06
   1.0463488e-09  -2.1529461e-03   1.2602094e+00   1.0658218e+00  -8.3329182e+06
   1.0473491e-09  -2.1446265e-03   1.2598277e+00   1.0661889e+00  -8.3007417e+06
   1.0483494e-09  -2.1363390e-03   1.2594475e+00   1.0665548e+00  -8.2686893e+06
   1.0493498e-09  -2.1280836e-03   1.2590688e+00   1.0669193e+00  -8.2367606e+06
   1.0503501e-09  -2.1198600e-03   1.2586917e+00   1.0672825e+00  -8.2049550e+06
   1.0513505e-09  -2.1116681e-03   1.2583162e+00   1.0676444e+00  -8.1732722e+06
   1.0523508e-09  -2.1035079e-03   1.2579421e+00   1.0680050e+00  -8.1417115e+06
   1.0533511e-09  -2.0953793e-03   1.2575696e+00   1.0683643e+00  -8.1102727e+06
   1.0543515e-09  -2.0872820e-03   1.2571985e+00   1.0687222e+00  -8.0789551e+06
   1.0553518e-09  -2.0792159e-03   1.2568290e+00   1.0690789e+00  -8.0477584e+06
   1.0563521e-09  -2.0711810e-03   1.2564610e+00   1.0694343e+00  -8.0166820e+06
   1.0573525e-09  -2.0631772e-03   1.2560944e+00   1.0697884e+00  -7.9857255e+06
   1.0583528e-09  -2.0552042e-03   1.2557294e+00   1.0701412e+00  -7.9548885e+06
   1.0593531e-09  -2.0472620e-03   1.2553658e+00   1.0704927e+00  -7.9241704e+06
   1.0603535e-09  -2.0393505e-03   1.2550037e+00   1.0708430e+00  -7.8935708e+06
   1.0613538e-09  -2.0314696e-03   1.2546430e+00   1.0711920e+00  -7.8630893e+06
   1.0623541e-09  -2.0236191e-03   1.2542838e+00   1.0715397e+00  -7.8327253e+06
   1.0633545e-09  -2.0157989e-03   1.2539261e+00   1.0718861e+00  -7.8024786e+06
   1.0643548e-09  -2.0080089e-03   1.2535698e+00   1.0722313e+00  -7.7723485e+06
   1.0653551e-09  -2.0002490e-03   1.2532149e+00   1.0725753e+00  -7.7423346e+06
   1.0663555e-09  -1.9925190e-03   1.2528615e+00   1.0729179e+00  -7.7124366e+06
   1.0673558e-09  -1.9848189e-03   1.2525095e+00   1.0732594e+00  -7.6826539e+06
   1.0683561e-09  -1.9771485e-03   1.2521589e+00   1.0735996e+00  -7.6529861e+06
   1.0693565e-09  -1.9695078e-03   1.2518097e+00   1.0739386e+00  -7.6234327e+06
   1.0703568e-09  -1.9618966e-03   1.2514620e+00   1.0742763e+00  -7.5939934e+06
   1.0713571e-09  -1.9543147e-03   1.2511156e+00   1.0746128e+00  -7.5646677e+06
   1.0723575e-09  -1.9467621e-03   1.2507707e+00   1.0749481e+00  -7.5354551e+06
   1.0733578e-09  -1.9392387e-03   1.2504271e+00   1.0752821e+00  -7.5063552e+06
   1.0743581e-09  -1.9317444e-03   1.2500849e+00   1.0756150e+00  -7.4773676e+06
   1.0753585e-09  -1.9242790e-03   1.2497441e+00   1.0759466e+00  -7.4484918e+06
   1.0763588e-09  -1.9168424e-03   1.2494047e+00   1.0762770e+00  -7.4197274e+06
   1.0773591e-09  -1.9094345e-03   1.2490666e+00   1.0766062e+00  -7.3910740e+06
   1.0783595e-09  -1.9020553e-03   1.2487299e+00   1.0769342e+00  -7.3625311e+06
   1.0793598e-09  -1.8947045e-03   1.2483946e+00   1.0772610e+00  -7.3340984e+06
   1.0803601e-09  -1.8873822e-03   1.2480606e+00   1.0775867e+00  -7.3057753e+06
   1.0813605e-09  -1.8800881e-03   1.2477280e+00   1.0779111e+00  -7.2775616e+06
   1.0823608e-09  -1.8728221e-03   1.2473967e+00   1.0782344e+00  -7.2494566e+06
   1.0833611e-09  -1.8655843e-03   1.2470667e+00   1.0785564e+00  -7.2214602e+06
   1.0843615e-09  -1.8583744e-03   1.2467381e+00   1.0788773e+00  -7.1935717e+06
   1.0853618e-09  -1.8511923e-03   1.2464108e+00   1.0791970e+00  -7.1657908e+06
   1.0863621e-09  -1.8440380e-03   1.2460848e+00   1.0795156e+00  -7.1381171e+06
   1.0873625e-09  -1.8369113e-03   1.2457601e+00   1.0798330e+00  -7.1105502e+06
   1.0883628e-09  -1.8298121e-03   1.2454367e+00   1.0801492e+00  -7.0830896e+06
   1.0893631e-09  -1.8227403e-03   1.2451147e+00   1.0804643e+00  -7.0557350e+06
   1.0903635e-09  -1.8156959e-03   1.2447939e+00   1.0807782e+00  -7.0284859e+06
   1.0913638e-09  -1.8086786e-03   1.2444744e+00   1.0810910e+00  -7.0013420e+06
   1.0923641e-09  -1.8016885e-03   1.2441562e+00   1.0814026e+00  -6.9743028e+06
   1.0933645e-09  -1.7947254e-03   1.2438393e+00   1.0817131e+00  -6.9473679e+06
   1.0943648e-09  -1.7877891e-03   1.2435236e+00   1.0820225e+00  -6.9205369e+06
   1.0953651e-09  -1.7808796e-03   1.2432093e+00   1.0823307e+00  -6.8938095e+06
   1.0963655e-09  -1.7739969e-03   1.2428962e+00   1.0826378e+00  -6.8671851e+06
   1.0973658e-09  -1.7671406e-03   1.2425843e+00   1.0829438e+00  -6.8406635e+06
   1.0983661e-09  -1.7603109e-03   1.2422737e+00   1.0832486e+00  -6.8142442e+06
   1.0993665e-09  -1.7535076e-03   1.2419644e+00   1.0835524e+00  -6.7879269e+06
   1.1003668e-09  -1.7467305e-03   1.2416562e+00   1.0838550e+00  -6.7617111e+06
   1.1013671e-09  -1.7399796e-03   1.2413494e+00   1.0841565e+00  -6.7355964e+06
   1.1023675e-09  -1.7332548e-03   1.2410437e+00   1.0844569e+00  -6.7095825e+06
   1.1033678e-09  -1.7265559e-03   1.2407393e+00   1.0847562e+00  -6.6836690e+06
   1.1043681e-09  -1.7198830e-03   1.2404361e+00   1.0850544e+00  -6.6578554e+06
   1.1053685e-09  -1.7132358e-03   1.2401342e+00   1.0853515e+00  -6.6321415e+06
   1.1063688e-09  -1.7066142e-03   1.2398334e+00   1.0856476e+00  -6.6065268e+06
   1.1073691e-09  -1.7000183e-03   1.2395339e+00   1.0859425e+00  -6.5810108e+06
   1.1083695e-09  -1.6934478e-03   1.2392355e+00   1.0862363e+00  -6.5555934e+06
   1.1093698e-09  -1.6869027e-03   1.2389384e+00   1.0865291e+00  -6.5302740e+06
   1.1103701e-09  -1.6803828e-03   1.2386424e+00   1.0868208e+00  -6.5050523e+06
   1.1113705e-09  -1.6738882e-03   1.2383477e+00   1.0871115e+00  -6.4799279e+06
   1.1123708e-09  -1.6674186e-03   1.2380541e+00   1.0874010e+00  -6.4549005e+06
   1.1133711e-09  -1.6609741e-03   1.2377617e+00   1.0876895e+00  -6.4299696e+06
   1.1143715e-09  -1.6545544e-03   1.2374704e+00   1.0879769e+00  -6.4051349e+06
   1.1153718e-09  -1.6481595e-03   1.2371804e+00   1.0882633e+00  -6.3803961e+06
   1.1163721e-09  -1.6417893e-03   1.2368914e+00   1.0885487e+00  -6.3557527e+06
   1.1173725e-09  -1.6354437e-03   1.2366037e+00   1.0888329e+00  -6.3312044e+06
   1.1183728e-09  -1.6291226e-03   1.2363171e+00   1.0891162e+00  -6.3067508e+06
   1.1193731e-09  -1.6228260e-03   1.2360317e+00   1.0893984e+00  -6.2823915e+06
   1.1203735e-09  -1.6165536e-03   1.2357474e+00   1.0896795e+00  -6.2581263e+06
   1.1213738e-09  -1.6103055e-03   1.2354642e+00   1.0899596e+00  -6.2339547e+06
   1.1223741e-09  -1.6040815e-03   1.2351822e+00   1.0902387e+00  -6.2098763e+06
   1.1233745e-09  -1.5978816e-03   1.2349013e+00   1.0905168e+00  -6.1858909e+06
   1.1243748e-09  -1.5917056e-03   1.2346215e+00   1.0907938e+00  -6.1619980e+06
   1.1253751e-09  -1.5855535e-03   1.2343429e+00   1.0910698e+00  -6.1381973e+06
   1.1263755e-09  -1.5794251e-03   1.2340653e+00   1.0913448e+00  -6.1144884e+06
   1.1273758e-09  -1.5733204e-03   1.2337889e+00   1.0916188e+00  -6.0908711e+06
   1.1283761e-09  -1.5672392e-03   1.2335136e+00   1.0918918e+00  -6.0673448e+06
   1.1293765e-09  -1.5611816e-03   1.2332394e+00   1.0921637e+00  -6.0439093e+06
   1.1303768e-09  -1.5551474e-03   1.2329663e+00   1.0924347e+00  -6.0205643e+06
   1.1313771e-09  -1.5491364e-03   1.2326942e+00   1.0927047e+00  -5.9973093e+06
   1.1323775e-09  -1.5431487e-03   1.2324233e+00   1.0929736e+00  -5.9741441e+06
   1.1333778e-09  -1.5371841e-03   1.2321534e+00   1.0932416e+00  -5.9510683e+06
   1.1343781e-09  -1.5312426e-03   1.2318847e+00   1.0935086e+00  -5.9280815e+06
   1.1353785e-09  -1.5253240e-03   1.2316170e+00   1.0937746e+00  -5.9051834e+06
   1.1363788e-09  -1.5194282e-03   1.2313503e+00   1.0940396e+00  -5.8823737e+06
   1.1373791e-09  -1.5135553e-03   1.2310848e+00   1.0943037e+00  -5.8596520e+06
   1.1383795e-09  -1.5077050e-03   1.2308203e+00   1.0945667e+00  -5.8370179e+06
   1.1393798e-09  -1.5018773e-03   1.2305569e+00   1.0948288e+00  -5.8144712e+06
   1.1403801e-09  -1.4960722e-03   1.2302945e+00   1.0950899e+00  -5.7920116e+06
   1.1413805e-09  -1.4902894e-03   1.2300331e+00   1.0953501e+00  -5.7696385e+06
   1.1423808e-09  -1.4845290e-03   1.2297728e+00   1.0956093e+00  -5.7473518e+06
   1.1433811e-09  -1.4787908e-03   1.2295136e+00   1.0958675e+00  -5.7251512e+06
   1.1443815e-09  -1.4730749e-03   1.2292554e+00   1.0961248e+00  -5.7030361e+06
   1.1453818e-09  -1.4673809e-03   1.2289982e+00   1.0963812e+00  -5.6810065e+06
   1.1463821e-09  -1.4617090e-03   1.2287420e+00   1.0966366e+00  -5.6590618e+06
   1.1473825e-09  -1.4560590e-03   1.2284869e+00   1.0968910e+00  -5.6372018e+06
   1.1483828e-09  -1.4504308e-03   1.2282328e+00   1.0971445e+00  -5.6154262e+06
   1.1493831e-09  -1.4448244e-03   1.2279797e+00   1.0973971e+00  -5.5937346e+06
   1.1503835e-09  -1.4392396e-03   1.2277276e+00   1.0976487e+00  -5.5721267e+06
   1.1513838e-09  -1.4336764e-03   1.2274765e+00   1.0978994e+00  -5.5506022e+06
   1.1523841e-09  -1.4281347e-03   1.2272264e+00   1.0981492e+00  -5.5291608e+06
   1.1533845e-09  -1.4226144e-03   1.2269773e+00   1.0983980e+00  -5.5078021e+06
   1.1543848e-09  -1.4171154e-03   1.2267292e+00   1.0986459e+00  -5.4865258e+06
   1.1553851e-09  -1.4116376e-03   1.2264821e+00   1.0988929e+00  -5.4653317e+06
   1.1563855e-09  -1.4061810e-03   1.2262360e+00   1.0991390e+00  -5.4442193e+06
   1.1573858e-09  -1.4007455e-03   1.2259909e+00   1.0993842e+00  -5.4231884e+06
   1.1583861e-09  -1.3953310e-03   1.2257467e+00   1.0996285e+00  -5.4022387e+06
   1.1593865e-09  -1.3899374e-03   1.2255035e+00   1.0998718e+00  -5.3813698e+06
   1.1603868e-09  -1.3845647e-03   1.2252613e+00   1.1001143e+00  -5.3605814e+06
   1.1613871e-09  -1.3792127e-03   1.2250201e+00   1.1003559e+00  -5.3398733e+06
   1.1623875e-09  -1.3738813e-03   1.2247798e+00   1.1005965e+00  -5.3192451e+06
   1.1633878e-09  -1.3685706e-03   1.2245405e+00   1.1008363e+00  -5.2986965e+06
   1.1643881e-09  -1.3632804e-03   1.2243021e+00   1.1010752e+00  -5.2782272e+06
   1.1653885e-09  -1.3580106e-03   1.2240647e+00   1.1013132e+00  -5.2578369e+06
   1.1663888e-09  -1.3527612e-03   1.2238282e+00   1.1015503e+00  -5.2375253e+06
   1.1673891e-09  -1.3475320e-03   1.2235927e+00   1.1017865e+00  -5.2172921e+06
   1.1683895e-09  -1.3423231e-03   1.2233581e+00   1.1020219e+00  -5.1971370e+06
   1.1693898e-09  -1.3371343e-03   1.2231244e+00   1.1022564e+00  -5.1770596e+06
   1.1703901e-09  -1.3319655e-03   1.2228917e+00   1.1024900e+00  -5.1570598e+06
   1.1713905e-09  -1.3268167e-03   1.2226599e+00   1.1027227e+00  -5.1371371e+06
   1.1723908e-09  -1.3216877e-03   1.2224290e+00   1.1029546e+00  -5.1172913e+06
   1.1733911e-09  -1.3165786e-03   1.2221991e+00   1.1031856e+00  -5.0975221e+06
   1.1743915e-09  -1.3114893e-03   1.2219700e+00   1.1034158e+00  -5.0778292e+06
   1.1753918e-09  -1.3064196e-03   1.2217419e+00   1.1036451e+00  -5.0582124e+06
   1.1763921e-09  -1.3013695e-03   1.2215147e+00   1.1038736e+00  -5.0386712e+06
   1.1773925e-09  -1.2963388e-03   1.2212884e+00   1.1041012e+00  -5.0192054e+06
   1.1783928e-09  -1.2913277e-03   1.2210630e+00   1.1043279e+00  -4.9998148e+06
   1.1793931e-09  -1.2863359e-03   1.2208384e+00   1.1045538e+00  -4.9804990e+06
   1.1803935e-09  -1.2813633e-03   1.2206148e+00   1.1047789e+00  -4.9612578e+06
   1.1813938e-09  -1.2764100e-03   1.2203921e+00   1.1050031e+00  -4.9420908e+06
   1.1823941e-09  -1.2714758e-03   1.2201702e+00   1.1052265e+00  -4.9229978e+06
   1.1833945e-09  -1.2665607e-03   1.2199493e+00   1.1054491e+00  -4.9039785e+06
   1.1843948e-09  -1.2616646e-03   1.2197292e+00   1.1056709e+00  -4.8850326e+06
   1.1853951e-09  -1.2567874e-03   1.2195100e+00   1.1058918e+00  -4.8661598e+06
   1.1863955e-09  -1.2519290e-03   1.2192916e+00   1.1061119e+00  -4.8473599e+06
   1.1873958e-09  -1.2470894e-03   1.2190741e+00   1.1063311e+00  -4.8286325e+06
   1.1883961e-09  -1.2422685e-03   1.2188575e+00   1.1065496e+00  -4.8099774e+06
   1.1893965e-09  -1.2374662e-03   1.2186418e+00   1.1067672e+00  -4.7913943e+06
   1.1903968e-09  -1.2326825e-03   1.2184269e+00   1.1069841e+00  -4.7728829e+06
   1.1913971e-09  -1.2279172e-03   1.2182129e+00   1.1072001e+00  -4.7544430e+06
   1.1923975e-09  -1.2231704e-03   1.2179997e+00   1.1074153e+00  -4.7360743e+06
   1.1933978e-09  -1.2184419e-03   1.2177873e+00   1.1076297e+00  -4.7177764e+06
   1.1943981e-09  -1.2137317e-03   1.2175759e+00   1.1078434e+00  -4.6995492e+06
   1.1953985e-09  -1.2090396e-03   1.2173652e+00   1.1080562e+00  -4.6813924e+06
   1.1963988e-09  -1.2043657e-03   1.2171554e+00   1.1082682e+00  -4.6633056e+06
   1.1973991e-09  -1.1997099e-03   1.2169464e+00   1.1084794e+00  -4.6452886e+06
   1.1983995e-09  -1.1950720e-03   1.2167383e+00   1.1086899e+00  -4.6273412e+06
   1.1993998e-09  -1.1904521e-03   1.2165309e+00   1.1088996e+00  -4.6094631e+06
   1.2004001e-09  -1.1858500e-03   1.2163244e+00   1.1091084e+00  -4.5916539e+06
   1.2014005e-09  -1.1812657e-03   1.2161187e+00   1.1093165e+00  -4.5739135e+06
   1.2024008e-09  -1.1766991e-03   1.2159139e+00   1.1095239e+00  -4.5562416e+06
   1.2034011e-09  -1.1721502e-03   1.2157098e+00   1.1097304e+00  -4.5386379e+06
   1.2044015e-09  -1.1676188e-03   1.2155066e+00   1.1099362e+00  -4.5211022e+06
   1.2054018e-09  -1.1631049e-03   1.2153042e+00   1.1101412e+00  -4.5036341e+06
   1.2064021e-09  -1.1586085e-03   1.2151025e+00   1.1103455e+00  -4.4862335e+06
   1.2074025e-09  -1.1541294e-03   1.2149017e+00   1.1105489e+00  -4.4689000e+06
   1.2084028e-09  -1.1496677e-03   1.2147017e+00   1.1107517e+00  -4.4516334e+06
   1.2094031e-09  -1.1452232e-03   1.2145024e+00   1.1109536e+00  -4.4344335e+06
   1.2104035e-09  -1.1407958e-03   1.2143040e+00   1.1111549e+00  -4.4173000e+06
   1.2114038e-09  -1.1363856e-03   1.2141063e+00   1.1113553e+00  -4.4002326e+06
   1.2124041e-09  -1.1319924e-03   1.2139094e+00   1.1115550e+00  -4.3832311e+06
   1.2134045e-09  -1.1276162e-03   1.2137133e+00   1.1117540e+00  -4.3662953e+06
   1.2144048e-09  -1.1232569e-03   1.2135180e+00   1.1119522e+00  -4.3494248e+06
   1.2154051e-09  -1.1189144e-03   1.2133235e+00   1.1121497e+00  -4.3326194e+06
   1.2164055e-09  -1.1145888e-03   1.2131297e+00   1.1123464e+00  -4.3158789e+06
   1.2174058e-09  -1.1102798e-03   1.2129367e+00   1.1125424e+00  -4.2992031e+06
   1.2184061e-09  -1.1059875e-03   1.2127445e+00   1.1127377e+00  -4.2825916e+06
   1.2194065e-09  -1.1017117e-03   1.2125530e+00   1.1129323e+00  -4.2660442e+06
   1.2204068e-09  -1.0974525e-03   1.2123623e+00   1.1131261e+00  -4.2495607e+06
   1.2214071e-09  -1.0932097e-03   1.2121723e+00   1.1133192e+00  -4.2331408e+06
   1.2224075e-09  -1.0889834e-03   1.2119831e+00   1.1135115e+00  -4.2167844e+06
   1.2234078e-09  -1.0847733e-03   1.2117946e+00   1.1137032e+00  -4.2004910e+06
   1.2244081e-09  -1.0805796e-03   1.2116069e+00   1.1138941e+00  -4.1842606e+06
   1.2254085e-09  -1.0764020e-03   1.2114200e+00   1.1140843e+00  -4.1680928e+06
   1.2264088e-09  -1.0722406e-03   1.2112337e+00   1.1142738e+00  -4.1519875e+06
   1.2274091e-09  -1.0680952e-03   1.2110482e+00   1.1144626e+00  -4.1359443e+06
   1.2284095e-09  -1.0639659e-03   1.2108635e+00   1.1146507e+00  -4.1199630e+06
   1.2294098e-09  -1.0598525e-03   1.2106795e+00   1.1148381e+00  -4.1040435e+06
   1.2304101e-09  -1.0557551e-03   1.2104962e+00   1.1150248e+00  -4.0881854e+06
   1.2314105e-09  -1.0516734e-03   1.2103136e+00   1.1152107e+00  -4.0723885e+06
   1.2324108e-09  -1.0476076e-03   1.2101317e+00   1.1153960e+00  -4.0566526e+06
   1.2334111e-09  -1.0435574e-03   1.2099506e+00   1.1155806e+00  -4.0409775e+06
   1.2344115e-09  -1.0395229e-03   1.2097702e+00   1.1157645e+00  -4.0253628e+06
   1.2354118e-09  -1.0355040e-03   1.2095905e+00   1.1159477e+00  -4.0098085e+06
   1.2364121e-09  -1.0315006e-03   1.2094115e+00   1.1161302e+00  -3.9943142e+06
   1.2374125e-09  -1.0275127e-03   1.2092333e+00   1.1163121e+00  -3.9788797e+06
   1.2384128e-09  -1.0235401e-03   1.2090557e+00   1.1164932e+00  -3.9635048e+06
   1.2394131e-09  -1.0195830e-03   1.2088788e+00   1.1166737e+00  -3.9481893e+06
   1.2404135e-09  -1.0156411e-03   1.2087027e+00   1.1168535e+00  -3.9329329e+06
   1.2414138e-09  -1.0117145e-03   1.2085272e+00   1.1170326e+00  -3.9177354e+06
   1.2424141e-09  -1.0078030e-03   1.2083524e+00   1.1172111e+00  -3.9025966e+06
   1.2434145e-09  -1.0039067e-03   1.2081783e+00   1.1173889e+00  -3.8875162e+06
   1.2444148e-09  -1.0000254e-03   1.2080049e+00   1.1175660e+00  -3.8724941e+06
   1.2454151e-09  -9.9615907e-04   1.2078322e+00   1.1177424e+00  -3.8575299e+06
   1.2464155e-09  -9.9230772e-04   1.2076602e+00   1.1179182e+00  -3.8426235e+06
   1.2474158e-09  -9.8847124e-04   1.2074888e+00   1.1180933e+00  -3.8277747e+06
   1.2484161e-09  -9.8464960e-04   1.2073182e+00   1.1182678e+00  -3.8129832e+06
   1.2494165e-09  -9.8084271e-04   1.2071482e+00   1.1184416e+00  -3.7982488e+06
   1.2504168e-09  -9.7705055e-04   1.2069789e+00   1.1186148e+00  -3.7835713e+06
   1.2514171e-09  -9.7327303e-04   1.2068102e+00   1.1187873e+00  -3.7689505e+06
   1.2524175e-09  -9.6951011e-04   1.2066422e+00   1.1189592e+00  -3.7543861e+06
   1.2534178e-09  -9.6576174e-04   1.2064749e+00   1.1191304e+00  -3.7398779e+06
   1.2544181e-09  -9.6202784e-04   1.2063082e+00   1.1193009e+00  -3.7254258e+06
   1.2554185e-09  -9.5830838e-04   1.2061422e+00   1.1194709e+00  -3.7110295e+06
   1.2564188e-09  -9.5460329e-04   1.2059769e+00   1.1196402e+00  -3.6966887e+06
   1.2574191e-09  -9.5091252e-04   1.2058122e+00   1.1198088e+00  -3.6824033e+06
   1.2584195e-09  -9.4723601e-04   1.2056482e+00   1.1199769e+00  -3.6681731e+06
   1.2594198e-09  -9.4357371e-04   1.2054848e+00   1.1201443e+00  -3.6539978e+06
   1.2604201e-09  -9.3992556e-04   1.2053220e+00   1.1203110e+00  -3.6398773e+06
   1.2614205e-09  -9.3629151e-04   1.2051599e+00   1.1204772e+00  -3.6258113e+06
   1.2624208e-09  -9.3267150e-04   1.2049984e+00   1.1206427e+00  -3.6117996e+06
   1.2634211e-09  -9.2906548e-04   1.2048376e+00   1.1208076e+00  -3.5978419e+06
   1.2644215e-09  -9.2547340e-04   1.2046774e+00   1.1209718e+00  -3.5839382e+06
   1.2654218e-09  -9.2189520e-04   1.2045179e+00   1.1211355e+00  -3.5700882e+06
   1.2664221e-09  -9.1833082e-04   1.2043589e+00   1.1212985e+00  -3.5562917e+06
   1.2674225e-09  -9.1478023e-04   1.2042006e+00   1.1214609e+00  -3.5425484e+06
   1.2684228e-09  -9.1124335e-04   1.2040430e+00   1.1216227e+00  -3.5288582e+06
   1.2694231e-09  -9.0772014e-04   1.2038859e+00   1.1217839e+00  -3.5152208e+06
   1.2704235e-09  -9.0421054e-04   1.2037295e+00   1.1219445e+00  -3.5016361e+06
   1.2714238e-09  -9.0071451e-04   1.2035737e+00   1.1221045e+00  -3.4881039e+06
   1.2724241e-09  -8.9723199e-04   1.2034185e+00   1.1222639e+00  -3.4746239e+06
   1.2734245e-09  -8.9376293e-04   1.2032639e+00   1.1224227e+00  -3.4611960e+06
   1.2744248e-09  -8.9030728e-04   1.2031099e+00   1.1225809e+00  -3.4478199e+06
   1.2754251e-09  -8.8686497e-04   1.2029565e+00   1.1227385e+00  -3.4344955e+06
   1.2764255e-09  -8.8343598e-04   1.2028038e+00   1.1228955e+00  -3.4212225e+06
   1.2774258e-09  -8.8002023e-04   1.2026516e+00   1.1230519e+00  -3.4080008e+06
   1.2784261e-09  -8.7661769e-04   1.2025000e+00   1.1232077e+00  -3.3948301e+06
   1.2794265e-09  -8.7322829e-04   1.2023491e+00   1.1233630e+00  -3.3817103e+06
   1.2804268e-09  -8.6985199e-04   1.2021987e+00   1.1235176e+00  -3.3686411e+06
   1.2814271e-09  -8.6648874e-04   1.2020489e+00   1.1236717e+00  -3.3556224e+06
   1.2824275e-09  -8.6313849e-04   1.2018997e+00   1.1238252e+00  -3.3426540e+06
   1.2834278e-09  -8.5980119e-04   1.2017511e+00   1.1239781e+00  -3.3297357e+06
   1.2844281e-09  -8.5647679e-04   1.2016031e+00   1.1241304e+00  -3.3168673e+06
   1.2854285e-09  -8.5316523e-04   1.2014557e+00   1.1242821e+00  -3.3040485e+06
   1.2864288e-09  -8.4986647e-04   1.2013088e+00   1.1244333e+00  -3.2912793e+06
   1.2874291e-09  -8.4658046e-04   1.2011626e+00   1.1245839e+00  -3.2785593e+06
   1.2884295e-09  -8.4330715e-04   1.2010169e+00   1.1247340e+00  -3.2658885e+06
   1.2894298e-09  -8.4004649e-04   1.2008718e+00   1.1248835e+00  -3.2532666e+06
   1.2904301e-09  -8.3679843e-04   1.2007272e+00   1.1250324e+00  -3.2406935e+06
   1.2914305e-09  -8.3356292e-04   1.2005832e+00   1.1251807e+00  -3.2281689e+06
   1.2924308e-09  -8.3033992e-04   1.2004398e+00   1.1253285e+00  -3.2156927e+06
   1.2934311e-09  -8.2712938e-04   1.2002970e+00   1.1254758e+00  -3.2032646e+06
   1.2944315e-09  -8.2393124e-04   1.2001547e+00   1.1256224e+00  -3.1908846e+06
   1.2954318e-09  -8.2074546e-04   1.2000130e+00   1.1257686e+00  -3.1785523e+06
   1.2964321e-09  -8.1757200e-04   1.1998718e+00   1.1259141e+00  -3.1662677e+06
   1.2974325e-09  -8.1441080e-04   1.1997312e+00   1.1260592e+00  -3.1540305e+06
   1.2984328e-09  -8.1126182e-04   1.1995912e+00   1.1262037e+00  -3.1418406e+06
   1.2994331e-09  -8.0812501e-04   1.1994517e+00   1.1263476e+00  -3.1296978e+06
   1.3004335e-09  -8.0500032e-04   1.1993127e+00   1.1264910e+00  -3.1176019e+06
   1.3014338e-09  -8.0188771e-04   1.1991743e+00   1.1266338e+00  -3.1055526e+06
   1.3024341e-09  -7.9878713e-04   1.1990365e+00   1.1267761e+00  -3.0935499e+06
   1.3034345e-09  -7.9569853e-04   1.1988992e+00   1.1269179e+00  -3.0815936e+06
   1.3044348e-09  -7.9262187e-04   1.1987624e+00   1.1270591e+00  -3.0696834e+06
   1.3054351e-09  -7.8955710e-04   1.1986262e+00   1.1271998e+00  -3.0578193e+06
   1.3064355e-09  -7.8650418e-04   1.1984905e+00   1.1273400e+00  -3.0460009e+06
   1.3074358e-09  -7.8346305e-04   1.1983553e+00   1.1274797e+00  -3.0342282e+06
   1.3084361e-09  -7.8043368e-04   1.1982207e+00   1.1276188e+00  -3.0225010e+06
   1.3094365e-09  -7.7741602e-04   1.1980866e+00   1.1277574e+00  -3.0108190e+06
   1.3104368e-09  -7.7441002e-04   1.1979530e+00   1.1278954e+00  -2.9991822e+06
   1.3114371e-09  -7.7141564e-04   1.1978199e+00   1.1280330e+00  -2.9875903e+06
   1.3124375e-09  -7.6843283e-04   1.1976874e+00   1.1281700e+00  -2.9760432e+06
   1.3134378e-09  -7.6546156e-04   1.1975554e+00   1.1283065e+00  -2.9645407e+06
   1.3144381e-09  -7.6250176e-04   1.1974239e+00   1.1284425e+00  -2.9530826e+06
   1.3154385e-09  -7.5955341e-04   1.1972930e+00   1.1285780e+00  -2.9416687e+06
   1.3164388e-09  -7.5661645e-04   1.1971625e+00   1.1287129e+00  -2.9302990e+06
   1.3174391e-09  -7.5369084e-04   1.1970326e+00   1.1288474e+00  -2.9189731e+06
   1.3184395e-09  -7.5077654e-04   1.1969031e+00   1.1289813e+00  -2.9076910e+06
   1.3194398e-09  -7.4787350e-04   1.1967742e+00   1.1291148e+00  -2.8964525e+06
   1.3204401e-09  -7.4498169e-04   1.1966458e+00   1.1292477e+00  -2.8852574e+06
   1.3214405e-09  -7.4210105e-04   1.1965179e+00   1.1293801e+00  -2.8741055e+06
   1.3224408e-09  -7.3923155e-04   1.1963905e+00   1.1295120e+00  -2.8629967e+06
   1.3234411e-09  -7.3637313e-04   1.1962636e+00   1.1296435e+00  -2.8519308e+06
   1.3244415e-09  -7.3352577e-04   1.1961372e+00   1.1297744e+00  -2.8409076e+06
   1.3254418e-09  -7.3068941e-04   1.1960113e+00   1.1299048e+00  -2.8299270e+06
   1.3264421e-09  -7.2786401e-04   1.1958859e+00   1.1300348e+00  -2.8189889e+06
   1.3274425e-09  -7.2504954e-04   1.1957610e+00   1.1301642e+00  -2.8080929e+06
   1.3284428e-09  -7.2224594e-04   1.1956366e+00   1.1302932e+00  -2.7972391e+06
   1.3294431e-09  -7.1945318e-04   1.1955126e+00   1.1304217e+00  -2.7864272e+06
   1.3304435e-09  -7.1667121e-04   1.1953892e+00   1.1305497e+00  -2.7756570e+06
   1.3314438e-09  -7.1390000e-04   1.1952662e+00   1.1306772e+00  -2.7649285e+06
   1.3324441e-09  -7.1113950e-04   1.1951437e+00   1.1308042e+00  -2.7542413e+06
   1.3334445e-09  -7.0838967e-04   1.1950217e+00   1.1309307e+00  -2.7435955e+06
   1.3344448e-09  -7.0565046e-04   1.1949002e+00   1.1310568e+00  -2.7329908e+06
   1.3354451e-09  -7.0292185e-04   1.1947792e+00   1.1311824e+00  -2.7224270e+06
   1.3364455e-09  -7.0020378e-04   1.1946586e+00   1.1313075e+00  -2.7119041e+06
   1.3374458e-09  -6.9749622e-04   1.1945385e+00   1.1314321e+00  -2.7014218e+06
   1.3384461e-09  -6.9479912e-04   1.1944189e+00   1.1315563e+00  -2.6909799e+06
   1.3394465e-09  -6.9211245e-04   1.1942997e+00   1.1316799e+00  -2.6805784e+06
   1.3404468e-09  -6.8943617e-04   1.1941811e+00   1.1318032e+00  -2.6702171e+06
   1.3414471e-09  -6.8677022e-04   1.1940628e+00   1.1319259e+00  -2.6598959e+06
   1.3424475e-09  -6.8411459e-04   1.1939451e+00   1.1320482e+00  -2.6496144e+06
   1.3434478e-09  -6.8146921e-04   1.1938278e+00   1.1321700e+00  -2.6393727e+06
   1.3444481e-09  -6.7883407e-04   1.1937110e+00   1.1322914e+00  -2.6291706e+06
   1.3454485e-09  -6.7620911e-04   1.1935946e+00   1.1324123e+00  -2.6190079e+06
   1.3464488e-09  -6.7359429e-04   1.1934787e+00   1.1325327e+00  -2.6088844e+06
   1.3474491e-09  -6.7098958e-04   1.1933632e+00   1.1326527e+00  -2.5988000e+06
   1.3484495e-09  -6.6839495e-04   1.1932482e+00   1.1327723e+00  -2.5887546e+06
   1.3494498e-09  -6.6581034e-04   1.1931337e+00   1.1328913e+00  -2.5787480e+06
   1.3504502e-09  -6.6323572e-04   1.1930196e+00   1.1330100e+00  -2.5687800e+06
   1.3514505e-09  -6.6067105e-04   1.1929059e+00   1.1331281e+00  -2.5588505e+06
   1.3524508e-09  -6.5811630e-04   1.1927927e+00   1.1332459e+00  -2.5489594e+06
   1.3534512e-09  -6.5557142e-04   1.1926799e+00   1.1333632e+00  -2.5391066e+06
   1.3544515e-09  -6.5303638e-04   1.1925676e+00   1.1334800e+00  -2.5292917e+06
   1.3554518e-09  -6.5051114e-04   1.1924557e+00   1.1335964e+00  -2.5195148e+06
   1.3564522e-09  -6.4799566e-04   1.1923443e+00   1.1337123e+00  -2.5097757e+06
   1.3574525e-09  -6.4548990e-04   1.1922333e+00   1.1338279e+00  -2.5000741e+06
   1.3584528e-09  -6.4299383e-04   1.1921227e+00   1.1339429e+00  -2.4904101e+06
   1.3594532e-09  -6.4050740e-04   1.1920126e+00   1.1340576e+00  -2.4807834e+06
   1.3604535e-09  -6.3803059e-04   1.1919029e+00   1.1341718e+00  -2.4711938e+06
   1.3614538e-09  -6.3556336e-04   1.1917936e+00   1.1342856e+00  -2.4616414e+06
   1.3624542e-09  -6.3310566e-04   1.1916848e+00   1.1343989e+00  -2.4521258e+06
   1.3634545e-09  -6.3065746e-04   1.1915764e+00   1.1345118e+00  -2.4426469e+06
   1.3644548e-09  -6.2821872e-04   1.1914684e+00   1.1346243e+00  -2.4332047e+06
   1.3654552e-09  -6.2578941e-04   1.1913608e+00   1.1347363e+00  -2.4237990e+06
   1.3664555e-09  -6.2336950e-04   1.1912537e+00   1.1348480e+00  -2.4144296e+06
   1.3674558e-09  -6.2095893e-04   1.1911470e+00   1.1349592e+00  -2.4050964e+06
   1.3684562e-09  -6.1855769e-04   1.1910406e+00   1.1350699e+00  -2.3957993e+06
   1.3694565e-09  -6.1616572e-04   1.1909348e+00   1.1351803e+00  -2.3865380e+06
   1.3704568e-09  -6.1378301e-04   1.1908293e+00   1.1352902e+00  -2.3773126e+06
   1.3714572e-09  -6.1140950e-04   1.1907242e+00   1.1353998e+00  -2.3681228e+06
   1.3724575e-09  -6.0904517e-04   1.1906196e+00   1.1355089e+00  -2.3589685e+06
   1.3734578e-09  -6.0668998e-04   1.1905153e+00   1.1356176e+00  -2.3498495e+06
   1.3744582e-09  -6.0434389e-04   1.1904115e+00   1.1357259e+00  -2.3407658e+06
   1.3754585e-09  -6.0200688e-04   1.1903081e+00   1.1358337e+00  -2.3317172e+06
   1.3764588e-09  -5.9967889e-04   1.1902051e+00   1.1359412e+00  -2.3227035e+06
   1.3774592e-09  -5.9735991e-04   1.1901025e+00   1.1360482e+00  -2.3137247e+06
   1.3784595e-09  -5.9504989e-04   1.1900003e+00   1.1361549e+00  -2.3047805e+06
   1.3794598e-09  -5.9274880e-04   1.1898985e+00   1.1362611e+00  -2.2958710e+06
   1.3804602e-09  -5.9045660e-04   1.1897970e+00   1.1363670e+00  -2.2869958e+06
   1.3814605e-09  -5.8817327e-04   1.1896960e+00   1.1364724e+00  -2.2781549e+06
   1.3824608e-09  -5.8589876e-04   1.1895954e+00   1.1365774e+00  -2.2693482e+06
   1.3834612e-09  -5.8363305e-04   1.1894952e+00   1.1366820e+00  -2.2605754e+06
   1.3844615e-09  -5.8137609e-04   1.1893954e+00   1.1367863e+00  -2.2518366e+06
   1.3854618e-09  -5.7912786e-04   1.1892959e+00   1.1368901e+00  -2.2431316e+06
   1.3864622e-09  -5.7688832e-04   1.1891969e+00   1.1369936e+00  -2.2344602e+06
   1.3874625e-09  -5.7465744e-04   1.1890982e+00   1.1370966e+00  -2.2258222e+06
   1.3884628e-09  -5.7243518e-04   1.1890000e+00   1.1371993e+00  -2.2172177e+06
   1.3894632e-09  -5.7022152e-04   1.1889021e+00   1.1373015e+00  -2.2086464e+06
   1.3904635e-09  -5.6801641e-04   1.1888046e+00   1.1374034e+00  -2.2001082e+06
   1.3914638e-09  -5.6581982e-04   1.1887074e+00   1.1375049e+00  -2.1916030e+06
   1.3924642e-09  -5.6363173e-04   1.1886107e+00   1.1376060e+00  -2.1831307e+06
   1.3934645e-09  -5.6145209e-04   1.1885143e+00   1.1377067e+00  -2.1746910e+06
   1.3944648e-09  -5.5928088e-04   1.1884184e+00   1.1378071e+00  -2.1662840e+06
   1.3954652e-09  -5.5711807e-04   1.1883227e+00   1.1379070e+00  -2.1579095e+06
   1.3964655e-09  -5.5496362e-04   1.1882275e+00   1.1380066e+00  -2.1495674e+06
   1.3974658e-09  -5.5281749e-04   1.1881327e+00   1.1381058e+00  -2.1412574e+06
   1.3984662e-09  -5.5067966e-04   1.1880382e+00   1.1382046e+00  -2.1329796e+06
   1.3994665e-09  -5.4855010e-04   1.1879440e+00   1.1383031e+00  -2.1247338e+06
   1.4004668e-09  -5.4642877e-04   1.1878503e+00   1.1384011e+00  -2.1165198e+06
   1.4014672e-09  -5.4431564e-04   1.1877569e+00   1.1384988e+00  -2.1083375e+06
   1.4024675e-09  -5.4221067e-04   1.1876639e+00   1.1385962e+00  -2.1001869e+06
   1.4034678e-09  -5.4011385e-04   1.1875712e+00   1.1386931e+00  -2.0920678e+06
   1.4044682e-09  -5.3802513e-04   1.1874789e+00   1.1387897e+00  -2.0839800e+06
   1.4054685e-09  -5.3594449e-04   1.1873870e+00   1.1388859e+00  -2.0759235e+06
   1.4064688e-09  -5.3387189e-04   1.1872954e+00   1.1389818e+00  -2.0678981e+06
   1.4074692e-09  -5.3180731e-04   1.1872042e+00   1.1390773e+00  -2.0599037e+06
   1.4084695e-09  -5.2975070e-04   1.1871134e+00   1.1391724e+00  -2.0519402e+06
   1.4094698e-09  -5.2770205e-04   1.1870229e+00   1.1392671e+00  -2.0440075e+06
   1.4104702e-09  -5.2566131e-04   1.1869327e+00   1.1393615e+00  -2.0361054e+06
   1.4114705e-09  -5.2362847e-04   1.1868430e+00   1.1394556e+00  -2.0282339e+06
   1.4124708e-09  -5.2160348e-04   1.1867535e+00   1.1395493e+00  -2.0203927e+06
   1.4134712e-09  -5.1958632e-04   1.1866644e+00   1.1396426e+00  -2.0125819e+06
   1.4144715e-09  -5.1757697e-04   1.1865757e+00   1.1397356e+00  -2.0048013e+06
   1.4154718e-09  -5.1557538e-04   1.1864873e+00   1.1398282e+00  -1.9970507e+06
   1.4164722e-09  -5.1358152e-04   1.1863992e+00   1.1399204e+00  -1.9893300e+06
   1.4174725e-09  -5.1159538e-04   1.1863115e+00   1.1400123e+00  -1.9816392e+06
   1.4184728e-09  -5.0961691e-04   1.1862242e+00   1.1401039e+00  -1.9739781e+06
   1.4194732e-09  -5.0764610e-04   1.1861372e+00   1.1401951e+00  -1.9663467e+06
   1.4204735e-09  -5.0568290e-04   1.1860505e+00   1.1402860e+00  -1.9587447e+06
   1.4214738e-09  -5.0372729e-04   1.1859641e+00   1.1403765e+00  -1.9511720e+06
   1.4224742e-09  -5.0177924e-04   1.1858781e+00   1.1404667e+00  -1.9436287e+06
   1.4234745e-09  -4.9983873e-04   1.1857925e+00   1.1405565e+00  -1.9361145e+06
   1.4244748e-09  -4.9790571e-04   1.1857072e+00   1.1406460e+00  -1.9286293e+06
   1.4254752e-09  -4.9598017e-04   1.1856222e+00   1.1407351e+00  -1.9211730e+06
   1.4264755e-09  -4.9406208e-04   1.1855375e+00   1.1408239e+00  -1.9137456e+06
   1.4274758e-09  -4.9215140e-04   1.1854532e+00   1.1409124e+00  -1.9063468e+06
   1.4284762e-09  -4.9024810e-04   1.1853692e+00   1.1410005e+00  -1.8989767e+06
   1.4294765e-09  -4.8835217e-04   1.1852855e+00   1.1410883e+00  -1.8916350e+06
   1.4304768e-09  -4.8646356e-04   1.1852021e+00   1.1411758e+00  -1.8843217e+06
   1.4314772e-09  -4.8458226e-04   1.1851191e+00   1.1412629e+00  -1.8770366e+06
   1.4324775e-09  -4.8270823e-04   1.1850364e+00   1.1413497e+00  -1.8697797e+06
   1.4334778e-09  -4.8084144e-04   1.1849541e+00   1.1414362e+00  -1.8625509e+06
   1.4344782e-09  -4.7898187e-04   1.1848720e+00   1.1415223e+00  -1.8553500e+06
   1.4354785e-09  -4.7712949e-04   1.1847903e+00   1.1416081e+00  -1.8481769e+06
   1.4364788e-09  -4.7528428e-04   1.1847089e+00   1.1416936e+00  -1.8410315e+06
   1.4374792e-09  -4.7344619e-04   1.1846278e+00   1.1417787e+00  -1.8339137e+06
   1.4384795e-09  -4.7161522e-04   1.1845470e+00   1.1418636e+00  -1.8268235e+06
   1.4394798e-09  -4.6979132e-04   1.1844666e+00   1.1419481e+00  -1.8197606e+06
   1.4404802e-09  -4.6797447e-04   1.1843864e+00   1.1420323e+00  -1.8127250e+06
   1.4414805e-09  -4.6616465e-04   1.1843066e+00   1.1421161e+00  -1.8057167e+06
   1.4424808e-09  -4.6436183e-04   1.1842271e+00   1.1421997e+00  -1.7987354e+06
   1.4434812e-09  -4.6256597e-04   1.1841479e+00   1.1422829e+00  -1.7917810e+06
   1.4444815e-09  -4.6077706e-04   1.1840690e+00   1.1423658e+00  -1.7848536e+06
   1.4454818e-09  -4.5899507e-04   1.1839904e+00   1.1424484e+00  -1.7779529e+06
   1.4464822e-09  -4.5721996e-04   1.1839121e+00   1.1425306e+00  -1.7710789e+06
   1.4474825e-09  -4.5545172e-04   1.1838341e+00   1.1426126e+00  -1.7642315e+06
   1.4484828e-09  -4.5369031e-04   1.1837564e+00   1.1426942e+00  -1.7574105e+06
   1.4494832e-09  -4.5193572e-04   1.1836791e+00   1.1427756e+00  -1.7506159e+06
   1.4504835e-09  -4.5018791e-04   1.1836020e+00   1.1428566e+00  -1.7438475e+06
   1.4514838e-09  -4.4844685e-04   1.1835252e+00   1.1429373e+00  -1.7371053e+06
   1.4524842e-09  -4.4671253e-04   1.1834488e+00   1.1430177e+00  -1.7303891e+06
   1.4534845e-09  -4.4498491e-04   1.1833726e+00   1.1430978e+00  -1.7236989e+06
   1.4544848e-09  -4.4326397e-04   1.1832968e+00   1.1431776e+00  -1.7170346e+06
   1.4554852e-09  -4.4154969e-04   1.1832212e+00   1.1432571e+00  -1.7103960e+06
   1.4564855e-09  -4.3984203e-04   1.1831459e+00   1.1433363e+00  -1.7037831e+06
   1.4574858e-09  -4.3814098e-04   1.1830709e+00   1.1434152e+00  -1.6971957e+06
   1.4584862e-09  -4.3644650e-04   1.1829962e+00   1.1434937e+00  -1.6906337e+06
   1.4594865e-09  -4.3475857e-04   1.1829218e+00   1.1435720e+00  -1.6840972e+06
   1.4604868e-09  -4.3307717e-04   1.1828477e+00   1.1436500e+00  -1.6775859e+06
   1.4614872e-09  -4.3140227e-04   1.1827739e+00   1.1437277e+00  -1.6710997e+06
   1.4624875e-09  -4.2973385e-04   1.1827004e+00   1.1438051e+00  -1.6646387e+06
