   0.0000000e+00  -1.3165435e-01   6.2960434e+00   2.2379547e-04  -5.1985199e+08
   1.0003334e-12  -1.3113504e-01   6.2940773e+00   2.3295140e-04  -5.1844315e+08
   2.0006669e-12  -1.3061715e-01   6.2920777e+00   2.4245400e-04  -5.1703411e+08
   3.0010003e-12  -1.3010067e-01   6.2900441e+00   2.5231517e-04  -5.1562488e+08
   4.0013338e-12  -1.2958559e-01   6.2879762e+00   2.6254714e-04  -5.1421546e+08
   5.0016672e-12  -1.2907193e-01   6.2858735e+00   2.7316254e-04  -5.1280585e+08
   6.0020007e-12  -1.2855968e-01   6.2837355e+00   2.8417432e-04  -5.1139606e+08
   7.0023341e-12  -1.2804884e-01   6.2815619e+00   2.9559585e-04  -5.0998608e+08
   8.0026676e-12  -1.2753940e-01   6.2793522e+00   3.0744089e-04  -5.0857593e+08
   9.0030010e-12  -1.2703138e-01   6.2771059e+00   3.1972358e-04  -5.0716560e+08
   1.0003334e-11  -1.2652477e-01   6.2748227e+00   3.3245847e-04  -5.0575510e+08
   1.1003668e-11  -1.2601957e-01   6.2725021e+00   3.4566054e-04  -5.0434444e+08
   1.2004001e-11  -1.2551578e-01   6.2701437e+00   3.5934518e-04  -5.0293361e+08
   1.3004335e-11  -1.2501341e-01   6.2677470e+00   3.7352824e-04  -5.0152262e+08
   1.4004668e-11  -1.2451244e-01   6.2653116e+00   3.8822599e-04  -5.0011149e+08
   1.5005002e-11  -1.2401289e-01   6.2628370e+00   4.0345516e-04  -4.9870020e+08
   1.6005335e-11  -1.2351475e-01   6.2603228e+00   4.1923295e-04  -4.9728877e+08
   1.7005669e-11  -1.2301802e-01   6.2577685e+00   4.3557704e-04  -4.9587721e+08
   1.8006002e-11  -1.2252270e-01   6.2551738e+00   4.5250558e-04  -4.9446551e+08
   1.9006335e-11  -1.2202880e-01   6.2525381e+00   4.7003723e-04  -4.9305368e+08
   2.0006669e-11  -1.2153631e-01   6.2498611e+00   4.8819114e-04  -4.9164173e+08
   2.1007002e-11  -1.2104523e-01   6.2471422e+00   5.0698697e-04  -4.9022966e+08
   2.2007336e-11  -1.2055556e-01   6.2443811e+00   5.2644492e-04  -4.8881749e+08
   2.3007669e-11  -1.2006731e-01   6.2415772e+00   5.4658573e-04  -4.8740521e+08
   2.4008003e-11  -1.1958046e-01   6.2387302e+00   5.6743065e-04  -4.8599284e+08
   2.5008336e-11  -1.1909504e-01   6.2358396e+00   5.8900153e-04  -4.8458037e+08
   2.6008670e-11  -1.1861102e-01   6.2329050e+00   6.1132075e-04  -4.8316782e+08
   2.7009003e-11  -1.1812842e-01   6.2299258e+00   6.3441128e-04  -4.8175520e+08
   2.8009336e-11  -1.1764723e-01   6.2269018e+00   6.5829668e-04  -4.8034251e+08
   2.9009670e-11  -1.1716745e-01   6.2238324e+00   6.8300110e-04  -4.7892975e+08
   3.0010003e-11  -1.1668909e-01   6.2207171e+00   7.0854931e-04  -4.7751695e+08
   3.1010337e-11  -1.1621214e-01   6.2175556e+00   7.3496667e-04  -4.7610409e+08
   3.2010670e-11  -1.1573661e-01   6.2143474e+00   7.6227921e-04  -4.7469120e+08
   3.3011004e-11  -1.1526248e-01   6.2110921e+00   7.9051357e-04  -4.7327829e+08
   3.4011337e-11  -1.1478977e-01   6.2077893e+00   8.1969705e-04  -4.7186535e+08
   3.5011671e-11  -1.1431848e-01   6.2044384e+00   8.4985759e-04  -4.7045241e+08
   3.6012004e-11  -1.1384860e-01   6.2010391e+00   8.8102385e-04  -4.6903946e+08
   3.7012337e-11  -1.1338013e-01   6.1975910e+00   9.1322511e-04  -4.6762652e+08
   3.8012671e-11  -1.1291307e-01   6.1940935e+00   9.4649140e-04  -4.6621360e+08
   3.9013004e-11  -1.1244743e-01   6.1905464e+00   9.8085341e-04  -4.6480071e+08
   4.0013338e-11  -1.1198320e-01   6.1869491e+00   1.0163426e-03  -4.6338785e+08
   4.1013671e-11  -1.1152039e-01   6.1833013e+00   1.0529910e-03  -4.6197505e+08
   4.2014005e-11  -1.1105899e-01   6.1796025e+00   1.0908316e-03  -4.6056230e+08
   4.3014338e-11  -1.1059900e-01   6.1758523e+00   1.1298980e-03  -4.5914963e+08
   4.4014672e-11  -1.1014042e-01   6.1720504e+00   1.1702245e-03  -4.5773704e+08
   4.5015005e-11  -1.0968326e-01   6.1681962e+00   1.2118464e-03  -4.5632454e+08
   4.6015338e-11  -1.0922751e-01   6.1642894e+00   1.2547994e-03  -4.5491214e+08
   4.7015672e-11  -1.0877318e-01   6.1603296e+00   1.2991204e-03  -4.5349987e+08
   4.8016005e-11  -1.0832025e-01   6.1563164e+00   1.3448467e-03  -4.5208772e+08
   4.9016339e-11  -1.0786874e-01   6.1522494e+00   1.3920168e-03  -4.5067572e+08
   5.0016672e-11  -1.0741864e-01   6.1481282e+00   1.4406696e-03  -4.4926387e+08
   5.1017006e-11  -1.0696995e-01   6.1439525e+00   1.4908452e-03  -4.4785220e+08
   5.2017339e-11  -1.0652268e-01   6.1397217e+00   1.5425842e-03  -4.4644070e+08
   5.3017673e-11  -1.0607682e-01   6.1354357e+00   1.5959284e-03  -4.4502940e+08
   5.4018006e-11  -1.0563237e-01   6.1310939e+00   1.6509200e-03  -4.4361831e+08
   5.5018339e-11  -1.0518933e-01   6.1266961e+00   1.7076025e-03  -4.4220744e+08
   5.6018673e-11  -1.0474770e-01   6.1222419e+00   1.7660199e-03  -4.4079681e+08
   5.7019006e-11  -1.0430748e-01   6.1177308e+00   1.8262174e-03  -4.3938644e+08
   5.8019340e-11  -1.0386868e-01   6.1131627e+00   1.8882409e-03  -4.3797633e+08
   5.9019673e-11  -1.0343128e-01   6.1085370e+00   1.9521371e-03  -4.3656651e+08
   6.0020007e-11  -1.0299529e-01   6.1038536e+00   2.0179538e-03  -4.3515699e+08
   6.1020340e-11  -1.0256072e-01   6.0991120e+00   2.0857396e-03  -4.3374778e+08
   6.2020674e-11  -1.0212755e-01   6.0943119e+00   2.1555439e-03  -4.3233891e+08
   6.3021007e-11  -1.0169579e-01   6.0894530e+00   2.2274173e-03  -4.3093038e+08
   6.4021340e-11  -1.0126544e-01   6.0845350e+00   2.3014110e-03  -4.2952222e+08
   6.5021674e-11  -1.0083650e-01   6.0795576e+00   2.3775774e-03  -4.2811444e+08
   6.6022007e-11  -1.0040897e-01   6.0745204e+00   2.4559697e-03  -4.2670707e+08
   6.7022341e-11  -9.9982848e-02   6.0694233e+00   2.5366420e-03  -4.2530011e+08
   6.8022674e-11  -9.9558130e-02   6.0642659e+00   2.6196494e-03  -4.2389358e+08
   6.9023008e-11  -9.9134820e-02   6.0590478e+00   2.7050479e-03  -4.2248751e+08
   7.0023341e-11  -9.8712915e-02   6.0537690e+00   2.7928946e-03  -4.2108191e+08
   7.1023675e-11  -9.8292417e-02   6.0484290e+00   2.8832474e-03  -4.1967680e+08
   7.2024008e-11  -9.7873324e-02   6.0430277e+00   2.9761651e-03  -4.1827220e+08
   7.3024341e-11  -9.7455635e-02   6.0375648e+00   3.0717077e-03  -4.1686813e+08
   7.4024675e-11  -9.7039351e-02   6.0320400e+00   3.1699360e-03  -4.1546461e+08
   7.5025008e-11  -9.6624470e-02   6.0264531e+00   3.2709116e-03  -4.1406166e+08
   7.6025342e-11  -9.6210993e-02   6.0208039e+00   3.3746975e-03  -4.1265930e+08
   7.7025675e-11  -9.5798918e-02   6.0150922e+00   3.4813573e-03  -4.1125755e+08
   7.8026009e-11  -9.5388245e-02   6.0093178e+00   3.5909557e-03  -4.0985643e+08
   7.9026342e-11  -9.4978973e-02   6.0034805e+00   3.7035583e-03  -4.0845596e+08
   8.0026676e-11  -9.4571102e-02   5.9975801e+00   3.8192318e-03  -4.0705616e+08
   8.1027009e-11  -9.4164630e-02   5.9916164e+00   3.9380437e-03  -4.0565706e+08
   8.2027342e-11  -9.3759558e-02   5.9855892e+00   4.0600626e-03  -4.0425867e+08
   8.3027676e-11  -9.3355884e-02   5.9794985e+00   4.1853580e-03  -4.0286102e+08
   8.4028009e-11  -9.2953608e-02   5.9733439e+00   4.3140002e-03  -4.0146414e+08
   8.5028343e-11  -9.2552729e-02   5.9671255e+00   4.4460608e-03  -4.0006803e+08
   8.6028676e-11  -9.2153246e-02   5.9608431e+00   4.5816121e-03  -3.9867273e+08
   8.7029010e-11  -9.1755158e-02   5.9544965e+00   4.7207274e-03  -3.9727827e+08
   8.8029343e-11  -9.1358465e-02   5.9480857e+00   4.8634809e-03  -3.9588465e+08
   8.9029677e-11  -9.0963165e-02   5.9416105e+00   5.0099479e-03  -3.9449191e+08
   9.0030010e-11  -9.0569258e-02   5.9350709e+00   5.1602044e-03  -3.9310007e+08
   9.1030343e-11  -9.0176743e-02   5.9284668e+00   5.3143274e-03  -3.9170916e+08
   9.2030677e-11  -8.9785619e-02   5.9217981e+00   5.4723950e-03  -3.9031919e+08
   9.3031010e-11  -8.9395884e-02   5.9150648e+00   5.6344859e-03  -3.8893020e+08
   9.4031344e-11  -8.9007538e-02   5.9082667e+00   5.8006799e-03  -3.8754220e+08
   9.5031677e-11  -8.8620581e-02   5.9014040e+00   5.9710577e-03  -3.8615523e+08
   9.6032011e-11  -8.8235010e-02   5.8944765e+00   6.1457007e-03  -3.8476931e+08
   9.7032344e-11  -8.7850825e-02   5.8874843e+00   6.3246914e-03  -3.8338446e+08
   9.8032678e-11  -8.7468024e-02   5.8804273e+00   6.5081129e-03  -3.8200072e+08
   9.9033011e-11  -8.7086607e-02   5.8733056e+00   6.6960494e-03  -3.8061809e+08
   1.0003334e-10  -8.6706573e-02   5.8661191e+00   6.8885858e-03  -3.7923662e+08
   1.0103368e-10  -8.6327920e-02   5.8588680e+00   7.0858078e-03  -3.7785633e+08
   1.0203401e-10  -8.5950647e-02   5.8515522e+00   7.2878020e-03  -3.7647724e+08
   1.0303434e-10  -8.5574752e-02   5.8441719e+00   7.4946556e-03  -3.7509939e+08
   1.0403468e-10  -8.5200236e-02   5.8367270e+00   7.7064568e-03  -3.7372279e+08
   1.0503501e-10  -8.4827096e-02   5.8292176e+00   7.9232945e-03  -3.7234748e+08
   1.0603535e-10  -8.4455330e-02   5.8216440e+00   8.1452582e-03  -3.7097348e+08
   1.0703568e-10  -8.4084939e-02   5.8140060e+00   8.3724383e-03  -3.6960083e+08
   1.0803601e-10  -8.3715920e-02   5.8063040e+00   8.6049259e-03  -3.6822954e+08
   1.0903635e-10  -8.3348271e-02   5.7985379e+00   8.8428126e-03  -3.6685965e+08
   1.1003668e-10  -8.2981993e-02   5.7907080e+00   9.0861908e-03  -3.6549118e+08
   1.1103701e-10  -8.2617082e-02   5.7828144e+00   9.3351537e-03  -3.6412416e+08
   1.1203735e-10  -8.2253538e-02   5.7748572e+00   9.5897949e-03  -3.6275862e+08
   1.1303768e-10  -8.1891359e-02   5.7668366e+00   9.8502087e-03  -3.6139459e+08
   1.1403801e-10  -8.1530544e-02   5.7587528e+00   1.0116490e-02  -3.6003210e+08
   1.1503835e-10  -8.1171091e-02   5.7506061e+00   1.0388734e-02  -3.5867118e+08
   1.1603868e-10  -8.0812999e-02   5.7423965e+00   1.0667037e-02  -3.5731185e+08
   1.1703901e-10  -8.0456265e-02   5.7341244e+00   1.0951496e-02  -3.5595414e+08
   1.1803935e-10  -8.0100889e-02   5.7257899e+00   1.1242207e-02  -3.5459808e+08
   1.1903968e-10  -7.9746868e-02   5.7173934e+00   1.1539268e-02  -3.5324371e+08
   1.2004001e-10  -7.9394201e-02   5.7089350e+00   1.1842777e-02  -3.5189105e+08
   1.2104035e-10  -7.9042886e-02   5.7004150e+00   1.2152833e-02  -3.5054013e+08
   1.2204068e-10  -7.8692921e-02   5.6918338e+00   1.2469533e-02  -3.4919097e+08
   1.2304101e-10  -7.8344305e-02   5.6831915e+00   1.2792978e-02  -3.4784362e+08
   1.2404135e-10  -7.7997036e-02   5.6744886e+00   1.3123266e-02  -3.4649809e+08
   1.2504168e-10  -7.7651112e-02   5.6657253e+00   1.3460497e-02  -3.4515442e+08
   1.2604201e-10  -7.7306531e-02   5.6569020e+00   1.3804772e-02  -3.4381264e+08
   1.2704235e-10  -7.6963291e-02   5.6480189e+00   1.4156191e-02  -3.4247278e+08
   1.2804268e-10  -7.6621390e-02   5.6390765e+00   1.4514854e-02  -3.4113486e+08
   1.2904301e-10  -7.6280827e-02   5.6300750e+00   1.4880863e-02  -3.3979891e+08
   1.3004335e-10  -7.5941599e-02   5.6210150e+00   1.5254317e-02  -3.3846498e+08
   1.3104368e-10  -7.5603704e-02   5.6118967e+00   1.5635319e-02  -3.3713308e+08
   1.3204401e-10  -7.5267140e-02   5.6027205e+00   1.6023969e-02  -3.3580324e+08
   1.3304435e-10  -7.4931906e-02   5.5934869e+00   1.6420369e-02  -3.3447550e+08
   1.3404468e-10  -7.4597998e-02   5.5841962e+00   1.6824620e-02  -3.3314989e+08
   1.3504502e-10  -7.4265416e-02   5.5748489e+00   1.7236823e-02  -3.3182643e+08
   1.3604535e-10  -7.3934156e-02   5.5654454e+00   1.7657079e-02  -3.3050515e+08
   1.3704568e-10  -7.3604216e-02   5.5559862e+00   1.8085491e-02  -3.2918609e+08
   1.3804602e-10  -7.3275595e-02   5.5464718e+00   1.8522158e-02  -3.2786927e+08
   1.3904635e-10  -7.2948290e-02   5.5369025e+00   1.8967183e-02  -3.2655472e+08
   1.4004668e-10  -7.2622298e-02   5.5272789e+00   1.9420666e-02  -3.2524247e+08
   1.4104702e-10  -7.2297618e-02   5.5176014e+00   1.9882707e-02  -3.2393256e+08
   1.4204735e-10  -7.1974247e-02   5.5078706e+00   2.0353408e-02  -3.2262501e+08
   1.4304768e-10  -7.1652183e-02   5.4980869e+00   2.0832869e-02  -3.2131985e+08
   1.4404802e-10  -7.1331423e-02   5.4882509e+00   2.1321189e-02  -3.2001711e+08
   1.4504835e-10  -7.1011965e-02   5.4783632e+00   2.1818469e-02  -3.1871682e+08
   1.4604868e-10  -7.0693806e-02   5.4684241e+00   2.2324807e-02  -3.1741900e+08
   1.4704902e-10  -7.0376944e-02   5.4584343e+00   2.2840303e-02  -3.1612369e+08
   1.4804935e-10  -7.0061376e-02   5.4483943e+00   2.3365055e-02  -3.1483092e+08
   1.4904968e-10  -6.9747100e-02   5.4383047e+00   2.3899162e-02  -3.1354071e+08
   1.5005002e-10  -6.9434114e-02   5.4281661e+00   2.4442720e-02  -3.1225310e+08
   1.5105035e-10  -6.9122414e-02   5.4179790e+00   2.4995828e-02  -3.1096810e+08
   1.5205068e-10  -6.8811998e-02   5.4077440e+00   2.5558581e-02  -3.0968575e+08
   1.5305102e-10  -6.8502863e-02   5.3974617e+00   2.6131076e-02  -3.0840609e+08
   1.5405135e-10  -6.8195007e-02   5.3871327e+00   2.6713408e-02  -3.0712912e+08
   1.5505168e-10  -6.7888427e-02   5.3767576e+00   2.7305671e-02  -3.0585489e+08
   1.5605202e-10  -6.7583120e-02   5.3663370e+00   2.7907960e-02  -3.0458342e+08
   1.5705235e-10  -6.7279083e-02   5.3558716e+00   2.8520368e-02  -3.0331474e+08
   1.5805268e-10  -6.6976314e-02   5.3453620e+00   2.9142988e-02  -3.0204887e+08
   1.5905302e-10  -6.6674810e-02   5.3348087e+00   2.9775910e-02  -3.0078585e+08
   1.6005335e-10  -6.6374568e-02   5.3242126e+00   3.0419227e-02  -2.9952569e+08
   1.6105368e-10  -6.6075584e-02   5.3135741e+00   3.1073028e-02  -2.9826843e+08
   1.6205402e-10  -6.5777857e-02   5.3028940e+00   3.1737402e-02  -2.9701409e+08
   1.6305435e-10  -6.5481383e-02   5.2921729e+00   3.2412438e-02  -2.9576270e+08
   1.6405468e-10  -6.5186159e-02   5.2814115e+00   3.3098223e-02  -2.9451428e+08
   1.6505502e-10  -6.4892182e-02   5.2706104e+00   3.3794843e-02  -2.9326887e+08
   1.6605535e-10  -6.4599450e-02   5.2597704e+00   3.4502384e-02  -2.9202647e+08
   1.6705569e-10  -6.4307959e-02   5.2488921e+00   3.5220930e-02  -2.9078713e+08
   1.6805602e-10  -6.4017705e-02   5.2379761e+00   3.5950564e-02  -2.8955086e+08
   1.6905635e-10  -6.3728687e-02   5.2270233e+00   3.6691368e-02  -2.8831770e+08
   1.7005669e-10  -6.3440901e-02   5.2160343e+00   3.7443424e-02  -2.8708765e+08
   1.7105702e-10  -6.3154343e-02   5.2050097e+00   3.8206810e-02  -2.8586076e+08
   1.7205735e-10  -6.2869011e-02   5.1939504e+00   3.8981606e-02  -2.8463704e+08
   1.7305769e-10  -6.2584902e-02   5.1828569e+00   3.9767889e-02  -2.8341651e+08
   1.7405802e-10  -6.2302012e-02   5.1717301e+00   4.0565736e-02  -2.8219920e+08
   1.7505835e-10  -6.2020337e-02   5.1605705e+00   4.1375221e-02  -2.8098514e+08
   1.7605869e-10  -6.1739876e-02   5.1493790e+00   4.2196417e-02  -2.7977434e+08
   1.7705902e-10  -6.1460624e-02   5.1381563e+00   4.3029397e-02  -2.7856683e+08
   1.7805935e-10  -6.1182578e-02   5.1269031e+00   4.3874232e-02  -2.7736262e+08
   1.7905969e-10  -6.0905734e-02   5.1156200e+00   4.4730992e-02  -2.7616175e+08
   1.8006002e-10  -6.0630091e-02   5.1043079e+00   4.5599744e-02  -2.7496423e+08
   1.8106035e-10  -6.0355643e-02   5.0929675e+00   4.6480556e-02  -2.7377008e+08
   1.8206069e-10  -6.0082388e-02   5.0815994e+00   4.7373492e-02  -2.7257933e+08
   1.8306102e-10  -5.9810323e-02   5.0702045e+00   4.8278616e-02  -2.7139199e+08
   1.8406135e-10  -5.9539443e-02   5.0587835e+00   4.9195992e-02  -2.7020809e+08
   1.8506169e-10  -5.9269746e-02   5.0473370e+00   5.0125678e-02  -2.6902765e+08
   1.8606202e-10  -5.9001228e-02   5.0358659e+00   5.1067735e-02  -2.6785067e+08
   1.8706235e-10  -5.8733885e-02   5.0243709e+00   5.2022221e-02  -2.6667719e+08
   1.8806269e-10  -5.8467715e-02   5.0128527e+00   5.2989191e-02  -2.6550723e+08
   1.8906302e-10  -5.8202712e-02   5.0013120e+00   5.3968700e-02  -2.6434079e+08
   1.9006335e-10  -5.7938875e-02   4.9897496e+00   5.4960801e-02  -2.6317791e+08
   1.9106369e-10  -5.7676199e-02   4.9781662e+00   5.5965546e-02  -2.6201859e+08
   1.9206402e-10  -5.7414681e-02   4.9665626e+00   5.6982983e-02  -2.6086285e+08
   1.9306435e-10  -5.7154318e-02   4.9549395e+00   5.8013162e-02  -2.5971072e+08
   1.9406469e-10  -5.6895104e-02   4.9432976e+00   5.9056128e-02  -2.5856220e+08
   1.9506502e-10  -5.6637038e-02   4.9316377e+00   6.0111925e-02  -2.5741731e+08
   1.9606536e-10  -5.6380115e-02   4.9199605e+00   6.1180598e-02  -2.5627608e+08
   1.9706569e-10  -5.6124332e-02   4.9082667e+00   6.2262186e-02  -2.5513851e+08
   1.9806602e-10  -5.5869685e-02   4.8965571e+00   6.3356731e-02  -2.5400462e+08
   1.9906636e-10  -5.5616170e-02   4.8848324e+00   6.4464268e-02  -2.5287443e+08
   2.0006669e-10  -5.5363784e-02   4.8730933e+00   6.5584835e-02  -2.5174795e+08
   2.0106702e-10  -5.5112522e-02   4.8613406e+00   6.6718466e-02  -2.5062519e+08
   2.0206736e-10  -5.4862382e-02   4.8495750e+00   6.7865193e-02  -2.4950616e+08
   2.0306769e-10  -5.4613359e-02   4.8377971e+00   6.9025046e-02  -2.4839089e+08
   2.0406802e-10  -5.4365450e-02   4.8260078e+00   7.0198056e-02  -2.4727938e+08
   2.0506836e-10  -5.4118651e-02   4.8142077e+00   7.1384249e-02  -2.4617165e+08
   2.0606869e-10  -5.3872958e-02   4.8023976e+00   7.2583649e-02  -2.4506771e+08
   2.0706902e-10  -5.3628367e-02   4.7905781e+00   7.3796282e-02  -2.4396756e+08
   2.0806936e-10  -5.3384874e-02   4.7787500e+00   7.5022169e-02  -2.4287123e+08
   2.0906969e-10  -5.3142477e-02   4.7669140e+00   7.6261329e-02  -2.4177872e+08
   2.1007002e-10  -5.2901170e-02   4.7550708e+00   7.7513780e-02  -2.4069004e+08
   2.1107036e-10  -5.2660950e-02   4.7432210e+00   7.8779540e-02  -2.3960521e+08
   2.1207069e-10  -5.2421814e-02   4.7313654e+00   8.0058622e-02  -2.3852422e+08
   2.1307102e-10  -5.2183757e-02   4.7195046e+00   8.1351040e-02  -2.3744711e+08
   2.1407136e-10  -5.1946775e-02   4.7076394e+00   8.2656804e-02  -2.3637386e+08
   2.1507169e-10  -5.1710865e-02   4.6957704e+00   8.3975922e-02  -2.3530449e+08
   2.1607202e-10  -5.1476022e-02   4.6838983e+00   8.5308403e-02  -2.3423901e+08
   2.1707236e-10  -5.1242243e-02   4.6720238e+00   8.6654252e-02  -2.3317743e+08
   2.1807269e-10  -5.1009524e-02   4.6601475e+00   8.8013473e-02  -2.3211975e+08
   2.1907302e-10  -5.0777862e-02   4.6482702e+00   8.9386067e-02  -2.3106599e+08
   2.2007336e-10  -5.0547251e-02   4.6363924e+00   9.0772033e-02  -2.3001614e+08
   2.2107369e-10  -5.0317688e-02   4.6245148e+00   9.2171372e-02  -2.2897022e+08
   2.2207402e-10  -5.0089170e-02   4.6126381e+00   9.3584078e-02  -2.2792822e+08
   2.2307436e-10  -4.9861692e-02   4.6007629e+00   9.5010146e-02  -2.2689017e+08
   2.2407469e-10  -4.9635250e-02   4.5888899e+00   9.6449570e-02  -2.2585605e+08
   2.2507503e-10  -4.9409841e-02   4.5770197e+00   9.7902341e-02  -2.2482589e+08
   2.2607536e-10  -4.9185460e-02   4.5651529e+00   9.9368446e-02  -2.2379967e+08
   2.2707569e-10  -4.8962103e-02   4.5532901e+00   1.0084788e-01  -2.2277741e+08
   2.2807603e-10  -4.8739767e-02   4.5414319e+00   1.0234061e-01  -2.2175911e+08
   2.2907636e-10  -4.8518448e-02   4.5295791e+00   1.0384664e-01  -2.2074478e+08
   2.3007669e-10  -4.8298141e-02   4.5177321e+00   1.0536595e-01  -2.1973441e+08
   2.3107703e-10  -4.8078843e-02   4.5058916e+00   1.0689851e-01  -2.1872801e+08
   2.3207736e-10  -4.7860550e-02   4.4940582e+00   1.0844431e-01  -2.1772558e+08
   2.3307769e-10  -4.7643257e-02   4.4822324e+00   1.1000332e-01  -2.1672713e+08
   2.3407803e-10  -4.7426961e-02   4.4704149e+00   1.1157551e-01  -2.1573265e+08
   2.3507836e-10  -4.7211658e-02   4.4586062e+00   1.1316087e-01  -2.1474215e+08
   2.3607869e-10  -4.6997344e-02   4.4468068e+00   1.1475936e-01  -2.1375563e+08
   2.3707903e-10  -4.6784014e-02   4.4350175e+00   1.1637096e-01  -2.1277309e+08
   2.3807936e-10  -4.6571665e-02   4.4232386e+00   1.1799562e-01  -2.1179452e+08
   2.3907969e-10  -4.6360293e-02   4.4114708e+00   1.1963333e-01  -2.1081994e+08
   2.4008003e-10  -4.6149894e-02   4.3997146e+00   1.2128404e-01  -2.0984934e+08
   2.4108036e-10  -4.5940463e-02   4.3879706e+00   1.2294772e-01  -2.0888272e+08
   2.4208069e-10  -4.5731998e-02   4.3762392e+00   1.2462434e-01  -2.0792007e+08
   2.4308103e-10  -4.5524493e-02   4.3645211e+00   1.2631384e-01  -2.0696141e+08
   2.4408136e-10  -4.5317946e-02   4.3528167e+00   1.2801620e-01  -2.0600672e+08
   2.4508169e-10  -4.5112351e-02   4.3411265e+00   1.2973137e-01  -2.0505601e+08
   2.4608203e-10  -4.4907706e-02   4.3294510e+00   1.3145931e-01  -2.0410926e+08
   2.4708236e-10  -4.4704005e-02   4.3177908e+00   1.3319996e-01  -2.0316649e+08
   2.4808269e-10  -4.4501245e-02   4.3061464e+00   1.3495329e-01  -2.0222769e+08
   2.4908303e-10  -4.4299423e-02   4.2945182e+00   1.3671925e-01  -2.0129285e+08
   2.5008336e-10  -4.4098533e-02   4.2829066e+00   1.3849779e-01  -2.0036197e+08
   2.5108369e-10  -4.3898573e-02   4.2713123e+00   1.4028885e-01  -1.9943505e+08
   2.5208403e-10  -4.3699538e-02   4.2597356e+00   1.4209238e-01  -1.9851209e+08
   2.5308436e-10  -4.3501424e-02   4.2481770e+00   1.4390833e-01  -1.9759307e+08
   2.5408469e-10  -4.3304227e-02   4.2366370e+00   1.4573665e-01  -1.9667800e+08
   2.5508503e-10  -4.3107944e-02   4.2251159e+00   1.4757728e-01  -1.9576687e+08
   2.5608536e-10  -4.2912570e-02   4.2136143e+00   1.4943016e-01  -1.9485968e+08
   2.5708570e-10  -4.2718102e-02   4.2021326e+00   1.5129523e-01  -1.9395642e+08
   2.5808603e-10  -4.2524535e-02   4.1906712e+00   1.5317242e-01  -1.9305709e+08
   2.5908636e-10  -4.2331866e-02   4.1792306e+00   1.5506169e-01  -1.9216168e+08
   2.6008670e-10  -4.2140090e-02   4.1678110e+00   1.5696297e-01  -1.9127018e+08
   2.6108703e-10  -4.1949204e-02   4.1564130e+00   1.5887618e-01  -1.9038259e+08
   2.6208736e-10  -4.1759204e-02   4.1450369e+00   1.6080128e-01  -1.8949891e+08
   2.6308770e-10  -4.1570086e-02   4.1336832e+00   1.6273818e-01  -1.8861911e+08
   2.6408803e-10  -4.1381847e-02   4.1223522e+00   1.6468683e-01  -1.8774321e+08
   2.6508836e-10  -4.1194481e-02   4.1110443e+00   1.6664715e-01  -1.8687119e+08
   2.6608870e-10  -4.1007986e-02   4.0997599e+00   1.6861908e-01  -1.8600305e+08
   2.6708903e-10  -4.0822357e-02   4.0884993e+00   1.7060254e-01  -1.8513877e+08
   2.6808936e-10  -4.0637590e-02   4.0772629e+00   1.7259746e-01  -1.8427835e+08
   2.6908970e-10  -4.0453683e-02   4.0660511e+00   1.7460376e-01  -1.8342179e+08
   2.7009003e-10  -4.0270630e-02   4.0548641e+00   1.7662138e-01  -1.8256906e+08
   2.7109036e-10  -4.0088429e-02   4.0437025e+00   1.7865024e-01  -1.8172018e+08
   2.7209070e-10  -3.9907074e-02   4.0325663e+00   1.8069027e-01  -1.8087512e+08
   2.7309103e-10  -3.9726563e-02   4.0214561e+00   1.8274137e-01  -1.8003387e+08
   2.7409136e-10  -3.9546892e-02   4.0103721e+00   1.8480349e-01  -1.7919644e+08
   2.7509170e-10  -3.9368056e-02   3.9993146e+00   1.8687653e-01  -1.7836281e+08
   2.7609203e-10  -3.9190052e-02   3.9882840e+00   1.8896042e-01  -1.7753297e+08
   2.7709236e-10  -3.9012877e-02   3.9772805e+00   1.9105508e-01  -1.7670691e+08
   2.7809270e-10  -3.8836525e-02   3.9663045e+00   1.9316042e-01  -1.7588462e+08
   2.7909303e-10  -3.8660995e-02   3.9553562e+00   1.9527636e-01  -1.7506609e+08
   2.8009336e-10  -3.8486281e-02   3.9444359e+00   1.9740283e-01  -1.7425132e+08
   2.8109370e-10  -3.8312381e-02   3.9335439e+00   1.9953973e-01  -1.7344029e+08
   2.8209403e-10  -3.8139290e-02   3.9226804e+00   2.0168698e-01  -1.7263299e+08
   2.8309436e-10  -3.7967004e-02   3.9118458e+00   2.0384450e-01  -1.7182941e+08
   2.8409470e-10  -3.7795521e-02   3.9010402e+00   2.0601220e-01  -1.7102955e+08
   2.8509503e-10  -3.7624835e-02   3.8902640e+00   2.0818999e-01  -1.7023338e+08
   2.8609537e-10  -3.7454945e-02   3.8795174e+00   2.1037778e-01  -1.6944091e+08
   2.8709570e-10  -3.7285845e-02   3.8688005e+00   2.1257549e-01  -1.6865211e+08
   2.8809603e-10  -3.7117532e-02   3.8581138e+00   2.1478302e-01  -1.6786698e+08
   2.8909637e-10  -3.6950003e-02   3.8474573e+00   2.1700029e-01  -1.6708550e+08
   2.9009670e-10  -3.6783254e-02   3.8368313e+00   2.1922721e-01  -1.6630768e+08
   2.9109703e-10  -3.6617281e-02   3.8262361e+00   2.2146368e-01  -1.6553348e+08
   2.9209737e-10  -3.6452080e-02   3.8156718e+00   2.2370962e-01  -1.6476291e+08
   2.9309770e-10  -3.6287649e-02   3.8051386e+00   2.2596493e-01  -1.6399594e+08
   2.9409803e-10  -3.6123982e-02   3.7946368e+00   2.2822952e-01  -1.6323258e+08
   2.9509837e-10  -3.5961078e-02   3.7841665e+00   2.3050330e-01  -1.6247280e+08
   2.9609870e-10  -3.5798932e-02   3.7737279e+00   2.3278616e-01  -1.6171659e+08
   2.9709903e-10  -3.5637541e-02   3.7633213e+00   2.3507803e-01  -1.6096395e+08
   2.9809937e-10  -3.5476900e-02   3.7529467e+00   2.3737880e-01  -1.6021486e+08
   2.9909970e-10  -3.5317007e-02   3.7426044e+00   2.3968839e-01  -1.5946930e+08
   3.0010003e-10  -3.5157859e-02   3.7322945e+00   2.4200668e-01  -1.5872727e+08
   3.0110037e-10  -3.4999450e-02   3.7220172e+00   2.4433360e-01  -1.5798876e+08
   3.0210070e-10  -3.4841779e-02   3.7117727e+00   2.4666904e-01  -1.5725374e+08
   3.0310103e-10  -3.4684841e-02   3.7015611e+00   2.4901290e-01  -1.5652221e+08
   3.0410137e-10  -3.4528633e-02   3.6913825e+00   2.5136510e-01  -1.5579415e+08
   3.0510170e-10  -3.4373152e-02   3.6812372e+00   2.5372553e-01  -1.5506956e+08
   3.0610203e-10  -3.4218394e-02   3.6711251e+00   2.5609409e-01  -1.5434841e+08
   3.0710237e-10  -3.4064355e-02   3.6610465e+00   2.5847069e-01  -1.5363070e+08
   3.0810270e-10  -3.3911033e-02   3.6510016e+00   2.6085524e-01  -1.5291642e+08
   3.0910303e-10  -3.3758423e-02   3.6409903e+00   2.6324762e-01  -1.5220554e+08
   3.1010337e-10  -3.3606523e-02   3.6310129e+00   2.6564775e-01  -1.5149806e+08
   3.1110370e-10  -3.3455328e-02   3.6210694e+00   2.6805553e-01  -1.5079396e+08
   3.1210403e-10  -3.3304837e-02   3.6111600e+00   2.7047085e-01  -1.5009323e+08
   3.1310437e-10  -3.3155044e-02   3.6012848e+00   2.7289362e-01  -1.4939586e+08
   3.1410470e-10  -3.3005948e-02   3.5914438e+00   2.7532374e-01  -1.4870183e+08
   3.1510504e-10  -3.2857544e-02   3.5816372e+00   2.7776111e-01  -1.4801113e+08
   3.1610537e-10  -3.2709829e-02   3.5718650e+00   2.8020563e-01  -1.4732375e+08
   3.1710570e-10  -3.2562801e-02   3.5621274e+00   2.8265720e-01  -1.4663967e+08
   3.1810604e-10  -3.2416455e-02   3.5524244e+00   2.8511572e-01  -1.4595888e+08
   3.1910637e-10  -3.2270788e-02   3.5427561e+00   2.8758110e-01  -1.4528136e+08
   3.2010670e-10  -3.2125797e-02   3.5331226e+00   2.9005323e-01  -1.4460711e+08
   3.2110704e-10  -3.1981479e-02   3.5235240e+00   2.9253201e-01  -1.4393610e+08
   3.2210737e-10  -3.1837831e-02   3.5139603e+00   2.9501735e-01  -1.4326833e+08
   3.2310770e-10  -3.1694849e-02   3.5044315e+00   2.9750914e-01  -1.4260378e+08
   3.2410804e-10  -3.1552531e-02   3.4949378e+00   3.0000729e-01  -1.4194243e+08
   3.2510837e-10  -3.1410872e-02   3.4854792e+00   3.0251169e-01  -1.4128428e+08
   3.2610870e-10  -3.1269870e-02   3.4760557e+00   3.0502225e-01  -1.4062931e+08
   3.2710904e-10  -3.1129521e-02   3.4666675e+00   3.0753886e-01  -1.3997750e+08
   3.2810937e-10  -3.0989823e-02   3.4573144e+00   3.1006143e-01  -1.3932885e+08
   3.2910970e-10  -3.0850772e-02   3.4479967e+00   3.1258986e-01  -1.3868333e+08
   3.3011004e-10  -3.0712366e-02   3.4387143e+00   3.1512405e-01  -1.3804094e+08
   3.3111037e-10  -3.0574600e-02   3.4294672e+00   3.1766389e-01  -1.3740166e+08
   3.3211070e-10  -3.0437473e-02   3.4202555e+00   3.2020930e-01  -1.3676548e+08
   3.3311104e-10  -3.0300980e-02   3.4110793e+00   3.2276016e-01  -1.3613237e+08
   3.3411137e-10  -3.0165119e-02   3.4019384e+00   3.2531639e-01  -1.3550234e+08
   3.3511170e-10  -3.0029886e-02   3.3928330e+00   3.2787788e-01  -1.3487536e+08
   3.3611204e-10  -2.9895280e-02   3.3837631e+00   3.3044453e-01  -1.3425142e+08
   3.3711237e-10  -2.9761296e-02   3.3747287e+00   3.3301625e-01  -1.3363051e+08
   3.3811270e-10  -2.9627931e-02   3.3657298e+00   3.3559294e-01  -1.3301261e+08
   3.3911304e-10  -2.9495183e-02   3.3567663e+00   3.3817450e-01  -1.3239771e+08
   3.4011337e-10  -2.9363049e-02   3.3478384e+00   3.4076084e-01  -1.3178579e+08
   3.4111370e-10  -2.9231525e-02   3.3389460e+00   3.4335185e-01  -1.3117685e+08
   3.4211404e-10  -2.9100609e-02   3.3300891e+00   3.4594743e-01  -1.3057087e+08
   3.4311437e-10  -2.8970298e-02   3.3212677e+00   3.4854750e-01  -1.2996783e+08
   3.4411470e-10  -2.8840588e-02   3.3124818e+00   3.5115195e-01  -1.2936771e+08
   3.4511504e-10  -2.8711477e-02   3.3037314e+00   3.5376069e-01  -1.2877052e+08
   3.4611537e-10  -2.8582962e-02   3.2950164e+00   3.5637362e-01  -1.2817623e+08
   3.4711571e-10  -2.8455041e-02   3.2863370e+00   3.5899064e-01  -1.2758482e+08
   3.4811604e-10  -2.8327709e-02   3.2776929e+00   3.6161167e-01  -1.2699630e+08
   3.4911637e-10  -2.8200964e-02   3.2690843e+00   3.6423660e-01  -1.2641063e+08
   3.5011671e-10  -2.8074804e-02   3.2605111e+00   3.6686533e-01  -1.2582781e+08
   3.5111704e-10  -2.7949226e-02   3.2519732e+00   3.6949779e-01  -1.2524782e+08
   3.5211737e-10  -2.7824226e-02   3.2434708e+00   3.7213386e-01  -1.2467066e+08
   3.5311771e-10  -2.7699803e-02   3.2350036e+00   3.7477346e-01  -1.2409630e+08
   3.5411804e-10  -2.7575952e-02   3.2265717e+00   3.7741649e-01  -1.2352473e+08
   3.5511837e-10  -2.7452672e-02   3.2181750e+00   3.8006286e-01  -1.2295594e+08
   3.5611871e-10  -2.7329959e-02   3.2098136e+00   3.8271247e-01  -1.2238992e+08
   3.5711904e-10  -2.7207811e-02   3.2014873e+00   3.8536524e-01  -1.2182666e+08
   3.5811937e-10  -2.7086226e-02   3.1931962e+00   3.8802107e-01  -1.2126613e+08
   3.5911971e-10  -2.6965199e-02   3.1849402e+00   3.9067987e-01  -1.2070832e+08
   3.6012004e-10  -2.6844729e-02   3.1767192e+00   3.9334154e-01  -1.2015323e+08
   3.6112037e-10  -2.6724813e-02   3.1685332e+00   3.9600600e-01  -1.1960084e+08
   3.6212071e-10  -2.6605449e-02   3.1603821e+00   3.9867316e-01  -1.1905113e+08
   3.6312104e-10  -2.6486633e-02   3.1522660e+00   4.0134292e-01  -1.1850409e+08
   3.6412137e-10  -2.6368362e-02   3.1441846e+00   4.0401519e-01  -1.1795971e+08
   3.6512171e-10  -2.6250635e-02   3.1361381e+00   4.0668990e-01  -1.1741798e+08
   3.6612204e-10  -2.6133449e-02   3.1281263e+00   4.0936694e-01  -1.1687888e+08
   3.6712237e-10  -2.6016800e-02   3.1201492e+00   4.1204622e-01  -1.1634240e+08
   3.6812271e-10  -2.5900687e-02   3.1122066e+00   4.1472767e-01  -1.1580853e+08
   3.6912304e-10  -2.5785107e-02   3.1042986e+00   4.1741119e-01  -1.1527724e+08
   3.7012337e-10  -2.5670057e-02   3.0964251e+00   4.2009669e-01  -1.1474854e+08
   3.7112371e-10  -2.5555534e-02   3.0885860e+00   4.2278409e-01  -1.1422241e+08
   3.7212404e-10  -2.5441536e-02   3.0807813e+00   4.2547331e-01  -1.1369883e+08
   3.7312437e-10  -2.5328061e-02   3.0730108e+00   4.2816425e-01  -1.1317779e+08
   3.7412471e-10  -2.5215106e-02   3.0652746e+00   4.3085683e-01  -1.1265927e+08
   3.7512504e-10  -2.5102668e-02   3.0575725e+00   4.3355096e-01  -1.1214328e+08
   3.7612538e-10  -2.4990745e-02   3.0499044e+00   4.3624657e-01  -1.1162978e+08
   3.7712571e-10  -2.4879334e-02   3.0422703e+00   4.3894356e-01  -1.1111878e+08
   3.7812604e-10  -2.4768434e-02   3.0346702e+00   4.4164186e-01  -1.1061025e+08
   3.7912638e-10  -2.4658041e-02   3.0271039e+00   4.4434137e-01  -1.1010419e+08
   3.8012671e-10  -2.4548153e-02   3.0195713e+00   4.4704203e-01  -1.0960058e+08
   3.8112704e-10  -2.4438767e-02   3.0120724e+00   4.4974374e-01  -1.0909941e+08
   3.8212738e-10  -2.4329881e-02   3.0046071e+00   4.5244642e-01  -1.0860067e+08
   3.8312771e-10  -2.4221494e-02   2.9971754e+00   4.5515000e-01  -1.0810434e+08
   3.8412804e-10  -2.4113601e-02   2.9897770e+00   4.5785439e-01  -1.0761041e+08
   3.8512838e-10  -2.4006202e-02   2.9824120e+00   4.6055952e-01  -1.0711887e+08
   3.8612871e-10  -2.3899292e-02   2.9750802e+00   4.6326529e-01  -1.0662971e+08
   3.8712904e-10  -2.3792871e-02   2.9677817e+00   4.6597165e-01  -1.0614292e+08
   3.8812938e-10  -2.3686936e-02   2.9605162e+00   4.6867850e-01  -1.0565847e+08
   3.8912971e-10  -2.3581484e-02   2.9532836e+00   4.7138576e-01  -1.0517637e+08
   3.9013004e-10  -2.3476514e-02   2.9460840e+00   4.7409337e-01  -1.0469660e+08
   3.9113038e-10  -2.3372022e-02   2.9389172e+00   4.7680124e-01  -1.0421915e+08
   3.9213071e-10  -2.3268006e-02   2.9317831e+00   4.7950930e-01  -1.0374400e+08
   3.9313104e-10  -2.3164465e-02   2.9246817e+00   4.8221748e-01  -1.0327114e+08
   3.9413138e-10  -2.3061395e-02   2.9176127e+00   4.8492569e-01  -1.0280057e+08
   3.9513171e-10  -2.2958796e-02   2.9105762e+00   4.8763386e-01  -1.0233226e+08
   3.9613204e-10  -2.2856663e-02   2.9035721e+00   4.9034192e-01  -1.0186621e+08
   3.9713238e-10  -2.2754995e-02   2.8966001e+00   4.9304979e-01  -1.0140241e+08
   3.9813271e-10  -2.2653791e-02   2.8896604e+00   4.9575741e-01  -1.0094084e+08
   3.9913304e-10  -2.2553047e-02   2.8827526e+00   4.9846469e-01  -1.0048149e+08
   4.0013338e-10  -2.2452761e-02   2.8758768e+00   5.0117158e-01  -1.0002436e+08
   4.0113371e-10  -2.2352932e-02   2.8690329e+00   5.0387798e-01  -9.9569420e+07
   4.0213404e-10  -2.2253556e-02   2.8622207e+00   5.0658385e-01  -9.9116672e+07
   4.0313438e-10  -2.2154632e-02   2.8554402e+00   5.0928909e-01  -9.8666101e+07
   4.0413471e-10  -2.2056158e-02   2.8486911e+00   5.1199365e-01  -9.8217695e+07
   4.0513505e-10  -2.1958132e-02   2.8419736e+00   5.1469746e-01  -9.7771443e+07
   4.0613538e-10  -2.1860550e-02   2.8352873e+00   5.1740044e-01  -9.7327334e+07
   4.0713571e-10  -2.1763412e-02   2.8286323e+00   5.2010254e-01  -9.6885357e+07
   4.0813605e-10  -2.1666715e-02   2.8220085e+00   5.2280367e-01  -9.6445500e+07
   4.0913638e-10  -2.1570457e-02   2.8154156e+00   5.2550378e-01  -9.6007753e+07
   4.1013671e-10  -2.1474636e-02   2.8088537e+00   5.2820279e-01  -9.5572104e+07
   4.1113705e-10  -2.1379249e-02   2.8023226e+00   5.3090065e-01  -9.5138543e+07
   4.1213738e-10  -2.1284295e-02   2.7958222e+00   5.3359728e-01  -9.4707058e+07
   4.1313771e-10  -2.1189772e-02   2.7893523e+00   5.3629263e-01  -9.4277640e+07
   4.1413805e-10  -2.1095677e-02   2.7829130e+00   5.3898662e-01  -9.3850276e+07
   4.1513838e-10  -2.1002009e-02   2.7765041e+00   5.4167920e-01  -9.3424957e+07
   4.1613871e-10  -2.0908765e-02   2.7701254e+00   5.4437030e-01  -9.3001671e+07
   4.1713905e-10  -2.0815944e-02   2.7637769e+00   5.4705986e-01  -9.2580408e+07
   4.1813938e-10  -2.0723543e-02   2.7574585e+00   5.4974781e-01  -9.2161158e+07
   4.1913971e-10  -2.0631560e-02   2.7511700e+00   5.5243410e-01  -9.1743909e+07
   4.2014005e-10  -2.0539994e-02   2.7449114e+00   5.5511866e-01  -9.1328653e+07
   4.2114038e-10  -2.0448842e-02   2.7386824e+00   5.5780143e-01  -9.0915377e+07
   4.2214071e-10  -2.0358103e-02   2.7324831e+00   5.6048236e-01  -9.0504072e+07
   4.2314105e-10  -2.0267774e-02   2.7263133e+00   5.6316138e-01  -9.0094727e+07
   4.2414138e-10  -2.0177853e-02   2.7201729e+00   5.6583844e-01  -8.9687333e+07
   4.2514171e-10  -2.0088339e-02   2.7140618e+00   5.6851348e-01  -8.9281878e+07
   4.2614205e-10  -1.9999230e-02   2.7079799e+00   5.7118644e-01  -8.8878354e+07
   4.2714238e-10  -1.9910523e-02   2.7019270e+00   5.7385726e-01  -8.8476749e+07
   4.2814271e-10  -1.9822217e-02   2.6959031e+00   5.7652589e-01  -8.8077054e+07
   4.2914305e-10  -1.9734310e-02   2.6899080e+00   5.7919226e-01  -8.7679259e+07
   4.3014338e-10  -1.9646800e-02   2.6839417e+00   5.8185634e-01  -8.7283354e+07
   4.3114371e-10  -1.9559685e-02   2.6780040e+00   5.8451805e-01  -8.6889329e+07
   4.3214405e-10  -1.9472964e-02   2.6720947e+00   5.8717735e-01  -8.6497174e+07
   4.3314438e-10  -1.9386633e-02   2.6662139e+00   5.8983419e-01  -8.6106880e+07
   4.3414471e-10  -1.9300692e-02   2.6603614e+00   5.9248850e-01  -8.5718437e+07
   4.3514505e-10  -1.9215139e-02   2.6545370e+00   5.9514024e-01  -8.5331834e+07
   4.3614538e-10  -1.9129972e-02   2.6487406e+00   5.9778935e-01  -8.4947064e+07
   4.3714572e-10  -1.9045188e-02   2.6429722e+00   6.0043579e-01  -8.4564115e+07
   4.3814605e-10  -1.8960787e-02   2.6372317e+00   6.0307950e-01  -8.4182979e+07
   4.3914638e-10  -1.8876766e-02   2.6315188e+00   6.0572043e-01  -8.3803646e+07
   4.4014672e-10  -1.8793124e-02   2.6258335e+00   6.0835853e-01  -8.3426107e+07
   4.4114705e-10  -1.8709858e-02   2.6201758e+00   6.1099375e-01  -8.3050352e+07
   4.4214738e-10  -1.8626968e-02   2.6145454e+00   6.1362605e-01  -8.2676372e+07
   4.4314772e-10  -1.8544450e-02   2.6089422e+00   6.1625537e-01  -8.2304158e+07
   4.4414805e-10  -1.8462305e-02   2.6033663e+00   6.1888167e-01  -8.1933701e+07
   4.4514838e-10  -1.8380528e-02   2.5978173e+00   6.2150489e-01  -8.1564992e+07
   4.4614872e-10  -1.8299120e-02   2.5922953e+00   6.2412500e-01  -8.1198021e+07
   4.4714905e-10  -1.8218078e-02   2.5868001e+00   6.2674195e-01  -8.0832779e+07
   4.4814938e-10  -1.8137400e-02   2.5813315e+00   6.2935568e-01  -8.0469259e+07
   4.4914972e-10  -1.8057086e-02   2.5758896e+00   6.3196616e-01  -8.0107449e+07
   4.5015005e-10  -1.7977132e-02   2.5704741e+00   6.3457335e-01  -7.9747343e+07
   4.5115038e-10  -1.7897538e-02   2.5650850e+00   6.3717718e-01  -7.9388930e+07
   4.5215072e-10  -1.7818301e-02   2.5597221e+00   6.3977763e-01  -7.9032203e+07
   4.5315105e-10  -1.7739421e-02   2.5543854e+00   6.4237465e-01  -7.8677152e+07
   4.5415138e-10  -1.7660894e-02   2.5490747e+00   6.4496820e-01  -7.8323769e+07
   4.5515172e-10  -1.7582721e-02   2.5437898e+00   6.4755823e-01  -7.7972045e+07
   4.5615205e-10  -1.7504898e-02   2.5385308e+00   6.5014470e-01  -7.7621972e+07
   4.5715238e-10  -1.7427425e-02   2.5332975e+00   6.5272758e-01  -7.7273541e+07
   4.5815272e-10  -1.7350299e-02   2.5280897e+00   6.5530681e-01  -7.6926743e+07
   4.5915305e-10  -1.7273520e-02   2.5229074e+00   6.5788237e-01  -7.6581571e+07
   4.6015338e-10  -1.7197085e-02   2.5177504e+00   6.6045420e-01  -7.6238015e+07
   4.6115372e-10  -1.7120993e-02   2.5126187e+00   6.6302228e-01  -7.5896068e+07
   4.6215405e-10  -1.7045242e-02   2.5075121e+00   6.6558656e-01  -7.5555721e+07
   4.6315438e-10  -1.6969831e-02   2.5024304e+00   6.6814700e-01  -7.5216966e+07
   4.6415472e-10  -1.6894758e-02   2.4973737e+00   6.7070357e-01  -7.4879795e+07
   4.6515505e-10  -1.6820021e-02   2.4923418e+00   6.7325623e-01  -7.4544200e+07
   4.6615539e-10  -1.6745620e-02   2.4873346e+00   6.7580494e-01  -7.4210172e+07
   4.6715572e-10  -1.6671551e-02   2.4823519e+00   6.7834967e-01  -7.3877703e+07
   4.6815605e-10  -1.6597815e-02   2.4773937e+00   6.8089038e-01  -7.3546787e+07
   4.6915639e-10  -1.6524409e-02   2.4724598e+00   6.8342703e-01  -7.3217413e+07
   4.7015672e-10  -1.6451331e-02   2.4675501e+00   6.8595959e-01  -7.2889576e+07
   4.7115705e-10  -1.6378581e-02   2.4626646e+00   6.8848803e-01  -7.2563266e+07
   4.7215739e-10  -1.6306156e-02   2.4578031e+00   6.9101231e-01  -7.2238476e+07
   4.7315772e-10  -1.6234055e-02   2.4529655e+00   6.9353240e-01  -7.1915198e+07
   4.7415805e-10  -1.6162277e-02   2.4481517e+00   6.9604826e-01  -7.1593425e+07
   4.7515839e-10  -1.6090821e-02   2.4433616e+00   6.9855986e-01  -7.1273149e+07
   4.7615872e-10  -1.6019683e-02   2.4385951e+00   7.0106717e-01  -7.0954362e+07
   4.7715905e-10  -1.5948864e-02   2.4338520e+00   7.0357016e-01  -7.0637056e+07
   4.7815939e-10  -1.5878362e-02   2.4291323e+00   7.0606880e-01  -7.0321225e+07
   4.7915972e-10  -1.5808175e-02   2.4244358e+00   7.0856305e-01  -7.0006860e+07
   4.8016005e-10  -1.5738301e-02   2.4197626e+00   7.1105289e-01  -6.9693954e+07
   4.8116039e-10  -1.5668740e-02   2.4151123e+00   7.1353829e-01  -6.9382499e+07
   4.8216072e-10  -1.5599490e-02   2.4104850e+00   7.1601921e-01  -6.9072490e+07
   4.8316105e-10  -1.5530549e-02   2.4058805e+00   7.1849562e-01  -6.8763917e+07
   4.8416139e-10  -1.5461916e-02   2.4012987e+00   7.2096751e-01  -6.8456773e+07
   4.8516172e-10  -1.5393590e-02   2.3967395e+00   7.2343483e-01  -6.8151052e+07
   4.8616205e-10  -1.5325568e-02   2.3922029e+00   7.2589757e-01  -6.7846747e+07
   4.8716239e-10  -1.5257851e-02   2.3876886e+00   7.2835569e-01  -6.7543849e+07
   4.8816272e-10  -1.5190435e-02   2.3831966e+00   7.3080917e-01  -6.7242352e+07
   4.8916305e-10  -1.5123321e-02   2.3787269e+00   7.3325799e-01  -6.6942249e+07
   4.9016339e-10  -1.5056506e-02   2.3742792e+00   7.3570210e-01  -6.6643533e+07
   4.9116372e-10  -1.4989989e-02   2.3698535e+00   7.3814150e-01  -6.6346197e+07
   4.9216405e-10  -1.4923769e-02   2.3654497e+00   7.4057615e-01  -6.6050234e+07
   4.9316439e-10  -1.4857845e-02   2.3610676e+00   7.4300603e-01  -6.5755637e+07
   4.9416472e-10  -1.4792214e-02   2.3567072e+00   7.4543111e-01  -6.5462398e+07
   4.9516506e-10  -1.4726876e-02   2.3523684e+00   7.4785138e-01  -6.5170512e+07
   4.9616539e-10  -1.4661829e-02   2.3480511e+00   7.5026680e-01  -6.4879972e+07
   4.9716572e-10  -1.4597072e-02   2.3437551e+00   7.5267735e-01  -6.4590770e+07
   4.9816606e-10  -1.4532604e-02   2.3394803e+00   7.5508302e-01  -6.4302900e+07
   4.9916639e-10  -1.4468424e-02   2.3352268e+00   7.5748377e-01  -6.4016355e+07
   5.0016672e-10  -1.4404529e-02   2.3309943e+00   7.5987959e-01  -6.3731129e+07
   5.0116706e-10  -1.4340919e-02   2.3267827e+00   7.6227045e-01  -6.3447215e+07
   5.0216739e-10  -1.4277592e-02   2.3225920e+00   7.6465634e-01  -6.3164606e+07
   5.0316772e-10  -1.4214547e-02   2.3184220e+00   7.6703723e-01  -6.2883297e+07
   5.0416806e-10  -1.4151783e-02   2.3142727e+00   7.6941310e-01  -6.2603280e+07
   5.0516839e-10  -1.4089298e-02   2.3101440e+00   7.7178393e-01  -6.2324548e+07
   5.0616872e-10  -1.4027092e-02   2.3060357e+00   7.7414970e-01  -6.2047097e+07
   5.0716906e-10  -1.3965163e-02   2.3019478e+00   7.7651040e-01  -6.1770919e+07
   5.0816939e-10  -1.3903509e-02   2.2978801e+00   7.7886599e-01  -6.1496007e+07
   5.0916972e-10  -1.3842129e-02   2.2938326e+00   7.8121647e-01  -6.1222356e+07
   5.1017006e-10  -1.3781023e-02   2.2898051e+00   7.8356182e-01  -6.0949960e+07
   5.1117039e-10  -1.3720189e-02   2.2857976e+00   7.8590201e-01  -6.0678811e+07
   5.1217072e-10  -1.3659625e-02   2.2818100e+00   7.8823703e-01  -6.0408905e+07
   5.1317106e-10  -1.3599330e-02   2.2778421e+00   7.9056687e-01  -6.0140234e+07
   5.1417139e-10  -1.3539304e-02   2.2738939e+00   7.9289150e-01  -5.9872792e+07
   5.1517172e-10  -1.3479545e-02   2.2699653e+00   7.9521091e-01  -5.9606575e+07
   5.1617206e-10  -1.3420051e-02   2.2660561e+00   7.9752508e-01  -5.9341574e+07
   5.1717239e-10  -1.3360822e-02   2.2621664e+00   7.9983399e-01  -5.9077785e+07
   5.1817272e-10  -1.3301856e-02   2.2582959e+00   8.0213764e-01  -5.8815202e+07
   5.1917306e-10  -1.3243152e-02   2.2544446e+00   8.0443600e-01  -5.8553818e+07
   5.2017339e-10  -1.3184709e-02   2.2506124e+00   8.0672907e-01  -5.8293627e+07
   5.2117372e-10  -1.3126525e-02   2.2467992e+00   8.0901682e-01  -5.8034624e+07
   5.2217406e-10  -1.3068601e-02   2.2430050e+00   8.1129924e-01  -5.7776803e+07
   5.2317439e-10  -1.3010933e-02   2.2392295e+00   8.1357632e-01  -5.7520159e+07
   5.2417472e-10  -1.2953522e-02   2.2354728e+00   8.1584804e-01  -5.7264684e+07
   5.2517506e-10  -1.2896365e-02   2.2317347e+00   8.1811439e-01  -5.7010374e+07
   5.2617539e-10  -1.2839463e-02   2.2280151e+00   8.2037536e-01  -5.6757222e+07
   5.2717573e-10  -1.2782813e-02   2.2243140e+00   8.2263094e-01  -5.6505224e+07
   5.2817606e-10  -1.2726414e-02   2.2206312e+00   8.2488111e-01  -5.6254373e+07
   5.2917639e-10  -1.2670266e-02   2.2169668e+00   8.2712586e-01  -5.6004664e+07
   5.3017673e-10  -1.2614367e-02   2.2133204e+00   8.2936517e-01  -5.5756091e+07
   5.3117706e-10  -1.2558717e-02   2.2096922e+00   8.3159905e-01  -5.5508649e+07
   5.3217739e-10  -1.2503313e-02   2.2060820e+00   8.3382747e-01  -5.5262332e+07
   5.3317773e-10  -1.2448155e-02   2.2024896e+00   8.3605042e-01  -5.5017134e+07
   5.3417806e-10  -1.2393242e-02   2.1989151e+00   8.3826790e-01  -5.4773051e+07
   5.3517839e-10  -1.2338572e-02   2.1953583e+00   8.4047990e-01  -5.4530077e+07
   5.3617873e-10  -1.2284145e-02   2.1918192e+00   8.4268639e-01  -5.4288205e+07
   5.3717906e-10  -1.2229959e-02   2.1882976e+00   8.4488739e-01  -5.4047432e+07
   5.3817939e-10  -1.2176014e-02   2.1847934e+00   8.4708286e-01  -5.3807752e+07
   5.3917973e-10  -1.2122308e-02   2.1813066e+00   8.4927282e-01  -5.3569158e+07
   5.4018006e-10  -1.2068840e-02   2.1778371e+00   8.5145724e-01  -5.3331647e+07
   5.4118039e-10  -1.2015609e-02   2.1743849e+00   8.5363612e-01  -5.3095213e+07
   5.4218073e-10  -1.1962614e-02   2.1709497e+00   8.5580945e-01  -5.2859850e+07
   5.4318106e-10  -1.1909853e-02   2.1675316e+00   8.5797722e-01  -5.2625553e+07
   5.4418139e-10  -1.1857327e-02   2.1641304e+00   8.6013942e-01  -5.2392318e+07
   5.4518173e-10  -1.1805034e-02   2.1607460e+00   8.6229605e-01  -5.2160139e+07
   5.4618206e-10  -1.1752972e-02   2.1573784e+00   8.6444711e-01  -5.1929011e+07
   5.4718239e-10  -1.1701141e-02   2.1540276e+00   8.6659257e-01  -5.1698928e+07
   5.4818273e-10  -1.1649539e-02   2.1506933e+00   8.6873244e-01  -5.1469887e+07
   5.4918306e-10  -1.1598166e-02   2.1473755e+00   8.7086671e-01  -5.1241881e+07
   5.5018339e-10  -1.1547021e-02   2.1440742e+00   8.7299538e-01  -5.1014906e+07
   5.5118373e-10  -1.1496102e-02   2.1407893e+00   8.7511843e-01  -5.0788957e+07
   5.5218406e-10  -1.1445409e-02   2.1375206e+00   8.7723586e-01  -5.0564029e+07
   5.5318439e-10  -1.1394940e-02   2.1342681e+00   8.7934767e-01  -5.0340117e+07
   5.5418473e-10  -1.1344695e-02   2.1310317e+00   8.8145385e-01  -5.0117216e+07
   5.5518506e-10  -1.1294672e-02   2.1278113e+00   8.8355440e-01  -4.9895321e+07
   5.5618540e-10  -1.1244871e-02   2.1246069e+00   8.8564931e-01  -4.9674427e+07
   5.5718573e-10  -1.1195290e-02   2.1214184e+00   8.8773857e-01  -4.9454531e+07
   5.5818606e-10  -1.1145929e-02   2.1182456e+00   8.8982219e-01  -4.9235626e+07
   5.5918640e-10  -1.1096786e-02   2.1150885e+00   8.9190015e-01  -4.9017708e+07
   5.6018673e-10  -1.1047860e-02   2.1119471e+00   8.9397247e-01  -4.8800773e+07
   5.6118706e-10  -1.0999151e-02   2.1088212e+00   8.9603912e-01  -4.8584815e+07
   5.6218740e-10  -1.0950658e-02   2.1057108e+00   8.9810011e-01  -4.8369830e+07
   5.6318773e-10  -1.0902379e-02   2.1026158e+00   9.0015544e-01  -4.8155814e+07
   5.6418806e-10  -1.0854314e-02   2.0995360e+00   9.0220509e-01  -4.7942761e+07
   5.6518840e-10  -1.0806461e-02   2.0964716e+00   9.0424908e-01  -4.7730668e+07
   5.6618873e-10  -1.0758821e-02   2.0934222e+00   9.0628740e-01  -4.7519529e+07
   5.6718906e-10  -1.0711391e-02   2.0903880e+00   9.0832004e-01  -4.7309340e+07
   5.6818940e-10  -1.0664170e-02   2.0873687e+00   9.1034700e-01  -4.7100097e+07
   5.6918973e-10  -1.0617159e-02   2.0843644e+00   9.1236828e-01  -4.6891794e+07
   5.7019006e-10  -1.0570355e-02   2.0813749e+00   9.1438389e-01  -4.6684428e+07
   5.7119040e-10  -1.0523758e-02   2.0784003e+00   9.1639381e-01  -4.6477994e+07
   5.7219073e-10  -1.0477368e-02   2.0754403e+00   9.1839805e-01  -4.6272488e+07
   5.7319106e-10  -1.0431182e-02   2.0724949e+00   9.2039660e-01  -4.6067905e+07
   5.7419140e-10  -1.0385201e-02   2.0695641e+00   9.2238947e-01  -4.5864241e+07
   5.7519173e-10  -1.0339423e-02   2.0666477e+00   9.2437666e-01  -4.5661492e+07
   5.7619206e-10  -1.0293847e-02   2.0637458e+00   9.2635816e-01  -4.5459652e+07
   5.7719240e-10  -1.0248473e-02   2.0608582e+00   9.2833397e-01  -4.5258719e+07
   5.7819273e-10  -1.0203300e-02   2.0579848e+00   9.3030410e-01  -4.5058687e+07
   5.7919306e-10  -1.0158326e-02   2.0551257e+00   9.3226854e-01  -4.4859553e+07
   5.8019340e-10  -1.0113550e-02   2.0522806e+00   9.3422730e-01  -4.4661311e+07
   5.8119373e-10  -1.0068973e-02   2.0494496e+00   9.3618038e-01  -4.4463959e+07
   5.8219406e-10  -1.0024593e-02   2.0466326e+00   9.3812777e-01  -4.4267491e+07
   5.8319440e-10  -9.9804083e-03   2.0438294e+00   9.4006947e-01  -4.4071904e+07
   5.8419473e-10  -9.9364192e-03   2.0410401e+00   9.4200550e-01  -4.3877193e+07
   5.8519507e-10  -9.8926244e-03   2.0382645e+00   9.4393584e-01  -4.3683354e+07
   5.8619540e-10  -9.8490231e-03   2.0355026e+00   9.4586051e-01  -4.3490384e+07
   5.8719573e-10  -9.8056144e-03   2.0327544e+00   9.4777950e-01  -4.3298278e+07
   5.8819607e-10  -9.7623975e-03   2.0300196e+00   9.4969282e-01  -4.3107031e+07
   5.8919640e-10  -9.7193714e-03   2.0272984e+00   9.5160046e-01  -4.2916641e+07
   5.9019673e-10  -9.6765353e-03   2.0245906e+00   9.5350243e-01  -4.2727102e+07
   5.9119707e-10  -9.6338885e-03   2.0218961e+00   9.5539873e-01  -4.2538412e+07
   5.9219740e-10  -9.5914299e-03   2.0192148e+00   9.5728937e-01  -4.2350566e+07
   5.9319773e-10  -9.5491589e-03   2.0165468e+00   9.5917434e-01  -4.2163559e+07
   5.9419807e-10  -9.5070745e-03   2.0138919e+00   9.6105365e-01  -4.1977389e+07
   5.9519840e-10  -9.4651759e-03   2.0112501e+00   9.6292730e-01  -4.1792051e+07
   5.9619873e-10  -9.4234623e-03   2.0086213e+00   9.6479530e-01  -4.1607541e+07
   5.9719907e-10  -9.3819328e-03   2.0060054e+00   9.6665765e-01  -4.1423856e+07
   5.9819940e-10  -9.3405867e-03   2.0034024e+00   9.6851435e-01  -4.1240991e+07
   5.9919973e-10  -9.2994231e-03   2.0008122e+00   9.7036541e-01  -4.1058943e+07
   6.0020007e-10  -9.2584412e-03   1.9982347e+00   9.7221083e-01  -4.0877708e+07
   6.0120040e-10  -9.2176402e-03   1.9956699e+00   9.7405061e-01  -4.0697282e+07
   6.0220073e-10  -9.1770193e-03   1.9931177e+00   9.7588475e-01  -4.0517661e+07
   6.0320107e-10  -9.1365777e-03   1.9905781e+00   9.7771327e-01  -4.0338842e+07
   6.0420140e-10  -9.0963145e-03   1.9880509e+00   9.7953617e-01  -4.0160822e+07
   6.0520173e-10  -9.0562290e-03   1.9855362e+00   9.8135345e-01  -3.9983595e+07
   6.0620207e-10  -9.0163205e-03   1.9830338e+00   9.8316511e-01  -3.9807159e+07
   6.0720240e-10  -8.9765880e-03   1.9805437e+00   9.8497116e-01  -3.9631509e+07
   6.0820273e-10  -8.9370308e-03   1.9780658e+00   9.8677161e-01  -3.9456643e+07
   6.0920307e-10  -8.8976482e-03   1.9756001e+00   9.8856646e-01  -3.9282556e+07
   6.1020340e-10  -8.8584393e-03   1.9731465e+00   9.9035571e-01  -3.9109245e+07
   6.1120373e-10  -8.8194034e-03   1.9707049e+00   9.9213937e-01  -3.8936707e+07
   6.1220407e-10  -8.7805397e-03   1.9682753e+00   9.9391745e-01  -3.8764937e+07
   6.1320440e-10  -8.7418475e-03   1.9658576e+00   9.9568995e-01  -3.8593933e+07
   6.1420473e-10  -8.7033259e-03   1.9634518e+00   9.9745688e-01  -3.8423690e+07
   6.1520507e-10  -8.6649742e-03   1.9610577e+00   9.9921824e-01  -3.8254205e+07
   6.1620540e-10  -8.6267918e-03   1.9586754e+00   1.0009740e+00  -3.8085475e+07
   6.1720574e-10  -8.5887777e-03   1.9563048e+00   1.0027243e+00  -3.7917496e+07
   6.1820607e-10  -8.5509313e-03   1.9539458e+00   1.0044690e+00  -3.7750265e+07
   6.1920640e-10  -8.5132518e-03   1.9515983e+00   1.0062081e+00  -3.7583778e+07
   6.2020674e-10  -8.4757384e-03   1.9492624e+00   1.0079418e+00  -3.7418032e+07
   6.2120707e-10  -8.4383906e-03   1.9469378e+00   1.0096698e+00  -3.7253023e+07
   6.2220740e-10  -8.4012074e-03   1.9446247e+00   1.0113924e+00  -3.7088748e+07
   6.2320774e-10  -8.3641881e-03   1.9423229e+00   1.0131095e+00  -3.6925203e+07
   6.2420807e-10  -8.3273321e-03   1.9400323e+00   1.0148210e+00  -3.6762386e+07
   6.2520840e-10  -8.2906386e-03   1.9377530e+00   1.0165270e+00  -3.6600293e+07
   6.2620874e-10  -8.2541069e-03   1.9354847e+00   1.0182276e+00  -3.6438920e+07
   6.2720907e-10  -8.2177363e-03   1.9332276e+00   1.0199226e+00  -3.6278265e+07
   6.2820940e-10  -8.1815260e-03   1.9309815e+00   1.0216122e+00  -3.6118324e+07
   6.2920974e-10  -8.1454754e-03   1.9287464e+00   1.0232963e+00  -3.5959093e+07
   6.3021007e-10  -8.1095836e-03   1.9265222e+00   1.0249749e+00  -3.5800569e+07
   6.3121040e-10  -8.0738501e-03   1.9243089e+00   1.0266481e+00  -3.5642750e+07
   6.3221074e-10  -8.0382742e-03   1.9221064e+00   1.0283159e+00  -3.5485632e+07
   6.3321107e-10  -8.0028550e-03   1.9199146e+00   1.0299781e+00  -3.5329211e+07
   6.3421140e-10  -7.9675920e-03   1.9177336e+00   1.0316350e+00  -3.5173485e+07
   6.3521174e-10  -7.9324844e-03   1.9155632e+00   1.0332864e+00  -3.5018450e+07
   6.3621207e-10  -7.8975315e-03   1.9134033e+00   1.0349324e+00  -3.4864103e+07
   6.3721240e-10  -7.8627327e-03   1.9112541e+00   1.0365730e+00  -3.4710442e+07
   6.3821274e-10  -7.8280873e-03   1.9091153e+00   1.0382082e+00  -3.4557462e+07
   6.3921307e-10  -7.7935946e-03   1.9069869e+00   1.0398380e+00  -3.4405161e+07
   6.4021340e-10  -7.7592539e-03   1.9048689e+00   1.0414624e+00  -3.4253536e+07
   6.4121374e-10  -7.7250645e-03   1.9027612e+00   1.0430814e+00  -3.4102583e+07
   6.4221407e-10  -7.6910258e-03   1.9006638e+00   1.0446951e+00  -3.3952300e+07
   6.4321440e-10  -7.6571370e-03   1.8985766e+00   1.0463034e+00  -3.3802683e+07
   6.4421474e-10  -7.6233977e-03   1.8964996e+00   1.0479063e+00  -3.3653729e+07
   6.4521507e-10  -7.5898070e-03   1.8944327e+00   1.0495040e+00  -3.3505436e+07
   6.4621541e-10  -7.5563643e-03   1.8923758e+00   1.0510962e+00  -3.3357801e+07
   6.4721574e-10  -7.5230689e-03   1.8903290e+00   1.0526832e+00  -3.3210819e+07
   6.4821607e-10  -7.4899203e-03   1.8882921e+00   1.0542648e+00  -3.3064490e+07
   6.4921641e-10  -7.4569177e-03   1.8862651e+00   1.0558412e+00  -3.2918808e+07
   6.5021674e-10  -7.4240605e-03   1.8842480e+00   1.0574122e+00  -3.2773772e+07
   6.5121707e-10  -7.3913481e-03   1.8822407e+00   1.0589779e+00  -3.2629379e+07
   6.5221741e-10  -7.3587798e-03   1.8802431e+00   1.0605384e+00  -3.2485625e+07
   6.5321774e-10  -7.3263550e-03   1.8782553e+00   1.0620936e+00  -3.2342508e+07
   6.5421807e-10  -7.2940731e-03   1.8762771e+00   1.0636436e+00  -3.2200025e+07
   6.5521841e-10  -7.2619333e-03   1.8743085e+00   1.0651883e+00  -3.2058172e+07
   6.5621874e-10  -7.2299351e-03   1.8723495e+00   1.0667277e+00  -3.1916948e+07
   6.5721907e-10  -7.1980779e-03   1.8704000e+00   1.0682619e+00  -3.1776349e+07
   6.5821941e-10  -7.1663611e-03   1.8684599e+00   1.0697909e+00  -3.1636373e+07
   6.5921974e-10  -7.1347839e-03   1.8665293e+00   1.0713147e+00  -3.1497015e+07
   6.6022007e-10  -7.1033459e-03   1.8646080e+00   1.0728333e+00  -3.1358275e+07
   6.6122041e-10  -7.0720463e-03   1.8626961e+00   1.0743467e+00  -3.1220149e+07
   6.6222074e-10  -7.0408846e-03   1.8607934e+00   1.0758550e+00  -3.1082634e+07
   6.6322107e-10  -7.0098601e-03   1.8588999e+00   1.0773580e+00  -3.0945727e+07
   6.6422141e-10  -6.9789723e-03   1.8570157e+00   1.0788559e+00  -3.0809426e+07
   6.6522174e-10  -6.9482205e-03   1.8551405e+00   1.0803486e+00  -3.0673728e+07
   6.6622207e-10  -6.9176042e-03   1.8532745e+00   1.0818362e+00  -3.0538630e+07
   6.6722241e-10  -6.8871227e-03   1.8514174e+00   1.0833187e+00  -3.0404129e+07
   6.6822274e-10  -6.8567755e-03   1.8495694e+00   1.0847961e+00  -3.0270224e+07
   6.6922307e-10  -6.8265619e-03   1.8477303e+00   1.0862683e+00  -3.0136910e+07
   6.7022341e-10  -6.7964814e-03   1.8459001e+00   1.0877355e+00  -3.0004186e+07
   6.7122374e-10  -6.7665334e-03   1.8440788e+00   1.0891975e+00  -2.9872048e+07
   6.7222407e-10  -6.7367172e-03   1.8422663e+00   1.0906545e+00  -2.9740495e+07
   6.7322441e-10  -6.7070324e-03   1.8404625e+00   1.0921064e+00  -2.9609523e+07
   6.7422474e-10  -6.6774782e-03   1.8386675e+00   1.0935533e+00  -2.9479130e+07
   6.7522508e-10  -6.6480543e-03   1.8368811e+00   1.0949951e+00  -2.9349314e+07
   6.7622541e-10  -6.6187599e-03   1.8351034e+00   1.0964319e+00  -2.9220070e+07
   6.7722574e-10  -6.5895945e-03   1.8333342e+00   1.0978637e+00  -2.9091398e+07
   6.7822608e-10  -6.5605575e-03   1.8315736e+00   1.0992904e+00  -2.8963295e+07
   6.7922641e-10  -6.5316484e-03   1.8298215e+00   1.1007122e+00  -2.8835757e+07
   6.8022674e-10  -6.5028666e-03   1.8280779e+00   1.1021289e+00  -2.8708783e+07
   6.8122708e-10  -6.4742115e-03   1.8263427e+00   1.1035407e+00  -2.8582369e+07
   6.8222741e-10  -6.4456826e-03   1.8246158e+00   1.1049475e+00  -2.8456514e+07
   6.8322774e-10  -6.4172793e-03   1.8228973e+00   1.1063494e+00  -2.8331215e+07
   6.8422808e-10  -6.3890011e-03   1.8211871e+00   1.1077463e+00  -2.8206469e+07
   6.8522841e-10  -6.3608474e-03   1.8194851e+00   1.1091383e+00  -2.8082274e+07
   6.8622874e-10  -6.3328177e-03   1.8177913e+00   1.1105254e+00  -2.7958627e+07
   6.8722908e-10  -6.3049114e-03   1.8161057e+00   1.1119075e+00  -2.7835526e+07
   6.8822941e-10  -6.2771279e-03   1.8144282e+00   1.1132848e+00  -2.7712968e+07
   6.8922974e-10  -6.2494668e-03   1.8127588e+00   1.1146571e+00  -2.7590952e+07
   6.9023008e-10  -6.2219274e-03   1.8110974e+00   1.1160246e+00  -2.7469474e+07
   6.9123041e-10  -6.1945094e-03   1.8094440e+00   1.1173872e+00  -2.7348532e+07
   6.9223074e-10  -6.1672120e-03   1.8077986e+00   1.1187450e+00  -2.7228124e+07
   6.9323108e-10  -6.1400348e-03   1.8061611e+00   1.1200979e+00  -2.7108247e+07
   6.9423141e-10  -6.1129772e-03   1.8045314e+00   1.1214460e+00  -2.6988899e+07
   6.9523174e-10  -6.0860388e-03   1.8029097e+00   1.1227892e+00  -2.6870078e+07
   6.9623208e-10  -6.0592190e-03   1.8012957e+00   1.1241277e+00  -2.6751781e+07
   6.9723241e-10  -6.0325173e-03   1.7996894e+00   1.1254613e+00  -2.6634006e+07
   6.9823274e-10  -6.0059331e-03   1.7980909e+00   1.1267902e+00  -2.6516750e+07
   6.9923308e-10  -5.9794659e-03   1.7965001e+00   1.1281143e+00  -2.6400012e+07
   7.0023341e-10  -5.9531153e-03   1.7949169e+00   1.1294336e+00  -2.6283788e+07
   7.0123374e-10  -5.9268807e-03   1.7933413e+00   1.1307482e+00  -2.6168077e+07
   7.0223408e-10  -5.9007615e-03   1.7917733e+00   1.1320581e+00  -2.6052877e+07
   7.0323441e-10  -5.8747574e-03   1.7902128e+00   1.1333632e+00  -2.5938184e+07
   7.0423474e-10  -5.8488677e-03   1.7886598e+00   1.1346636e+00  -2.5823997e+07
   7.0523508e-10  -5.8230920e-03   1.7871142e+00   1.1359593e+00  -2.5710314e+07
   7.0623541e-10  -5.7974298e-03   1.7855760e+00   1.1372503e+00  -2.5597132e+07
   7.0723575e-10  -5.7718805e-03   1.7840453e+00   1.1385367e+00  -2.5484449e+07
   7.0823608e-10  -5.7464437e-03   1.7825218e+00   1.1398183e+00  -2.5372262e+07
   7.0923641e-10  -5.7211189e-03   1.7810057e+00   1.1410953e+00  -2.5260571e+07
   7.1023675e-10  -5.6959056e-03   1.7794968e+00   1.1423677e+00  -2.5149371e+07
   7.1123708e-10  -5.6708033e-03   1.7779952e+00   1.1436354e+00  -2.5038662e+07
   7.1223741e-10  -5.6458114e-03   1.7765008e+00   1.1448986e+00  -2.4928440e+07
   7.1323775e-10  -5.6209296e-03   1.7750135e+00   1.1461571e+00  -2.4818705e+07
   7.1423808e-10  -5.5961573e-03   1.7735333e+00   1.1474110e+00  -2.4709453e+07
   7.1523841e-10  -5.5714941e-03   1.7720602e+00   1.1486603e+00  -2.4600682e+07
   7.1623875e-10  -5.5469394e-03   1.7705942e+00   1.1499051e+00  -2.4492391e+07
   7.1723908e-10  -5.5224928e-03   1.7691351e+00   1.1511453e+00  -2.4384577e+07
   7.1823941e-10  -5.4981538e-03   1.7676831e+00   1.1523809e+00  -2.4277238e+07
   7.1923975e-10  -5.4739220e-03   1.7662380e+00   1.1536120e+00  -2.4170372e+07
   7.2024008e-10  -5.4497968e-03   1.7647998e+00   1.1548386e+00  -2.4063977e+07
   7.2124041e-10  -5.4257778e-03   1.7633684e+00   1.1560607e+00  -2.3958050e+07
   7.2224075e-10  -5.4018646e-03   1.7619439e+00   1.1572783e+00  -2.3852590e+07
   7.2324108e-10  -5.3780566e-03   1.7605263e+00   1.1584914e+00  -2.3747595e+07
   7.2424141e-10  -5.3543534e-03   1.7591153e+00   1.1597000e+00  -2.3643062e+07
   7.2524175e-10  -5.3307546e-03   1.7577112e+00   1.1609042e+00  -2.3538990e+07
   7.2624208e-10  -5.3072596e-03   1.7563137e+00   1.1621039e+00  -2.3435376e+07
   7.2724241e-10  -5.2838681e-03   1.7549229e+00   1.1632991e+00  -2.3332218e+07
   7.2824275e-10  -5.2605795e-03   1.7535387e+00   1.1644900e+00  -2.3229515e+07
   7.2924308e-10  -5.2373934e-03   1.7521611e+00   1.1656764e+00  -2.3127264e+07
   7.3024341e-10  -5.2143094e-03   1.7507901e+00   1.1668584e+00  -2.3025463e+07
   7.3124375e-10  -5.1913270e-03   1.7494256e+00   1.1680361e+00  -2.2924110e+07
   7.3224408e-10  -5.1684457e-03   1.7480677e+00   1.1692093e+00  -2.2823204e+07
   7.3324441e-10  -5.1456652e-03   1.7467162e+00   1.1703782e+00  -2.2722742e+07
   7.3424475e-10  -5.1229849e-03   1.7453711e+00   1.1715428e+00  -2.2622722e+07
   7.3524508e-10  -5.1004045e-03   1.7440325e+00   1.1727030e+00  -2.2523143e+07
   7.3624542e-10  -5.0779235e-03   1.7427002e+00   1.1738589e+00  -2.2424002e+07
   7.3724575e-10  -5.0555414e-03   1.7413742e+00   1.1750104e+00  -2.2325298e+07
   7.3824608e-10  -5.0332579e-03   1.7400546e+00   1.1761577e+00  -2.2227028e+07
   7.3924642e-10  -5.0110724e-03   1.7387413e+00   1.1773006e+00  -2.2129191e+07
   7.4024675e-10  -4.9889846e-03   1.7374342e+00   1.1784393e+00  -2.2031784e+07
   7.4124708e-10  -4.9669940e-03   1.7361333e+00   1.1795737e+00  -2.1934806e+07
   7.4224742e-10  -4.9451002e-03   1.7348386e+00   1.1807039e+00  -2.1838255e+07
   7.4324775e-10  -4.9233028e-03   1.7335500e+00   1.1818298e+00  -2.1742129e+07
   7.4424808e-10  -4.9016013e-03   1.7322676e+00   1.1829515e+00  -2.1646426e+07
   7.4524842e-10  -4.8799954e-03   1.7309913e+00   1.1840690e+00  -2.1551145e+07
   7.4624875e-10  -4.8584845e-03   1.7297210e+00   1.1851822e+00  -2.1456282e+07
   7.4724908e-10  -4.8370684e-03   1.7284568e+00   1.1862913e+00  -2.1361837e+07
   7.4824942e-10  -4.8157465e-03   1.7271986e+00   1.1873962e+00  -2.1267808e+07
   7.4924975e-10  -4.7945185e-03   1.7259463e+00   1.1884969e+00  -2.1174192e+07
   7.5025008e-10  -4.7733839e-03   1.7247000e+00   1.1895935e+00  -2.1080989e+07
   7.5125042e-10  -4.7523423e-03   1.7234596e+00   1.1906859e+00  -2.0988195e+07
   7.5225075e-10  -4.7313933e-03   1.7222250e+00   1.1917742e+00  -2.0895810e+07
   7.5325108e-10  -4.7105366e-03   1.7209964e+00   1.1928584e+00  -2.0803832e+07
   7.5425142e-10  -4.6897717e-03   1.7197735e+00   1.1939384e+00  -2.0712258e+07
   7.5525175e-10  -4.6690981e-03   1.7185565e+00   1.1950144e+00  -2.0621087e+07
   7.5625208e-10  -4.6485156e-03   1.7173452e+00   1.1960863e+00  -2.0530317e+07
   7.5725242e-10  -4.6280237e-03   1.7161397e+00   1.1971541e+00  -2.0439946e+07
   7.5825275e-10  -4.6076220e-03   1.7149398e+00   1.1982179e+00  -2.0349973e+07
   7.5925308e-10  -4.5873101e-03   1.7137457e+00   1.1992776e+00  -2.0260396e+07
   7.6025342e-10  -4.5670875e-03   1.7125572e+00   1.2003332e+00  -2.0171213e+07
   7.6125375e-10  -4.5469540e-03   1.7113743e+00   1.2013849e+00  -2.0082422e+07
   7.6225408e-10  -4.5269092e-03   1.7101971e+00   1.2024325e+00  -1.9994022e+07
   7.6325442e-10  -4.5069525e-03   1.7090254e+00   1.2034762e+00  -1.9906011e+07
   7.6425475e-10  -4.4870838e-03   1.7078592e+00   1.2045158e+00  -1.9818387e+07
   7.6525509e-10  -4.4673024e-03   1.7066986e+00   1.2055515e+00  -1.9731148e+07
   7.6625542e-10  -4.4476082e-03   1.7055434e+00   1.2065832e+00  -1.9644293e+07
   7.6725575e-10  -4.4280006e-03   1.7043937e+00   1.2076110e+00  -1.9557820e+07
   7.6825609e-10  -4.4084794e-03   1.7032494e+00   1.2086348e+00  -1.9471728e+07
   7.6925642e-10  -4.3890441e-03   1.7021106e+00   1.2096548e+00  -1.9386014e+07
   7.7025675e-10  -4.3696943e-03   1.7009771e+00   1.2106708e+00  -1.9300677e+07
   7.7125709e-10  -4.3504297e-03   1.6998490e+00   1.2116829e+00  -1.9215715e+07
   7.7225742e-10  -4.3312499e-03   1.6987262e+00   1.2126911e+00  -1.9131127e+07
   7.7325775e-10  -4.3121546e-03   1.6976087e+00   1.2136954e+00  -1.9046912e+07
   7.7425809e-10  -4.2931433e-03   1.6964965e+00   1.2146959e+00  -1.8963066e+07
   7.7525842e-10  -4.2742157e-03   1.6953895e+00   1.2156925e+00  -1.8879589e+07
   7.7625875e-10  -4.2553714e-03   1.6942877e+00   1.2166853e+00  -1.8796479e+07
   7.7725909e-10  -4.2366101e-03   1.6931912e+00   1.2176742e+00  -1.8713735e+07
   7.7825942e-10  -4.2179313e-03   1.6920998e+00   1.2186594e+00  -1.8631355e+07
   7.7925975e-10  -4.1993348e-03   1.6910136e+00   1.2196407e+00  -1.8549337e+07
   7.8026009e-10  -4.1808202e-03   1.6899324e+00   1.2206183e+00  -1.8467679e+07
   7.8126042e-10  -4.1623870e-03   1.6888564e+00   1.2215920e+00  -1.8386381e+07
   7.8226075e-10  -4.1440350e-03   1.6877854e+00   1.2225620e+00  -1.8305440e+07
   7.8326109e-10  -4.1257638e-03   1.6867195e+00   1.2235283e+00  -1.8224855e+07
   7.8426142e-10  -4.1075731e-03   1.6856586e+00   1.2244908e+00  -1.8144625e+07
   7.8526175e-10  -4.0894624e-03   1.6846027e+00   1.2254495e+00  -1.8064747e+07
   7.8626209e-10  -4.0714314e-03   1.6835518e+00   1.2264046e+00  -1.7985220e+07
   7.8726242e-10  -4.0534798e-03   1.6825058e+00   1.2273559e+00  -1.7906043e+07
   7.8826275e-10  -4.0356073e-03   1.6814647e+00   1.2283036e+00  -1.7827215e+07
   7.8926309e-10  -4.0178134e-03   1.6804286e+00   1.2292475e+00  -1.7748733e+07
   7.9026342e-10  -4.0000979e-03   1.6793973e+00   1.2301878e+00  -1.7670595e+07
   7.9126375e-10  -3.9824603e-03   1.6783708e+00   1.2311244e+00  -1.7592802e+07
   7.9226409e-10  -3.9649004e-03   1.6773492e+00   1.2320574e+00  -1.7515350e+07
   7.9326442e-10  -3.9474178e-03   1.6763324e+00   1.2329868e+00  -1.7438239e+07
   7.9426475e-10  -3.9300122e-03   1.6753203e+00   1.2339125e+00  -1.7361467e+07
   7.9526509e-10  -3.9126832e-03   1.6743130e+00   1.2348346e+00  -1.7285033e+07
   7.9626542e-10  -3.8954305e-03   1.6733105e+00   1.2357531e+00  -1.7208935e+07
   7.9726576e-10  -3.8782537e-03   1.6723126e+00   1.2366680e+00  -1.7133171e+07
   7.9826609e-10  -3.8611526e-03   1.6713195e+00   1.2375794e+00  -1.7057740e+07
   7.9926642e-10  -3.8441268e-03   1.6703310e+00   1.2384871e+00  -1.6982641e+07
   8.0026676e-10  -3.8271759e-03   1.6693471e+00   1.2393914e+00  -1.6907872e+07
   8.0126709e-10  -3.8102996e-03   1.6683678e+00   1.2402920e+00  -1.6833432e+07
   8.0226742e-10  -3.7934977e-03   1.6673932e+00   1.2411892e+00  -1.6759319e+07
   8.0326776e-10  -3.7767697e-03   1.6664231e+00   1.2420828e+00  -1.6685532e+07
   8.0426809e-10  -3.7601154e-03   1.6654576e+00   1.2429729e+00  -1.6612069e+07
   8.0526842e-10  -3.7435344e-03   1.6644965e+00   1.2438596e+00  -1.6538929e+07
   8.0626876e-10  -3.7270264e-03   1.6635400e+00   1.2447427e+00  -1.6466111e+07
   8.0726909e-10  -3.7105911e-03   1.6625880e+00   1.2456224e+00  -1.6393612e+07
   8.0826942e-10  -3.6942282e-03   1.6616404e+00   1.2464986e+00  -1.6321433e+07
   8.0926976e-10  -3.6779372e-03   1.6606973e+00   1.2473714e+00  -1.6249571e+07
   8.1027009e-10  -3.6617181e-03   1.6597586e+00   1.2482407e+00  -1.6178025e+07
   8.1127042e-10  -3.6455703e-03   1.6588243e+00   1.2491066e+00  -1.6106793e+07
   8.1227076e-10  -3.6294936e-03   1.6578943e+00   1.2499691e+00  -1.6035874e+07
   8.1327109e-10  -3.6134878e-03   1.6569687e+00   1.2508282e+00  -1.5965267e+07
   8.1427142e-10  -3.5975524e-03   1.6560475e+00   1.2516839e+00  -1.5894971e+07
   8.1527176e-10  -3.5816871e-03   1.6551305e+00   1.2525362e+00  -1.5824983e+07
   8.1627209e-10  -3.5658917e-03   1.6542179e+00   1.2533851e+00  -1.5755303e+07
   8.1727242e-10  -3.5501659e-03   1.6533095e+00   1.2542307e+00  -1.5685930e+07
   8.1827276e-10  -3.5345093e-03   1.6524053e+00   1.2550730e+00  -1.5616861e+07
   8.1927309e-10  -3.5189217e-03   1.6515054e+00   1.2559119e+00  -1.5548096e+07
   8.2027342e-10  -3.5034027e-03   1.6506097e+00   1.2567475e+00  -1.5479634e+07
   8.2127376e-10  -3.4879520e-03   1.6497182e+00   1.2575797e+00  -1.5411472e+07
   8.2227409e-10  -3.4725693e-03   1.6488308e+00   1.2584087e+00  -1.5343610e+07
   8.2327442e-10  -3.4572544e-03   1.6479476e+00   1.2592344e+00  -1.5276046e+07
   8.2427476e-10  -3.4420070e-03   1.6470685e+00   1.2600568e+00  -1.5208779e+07
   8.2527509e-10  -3.4268266e-03   1.6461935e+00   1.2608760e+00  -1.5141808e+07
   8.2627543e-10  -3.4117132e-03   1.6453225e+00   1.2616919e+00  -1.5075131e+07
   8.2727576e-10  -3.3966662e-03   1.6444557e+00   1.2625045e+00  -1.5008747e+07
   8.2827609e-10  -3.3816856e-03   1.6435929e+00   1.2633139e+00  -1.4942655e+07
   8.2927643e-10  -3.3667709e-03   1.6427341e+00   1.2641201e+00  -1.4876854e+07
   8.3027676e-10  -3.3519218e-03   1.6418793e+00   1.2649231e+00  -1.4811342e+07
   8.3127709e-10  -3.3371382e-03   1.6410286e+00   1.2657229e+00  -1.4746118e+07
   8.3227743e-10  -3.3224197e-03   1.6401817e+00   1.2665195e+00  -1.4681180e+07
   8.3327776e-10  -3.3077660e-03   1.6393389e+00   1.2673129e+00  -1.4616528e+07
   8.3427809e-10  -3.2931768e-03   1.6384999e+00   1.2681031e+00  -1.4552161e+07
   8.3527843e-10  -3.2786518e-03   1.6376649e+00   1.2688902e+00  -1.4488076e+07
   8.3627876e-10  -3.2641909e-03   1.6368337e+00   1.2696742e+00  -1.4424273e+07
   8.3727909e-10  -3.2497936e-03   1.6360065e+00   1.2704550e+00  -1.4360750e+07
   8.3827943e-10  -3.2354597e-03   1.6351830e+00   1.2712327e+00  -1.4297506e+07
   8.3927976e-10  -3.2211889e-03   1.6343634e+00   1.2720073e+00  -1.4234541e+07
   8.4028009e-10  -3.2069810e-03   1.6335477e+00   1.2727787e+00  -1.4171852e+07
   8.4128043e-10  -3.1928357e-03   1.6327357e+00   1.2735471e+00  -1.4109439e+07
   8.4228076e-10  -3.1787527e-03   1.6319275e+00   1.2743125e+00  -1.4047300e+07
   8.4328109e-10  -3.1647316e-03   1.6311230e+00   1.2750747e+00  -1.3985434e+07
   8.4428143e-10  -3.1507724e-03   1.6303223e+00   1.2758339e+00  -1.3923841e+07
   8.4528176e-10  -3.1368746e-03   1.6295254e+00   1.2765900e+00  -1.3862518e+07
   8.4628209e-10  -3.1230380e-03   1.6287321e+00   1.2773432e+00  -1.3801464e+07
   8.4728243e-10  -3.1092624e-03   1.6279425e+00   1.2780932e+00  -1.3740679e+07
   8.4828276e-10  -3.0955474e-03   1.6271566e+00   1.2788403e+00  -1.3680161e+07
   8.4928309e-10  -3.0818928e-03   1.6263743e+00   1.2795844e+00  -1.3619910e+07
   8.5028343e-10  -3.0682984e-03   1.6255957e+00   1.2803255e+00  -1.3559923e+07
   8.5128376e-10  -3.0547639e-03   1.6248207e+00   1.2810636e+00  -1.3500199e+07
   8.5228409e-10  -3.0412889e-03   1.6240493e+00   1.2817987e+00  -1.3440738e+07
   8.5328443e-10  -3.0278733e-03   1.6232814e+00   1.2825308e+00  -1.3381539e+07
   8.5428476e-10  -3.0145168e-03   1.6225172e+00   1.2832601e+00  -1.3322600e+07
   8.5528510e-10  -3.0012192e-03   1.6217565e+00   1.2839863e+00  -1.3263920e+07
   8.5628543e-10  -2.9879801e-03   1.6209993e+00   1.2847097e+00  -1.3205498e+07
   8.5728576e-10  -2.9747993e-03   1.6202456e+00   1.2854301e+00  -1.3147332e+07
   8.5828610e-10  -2.9616765e-03   1.6194954e+00   1.2861476e+00  -1.3089423e+07
   8.5928643e-10  -2.9486116e-03   1.6187487e+00   1.2868622e+00  -1.3031768e+07
   8.6028676e-10  -2.9356042e-03   1.6180055e+00   1.2875740e+00  -1.2974366e+07
   8.6128710e-10  -2.9226542e-03   1.6172657e+00   1.2882828e+00  -1.2917217e+07
   8.6228743e-10  -2.9097611e-03   1.6165293e+00   1.2889888e+00  -1.2860319e+07
   8.6328776e-10  -2.8969249e-03   1.6157964e+00   1.2896920e+00  -1.2803671e+07
   8.6428810e-10  -2.8841451e-03   1.6150669e+00   1.2903922e+00  -1.2747272e+07
   8.6528843e-10  -2.8714217e-03   1.6143407e+00   1.2910897e+00  -1.2691121e+07
   8.6628876e-10  -2.8587544e-03   1.6136179e+00   1.2917843e+00  -1.2635217e+07
   8.6728910e-10  -2.8461428e-03   1.6128984e+00   1.2924761e+00  -1.2579559e+07
   8.6828943e-10  -2.8335868e-03   1.6121823e+00   1.2931651e+00  -1.2524145e+07
   8.6928976e-10  -2.8210861e-03   1.6114695e+00   1.2938514e+00  -1.2468975e+07
   8.7029010e-10  -2.8086404e-03   1.6107600e+00   1.2945348e+00  -1.2414047e+07
   8.7129043e-10  -2.7962496e-03   1.6100537e+00   1.2952154e+00  -1.2359361e+07
   8.7229076e-10  -2.7839134e-03   1.6093508e+00   1.2958933e+00  -1.2304915e+07
   8.7329110e-10  -2.7716315e-03   1.6086511e+00   1.2965685e+00  -1.2250709e+07
   8.7429143e-10  -2.7594037e-03   1.6079546e+00   1.2972409e+00  -1.2196741e+07
   8.7529176e-10  -2.7472298e-03   1.6072614e+00   1.2979105e+00  -1.2143010e+07
   8.7629210e-10  -2.7351095e-03   1.6065713e+00   1.2985775e+00  -1.2089516e+07
   8.7729243e-10  -2.7230426e-03   1.6058845e+00   1.2992417e+00  -1.2036257e+07
   8.7829276e-10  -2.7110289e-03   1.6052008e+00   1.2999032e+00  -1.1983231e+07
   8.7929310e-10  -2.6990681e-03   1.6045203e+00   1.3005620e+00  -1.1930439e+07
   8.8029343e-10  -2.6871600e-03   1.6038429e+00   1.3012182e+00  -1.1877879e+07
   8.8129376e-10  -2.6753043e-03   1.6031686e+00   1.3018716e+00  -1.1825550e+07
   8.8229410e-10  -2.6635009e-03   1.6024975e+00   1.3025224e+00  -1.1773452e+07
   8.8329443e-10  -2.6517495e-03   1.6018295e+00   1.3031706e+00  -1.1721582e+07
   8.8429476e-10  -2.6400499e-03   1.6011645e+00   1.3038161e+00  -1.1669940e+07
   8.8529510e-10  -2.6284018e-03   1.6005027e+00   1.3044589e+00  -1.1618525e+07
   8.8629543e-10  -2.6168050e-03   1.5998439e+00   1.3050992e+00  -1.1567337e+07
   8.8729577e-10  -2.6052593e-03   1.5991881e+00   1.3057368e+00  -1.1516373e+07
   8.8829610e-10  -2.5937645e-03   1.5985353e+00   1.3063718e+00  -1.1465634e+07
   8.8929643e-10  -2.5823203e-03   1.5978856e+00   1.3070042e+00  -1.1415117e+07
   8.9029677e-10  -2.5709266e-03   1.5972388e+00   1.3076341e+00  -1.1364823e+07
   8.9129710e-10  -2.5595830e-03   1.5965951e+00   1.3082613e+00  -1.1314750e+07
   8.9229743e-10  -2.5482895e-03   1.5959543e+00   1.3088860e+00  -1.1264897e+07
   8.9329777e-10  -2.5370457e-03   1.5953165e+00   1.3095081e+00  -1.1215263e+07
   8.9429810e-10  -2.5258514e-03   1.5946816e+00   1.3101277e+00  -1.1165847e+07
   8.9529843e-10  -2.5147064e-03   1.5940496e+00   1.3107448e+00  -1.1116649e+07
   8.9629877e-10  -2.5036106e-03   1.5934206e+00   1.3113593e+00  -1.1067667e+07
   8.9729910e-10  -2.4925637e-03   1.5927944e+00   1.3119713e+00  -1.1018900e+07
   8.9829943e-10  -2.4815654e-03   1.5921711e+00   1.3125808e+00  -1.0970348e+07
   8.9929977e-10  -2.4706156e-03   1.5915507e+00   1.3131878e+00  -1.0922010e+07
   9.0030010e-10  -2.4597140e-03   1.5909332e+00   1.3137923e+00  -1.0873883e+07
   9.0130043e-10  -2.4488605e-03   1.5903185e+00   1.3143943e+00  -1.0825969e+07
   9.0230077e-10  -2.4380548e-03   1.5897066e+00   1.3149938e+00  -1.0778265e+07
   9.0330110e-10  -2.4272967e-03   1.5890976e+00   1.3155909e+00  -1.0730771e+07
   9.0430143e-10  -2.4165860e-03   1.5884913e+00   1.3161855e+00  -1.0683486e+07
   9.0530177e-10  -2.4059225e-03   1.5878879e+00   1.3167777e+00  -1.0636409e+07
   9.0630210e-10  -2.3953060e-03   1.5872872e+00   1.3173674e+00  -1.0589538e+07
   9.0730243e-10  -2.3847363e-03   1.5866893e+00   1.3179547e+00  -1.0542874e+07
   9.0830277e-10  -2.3742132e-03   1.5860941e+00   1.3185396e+00  -1.0496415e+07
   9.0930310e-10  -2.3637364e-03   1.5855017e+00   1.3191221e+00  -1.0450161e+07
   9.1030343e-10  -2.3533058e-03   1.5849120e+00   1.3197022e+00  -1.0404109e+07
   9.1130377e-10  -2.3429212e-03   1.5843250e+00   1.3202799e+00  -1.0358261e+07
   9.1230410e-10  -2.3325823e-03   1.5837407e+00   1.3208552e+00  -1.0312614e+07
   9.1330443e-10  -2.3222890e-03   1.5831591e+00   1.3214281e+00  -1.0267167e+07
   9.1430477e-10  -2.3120411e-03   1.5825801e+00   1.3219987e+00  -1.0221921e+07
   9.1530510e-10  -2.3018383e-03   1.5820039e+00   1.3225669e+00  -1.0176873e+07
   9.1630544e-10  -2.2916805e-03   1.5814302e+00   1.3231328e+00  -1.0132024e+07
   9.1730577e-10  -2.2815674e-03   1.5808592e+00   1.3236963e+00  -1.0087372e+07
   9.1830610e-10  -2.2714990e-03   1.5802909e+00   1.3242575e+00  -1.0042916e+07
   9.1930644e-10  -2.2614748e-03   1.5797251e+00   1.3248164e+00  -9.9986557e+06
   9.2030677e-10  -2.2514949e-03   1.5791620e+00   1.3253730e+00  -9.9545901e+06
   9.2130710e-10  -2.2415590e-03   1.5786014e+00   1.3259273e+00  -9.9107183e+06
   9.2230744e-10  -2.2316668e-03   1.5780434e+00   1.3264793e+00  -9.8670394e+06
   9.2330777e-10  -2.2218182e-03   1.5774879e+00   1.3270290e+00  -9.8235527e+06
   9.2430810e-10  -2.2120131e-03   1.5769350e+00   1.3275764e+00  -9.7802572e+06
   9.2530844e-10  -2.2022511e-03   1.5763847e+00   1.3281216e+00  -9.7371522e+06
   9.2630877e-10  -2.1925322e-03   1.5758368e+00   1.3286645e+00  -9.6942367e+06
   9.2730910e-10  -2.1828561e-03   1.5752915e+00   1.3292052e+00  -9.6515100e+06
   9.2830944e-10  -2.1732227e-03   1.5747487e+00   1.3297436e+00  -9.6089712e+06
   9.2930977e-10  -2.1636317e-03   1.5742084e+00   1.3302798e+00  -9.5666195e+06
   9.3031010e-10  -2.1540830e-03   1.5736705e+00   1.3308137e+00  -9.5244542e+06
   9.3131044e-10  -2.1445764e-03   1.5731351e+00   1.3313455e+00  -9.4824742e+06
   9.3231077e-10  -2.1351117e-03   1.5726022e+00   1.3318750e+00  -9.4406790e+06
   9.3331110e-10  -2.1256887e-03   1.5720717e+00   1.3324023e+00  -9.3990675e+06
   9.3431144e-10  -2.1163072e-03   1.5715437e+00   1.3329275e+00  -9.3576391e+06
   9.3531177e-10  -2.1069671e-03   1.5710180e+00   1.3334505e+00  -9.3163930e+06
   9.3631210e-10  -2.0976682e-03   1.5704948e+00   1.3339713e+00  -9.2753282e+06
   9.3731244e-10  -2.0884102e-03   1.5699740e+00   1.3344899e+00  -9.2344442e+06
   9.3831277e-10  -2.0791931e-03   1.5694555e+00   1.3350064e+00  -9.1937399e+06
   9.3931310e-10  -2.0700165e-03   1.5689394e+00   1.3355207e+00  -9.1532147e+06
   9.4031344e-10  -2.0608805e-03   1.5684257e+00   1.3360329e+00  -9.1128678e+06
   9.4131377e-10  -2.0517847e-03   1.5679144e+00   1.3365430e+00  -9.0726984e+06
   9.4231410e-10  -2.0427290e-03   1.5674053e+00   1.3370509e+00  -9.0327056e+06
   9.4331444e-10  -2.0337132e-03   1.5668987e+00   1.3375568e+00  -8.9928888e+06
   9.4431477e-10  -2.0247371e-03   1.5663943e+00   1.3380605e+00  -8.9532472e+06
   9.4531511e-10  -2.0158006e-03   1.5658922e+00   1.3385621e+00  -8.9137800e+06
   9.4631544e-10  -2.0069036e-03   1.5653925e+00   1.3390617e+00  -8.8744863e+06
   9.4731577e-10  -1.9980457e-03   1.5648950e+00   1.3395591e+00  -8.8353656e+06
   9.4831611e-10  -1.9892269e-03   1.5643998e+00   1.3400545e+00  -8.7964169e+06
   9.4931644e-10  -1.9804469e-03   1.5639068e+00   1.3405478e+00  -8.7576397e+06
   9.5031677e-10  -1.9717057e-03   1.5634161e+00   1.3410391e+00  -8.7190330e+06
   9.5131711e-10  -1.9630030e-03   1.5629277e+00   1.3415283e+00  -8.6805961e+06
   9.5231744e-10  -1.9543387e-03   1.5624415e+00   1.3420154e+00  -8.6423284e+06
   9.5331777e-10  -1.9457125e-03   1.5619575e+00   1.3425006e+00  -8.6042290e+06
   9.5431811e-10  -1.9371244e-03   1.5614757e+00   1.3429837e+00  -8.5662973e+06
   9.5531844e-10  -1.9285742e-03   1.5609961e+00   1.3434648e+00  -8.5285324e+06
   9.5631877e-10  -1.9200616e-03   1.5605187e+00   1.3439438e+00  -8.4909337e+06
   9.5731911e-10  -1.9115866e-03   1.5600435e+00   1.3444209e+00  -8.4535005e+06
   9.5831944e-10  -1.9031489e-03   1.5595705e+00   1.3448960e+00  -8.4162319e+06
   9.5931977e-10  -1.8947484e-03   1.5590996e+00   1.3453691e+00  -8.3791273e+06
   9.6032011e-10  -1.8863850e-03   1.5586309e+00   1.3458402e+00  -8.3421860e+06
   9.6132044e-10  -1.8780585e-03   1.5581643e+00   1.3463094e+00  -8.3054072e+06
   9.6232077e-10  -1.8697686e-03   1.5576999e+00   1.3467766e+00  -8.2687903e+06
   9.6332111e-10  -1.8615153e-03   1.5572375e+00   1.3472418e+00  -8.2323344e+06
   9.6432144e-10  -1.8532984e-03   1.5567773e+00   1.3477051e+00  -8.1960390e+06
   9.6532177e-10  -1.8451177e-03   1.5563192e+00   1.3481664e+00  -8.1599033e+06
   9.6632211e-10  -1.8369731e-03   1.5558631e+00   1.3486258e+00  -8.1239266e+06
   9.6732244e-10  -1.8288644e-03   1.5554092e+00   1.3490833e+00  -8.0881082e+06
   9.6832277e-10  -1.8207914e-03   1.5549573e+00   1.3495389e+00  -8.0524474e+06
   9.6932311e-10  -1.8127541e-03   1.5545075e+00   1.3499926e+00  -8.0169436e+06
   9.7032344e-10  -1.8047521e-03   1.5540597e+00   1.3504443e+00  -7.9815960e+06
   9.7132377e-10  -1.7967855e-03   1.5536140e+00   1.3508942e+00  -7.9464039e+06
   9.7232411e-10  -1.7888540e-03   1.5531703e+00   1.3513422e+00  -7.9113667e+06
   9.7332444e-10  -1.7809574e-03   1.5527286e+00   1.3517882e+00  -7.8764837e+06
   9.7432477e-10  -1.7730957e-03   1.5522889e+00   1.3522325e+00  -7.8417542e+06
   9.7532511e-10  -1.7652687e-03   1.5518513e+00   1.3526748e+00  -7.8071776e+06
   9.7632544e-10  -1.7574761e-03   1.5514156e+00   1.3531153e+00  -7.7727531e+06
   9.7732578e-10  -1.7497179e-03   1.5509819e+00   1.3535540e+00  -7.7384801e+06
   9.7832611e-10  -1.7419939e-03   1.5505502e+00   1.3539908e+00  -7.7043579e+06
   9.7932644e-10  -1.7343040e-03   1.5501205e+00   1.3544258e+00  -7.6703859e+06
   9.8032678e-10  -1.7266480e-03   1.5496927e+00   1.3548589e+00  -7.6365635e+06
   9.8132711e-10  -1.7190257e-03   1.5492669e+00   1.3552903e+00  -7.6028899e+06
   9.8232744e-10  -1.7114371e-03   1.5488430e+00   1.3557198e+00  -7.5693644e+06
   9.8332778e-10  -1.7038819e-03   1.5484210e+00   1.3561475e+00  -7.5359866e+06
   9.8432811e-10  -1.6963601e-03   1.5480010e+00   1.3565734e+00  -7.5027556e+06
   9.8532844e-10  -1.6888714e-03   1.5475829e+00   1.3569975e+00  -7.4696709e+06
   9.8632878e-10  -1.6814157e-03   1.5471666e+00   1.3574198e+00  -7.4367319e+06
   9.8732911e-10  -1.6739929e-03   1.5467523e+00   1.3578404e+00  -7.4039378e+06
   9.8832944e-10  -1.6666028e-03   1.5463398e+00   1.3582592e+00  -7.3712880e+06
   9.8932978e-10  -1.6592453e-03   1.5459293e+00   1.3586762e+00  -7.3387820e+06
   9.9033011e-10  -1.6519203e-03   1.5455206e+00   1.3590914e+00  -7.3064190e+06
   9.9133044e-10  -1.6446276e-03   1.5451137e+00   1.3595049e+00  -7.2741985e+06
   9.9233078e-10  -1.6373670e-03   1.5447087e+00   1.3599167e+00  -7.2421198e+06
   9.9333111e-10  -1.6301385e-03   1.5443056e+00   1.3603267e+00  -7.2101823e+06
   9.9433144e-10  -1.6229418e-03   1.5439043e+00   1.3607350e+00  -7.1783854e+06
   9.9533178e-10  -1.6157769e-03   1.5435048e+00   1.3611416e+00  -7.1467285e+06
   9.9633211e-10  -1.6086435e-03   1.5431071e+00   1.3615465e+00  -7.1152109e+06
   9.9733244e-10  -1.6015417e-03   1.5427112e+00   1.3619497e+00  -7.0838321e+06
   9.9833278e-10  -1.5944711e-03   1.5423172e+00   1.3623511e+00  -7.0525913e+06
   9.9933311e-10  -1.5874317e-03   1.5419249e+00   1.3627509e+00  -7.0214882e+06
   1.0003334e-09  -1.5804234e-03   1.5415344e+00   1.3631489e+00  -6.9905219e+06
   1.0013338e-09  -1.5734460e-03   1.5411457e+00   1.3635453e+00  -6.9596919e+06
   1.0023341e-09  -1.5664993e-03   1.5407587e+00   1.3639401e+00  -6.9289977e+06
   1.0033344e-09  -1.5595833e-03   1.5403735e+00   1.3643331e+00  -6.8984386e+06
   1.0043348e-09  -1.5526978e-03   1.5399900e+00   1.3647245e+00  -6.8680140e+06
   1.0053351e-09  -1.5458427e-03   1.5396083e+00   1.3651142e+00  -6.8377234e+06
   1.0063354e-09  -1.5390177e-03   1.5392284e+00   1.3655023e+00  -6.8075661e+06
   1.0073358e-09  -1.5322229e-03   1.5388501e+00   1.3658888e+00  -6.7775416e+06
   1.0083361e-09  -1.5254581e-03   1.5384736e+00   1.3662736e+00  -6.7476493e+06
   1.0093364e-09  -1.5187231e-03   1.5380988e+00   1.3666568e+00  -6.7178886e+06
   1.0103368e-09  -1.5120178e-03   1.5377256e+00   1.3670383e+00  -6.6882589e+06
   1.0113371e-09  -1.5053421e-03   1.5373542e+00   1.3674183e+00  -6.6587597e+06
   1.0123374e-09  -1.4986958e-03   1.5369845e+00   1.3677966e+00  -6.6293903e+06
   1.0133378e-09  -1.4920788e-03   1.5366164e+00   1.3681734e+00  -6.6001502e+06
   1.0143381e-09  -1.4854910e-03   1.5362500e+00   1.3685485e+00  -6.5710389e+06
   1.0153384e-09  -1.4789323e-03   1.5358853e+00   1.3689221e+00  -6.5420558e+06
   1.0163388e-09  -1.4724025e-03   1.5355222e+00   1.3692941e+00  -6.5132003e+06
   1.0173391e-09  -1.4659015e-03   1.5351607e+00   1.3696645e+00  -6.4844718e+06
   1.0183394e-09  -1.4594292e-03   1.5348010e+00   1.3700333e+00  -6.4558698e+06
   1.0193398e-09  -1.4529855e-03   1.5344428e+00   1.3704006e+00  -6.4273938e+06
   1.0203401e-09  -1.4465701e-03   1.5340863e+00   1.3707663e+00  -6.3990431e+06
   1.0213404e-09  -1.4401831e-03   1.5337313e+00   1.3711304e+00  -6.3708173e+06
   1.0223408e-09  -1.4338242e-03   1.5333780e+00   1.3714930e+00  -6.3427158e+06
   1.0233411e-09  -1.4274934e-03   1.5330263e+00   1.3718541e+00  -6.3147380e+06
   1.0243414e-09  -1.4211905e-03   1.5326762e+00   1.3722137e+00  -6.2868834e+06
   1.0253418e-09  -1.4149154e-03   1.5323277e+00   1.3725717e+00  -6.2591515e+06
   1.0263421e-09  -1.4086679e-03   1.5319807e+00   1.3729282e+00  -6.2315417e+06
   1.0273424e-09  -1.4024481e-03   1.5316353e+00   1.3732832e+00  -6.2040535e+06
   1.0283428e-09  -1.3962557e-03   1.5312915e+00   1.3736366e+00  -6.1766863e+06
   1.0293431e-09  -1.3900905e-03   1.5309493e+00   1.3739886e+00  -6.1494396e+06
   1.0303434e-09  -1.3839526e-03   1.5306085e+00   1.3743391e+00  -6.1223130e+06
   1.0313438e-09  -1.3778418e-03   1.5302694e+00   1.3746881e+00  -6.0953057e+06
   1.0323441e-09  -1.3717579e-03   1.5299318e+00   1.3750356e+00  -6.0684175e+06
   1.0333444e-09  -1.3657009e-03   1.5295957e+00   1.3753816e+00  -6.0416476e+06
   1.0343448e-09  -1.3596706e-03   1.5292611e+00   1.3757262e+00  -6.0149956e+06
   1.0353451e-09  -1.3536668e-03   1.5289280e+00   1.3760693e+00  -5.9884610e+06
   1.0363454e-09  -1.3476896e-03   1.5285965e+00   1.3764109e+00  -5.9620433e+06
   1.0373458e-09  -1.3417387e-03   1.5282664e+00   1.3767511e+00  -5.9357419e+06
   1.0383461e-09  -1.3358141e-03   1.5279378e+00   1.3770899e+00  -5.9095563e+06
   1.0393464e-09  -1.3299156e-03   1.5276108e+00   1.3774272e+00  -5.8834861e+06
   1.0403468e-09  -1.3240432e-03   1.5272852e+00   1.3777630e+00  -5.8575307e+06
   1.0413471e-09  -1.3181966e-03   1.5269611e+00   1.3780974e+00  -5.8316896e+06
   1.0423474e-09  -1.3123759e-03   1.5266384e+00   1.3784305e+00  -5.8059623e+06
   1.0433478e-09  -1.3065808e-03   1.5263172e+00   1.3787621e+00  -5.7803484e+06
   1.0443481e-09  -1.3008113e-03   1.5259975e+00   1.3790922e+00  -5.7548472e+06
   1.0453484e-09  -1.2950672e-03   1.5256792e+00   1.3794210e+00  -5.7294584e+06
   1.0463488e-09  -1.2893485e-03   1.5253623e+00   1.3797484e+00  -5.7041814e+06
   1.0473491e-09  -1.2836550e-03   1.5250469e+00   1.3800744e+00  -5.6790157e+06
   1.0483494e-09  -1.2779867e-03   1.5247329e+00   1.3803989e+00  -5.6539609e+06
   1.0493498e-09  -1.2723433e-03   1.5244203e+00   1.3807222e+00  -5.6290165e+06
   1.0503501e-09  -1.2667248e-03   1.5241091e+00   1.3810440e+00  -5.6041819e+06
   1.0513505e-09  -1.2611312e-03   1.5237994e+00   1.3813644e+00  -5.5794567e+06
   1.0523508e-09  -1.2555622e-03   1.5234910e+00   1.3816835e+00  -5.5548404e+06
   1.0533511e-09  -1.2500177e-03   1.5231841e+00   1.3820013e+00  -5.5303326e+06
   1.0543515e-09  -1.2444978e-03   1.5228785e+00   1.3823176e+00  -5.5059327e+06
   1.0553518e-09  -1.2390022e-03   1.5225743e+00   1.3826327e+00  -5.4816403e+06
   1.0563521e-09  -1.2335308e-03   1.5222715e+00   1.3829463e+00  -5.4574549e+06
   1.0573525e-09  -1.2280836e-03   1.5219700e+00   1.3832587e+00  -5.4333761e+06
   1.0583528e-09  -1.2226604e-03   1.5216699e+00   1.3835697e+00  -5.4094033e+06
   1.0593531e-09  -1.2172611e-03   1.5213712e+00   1.3838794e+00  -5.3855361e+06
   1.0603535e-09  -1.2118857e-03   1.5210738e+00   1.3841877e+00  -5.3617741e+06
   1.0613538e-09  -1.2065340e-03   1.5207778e+00   1.3844948e+00  -5.3381167e+06
   1.0623541e-09  -1.2012059e-03   1.5204830e+00   1.3848005e+00  -5.3145636e+06
   1.0633545e-09  -1.1959013e-03   1.5201897e+00   1.3851049e+00  -5.2911142e+06
   1.0643548e-09  -1.1906201e-03   1.5198976e+00   1.3854081e+00  -5.2677682e+06
   1.0653551e-09  -1.1853622e-03   1.5196069e+00   1.3857099e+00  -5.2445249e+06
   1.0663555e-09  -1.1801275e-03   1.5193175e+00   1.3860104e+00  -5.2213841e+06
   1.0673558e-09  -1.1749159e-03   1.5190293e+00   1.3863097e+00  -5.1983453e+06
   1.0683561e-09  -1.1697273e-03   1.5187425e+00   1.3866077e+00  -5.1754079e+06
   1.0693565e-09  -1.1645616e-03   1.5184570e+00   1.3869044e+00  -5.1525716e+06
   1.0703568e-09  -1.1594187e-03   1.5181728e+00   1.3871998e+00  -5.1298359e+06
   1.0713571e-09  -1.1542985e-03   1.5178898e+00   1.3874940e+00  -5.1072004e+06
   1.0723575e-09  -1.1492008e-03   1.5176082e+00   1.3877869e+00  -5.0846646e+06
   1.0733578e-09  -1.1441257e-03   1.5173277e+00   1.3880785e+00  -5.0622281e+06
   1.0743581e-09  -1.1390730e-03   1.5170486e+00   1.3883689e+00  -5.0398905e+06
   1.0753585e-09  -1.1340425e-03   1.5167707e+00   1.3886581e+00  -5.0176513e+06
   1.0763588e-09  -1.1290343e-03   1.5164941e+00   1.3889460e+00  -4.9955100e+06
   1.0773591e-09  -1.1240482e-03   1.5162187e+00   1.3892327e+00  -4.9734664e+06
   1.0783595e-09  -1.1190840e-03   1.5159446e+00   1.3895182e+00  -4.9515198e+06
   1.0793598e-09  -1.1141418e-03   1.5156717e+00   1.3898025e+00  -4.9296700e+06
   1.0803601e-09  -1.1092214e-03   1.5154000e+00   1.3900855e+00  -4.9079164e+06
   1.0813605e-09  -1.1043226e-03   1.5151296e+00   1.3903673e+00  -4.8862587e+06
   1.0823608e-09  -1.0994455e-03   1.5148604e+00   1.3906479e+00  -4.8646964e+06
   1.0833611e-09  -1.0945900e-03   1.5145923e+00   1.3909273e+00  -4.8432291e+06
   1.0843615e-09  -1.0897558e-03   1.5143255e+00   1.3912055e+00  -4.8218565e+06
   1.0853618e-09  -1.0849430e-03   1.5140599e+00   1.3914826e+00  -4.8005780e+06
   1.0863621e-09  -1.0801514e-03   1.5137955e+00   1.3917584e+00  -4.7793932e+06
   1.0873625e-09  -1.0753810e-03   1.5135323e+00   1.3920330e+00  -4.7583019e+06
   1.0883628e-09  -1.0706316e-03   1.5132703e+00   1.3923065e+00  -4.7373034e+06
   1.0893631e-09  -1.0659032e-03   1.5130094e+00   1.3925788e+00  -4.7163975e+06
   1.0903635e-09  -1.0611957e-03   1.5127498e+00   1.3928499e+00  -4.6955838e+06
   1.0913638e-09  -1.0565089e-03   1.5124913e+00   1.3931199e+00  -4.6748617e+06
   1.0923641e-09  -1.0518428e-03   1.5122339e+00   1.3933887e+00  -4.6542310e+06
   1.0933645e-09  -1.0471973e-03   1.5119778e+00   1.3936564e+00  -4.6336912e+06
   1.0943648e-09  -1.0425723e-03   1.5117227e+00   1.3939229e+00  -4.6132419e+06
   1.0953651e-09  -1.0379677e-03   1.5114689e+00   1.3941883e+00  -4.5928827e+06
   1.0963655e-09  -1.0333834e-03   1.5112161e+00   1.3944525e+00  -4.5726133e+06
   1.0973658e-09  -1.0288194e-03   1.5109645e+00   1.3947156e+00  -4.5524332e+06
   1.0983661e-09  -1.0242755e-03   1.5107141e+00   1.3949775e+00  -4.5323420e+06
   1.0993665e-09  -1.0197517e-03   1.5104647e+00   1.3952384e+00  -4.5123394e+06
   1.1003668e-09  -1.0152478e-03   1.5102165e+00   1.3954981e+00  -4.4924249e+06
   1.1013671e-09  -1.0107638e-03   1.5099694e+00   1.3957567e+00  -4.4725982e+06
   1.1023675e-09  -1.0062996e-03   1.5097234e+00   1.3960142e+00  -4.4528588e+06
   1.1033678e-09  -1.0018551e-03   1.5094786e+00   1.3962706e+00  -4.4332065e+06
   1.1043681e-09  -9.9743017e-04   1.5092348e+00   1.3965258e+00  -4.4136408e+06
   1.1053685e-09  -9.9302481e-04   1.5089921e+00   1.3967800e+00  -4.3941613e+06
   1.1063688e-09  -9.8863889e-04   1.5087505e+00   1.3970331e+00  -4.3747677e+06
   1.1073691e-09  -9.8427233e-04   1.5085100e+00   1.3972851e+00  -4.3554596e+06
   1.1083695e-09  -9.7992504e-04   1.5082706e+00   1.3975360e+00  -4.3362365e+06
   1.1093698e-09  -9.7559694e-04   1.5080323e+00   1.3977859e+00  -4.3170982e+06
   1.1103701e-09  -9.7128793e-04   1.5077950e+00   1.3980347e+00  -4.2980443e+06
   1.1113705e-09  -9.6699795e-04   1.5075588e+00   1.3982824e+00  -4.2790743e+06
   1.1123708e-09  -9.6272690e-04   1.5073237e+00   1.3985290e+00  -4.2601880e+06
   1.1133711e-09  -9.5847471e-04   1.5070896e+00   1.3987746e+00  -4.2413849e+06
   1.1143715e-09  -9.5424128e-04   1.5068566e+00   1.3990191e+00  -4.2226646e+06
   1.1153718e-09  -9.5002653e-04   1.5066246e+00   1.3992625e+00  -4.2040269e+06
   1.1163721e-09  -9.4583039e-04   1.5063937e+00   1.3995050e+00  -4.1854714e+06
   1.1173725e-09  -9.4165277e-04   1.5061638e+00   1.3997463e+00  -4.1669976e+06
   1.1183728e-09  -9.3749359e-04   1.5059349e+00   1.3999867e+00  -4.1486053e+06
   1.1193731e-09  -9.3335277e-04   1.5057071e+00   1.4002260e+00  -4.1302941e+06
   1.1203735e-09  -9.2923022e-04   1.5054802e+00   1.4004642e+00  -4.1120635e+06
   1.1213738e-09  -9.2512587e-04   1.5052544e+00   1.4007015e+00  -4.0939134e+06
   1.1223741e-09  -9.2103964e-04   1.5050297e+00   1.4009377e+00  -4.0758432e+06
   1.1233745e-09  -9.1697144e-04   1.5048059e+00   1.4011729e+00  -4.0578527e+06
   1.1243748e-09  -9.1292120e-04   1.5045831e+00   1.4014071e+00  -4.0399415e+06
   1.1253751e-09  -9.0888884e-04   1.5043614e+00   1.4016403e+00  -4.0221093e+06
   1.1263755e-09  -9.0487427e-04   1.5041406e+00   1.4018725e+00  -4.0043557e+06
   1.1273758e-09  -9.0087743e-04   1.5039208e+00   1.4021036e+00  -3.9866804e+06
   1.1283761e-09  -8.9689823e-04   1.5037021e+00   1.4023338e+00  -3.9690829e+06
   1.1293765e-09  -8.9293659e-04   1.5034843e+00   1.4025630e+00  -3.9515631e+06
   1.1303768e-09  -8.8899244e-04   1.5032674e+00   1.4027912e+00  -3.9341205e+06
   1.1313771e-09  -8.8506570e-04   1.5030516e+00   1.4030184e+00  -3.9167548e+06
   1.1323775e-09  -8.8115629e-04   1.5028367e+00   1.4032447e+00  -3.8994656e+06
   1.1333778e-09  -8.7726414e-04   1.5026228e+00   1.4034699e+00  -3.8822527e+06
   1.1343781e-09  -8.7338917e-04   1.5024098e+00   1.4036942e+00  -3.8651156e+06
   1.1353785e-09  -8.6953131e-04   1.5021978e+00   1.4039175e+00  -3.8480542e+06
   1.1363788e-09  -8.6569047e-04   1.5019868e+00   1.4041399e+00  -3.8310679e+06
   1.1373791e-09  -8.6186659e-04   1.5017767e+00   1.4043613e+00  -3.8141565e+06
   1.1383795e-09  -8.5805959e-04   1.5015675e+00   1.4045817e+00  -3.7973197e+06
   1.1393798e-09  -8.5426940e-04   1.5013593e+00   1.4048012e+00  -3.7805571e+06
   1.1403801e-09  -8.5049593e-04   1.5011520e+00   1.4050198e+00  -3.7638684e+06
   1.1413805e-09  -8.4673913e-04   1.5009457e+00   1.4052374e+00  -3.7472534e+06
   1.1423808e-09  -8.4299890e-04   1.5007402e+00   1.4054540e+00  -3.7307115e+06
   1.1433811e-09  -8.3927519e-04   1.5005357e+00   1.4056698e+00  -3.7142426e+06
   1.1443815e-09  -8.3556792e-04   1.5003321e+00   1.4058846e+00  -3.6978463e+06
   1.1453818e-09  -8.3187701e-04   1.5001295e+00   1.4060984e+00  -3.6815223e+06
   1.1463821e-09  -8.2820239e-04   1.4999277e+00   1.4063114e+00  -3.6652703e+06
   1.1473825e-09  -8.2454400e-04   1.4997269e+00   1.4065234e+00  -3.6490900e+06
   1.1483828e-09  -8.2090176e-04   1.4995269e+00   1.4067345e+00  -3.6329810e+06
   1.1493831e-09  -8.1727559e-04   1.4993278e+00   1.4069447e+00  -3.6169430e+06
   1.1503835e-09  -8.1366543e-04   1.4991297e+00   1.4071540e+00  -3.6009757e+06
   1.1513838e-09  -8.1007121e-04   1.4989324e+00   1.4073624e+00  -3.5850789e+06
   1.1523841e-09  -8.0649286e-04   1.4987360e+00   1.4075699e+00  -3.5692521e+06
   1.1533845e-09  -8.0293031e-04   1.4985405e+00   1.4077765e+00  -3.5534952e+06
   1.1543848e-09  -7.9938348e-04   1.4983458e+00   1.4079822e+00  -3.5378077e+06
   1.1553851e-09  -7.9585231e-04   1.4981521e+00   1.4081870e+00  -3.5221894e+06
   1.1563855e-09  -7.9233673e-04   1.4979592e+00   1.4083909e+00  -3.5066399e+06
   1.1573858e-09  -7.8883667e-04   1.4977672e+00   1.4085940e+00  -3.4911591e+06
   1.1583861e-09  -7.8535206e-04   1.4975760e+00   1.4087961e+00  -3.4757465e+06
   1.1593865e-09  -7.8188283e-04   1.4973857e+00   1.4089974e+00  -3.4604018e+06
   1.1603868e-09  -7.7842892e-04   1.4971962e+00   1.4091978e+00  -3.4451249e+06
   1.1613871e-09  -7.7499026e-04   1.4970076e+00   1.4093974e+00  -3.4299153e+06
   1.1623875e-09  -7.7156678e-04   1.4968198e+00   1.4095961e+00  -3.4147728e+06
   1.1633878e-09  -7.6815842e-04   1.4966329e+00   1.4097939e+00  -3.3996970e+06
   1.1643881e-09  -7.6476510e-04   1.4964468e+00   1.4099909e+00  -3.3846878e+06
   1.1653885e-09  -7.6138676e-04   1.4962616e+00   1.4101870e+00  -3.3697447e+06
   1.1663888e-09  -7.5802334e-04   1.4960772e+00   1.4103823e+00  -3.3548675e+06
   1.1673891e-09  -7.5467477e-04   1.4958936e+00   1.4105767e+00  -3.3400560e+06
   1.1683895e-09  -7.5134098e-04   1.4957108e+00   1.4107703e+00  -3.3253097e+06
   1.1693898e-09  -7.4802191e-04   1.4955289e+00   1.4109630e+00  -3.3106285e+06
   1.1703901e-09  -7.4471749e-04   1.4953477e+00   1.4111549e+00  -3.2960120e+06
   1.1713905e-09  -7.4142767e-04   1.4951674e+00   1.4113460e+00  -3.2814601e+06
   1.1723908e-09  -7.3815236e-04   1.4949879e+00   1.4115363e+00  -3.2669722e+06
   1.1733911e-09  -7.3489152e-04   1.4948092e+00   1.4117257e+00  -3.2525483e+06
   1.1743915e-09  -7.3164508e-04   1.4946312e+00   1.4119143e+00  -3.2381880e+06
   1.1753918e-09  -7.2841297e-04   1.4944541e+00   1.4121021e+00  -3.2238910e+06
   1.1763921e-09  -7.2519512e-04   1.4942778e+00   1.4122891e+00  -3.2096571e+06
   1.1773925e-09  -7.2199149e-04   1.4941023e+00   1.4124753e+00  -3.1954860e+06
   1.1783928e-09  -7.1880200e-04   1.4939275e+00   1.4126606e+00  -3.1813774e+06
   1.1793931e-09  -7.1562659e-04   1.4937536e+00   1.4128452e+00  -3.1673309e+06
   1.1803935e-09  -7.1246521e-04   1.4935804e+00   1.4130290e+00  -3.1533465e+06
   1.1813938e-09  -7.0931778e-04   1.4934080e+00   1.4132119e+00  -3.1394237e+06
   1.1823941e-09  -7.0618424e-04   1.4932363e+00   1.4133941e+00  -3.1255624e+06
   1.1833945e-09  -7.0306455e-04   1.4930655e+00   1.4135755e+00  -3.1117621e+06
   1.1843948e-09  -6.9995862e-04   1.4928954e+00   1.4137561e+00  -3.0980228e+06
   1.1853951e-09  -6.9686642e-04   1.4927260e+00   1.4139359e+00  -3.0843440e+06
   1.1863955e-09  -6.9378786e-04   1.4925574e+00   1.4141150e+00  -3.0707256e+06
   1.1873958e-09  -6.9072290e-04   1.4923896e+00   1.4142932e+00  -3.0571672e+06
   1.1883961e-09  -6.8767147e-04   1.4922225e+00   1.4144707e+00  -3.0436687e+06
   1.1893965e-09  -6.8463351e-04   1.4920562e+00   1.4146474e+00  -3.0302297e+06
   1.1903968e-09  -6.8160897e-04   1.4918906e+00   1.4148234e+00  -3.0168500e+06
   1.1913971e-09  -6.7859778e-04   1.4917258e+00   1.4149986e+00  -3.0035293e+06
   1.1923975e-09  -6.7559988e-04   1.4915617e+00   1.4151730e+00  -2.9902673e+06
   1.1933978e-09  -6.7261523e-04   1.4913983e+00   1.4153467e+00  -2.9770639e+06
   1.1943981e-09  -6.6964375e-04   1.4912356e+00   1.4155196e+00  -2.9639187e+06
   1.1953985e-09  -6.6668540e-04   1.4910737e+00   1.4156917e+00  -2.9508314e+06
   1.1963988e-09  -6.6374010e-04   1.4909125e+00   1.4158632e+00  -2.9378019e+06
   1.1973991e-09  -6.6080781e-04   1.4907521e+00   1.4160338e+00  -2.9248299e+06
   1.1983995e-09  -6.5788847e-04   1.4905923e+00   1.4162038e+00  -2.9119151e+06
   1.1993998e-09  -6.5498202e-04   1.4904333e+00   1.4163730e+00  -2.8990573e+06
   1.2004001e-09  -6.5208841e-04   1.4902750e+00   1.4165414e+00  -2.8862562e+06
   1.2014005e-09  -6.4920757e-04   1.4901173e+00   1.4167092e+00  -2.8735116e+06
   1.2024008e-09  -6.4633945e-04   1.4899604e+00   1.4168762e+00  -2.8608232e+06
   1.2034011e-09  -6.4348399e-04   1.4898042e+00   1.4170425e+00  -2.8481907e+06
   1.2044015e-09  -6.4064115e-04   1.4896487e+00   1.4172080e+00  -2.8356140e+06
   1.2054018e-09  -6.3781086e-04   1.4894939e+00   1.4173729e+00  -2.8230928e+06
   1.2064021e-09  -6.3499306e-04   1.4893398e+00   1.4175370e+00  -2.8106268e+06
   1.2074025e-09  -6.3218771e-04   1.4891863e+00   1.4177004e+00  -2.7982158e+06
   1.2084028e-09  -6.2939475e-04   1.4890336e+00   1.4178631e+00  -2.7858595e+06
   1.2094031e-09  -6.2661411e-04   1.4888815e+00   1.4180251e+00  -2.7735578e+06
   1.2104035e-09  -6.2384576e-04   1.4887301e+00   1.4181864e+00  -2.7613104e+06
   1.2114038e-09  -6.2108963e-04   1.4885794e+00   1.4183470e+00  -2.7491169e+06
   1.2124041e-09  -6.1834568e-04   1.4884294e+00   1.4185069e+00  -2.7369773e+06
   1.2134045e-09  -6.1561384e-04   1.4882800e+00   1.4186661e+00  -2.7248912e+06
   1.2144048e-09  -6.1289406e-04   1.4881313e+00   1.4188246e+00  -2.7128585e+06
   1.2154051e-09  -6.1018629e-04   1.4879833e+00   1.4189824e+00  -2.7008788e+06
   1.2164055e-09  -6.0749048e-04   1.4878359e+00   1.4191395e+00  -2.6889520e+06
   1.2174058e-09  -6.0480658e-04   1.4876892e+00   1.4192960e+00  -2.6770778e+06
   1.2184061e-09  -6.0213452e-04   1.4875432e+00   1.4194517e+00  -2.6652560e+06
   1.2194065e-09  -5.9947427e-04   1.4873977e+00   1.4196068e+00  -2.6534863e+06
   1.2204068e-09  -5.9682576e-04   1.4872530e+00   1.4197612e+00  -2.6417686e+06
   1.2214071e-09  -5.9418895e-04   1.4871089e+00   1.4199150e+00  -2.6301026e+06
   1.2224075e-09  -5.9156379e-04   1.4869654e+00   1.4200681e+00  -2.6184880e+06
   1.2234078e-09  -5.8895022e-04   1.4868226e+00   1.4202205e+00  -2.6069247e+06
   1.2244081e-09  -5.8634818e-04   1.4866804e+00   1.4203722e+00  -2.5954124e+06
   1.2254085e-09  -5.8375764e-04   1.4865389e+00   1.4205233e+00  -2.5839509e+06
   1.2264088e-09  -5.8117854e-04   1.4863980e+00   1.4206738e+00  -2.5725400e+06
   1.2274091e-09  -5.7861083e-04   1.4862577e+00   1.4208235e+00  -2.5611794e+06
   1.2284095e-09  -5.7605446e-04   1.4861180e+00   1.4209727e+00  -2.5498690e+06
   1.2294098e-09  -5.7350938e-04   1.4859790e+00   1.4211211e+00  -2.5386084e+06
   1.2304101e-09  -5.7097553e-04   1.4858406e+00   1.4212690e+00  -2.5273976e+06
   1.2314105e-09  -5.6845288e-04   1.4857028e+00   1.4214162e+00  -2.5162362e+06
   1.2324108e-09  -5.6594136e-04   1.4855656e+00   1.4215627e+00  -2.5051240e+06
   1.2334111e-09  -5.6344094e-04   1.4854290e+00   1.4217086e+00  -2.4940609e+06
   1.2344115e-09  -5.6095156e-04   1.4852931e+00   1.4218539e+00  -2.4830466e+06
   1.2354118e-09  -5.5847318e-04   1.4851577e+00   1.4219985e+00  -2.4720809e+06
   1.2364121e-09  -5.5600574e-04   1.4850230e+00   1.4221425e+00  -2.4611636e+06
   1.2374125e-09  -5.5354919e-04   1.4848888e+00   1.4222859e+00  -2.4502944e+06
   1.2384128e-09  -5.5110350e-04   1.4847553e+00   1.4224287e+00  -2.4394733e+06
   1.2394131e-09  -5.4866860e-04   1.4846223e+00   1.4225708e+00  -2.4286998e+06
   1.2404135e-09  -5.4624446e-04   1.4844900e+00   1.4227124e+00  -2.4179739e+06
   1.2414138e-09  -5.4383103e-04   1.4843582e+00   1.4228533e+00  -2.4072954e+06
   1.2424141e-09  -5.4142825e-04   1.4842270e+00   1.4229936e+00  -2.3966639e+06
   1.2434145e-09  -5.3903609e-04   1.4840964e+00   1.4231332e+00  -2.3860794e+06
   1.2444148e-09  -5.3665449e-04   1.4839664e+00   1.4232723e+00  -2.3755416e+06
   1.2454151e-09  -5.3428340e-04   1.4838370e+00   1.4234108e+00  -2.3650503e+06
   1.2464155e-09  -5.3192279e-04   1.4837081e+00   1.4235487e+00  -2.3546053e+06
   1.2474158e-09  -5.2957261e-04   1.4835799e+00   1.4236859e+00  -2.3442063e+06
   1.2484161e-09  -5.2723280e-04   1.4834522e+00   1.4238226e+00  -2.3338533e+06
   1.2494165e-09  -5.2490333e-04   1.4833250e+00   1.4239587e+00  -2.3235459e+06
   1.2504168e-09  -5.2258414e-04   1.4831985e+00   1.4240941e+00  -2.3132841e+06
   1.2514171e-09  -5.2027520e-04   1.4830725e+00   1.4242290e+00  -2.3030675e+06
   1.2524175e-09  -5.1797646e-04   1.4829470e+00   1.4243633e+00  -2.2928960e+06
   1.2534178e-09  -5.1568787e-04   1.4828221e+00   1.4244970e+00  -2.2827694e+06
   1.2544181e-09  -5.1340938e-04   1.4826978e+00   1.4246302e+00  -2.2726875e+06
   1.2554185e-09  -5.1114096e-04   1.4825740e+00   1.4247627e+00  -2.2626500e+06
   1.2564188e-09  -5.0888256e-04   1.4824508e+00   1.4248947e+00  -2.2526569e+06
   1.2574191e-09  -5.0663413e-04   1.4823282e+00   1.4250261e+00  -2.2427079e+06
   1.2584195e-09  -5.0439563e-04   1.4822060e+00   1.4251569e+00  -2.2328027e+06
   1.2594198e-09  -5.0216702e-04   1.4820845e+00   1.4252872e+00  -2.2229413e+06
   1.2604201e-09  -4.9994825e-04   1.4819634e+00   1.4254169e+00  -2.2131234e+06
   1.2614205e-09  -4.9773928e-04   1.4818430e+00   1.4255460e+00  -2.2033489e+06
   1.2624208e-09  -4.9554007e-04   1.4817230e+00   1.4256746e+00  -2.1936174e+06
   1.2634211e-09  -4.9335057e-04   1.4816036e+00   1.4258026e+00  -2.1839290e+06
   1.2644215e-09  -4.9117074e-04   1.4814847e+00   1.4259300e+00  -2.1742832e+06
   1.2654218e-09  -4.8900054e-04   1.4813663e+00   1.4260569e+00  -2.1646801e+06
   1.2664221e-09  -4.8683992e-04   1.4812485e+00   1.4261832e+00  -2.1551193e+06
   1.2674225e-09  -4.8468885e-04   1.4811312e+00   1.4263090e+00  -2.1456008e+06
   1.2684228e-09  -4.8254728e-04   1.4810144e+00   1.4264343e+00  -2.1361242e+06
   1.2694231e-09  -4.8041516e-04   1.4808982e+00   1.4265589e+00  -2.1266895e+06
   1.2704235e-09  -4.7829247e-04   1.4807824e+00   1.4266831e+00  -2.1172964e+06
   1.2714238e-09  -4.7617915e-04   1.4806672e+00   1.4268067e+00  -2.1079447e+06
   1.2724241e-09  -4.7407516e-04   1.4805525e+00   1.4269298e+00  -2.0986344e+06
   1.2734245e-09  -4.7198046e-04   1.4804383e+00   1.4270523e+00  -2.0893651e+06
   1.2744248e-09  -4.6989502e-04   1.4803246e+00   1.4271743e+00  -2.0801367e+06
   1.2754251e-09  -4.6781879e-04   1.4802114e+00   1.4272957e+00  -2.0709491e+06
   1.2764255e-09  -4.6575173e-04   1.4800988e+00   1.4274167e+00  -2.0618020e+06
   1.2774258e-09  -4.6369380e-04   1.4799866e+00   1.4275371e+00  -2.0526953e+06
   1.2784261e-09  -4.6164496e-04   1.4798749e+00   1.4276569e+00  -2.0436288e+06
   1.2794265e-09  -4.5960516e-04   1.4797637e+00   1.4277763e+00  -2.0346023e+06
   1.2804268e-09  -4.5757438e-04   1.4796530e+00   1.4278951e+00  -2.0256156e+06
   1.2814271e-09  -4.5555257e-04   1.4795429e+00   1.4280134e+00  -2.0166686e+06
   1.2824275e-09  -4.5353968e-04   1.4794332e+00   1.4281312e+00  -2.0077611e+06
   1.2834278e-09  -4.5153569e-04   1.4793239e+00   1.4282485e+00  -1.9988930e+06
   1.2844281e-09  -4.4954055e-04   1.4792152e+00   1.4283653e+00  -1.9900639e+06
   1.2854285e-09  -4.4755423e-04   1.4791070e+00   1.4284816e+00  -1.9812738e+06
   1.2864288e-09  -4.4557667e-04   1.4789992e+00   1.4285973e+00  -1.9725226e+06
   1.2874291e-09  -4.4360785e-04   1.4788920e+00   1.4287126e+00  -1.9638099e+06
   1.2884295e-09  -4.4164773e-04   1.4787852e+00   1.4288273e+00  -1.9551357e+06
   1.2894298e-09  -4.3969626e-04   1.4786788e+00   1.4289416e+00  -1.9464998e+06
   1.2904301e-09  -4.3775342e-04   1.4785730e+00   1.4290553e+00  -1.9379021e+06
   1.2914305e-09  -4.3581915e-04   1.4784676e+00   1.4291685e+00  -1.9293422e+06
   1.2924308e-09  -4.3389343e-04   1.4783627e+00   1.4292813e+00  -1.9208202e+06
   1.2934311e-09  -4.3197622e-04   1.4782583e+00   1.4293936e+00  -1.9123358e+06
   1.2944315e-09  -4.3006748e-04   1.4781543e+00   1.4295053e+00  -1.9038888e+06
   1.2954318e-09  -4.2816716e-04   1.4780508e+00   1.4296166e+00  -1.8954791e+06
   1.2964321e-09  -4.2627524e-04   1.4779477e+00   1.4297274e+00  -1.8871065e+06
   1.2974325e-09  -4.2439168e-04   1.4778452e+00   1.4298377e+00  -1.8787709e+06
   1.2984328e-09  -4.2251643e-04   1.4777430e+00   1.4299476e+00  -1.8704721e+06
   1.2994331e-09  -4.2064947e-04   1.4776413e+00   1.4300569e+00  -1.8622099e+06
   1.3004335e-09  -4.1879076e-04   1.4775401e+00   1.4301658e+00  -1.8539842e+06
   1.3014338e-09  -4.1694026e-04   1.4774393e+00   1.4302742e+00  -1.8457948e+06
   1.3024341e-09  -4.1509793e-04   1.4773390e+00   1.4303821e+00  -1.8376416e+06
   1.3034345e-09  -4.1326374e-04   1.4772391e+00   1.4304896e+00  -1.8295243e+06
   1.3044348e-09  -4.1143765e-04   1.4771397e+00   1.4305965e+00  -1.8214429e+06
   1.3054351e-09  -4.0961962e-04   1.4770407e+00   1.4307031e+00  -1.8133971e+06
   1.3064355e-09  -4.0780963e-04   1.4769422e+00   1.4308091e+00  -1.8053869e+06
   1.3074358e-09  -4.0600763e-04   1.4768441e+00   1.4309147e+00  -1.7974120e+06
   1.3084361e-09  -4.0421360e-04   1.4767464e+00   1.4310198e+00  -1.7894724e+06
   1.3094365e-09  -4.0242748e-04   1.4766492e+00   1.4311245e+00  -1.7815677e+06
   1.3104368e-09  -4.0064926e-04   1.4765523e+00   1.4312287e+00  -1.7736980e+06
   1.3114371e-09  -3.9887889e-04   1.4764560e+00   1.4313324e+00  -1.7658630e+06
   1.3124375e-09  -3.9711635e-04   1.4763600e+00   1.4314357e+00  -1.7580626e+06
   1.3134378e-09  -3.9536158e-04   1.4762645e+00   1.4315386e+00  -1.7502967e+06
   1.3144381e-09  -3.9361457e-04   1.4761694e+00   1.4316410e+00  -1.7425650e+06
   1.3154385e-09  -3.9187528e-04   1.4760747e+00   1.4317429e+00  -1.7348675e+06
   1.3164388e-09  -3.9014367e-04   1.4759805e+00   1.4318444e+00  -1.7272039e+06
   1.3174391e-09  -3.8841971e-04   1.4758867e+00   1.4319455e+00  -1.7195742e+06
   1.3184395e-09  -3.8670336e-04   1.4757933e+00   1.4320461e+00  -1.7119781e+06
   1.3194398e-09  -3.8499460e-04   1.4757003e+00   1.4321463e+00  -1.7044156e+06
   1.3204401e-09  -3.8329339e-04   1.4756077e+00   1.4322460e+00  -1.6968865e+06
   1.3214405e-09  -3.8159968e-04   1.4755155e+00   1.4323453e+00  -1.6893906e+06
   1.3224408e-09  -3.7991347e-04   1.4754238e+00   1.4324442e+00  -1.6819278e+06
   1.3234411e-09  -3.7823470e-04   1.4753324e+00   1.4325427e+00  -1.6744980e+06
   1.3244415e-09  -3.7656334e-04   1.4752415e+00   1.4326407e+00  -1.6671009e+06
   1.3254418e-09  -3.7489937e-04   1.4751509e+00   1.4327382e+00  -1.6597365e+06
   1.3264421e-09  -3.7324275e-04   1.4750608e+00   1.4328354e+00  -1.6524047e+06
   1.3274425e-09  -3.7159345e-04   1.4749711e+00   1.4329321e+00  -1.6451052e+06
   1.3284428e-09  -3.6995143e-04   1.4748817e+00   1.4330284e+00  -1.6378379e+06
   1.3294431e-09  -3.6831667e-04   1.4747928e+00   1.4331243e+00  -1.6306027e+06
   1.3304435e-09  -3.6668913e-04   1.4747042e+00   1.4332198e+00  -1.6233994e+06
   1.3314438e-09  -3.6506878e-04   1.4746161e+00   1.4333148e+00  -1.6162280e+06
   1.3324441e-09  -3.6345559e-04   1.4745283e+00   1.4334094e+00  -1.6090882e+06
   1.3334445e-09  -3.6184952e-04   1.4744410e+00   1.4335036e+00  -1.6019799e+06
   1.3344448e-09  -3.6025055e-04   1.4743540e+00   1.4335975e+00  -1.5949031e+06
   1.3354451e-09  -3.5865864e-04   1.4742674e+00   1.4336908e+00  -1.5878574e+06
   1.3364455e-09  -3.5707376e-04   1.4741812e+00   1.4337838e+00  -1.5808429e+06
   1.3374458e-09  -3.5549589e-04   1.4740954e+00   1.4338764e+00  -1.5738593e+06
   1.3384461e-09  -3.5392498e-04   1.4740099e+00   1.4339686e+00  -1.5669066e+06
   1.3394465e-09  -3.5236102e-04   1.4739249e+00   1.4340603e+00  -1.5599846e+06
   1.3404468e-09  -3.5080396e-04   1.4738402e+00   1.4341517e+00  -1.5530931e+06
   1.3414471e-09  -3.4925379e-04   1.4737559e+00   1.4342427e+00  -1.5462321e+06
   1.3424475e-09  -3.4771046e-04   1.4736720e+00   1.4343332e+00  -1.5394013e+06
   1.3434478e-09  -3.4617395e-04   1.4735884e+00   1.4344234e+00  -1.5326008e+06
   1.3444481e-09  -3.4464423e-04   1.4735052e+00   1.4345132e+00  -1.5258302e+06
   1.3454485e-09  -3.4312126e-04   1.4734224e+00   1.4346026e+00  -1.5190895e+06
   1.3464488e-09  -3.4160502e-04   1.4733400e+00   1.4346916e+00  -1.5123786e+06
   1.3474491e-09  -3.4009548e-04   1.4732579e+00   1.4347802e+00  -1.5056974e+06
   1.3484495e-09  -3.3859261e-04   1.4731762e+00   1.4348684e+00  -1.4990456e+06
   1.3494498e-09  -3.3709638e-04   1.4730948e+00   1.4349562e+00  -1.4924232e+06
   1.3504502e-09  -3.3560676e-04   1.4730139e+00   1.4350436e+00  -1.4858300e+06
   1.3514505e-09  -3.3412372e-04   1.4729332e+00   1.4351307e+00  -1.4792660e+06
   1.3524508e-09  -3.3264724e-04   1.4728530e+00   1.4352174e+00  -1.4727309e+06
   1.3534512e-09  -3.3117727e-04   1.4727730e+00   1.4353037e+00  -1.4662247e+06
   1.3544515e-09  -3.2971380e-04   1.4726935e+00   1.4353896e+00  -1.4597472e+06
   1.3554518e-09  -3.2825679e-04   1.4726143e+00   1.4354751e+00  -1.4532983e+06
   1.3564522e-09  -3.2680622e-04   1.4725354e+00   1.4355603e+00  -1.4468779e+06
   1.3574525e-09  -3.2536206e-04   1.4724569e+00   1.4356451e+00  -1.4404859e+06
   1.3584528e-09  -3.2392428e-04   1.4723788e+00   1.4357295e+00  -1.4341220e+06
   1.3594532e-09  -3.2249285e-04   1.4723010e+00   1.4358136e+00  -1.4277863e+06
   1.3604535e-09  -3.2106775e-04   1.4722235e+00   1.4358973e+00  -1.4214785e+06
   1.3614538e-09  -3.1964894e-04   1.4721464e+00   1.4359806e+00  -1.4151986e+06
   1.3624542e-09  -3.1823640e-04   1.4720696e+00   1.4360636e+00  -1.4089465e+06
   1.3634545e-09  -3.1683010e-04   1.4719932e+00   1.4361461e+00  -1.4027219e+06
   1.3644548e-09  -3.1543001e-04   1.4719171e+00   1.4362284e+00  -1.3965248e+06
   1.3654552e-09  -3.1403611e-04   1.4718414e+00   1.4363102e+00  -1.3903551e+06
   1.3664555e-09  -3.1264836e-04   1.4717660e+00   1.4363918e+00  -1.3842126e+06
   1.3674558e-09  -3.1126675e-04   1.4716909e+00   1.4364729e+00  -1.3780973e+06
   1.3684562e-09  -3.0989124e-04   1.4716161e+00   1.4365537e+00  -1.3720089e+06
   1.3694565e-09  -3.0852181e-04   1.4715417e+00   1.4366342e+00  -1.3659475e+06
   1.3704568e-09  -3.0715842e-04   1.4714676e+00   1.4367142e+00  -1.3599128e+06
   1.3714572e-09  -3.0580107e-04   1.4713939e+00   1.4367940e+00  -1.3539047e+06
   1.3724575e-09  -3.0444970e-04   1.4713205e+00   1.4368734e+00  -1.3479232e+06
   1.3734578e-09  -3.0310431e-04   1.4712474e+00   1.4369524e+00  -1.3419681e+06
   1.3744582e-09  -3.0176486e-04   1.4711746e+00   1.4370311e+00  -1.3360393e+06
   1.3754585e-09  -3.0043133e-04   1.4711022e+00   1.4371095e+00  -1.3301367e+06
   1.3764588e-09  -2.9910369e-04   1.4710300e+00   1.4371875e+00  -1.3242601e+06
   1.3774592e-09  -2.9778192e-04   1.4709582e+00   1.4372651e+00  -1.3184095e+06
   1.3784595e-09  -2.9646599e-04   1.4708867e+00   1.4373425e+00  -1.3125847e+06
   1.3794598e-09  -2.9515587e-04   1.4708156e+00   1.4374195e+00  -1.3067857e+06
   1.3804602e-09  -2.9385154e-04   1.4707447e+00   1.4374961e+00  -1.3010122e+06
   1.3814605e-09  -2.9255297e-04   1.4706742e+00   1.4375724e+00  -1.2952643e+06
   1.3824608e-09  -2.9126014e-04   1.4706039e+00   1.4376484e+00  -1.2895417e+06
   1.3834612e-09  -2.8997302e-04   1.4705340e+00   1.4377240e+00  -1.2838444e+06
   1.3844615e-09  -2.8869158e-04   1.4704644e+00   1.4377994e+00  -1.2781723e+06
   1.3854618e-09  -2.8741581e-04   1.4703951e+00   1.4378743e+00  -1.2725252e+06
   1.3864622e-09  -2.8614567e-04   1.4703261e+00   1.4379490e+00  -1.2669030e+06
   1.3874625e-09  -2.8488115e-04   1.4702575e+00   1.4380233e+00  -1.2613057e+06
   1.3884628e-09  -2.8362221e-04   1.4701891e+00   1.4380973e+00  -1.2557331e+06
   1.3894632e-09  -2.8236884e-04   1.4701210e+00   1.4381710e+00  -1.2501851e+06
   1.3904635e-09  -2.8112100e-04   1.4700533e+00   1.4382443e+00  -1.2446616e+06
   1.3914638e-09  -2.7987868e-04   1.4699858e+00   1.4383174e+00  -1.2391625e+06
   1.3924642e-09  -2.7864184e-04   1.4699186e+00   1.4383901e+00  -1.2336877e+06
   1.3934645e-09  -2.7741047e-04   1.4698518e+00   1.4384625e+00  -1.2282371e+06
   1.3944648e-09  -2.7618454e-04   1.4697852e+00   1.4385346e+00  -1.2228105e+06
   1.3954652e-09  -2.7496403e-04   1.4697189e+00   1.4386063e+00  -1.2174079e+06
   1.3964655e-09  -2.7374891e-04   1.4696529e+00   1.4386778e+00  -1.2120292e+06
   1.3974658e-09  -2.7253915e-04   1.4695872e+00   1.4387489e+00  -1.2066742e+06
   1.3984662e-09  -2.7133474e-04   1.4695218e+00   1.4388197e+00  -1.2013428e+06
   1.3994665e-09  -2.7013566e-04   1.4694567e+00   1.4388902e+00  -1.1960350e+06
   1.4004668e-09  -2.6894187e-04   1.4693919e+00   1.4389604e+00  -1.1907507e+06
   1.4014672e-09  -2.6775335e-04   1.4693274e+00   1.4390303e+00  -1.1854897e+06
   1.4024675e-09  -2.6657009e-04   1.4692632e+00   1.4390999e+00  -1.1802519e+06
   1.4034678e-09  -2.6539206e-04   1.4691992e+00   1.4391692e+00  -1.1750372e+06
   1.4044682e-09  -2.6421923e-04   1.4691355e+00   1.4392381e+00  -1.1698456e+06
   1.4054685e-09  -2.6305158e-04   1.4690721e+00   1.4393068e+00  -1.1646769e+06
   1.4064688e-09  -2.6188909e-04   1.4690090e+00   1.4393752e+00  -1.1595310e+06
   1.4074692e-09  -2.6073173e-04   1.4689462e+00   1.4394432e+00  -1.1544079e+06
   1.4084695e-09  -2.5957949e-04   1.4688837e+00   1.4395110e+00  -1.1493074e+06
   1.4094698e-09  -2.5843235e-04   1.4688214e+00   1.4395785e+00  -1.1442294e+06
   1.4104702e-09  -2.5729027e-04   1.4687594e+00   1.4396457e+00  -1.1391738e+06
   1.4114705e-09  -2.5615323e-04   1.4686977e+00   1.4397126e+00  -1.1341406e+06
   1.4124708e-09  -2.5502122e-04   1.4686362e+00   1.4397791e+00  -1.1291296e+06
   1.4134712e-09  -2.5389421e-04   1.4685751e+00   1.4398454e+00  -1.1241407e+06
   1.4144715e-09  -2.5277218e-04   1.4685142e+00   1.4399114e+00  -1.1191739e+06
   1.4154718e-09  -2.5165511e-04   1.4684535e+00   1.4399772e+00  -1.1142290e+06
   1.4164722e-09  -2.5054297e-04   1.4683932e+00   1.4400426e+00  -1.1093059e+06
   1.4174725e-09  -2.4943575e-04   1.4683331e+00   1.4401077e+00  -1.1044046e+06
   1.4184728e-09  -2.4833342e-04   1.4682733e+00   1.4401726e+00  -1.0995249e+06
   1.4194732e-09  -2.4723596e-04   1.4682137e+00   1.4402372e+00  -1.0946668e+06
   1.4204735e-09  -2.4614335e-04   1.4681544e+00   1.4403014e+00  -1.0898302e+06
   1.4214738e-09  -2.4505557e-04   1.4680954e+00   1.4403654e+00  -1.0850149e+06
   1.4224742e-09  -2.4397259e-04   1.4680366e+00   1.4404292e+00  -1.0802208e+06
   1.4234745e-09  -2.4289440e-04   1.4679781e+00   1.4404926e+00  -1.0754480e+06
   1.4244748e-09  -2.4182097e-04   1.4679198e+00   1.4405558e+00  -1.0706962e+06
   1.4254752e-09  -2.4075228e-04   1.4678619e+00   1.4406187e+00  -1.0659654e+06
   1.4264755e-09  -2.3968832e-04   1.4678041e+00   1.4406813e+00  -1.0612555e+06
   1.4274758e-09  -2.3862906e-04   1.4677466e+00   1.4407436e+00  -1.0565664e+06
   1.4284762e-09  -2.3757448e-04   1.4676894e+00   1.4408057e+00  -1.0518980e+06
   1.4294765e-09  -2.3652455e-04   1.4676325e+00   1.4408675e+00  -1.0472502e+06
   1.4304768e-09  -2.3547927e-04   1.4675757e+00   1.4409290e+00  -1.0426230e+06
   1.4314772e-09  -2.3443861e-04   1.4675193e+00   1.4409902e+00  -1.0380162e+06
   1.4324775e-09  -2.3340254e-04   1.4674631e+00   1.4410512e+00  -1.0334298e+06
   1.4334778e-09  -2.3237105e-04   1.4674071e+00   1.4411119e+00  -1.0288636e+06
   1.4344782e-09  -2.3134412e-04   1.4673514e+00   1.4411724e+00  -1.0243175e+06
   1.4354785e-09  -2.3032172e-04   1.4672959e+00   1.4412325e+00  -1.0197916e+06
   1.4364788e-09  -2.2930385e-04   1.4672407e+00   1.4412925e+00  -1.0152856e+06
   1.4374792e-09  -2.2829047e-04   1.4671857e+00   1.4413521e+00  -1.0107996e+06
   1.4384795e-09  -2.2728157e-04   1.4671310e+00   1.4414115e+00  -1.0063333e+06
   1.4394798e-09  -2.2627713e-04   1.4670765e+00   1.4414706e+00  -1.0018868e+06
   1.4404802e-09  -2.2527712e-04   1.4670223e+00   1.4415295e+00  -9.9745993e+05
   1.4414805e-09  -2.2428153e-04   1.4669683e+00   1.4415881e+00  -9.9305261e+05
   1.4424808e-09  -2.2329035e-04   1.4669145e+00   1.4416465e+00  -9.8866476e+05
   1.4434812e-09  -2.2230354e-04   1.4668610e+00   1.4417046e+00  -9.8429628e+05
   1.4444815e-09  -2.2132109e-04   1.4668077e+00   1.4417624e+00  -9.7994710e+05
   1.4454818e-09  -2.2034298e-04   1.4667546e+00   1.4418200e+00  -9.7561714e+05
   1.4464822e-09  -2.1936920e-04   1.4667018e+00   1.4418773e+00  -9.7130629e+05
   1.4474825e-09  -2.1839972e-04   1.4666492e+00   1.4419344e+00  -9.6701449e+05
   1.4484828e-09  -2.1743452e-04   1.4665969e+00   1.4419912e+00  -9.6274165e+05
   1.4494832e-09  -2.1647359e-04   1.4665447e+00   1.4420478e+00  -9.5848768e+05
   1.4504835e-09  -2.1551690e-04   1.4664929e+00   1.4421042e+00  -9.5425250e+05
   1.4514838e-09  -2.1456444e-04   1.4664412e+00   1.4421602e+00  -9.5003602e+05
   1.4524842e-09  -2.1361619e-04   1.4663898e+00   1.4422161e+00  -9.4583817e+05
   1.4534845e-09  -2.1267213e-04   1.4663386e+00   1.4422717e+00  -9.4165887e+05
   1.4544848e-09  -2.1173224e-04   1.4662876e+00   1.4423270e+00  -9.3749802e+05
   1.4554852e-09  -2.1079650e-04   1.4662369e+00   1.4423821e+00  -9.3335555e+05
   1.4564855e-09  -2.0986490e-04   1.4661863e+00   1.4424370e+00  -9.2923138e+05
   1.4574858e-09  -2.0893741e-04   1.4661361e+00   1.4424916e+00  -9.2512543e+05
   1.4584862e-09  -2.0801402e-04   1.4660860e+00   1.4425460e+00  -9.2103761e+05
   1.4594865e-09  -2.0709471e-04   1.4660361e+00   1.4426002e+00  -9.1696785e+05
   1.4604868e-09  -2.0617947e-04   1.4659865e+00   1.4426541e+00  -9.1291607e+05
   1.4614872e-09  -2.0526827e-04   1.4659371e+00   1.4427077e+00  -9.0888219e+05
   1.4624875e-09  -2.0436109e-04   1.4658879e+00   1.4427612e+00  -9.0486612e+05
