   0.0000000e+00  -1.3995689e-01   6.2639905e+00   1.1669515e-04  -5.1897966e+08
   2.6675559e-12  -1.3857760e-01   6.2569863e+00   1.2977158e-04  -5.1520116e+08
   5.3351117e-12  -1.3720840e-01   6.2496676e+00   1.4419268e-04  -5.1142088e+08
   8.0026676e-12  -1.3584928e-01   6.2420245e+00   1.6008210e-04  -5.0763893e+08
   1.0670223e-11  -1.3450025e-01   6.2340471e+00   1.7757317e-04  -5.0385539e+08
   1.3337779e-11  -1.3316132e-01   6.2257254e+00   1.9680947e-04  -5.0007037e+08
   1.6005335e-11  -1.3183248e-01   6.2170493e+00   2.1794545e-04  -4.9628397e+08
   1.8672891e-11  -1.3051376e-01   6.2080091e+00   2.4114700e-04  -4.9249633e+08
   2.1340447e-11  -1.2920513e-01   6.1985948e+00   2.6659208e-04  -4.8870759e+08
   2.4008003e-11  -1.2790662e-01   6.1887965e+00   2.9447136e-04  -4.8491789e+08
   2.6675559e-11  -1.2661822e-01   6.1786045e+00   3.2498882e-04  -4.8112740e+08
   2.9343114e-11  -1.2533993e-01   6.1680093e+00   3.5836239e-04  -4.7733631e+08
   3.2010670e-11  -1.2407175e-01   6.1570013e+00   3.9482462e-04  -4.7354480e+08
   3.4678226e-11  -1.2281369e-01   6.1455713e+00   4.3462328e-04  -4.6975309e+08
   3.7345782e-11  -1.2156575e-01   6.1337101e+00   4.7802199e-04  -4.6596140e+08
   4.0013338e-11  -1.2032792e-01   6.1214091e+00   5.2530084e-04  -4.6216997e+08
   4.2680894e-11  -1.1910020e-01   6.1086595e+00   5.7675702e-04  -4.5837906e+08
   4.5348449e-11  -1.1788260e-01   6.0954531e+00   6.3270535e-04  -4.5458893e+08
   4.8016005e-11  -1.1667510e-01   6.0817819e+00   6.9347889e-04  -4.5079987e+08
   5.0683561e-11  -1.1547771e-01   6.0676384e+00   7.5942948e-04  -4.4701219e+08
   5.3351117e-11  -1.1429043e-01   6.0530152e+00   8.3092819e-04  -4.4322621e+08
   5.6018673e-11  -1.1311324e-01   6.0379056e+00   9.0836582e-04  -4.3944226e+08
   5.8686229e-11  -1.1194614e-01   6.0223033e+00   9.9215335e-04  -4.3566070e+08
   6.1353785e-11  -1.1078912e-01   6.0062022e+00   1.0827222e-03  -4.3188190e+08
   6.4021340e-11  -1.0964219e-01   5.9895971e+00   1.1805248e-03  -4.2810625e+08
   6.6688896e-11  -1.0850532e-01   5.9724831e+00   1.2860345e-03  -4.2433415e+08
   6.9356452e-11  -1.0737850e-01   5.9548559e+00   1.3997461e-03  -4.2056602e+08
   7.2024008e-11  -1.0626173e-01   5.9367118e+00   1.5221757e-03  -4.1680230e+08
   7.4691564e-11  -1.0515500e-01   5.9180476e+00   1.6538610e-03  -4.1304344e+08
   7.7359120e-11  -1.0405828e-01   5.8988609e+00   1.7953612e-03  -4.0928991e+08
   8.0026676e-11  -1.0297157e-01   5.8791499e+00   1.9472567e-03  -4.0554219e+08
   8.2694231e-11  -1.0189485e-01   5.8589134e+00   2.1101494e-03  -4.0180078e+08
   8.5361787e-11  -1.0082810e-01   5.8381510e+00   2.2846618e-03  -3.9806620e+08
   8.8029343e-11  -9.9771306e-02   5.8168630e+00   2.4714372e-03  -3.9433897e+08
   9.0696899e-11  -9.8724440e-02   5.7950502e+00   2.6711387e-03  -3.9061963e+08
   9.3364455e-11  -9.7687483e-02   5.7727144e+00   2.8844493e-03  -3.8690872e+08
   9.6032011e-11  -9.6660414e-02   5.7498580e+00   3.1120707e-03  -3.8320682e+08
   9.8699567e-11  -9.5643206e-02   5.7264842e+00   3.3547226e-03  -3.7951450e+08
   1.0136712e-10  -9.4635834e-02   5.7025970e+00   3.6131422e-03  -3.7583233e+08
   1.0403468e-10  -9.3638269e-02   5.6782010e+00   3.8880830e-03  -3.7216092e+08
   1.0670223e-10  -9.2650482e-02   5.6533016e+00   4.1803137e-03  -3.6850086e+08
   1.0936979e-10  -9.1672441e-02   5.6279051e+00   4.4906172e-03  -3.6485275e+08
   1.1203735e-10  -9.0704115e-02   5.6020183e+00   4.8197895e-03  -3.6121722e+08
   1.1470490e-10  -8.9745468e-02   5.5756488e+00   5.1686380e-03  -3.5759487e+08
   1.1737246e-10  -8.8796465e-02   5.5488050e+00   5.5379805e-03  -3.5398633e+08
   1.2004001e-10  -8.7857068e-02   5.5214960e+00   5.9286436e-03  -3.5039222e+08
   1.2270757e-10  -8.6927237e-02   5.4937314e+00   6.3414611e-03  -3.4681316e+08
   1.2537513e-10  -8.6006932e-02   5.4655216e+00   6.7772724e-03  -3.4324977e+08
   1.2804268e-10  -8.5096110e-02   5.4368776e+00   7.2369211e-03  -3.3970269e+08
   1.3071024e-10  -8.4194726e-02   5.4078111e+00   7.7212528e-03  -3.3617252e+08
   1.3337779e-10  -8.3302735e-02   5.3783343e+00   8.2311139e-03  -3.3265988e+08
   1.3604535e-10  -8.2420088e-02   5.3484598e+00   8.7673494e-03  -3.2916539e+08
   1.3871290e-10  -8.1546737e-02   5.3182010e+00   9.3308012e-03  -3.2568964e+08
   1.4138046e-10  -8.0682631e-02   5.2875717e+00   9.9223066e-03  -3.2223324e+08
   1.4404802e-10  -7.9827718e-02   5.2565860e+00   1.0542696e-02  -3.1879676e+08
   1.4671557e-10  -7.8981942e-02   5.2252585e+00   1.1192791e-02  -3.1538079e+08
   1.4938313e-10  -7.8145250e-02   5.1936044e+00   1.1873403e-02  -3.1198590e+08
   1.5205068e-10  -7.7317584e-02   5.1616389e+00   1.2585332e-02  -3.0861264e+08
   1.5471824e-10  -7.6498885e-02   5.1293778e+00   1.3329363e-02  -3.0526154e+08
   1.5738580e-10  -7.5689095e-02   5.0968369e+00   1.4106266e-02  -3.0193314e+08
   1.6005335e-10  -7.4888150e-02   5.0640325e+00   1.4916794e-02  -2.9862794e+08
   1.6272091e-10  -7.4095990e-02   5.0309808e+00   1.5761679e-02  -2.9534645e+08
   1.6538846e-10  -7.3312549e-02   4.9976984e+00   1.6641634e-02  -2.9208914e+08
   1.6805602e-10  -7.2537764e-02   4.9642019e+00   1.7557351e-02  -2.8885647e+08
   1.7072357e-10  -7.1771567e-02   4.9305080e+00   1.8509496e-02  -2.8564889e+08
   1.7339113e-10  -7.1013891e-02   4.8966334e+00   1.9498713e-02  -2.8246680e+08
   1.7605869e-10  -7.0264668e-02   4.8625949e+00   2.0525616e-02  -2.7931063e+08
   1.7872624e-10  -6.9523827e-02   4.8284090e+00   2.1590795e-02  -2.7618075e+08
   1.8139380e-10  -6.8791299e-02   4.7940926e+00   2.2694810e-02  -2.7307752e+08
   1.8406135e-10  -6.8067012e-02   4.7596620e+00   2.3838191e-02  -2.7000129e+08
   1.8672891e-10  -6.7350893e-02   4.7251337e+00   2.5021440e-02  -2.6695237e+08
   1.8939647e-10  -6.6642869e-02   4.6905238e+00   2.6245025e-02  -2.6393106e+08
   1.9206402e-10  -6.5942866e-02   4.6558485e+00   2.7509384e-02  -2.6093763e+08
   1.9473158e-10  -6.5250809e-02   4.6211234e+00   2.8814920e-02  -2.5797234e+08
   1.9739913e-10  -6.4566623e-02   4.5863642e+00   3.0162007e-02  -2.5503542e+08
   2.0006669e-10  -6.3890233e-02   4.5515862e+00   3.1550981e-02  -2.5212708e+08
   2.0273424e-10  -6.3221560e-02   4.5168042e+00   3.2982147e-02  -2.4924751e+08
   2.0540180e-10  -6.2560530e-02   4.4820331e+00   3.4455776e-02  -2.4639687e+08
   2.0806936e-10  -6.1907064e-02   4.4472872e+00   3.5972103e-02  -2.4357529e+08
   2.1073691e-10  -6.1261084e-02   4.4125803e+00   3.7531330e-02  -2.4078292e+08
   2.1340447e-10  -6.0622513e-02   4.3779263e+00   3.9133625e-02  -2.3801984e+08
   2.1607202e-10  -5.9991272e-02   4.3433382e+00   4.0779121e-02  -2.3528613e+08
   2.1873958e-10  -5.9367283e-02   4.3088291e+00   4.2467919e-02  -2.3258186e+08
   2.2140714e-10  -5.8750468e-02   4.2744112e+00   4.4200084e-02  -2.2990707e+08
   2.2407469e-10  -5.8140747e-02   4.2400967e+00   4.5975651e-02  -2.2726176e+08
   2.2674225e-10  -5.7538042e-02   4.2058973e+00   4.7794618e-02  -2.2464595e+08
   2.2940980e-10  -5.6942275e-02   4.1718240e+00   4.9656954e-02  -2.2205961e+08
   2.3207736e-10  -5.6353366e-02   4.1378877e+00   5.1562595e-02  -2.1950271e+08
   2.3474491e-10  -5.5771238e-02   4.1040988e+00   5.3511448e-02  -2.1697520e+08
   2.3741247e-10  -5.5195813e-02   4.0704671e+00   5.5503386e-02  -2.1447700e+08
   2.4008003e-10  -5.4627011e-02   4.0370022e+00   5.7538255e-02  -2.1200802e+08
   2.4274758e-10  -5.4064755e-02   4.0037131e+00   5.9615871e-02  -2.0956817e+08
   2.4541514e-10  -5.3508969e-02   3.9706085e+00   6.1736022e-02  -2.0715733e+08
   2.4808269e-10  -5.2959574e-02   3.9376966e+00   6.3898468e-02  -2.0477536e+08
   2.5075025e-10  -5.2416494e-02   3.9049851e+00   6.6102944e-02  -2.0242212e+08
   2.5341781e-10  -5.1879652e-02   3.8724815e+00   6.8349157e-02  -2.0009746e+08
   2.5608536e-10  -5.1348972e-02   3.8401926e+00   7.0636792e-02  -1.9780120e+08
   2.5875292e-10  -5.0824380e-02   3.8081252e+00   7.2965509e-02  -1.9553316e+08
   2.6142047e-10  -5.0305799e-02   3.7762853e+00   7.5334943e-02  -1.9329314e+08
   2.6408803e-10  -4.9793156e-02   3.7446788e+00   7.7744709e-02  -1.9108095e+08
   2.6675559e-10  -4.9286377e-02   3.7133110e+00   8.0194401e-02  -1.8889637e+08
   2.6942314e-10  -4.8785387e-02   3.6821870e+00   8.2683593e-02  -1.8673917e+08
   2.7209070e-10  -4.8290115e-02   3.6513114e+00   8.5211838e-02  -1.8460914e+08
   2.7475825e-10  -4.7800489e-02   3.6206886e+00   8.7778673e-02  -1.8250602e+08
   2.7742581e-10  -4.7316436e-02   3.5903226e+00   9.0383615e-02  -1.8042958e+08
   2.8009336e-10  -4.6837886e-02   3.5602169e+00   9.3026167e-02  -1.7837956e+08
   2.8276092e-10  -4.6364769e-02   3.5303749e+00   9.5705815e-02  -1.7635571e+08
   2.8542848e-10  -4.5897016e-02   3.5007997e+00   9.8422031e-02  -1.7435776e+08
   2.8809603e-10  -4.5434558e-02   3.4714938e+00   1.0117427e-01  -1.7238543e+08
   2.9076359e-10  -4.4977327e-02   3.4424599e+00   1.0396199e-01  -1.7043847e+08
   2.9343114e-10  -4.4525255e-02   3.4136998e+00   1.0678460e-01  -1.6851659e+08
   2.9609870e-10  -4.4078276e-02   3.3852156e+00   1.0964155e-01  -1.6661951e+08
   2.9876626e-10  -4.3636324e-02   3.3570089e+00   1.1253223e-01  -1.6474695e+08
   3.0143381e-10  -4.3199335e-02   3.3290809e+00   1.1545605e-01  -1.6289862e+08
   3.0410137e-10  -4.2767244e-02   3.3014328e+00   1.1841240e-01  -1.6107424e+08
   3.0676892e-10  -4.2339987e-02   3.2740656e+00   1.2140067e-01  -1.5927351e+08
   3.0943648e-10  -4.1917503e-02   3.2469797e+00   1.2442024e-01  -1.5749614e+08
   3.1210403e-10  -4.1499728e-02   3.2201758e+00   1.2747047e-01  -1.5574184e+08
   3.1477159e-10  -4.1086602e-02   3.1936540e+00   1.3055074e-01  -1.5401033e+08
   3.1743915e-10  -4.0678065e-02   3.1674144e+00   1.3366040e-01  -1.5230129e+08
   3.2010670e-10  -4.0274056e-02   3.1414569e+00   1.3679880e-01  -1.5061445e+08
   3.2277426e-10  -3.9874518e-02   3.1157812e+00   1.3996531e-01  -1.4894950e+08
   3.2544181e-10  -3.9479391e-02   3.0903868e+00   1.4315927e-01  -1.4730616e+08
   3.2810937e-10  -3.9088620e-02   3.0652731e+00   1.4638002e-01  -1.4568414e+08
   3.3077693e-10  -3.8702147e-02   3.0404394e+00   1.4962691e-01  -1.4408314e+08
   3.3344448e-10  -3.8319917e-02   3.0158848e+00   1.5289929e-01  -1.4250287e+08
   3.3611204e-10  -3.7941874e-02   2.9916081e+00   1.5619648e-01  -1.4094305e+08
   3.3877959e-10  -3.7567965e-02   2.9676084e+00   1.5951784e-01  -1.3940339e+08
   3.4144715e-10  -3.7198137e-02   2.9438842e+00   1.6286270e-01  -1.3788361e+08
   3.4411470e-10  -3.6832336e-02   2.9204342e+00   1.6623040e-01  -1.3638342e+08
   3.4678226e-10  -3.6470511e-02   2.8972569e+00   1.6962029e-01  -1.3490254e+08
   3.4944982e-10  -3.6112610e-02   2.8743508e+00   1.7303171e-01  -1.3344070e+08
   3.5211737e-10  -3.5758584e-02   2.8517141e+00   1.7646400e-01  -1.3199762e+08
   3.5478493e-10  -3.5408382e-02   2.8293452e+00   1.7991651e-01  -1.3057303e+08
   3.5745248e-10  -3.5061956e-02   2.8072421e+00   1.8338859e-01  -1.2916666e+08
   3.6012004e-10  -3.4719258e-02   2.7854029e+00   1.8687958e-01  -1.2777824e+08
   3.6278760e-10  -3.4380239e-02   2.7638258e+00   1.9038886e-01  -1.2640751e+08
   3.6545515e-10  -3.4044853e-02   2.7425085e+00   1.9391576e-01  -1.2505420e+08
   3.6812271e-10  -3.3713054e-02   2.7214492e+00   1.9745967e-01  -1.2371807e+08
   3.7079026e-10  -3.3384796e-02   2.7006455e+00   2.0101993e-01  -1.2239884e+08
   3.7345782e-10  -3.3060035e-02   2.6800954e+00   2.0459592e-01  -1.2109628e+08
   3.7612538e-10  -3.2738727e-02   2.6597965e+00   2.0818702e-01  -1.1981013e+08
   3.7879293e-10  -3.2420827e-02   2.6397467e+00   2.1179260e-01  -1.1854014e+08
   3.8146049e-10  -3.2106295e-02   2.6199435e+00   2.1541205e-01  -1.1728608e+08
   3.8412804e-10  -3.1795086e-02   2.6003847e+00   2.1904476e-01  -1.1604771e+08
   3.8679560e-10  -3.1487160e-02   2.5810678e+00   2.2269013e-01  -1.1482479e+08
   3.8946315e-10  -3.1182475e-02   2.5619905e+00   2.2634754e-01  -1.1361708e+08
   3.9213071e-10  -3.0880992e-02   2.5431504e+00   2.3001641e-01  -1.1242437e+08
   3.9479827e-10  -3.0582671e-02   2.5245450e+00   2.3369615e-01  -1.1124641e+08
   3.9746582e-10  -3.0287472e-02   2.5061718e+00   2.3738618e-01  -1.1008300e+08
   4.0013338e-10  -2.9995358e-02   2.4880285e+00   2.4108592e-01  -1.0893392e+08
   4.0280093e-10  -2.9706290e-02   2.4701125e+00   2.4479481e-01  -1.0779894e+08
   4.0546849e-10  -2.9420231e-02   2.4524214e+00   2.4851226e-01  -1.0667785e+08
   4.0813605e-10  -2.9137144e-02   2.4349526e+00   2.5223774e-01  -1.0557045e+08
   4.1080360e-10  -2.8856993e-02   2.4177036e+00   2.5597069e-01  -1.0447653e+08
   4.1347116e-10  -2.8579742e-02   2.4006721e+00   2.5971057e-01  -1.0339589e+08
   4.1613871e-10  -2.8305357e-02   2.3838554e+00   2.6345684e-01  -1.0232834e+08
   4.1880627e-10  -2.8033801e-02   2.3672512e+00   2.6720896e-01  -1.0127366e+08
   4.2147382e-10  -2.7765043e-02   2.3508568e+00   2.7096642e-01  -1.0023168e+08
   4.2414138e-10  -2.7499046e-02   2.3346699e+00   2.7472870e-01  -9.9202193e+07
   4.2680894e-10  -2.7235780e-02   2.3186879e+00   2.7849528e-01  -9.8185026e+07
   4.2947649e-10  -2.6975211e-02   2.3029084e+00   2.8226568e-01  -9.7179992e+07
   4.3214405e-10  -2.6717306e-02   2.2873290e+00   2.8603939e-01  -9.6186910e+07
   4.3481160e-10  -2.6462035e-02   2.2719471e+00   2.8981592e-01  -9.5205603e+07
   4.3747916e-10  -2.6209366e-02   2.2567604e+00   2.9359479e-01  -9.4235899e+07
   4.4014672e-10  -2.5959268e-02   2.2417665e+00   2.9737553e-01  -9.3277624e+07
   4.4281427e-10  -2.5711712e-02   2.2269630e+00   3.0115768e-01  -9.2330612e+07
   4.4548183e-10  -2.5466667e-02   2.2123474e+00   3.0494077e-01  -9.1394696e+07
   4.4814938e-10  -2.5224104e-02   2.1979174e+00   3.0872434e-01  -9.0469716e+07
   4.5081694e-10  -2.4983993e-02   2.1836706e+00   3.1250797e-01  -8.9555510e+07
   4.5348449e-10  -2.4746308e-02   2.1696048e+00   3.1629120e-01  -8.8651922e+07
   4.5615205e-10  -2.4511018e-02   2.1557176e+00   3.2007361e-01  -8.7758798e+07
   4.5881961e-10  -2.4278097e-02   2.1420066e+00   3.2385478e-01  -8.6875987e+07
   4.6148716e-10  -2.4047518e-02   2.1284697e+00   3.2763428e-01  -8.6003339e+07
   4.6415472e-10  -2.3819253e-02   2.1151046e+00   3.3141171e-01  -8.5140709e+07
   4.6682227e-10  -2.3593275e-02   2.1019090e+00   3.3518667e-01  -8.4287952e+07
   4.6948983e-10  -2.3369560e-02   2.0888807e+00   3.3895876e-01  -8.3444929e+07
   4.7215739e-10  -2.3148080e-02   2.0760176e+00   3.4272759e-01  -8.2611499e+07
   4.7482494e-10  -2.2928811e-02   2.0633173e+00   3.4649279e-01  -8.1787527e+07
   4.7749250e-10  -2.2711728e-02   2.0507779e+00   3.5025398e-01  -8.0972879e+07
   4.8016005e-10  -2.2496805e-02   2.0383972e+00   3.5401079e-01  -8.0167422e+07
   4.8282761e-10  -2.2284019e-02   2.0261731e+00   3.5776287e-01  -7.9371030e+07
   4.8549517e-10  -2.2073345e-02   2.0141034e+00   3.6150986e-01  -7.8583573e+07
   4.8816272e-10  -2.1864760e-02   2.0021862e+00   3.6525141e-01  -7.7804927e+07
   4.9083028e-10  -2.1658241e-02   1.9904193e+00   3.6898719e-01  -7.7034970e+07
   4.9349783e-10  -2.1453763e-02   1.9788009e+00   3.7271686e-01  -7.6273582e+07
   4.9616539e-10  -2.1251306e-02   1.9673288e+00   3.7644010e-01  -7.5520643e+07
   4.9883294e-10  -2.1050846e-02   1.9560012e+00   3.8015659e-01  -7.4776038e+07
   5.0150050e-10  -2.0852361e-02   1.9448160e+00   3.8386602e-01  -7.4039652e+07
   5.0416806e-10  -2.0655830e-02   1.9337714e+00   3.8756808e-01  -7.3311374e+07
   5.0683561e-10  -2.0461230e-02   1.9228655e+00   3.9126247e-01  -7.2591093e+07
   5.0950317e-10  -2.0268542e-02   1.9120964e+00   3.9494890e-01  -7.1878700e+07
   5.1217072e-10  -2.0077743e-02   1.9014622e+00   3.9862709e-01  -7.1174088e+07
   5.1483828e-10  -1.9888814e-02   1.8909612e+00   4.0229674e-01  -7.0477155e+07
   5.1750584e-10  -1.9701734e-02   1.8805914e+00   4.0595760e-01  -6.9787795e+07
   5.2017339e-10  -1.9516483e-02   1.8703512e+00   4.0960939e-01  -6.9105908e+07
   5.2284095e-10  -1.9333040e-02   1.8602388e+00   4.1325185e-01  -6.8431396e+07
   5.2550850e-10  -1.9151388e-02   1.8502524e+00   4.1688472e-01  -6.7764159e+07
   5.2817606e-10  -1.8971505e-02   1.8403903e+00   4.2050776e-01  -6.7104103e+07
   5.3084361e-10  -1.8793374e-02   1.8306509e+00   4.2412072e-01  -6.6451132e+07
   5.3351117e-10  -1.8616975e-02   1.8210325e+00   4.2772337e-01  -6.5805154e+07
   5.3617873e-10  -1.8442290e-02   1.8115333e+00   4.3131548e-01  -6.5166077e+07
   5.3884628e-10  -1.8269301e-02   1.8021519e+00   4.3489681e-01  -6.4533813e+07
   5.4151384e-10  -1.8097990e-02   1.7928866e+00   4.3846715e-01  -6.3908272e+07
   5.4418139e-10  -1.7928338e-02   1.7837358e+00   4.4202629e-01  -6.3289369e+07
   5.4684895e-10  -1.7760329e-02   1.7746980e+00   4.4557401e-01  -6.2677017e+07
   5.4951651e-10  -1.7593944e-02   1.7657716e+00   4.4911011e-01  -6.2071133e+07
   5.5218406e-10  -1.7429167e-02   1.7569551e+00   4.5263440e-01  -6.1471634e+07
   5.5485162e-10  -1.7265981e-02   1.7482470e+00   4.5614668e-01  -6.0878440e+07
   5.5751917e-10  -1.7104368e-02   1.7396459e+00   4.5964677e-01  -6.0291471e+07
   5.6018673e-10  -1.6944314e-02   1.7311502e+00   4.6313448e-01  -5.9710648e+07
   5.6285428e-10  -1.6785800e-02   1.7227586e+00   4.6660963e-01  -5.9135894e+07
   5.6552184e-10  -1.6628812e-02   1.7144697e+00   4.7007207e-01  -5.8567133e+07
   5.6818940e-10  -1.6473333e-02   1.7062820e+00   4.7352161e-01  -5.8004290e+07
   5.7085695e-10  -1.6319348e-02   1.6981942e+00   4.7695810e-01  -5.7447293e+07
   5.7352451e-10  -1.6166841e-02   1.6902049e+00   4.8038138e-01  -5.6896069e+07
   5.7619206e-10  -1.6015796e-02   1.6823128e+00   4.8379130e-01  -5.6350546e+07
   5.7885962e-10  -1.5866199e-02   1.6745165e+00   4.8718771e-01  -5.5810654e+07
   5.8152718e-10  -1.5718035e-02   1.6668149e+00   4.9057047e-01  -5.5276326e+07
   5.8419473e-10  -1.5571289e-02   1.6592065e+00   4.9393945e-01  -5.4747493e+07
   5.8686229e-10  -1.5425947e-02   1.6516902e+00   4.9729450e-01  -5.4224088e+07
   5.8952984e-10  -1.5281993e-02   1.6442646e+00   5.0063551e-01  -5.3706046e+07
   5.9219740e-10  -1.5139415e-02   1.6369286e+00   5.0396234e-01  -5.3193301e+07
   5.9486495e-10  -1.4998197e-02   1.6296810e+00   5.0727488e-01  -5.2685792e+07
   5.9753251e-10  -1.4858326e-02   1.6225205e+00   5.1057301e-01  -5.2183454e+07
   6.0020007e-10  -1.4719788e-02   1.6154461e+00   5.1385663e-01  -5.1686227e+07
   6.0286762e-10  -1.4582569e-02   1.6084564e+00   5.1712561e-01  -5.1194049e+07
   6.0553518e-10  -1.4446657e-02   1.6015505e+00   5.2037987e-01  -5.0706860e+07
   6.0820273e-10  -1.4312038e-02   1.5947272e+00   5.2361930e-01  -5.0224603e+07
   6.1087029e-10  -1.4178699e-02   1.5879853e+00   5.2684381e-01  -4.9747219e+07
   6.1353785e-10  -1.4046627e-02   1.5813238e+00   5.3005330e-01  -4.9274650e+07
   6.1620540e-10  -1.3915809e-02   1.5747416e+00   5.3324770e-01  -4.8806841e+07
   6.1887296e-10  -1.3786233e-02   1.5682377e+00   5.3642691e-01  -4.8343737e+07
   6.2154051e-10  -1.3657886e-02   1.5618110e+00   5.3959086e-01  -4.7885282e+07
   6.2420807e-10  -1.3530756e-02   1.5554604e+00   5.4273946e-01  -4.7431423e+07
   6.2687563e-10  -1.3404830e-02   1.5491850e+00   5.4587266e-01  -4.6982107e+07
   6.2954318e-10  -1.3280097e-02   1.5429838e+00   5.4899038e-01  -4.6537282e+07
   6.3221074e-10  -1.3156545e-02   1.5368557e+00   5.5209255e-01  -4.6096897e+07
   6.3487829e-10  -1.3034161e-02   1.5307999e+00   5.5517912e-01  -4.5660900e+07
   6.3754585e-10  -1.2912935e-02   1.5248153e+00   5.5825002e-01  -4.5229242e+07
   6.4021340e-10  -1.2792855e-02   1.5189010e+00   5.6130520e-01  -4.4801874e+07
   6.4288096e-10  -1.2673908e-02   1.5130562e+00   5.6434461e-01  -4.4378748e+07
   6.4554852e-10  -1.2556085e-02   1.5072798e+00   5.6736820e-01  -4.3959814e+07
   6.4821607e-10  -1.2439374e-02   1.5015709e+00   5.7037592e-01  -4.3545028e+07
   6.5088363e-10  -1.2323764e-02   1.4959287e+00   5.7336773e-01  -4.3134341e+07
   6.5355118e-10  -1.2209244e-02   1.4903524e+00   5.7634360e-01  -4.2727708e+07
   6.5621874e-10  -1.2095804e-02   1.4848410e+00   5.7930348e-01  -4.2325085e+07
   6.5888630e-10  -1.1983432e-02   1.4793936e+00   5.8224735e-01  -4.1926426e+07
   6.6155385e-10  -1.1872118e-02   1.4740096e+00   5.8517516e-01  -4.1531688e+07
   6.6422141e-10  -1.1761852e-02   1.4686879e+00   5.8808690e-01  -4.1140827e+07
   6.6688896e-10  -1.1652624e-02   1.4634279e+00   5.9098254e-01  -4.0753801e+07
   6.6955652e-10  -1.1544423e-02   1.4582287e+00   5.9386206e-01  -4.0370568e+07
   6.7222407e-10  -1.1437239e-02   1.4530895e+00   5.9672543e-01  -3.9991086e+07
   6.7489163e-10  -1.1331063e-02   1.4480096e+00   5.9957265e-01  -3.9615314e+07
   6.7755919e-10  -1.1225884e-02   1.4429881e+00   6.0240369e-01  -3.9243213e+07
   6.8022674e-10  -1.1121693e-02   1.4380244e+00   6.0521854e-01  -3.8874741e+07
   6.8289430e-10  -1.1018479e-02   1.4331176e+00   6.0801719e-01  -3.8509861e+07
   6.8556185e-10  -1.0916235e-02   1.4282671e+00   6.1079964e-01  -3.8148532e+07
   6.8822941e-10  -1.0814950e-02   1.4234721e+00   6.1356589e-01  -3.7790718e+07
   6.9089697e-10  -1.0714614e-02   1.4187319e+00   6.1631592e-01  -3.7436379e+07
   6.9356452e-10  -1.0615219e-02   1.4140458e+00   6.1904974e-01  -3.7085479e+07
   6.9623208e-10  -1.0516756e-02   1.4094131e+00   6.2176735e-01  -3.6737982e+07
   6.9889963e-10  -1.0419215e-02   1.4048331e+00   6.2446875e-01  -3.6393850e+07
   7.0156719e-10  -1.0322588e-02   1.4003052e+00   6.2715396e-01  -3.6053049e+07
   7.0423474e-10  -1.0226865e-02   1.3958287e+00   6.2982297e-01  -3.5715542e+07
   7.0690230e-10  -1.0132039e-02   1.3914029e+00   6.3247580e-01  -3.5381295e+07
   7.0956986e-10  -1.0038099e-02   1.3870272e+00   6.3511246e-01  -3.5050274e+07
   7.1223741e-10  -9.9450387e-03   1.3827009e+00   6.3773297e-01  -3.4722444e+07
   7.1490497e-10  -9.8528484e-03   1.3784235e+00   6.4033733e-01  -3.4397772e+07
   7.1757252e-10  -9.7615200e-03   1.3741943e+00   6.4292558e-01  -3.4076225e+07
   7.2024008e-10  -9.6710452e-03   1.3700127e+00   6.4549772e-01  -3.3757770e+07
   7.2290764e-10  -9.5814158e-03   1.3658781e+00   6.4805379e-01  -3.3442375e+07
   7.2557519e-10  -9.4926237e-03   1.3617898e+00   6.5059379e-01  -3.3130008e+07
   7.2824275e-10  -9.4046609e-03   1.3577474e+00   6.5311777e-01  -3.2820638e+07
   7.3091030e-10  -9.3175194e-03   1.3537503e+00   6.5562573e-01  -3.2514233e+07
   7.3357786e-10  -9.2311912e-03   1.3497978e+00   6.5811772e-01  -3.2210763e+07
   7.3624542e-10  -9.1456688e-03   1.3458895e+00   6.6059376e-01  -3.1910198e+07
   7.3891297e-10  -9.0609442e-03   1.3420247e+00   6.6305388e-01  -3.1612507e+07
   7.4158053e-10  -8.9770100e-03   1.3382030e+00   6.6549812e-01  -3.1317661e+07
   7.4424808e-10  -8.8938585e-03   1.3344238e+00   6.6792650e-01  -3.1025631e+07
   7.4691564e-10  -8.8114823e-03   1.3306865e+00   6.7033907e-01  -3.0736388e+07
   7.4958319e-10  -8.7298740e-03   1.3269907e+00   6.7273586e-01  -3.0449903e+07
   7.5225075e-10  -8.6490263e-03   1.3233358e+00   6.7511691e-01  -3.0166148e+07
   7.5491831e-10  -8.5689319e-03   1.3197213e+00   6.7748226e-01  -2.9885096e+07
   7.5758586e-10  -8.4895836e-03   1.3161468e+00   6.7983195e-01  -2.9606719e+07
   7.6025342e-10  -8.4109744e-03   1.3126117e+00   6.8216602e-01  -2.9330989e+07
   7.6292097e-10  -8.3330972e-03   1.3091155e+00   6.8448451e-01  -2.9057881e+07
   7.6558853e-10  -8.2559450e-03   1.3056578e+00   6.8678748e-01  -2.8787367e+07
   7.6825609e-10  -8.1795111e-03   1.3022382e+00   6.8907495e-01  -2.8519421e+07
   7.7092364e-10  -8.1037885e-03   1.2988560e+00   6.9134699e-01  -2.8254017e+07
   7.7359120e-10  -8.0287705e-03   1.2955109e+00   6.9360364e-01  -2.7991130e+07
   7.7625875e-10  -7.9544505e-03   1.2922025e+00   6.9584494e-01  -2.7730735e+07
   7.7892631e-10  -7.8808218e-03   1.2889302e+00   6.9807095e-01  -2.7472806e+07
   7.8159386e-10  -7.8078778e-03   1.2856937e+00   7.0028171e-01  -2.7217319e+07
   7.8426142e-10  -7.7356122e-03   1.2824925e+00   7.0247729e-01  -2.6964249e+07
   7.8692898e-10  -7.6640184e-03   1.2793261e+00   7.0465773e-01  -2.6713572e+07
   7.8959653e-10  -7.5930902e-03   1.2761942e+00   7.0682308e-01  -2.6465264e+07
   7.9226409e-10  -7.5228212e-03   1.2730963e+00   7.0897340e-01  -2.6219302e+07
   7.9493164e-10  -7.4532053e-03   1.2700321e+00   7.1110875e-01  -2.5975663e+07
   7.9759920e-10  -7.3842361e-03   1.2670011e+00   7.1322918e-01  -2.5734323e+07
   8.0026676e-10  -7.3159077e-03   1.2640029e+00   7.1533475e-01  -2.5495259e+07
   8.0293431e-10  -7.2482141e-03   1.2610372e+00   7.1742551e-01  -2.5258450e+07
   8.0560187e-10  -7.1811491e-03   1.2581034e+00   7.1950152e-01  -2.5023872e+07
   8.0826942e-10  -7.1147070e-03   1.2552014e+00   7.2156285e-01  -2.4791504e+07
   8.1093698e-10  -7.0488817e-03   1.2523306e+00   7.2360955e-01  -2.4561323e+07
   8.1360453e-10  -6.9836676e-03   1.2494907e+00   7.2564168e-01  -2.4333309e+07
   8.1627209e-10  -6.9190589e-03   1.2466813e+00   7.2765930e-01  -2.4107440e+07
   8.1893965e-10  -6.8550499e-03   1.2439022e+00   7.2966248e-01  -2.3883695e+07
   8.2160720e-10  -6.7916349e-03   1.2411528e+00   7.3165128e-01  -2.3662053e+07
   8.2427476e-10  -6.7288083e-03   1.2384329e+00   7.3362576e-01  -2.3442494e+07
   8.2694231e-10  -6.6665647e-03   1.2357421e+00   7.3558598e-01  -2.3224997e+07
   8.2960987e-10  -6.6048986e-03   1.2330801e+00   7.3753200e-01  -2.3009541e+07
   8.3227743e-10  -6.5438044e-03   1.2304465e+00   7.3946390e-01  -2.2796108e+07
   8.3494498e-10  -6.4832770e-03   1.2278411e+00   7.4138174e-01  -2.2584677e+07
   8.3761254e-10  -6.4233109e-03   1.2252633e+00   7.4328558e-01  -2.2375229e+07
   8.4028009e-10  -6.3639009e-03   1.2227131e+00   7.4517548e-01  -2.2167744e+07
   8.4294765e-10  -6.3050418e-03   1.2201899e+00   7.4705152e-01  -2.1962204e+07
   8.4561521e-10  -6.2467284e-03   1.2176935e+00   7.4891377e-01  -2.1758589e+07
   8.4828276e-10  -6.1889556e-03   1.2152236e+00   7.5076227e-01  -2.1556881e+07
   8.5095032e-10  -6.1317183e-03   1.2127799e+00   7.5259712e-01  -2.1357062e+07
   8.5361787e-10  -6.0750116e-03   1.2103621e+00   7.5441836e-01  -2.1159112e+07
   8.5628543e-10  -6.0188305e-03   1.2079698e+00   7.5622608e-01  -2.0963015e+07
   8.5895298e-10  -5.9631700e-03   1.2056029e+00   7.5802033e-01  -2.0768752e+07
   8.6162054e-10  -5.9080253e-03   1.2032609e+00   7.5980120e-01  -2.0576305e+07
   8.6428810e-10  -5.8533915e-03   1.2009435e+00   7.6156874e-01  -2.0385657e+07
   8.6695565e-10  -5.7992639e-03   1.1986506e+00   7.6332302e-01  -2.0196791e+07
   8.6962321e-10  -5.7456378e-03   1.1963819e+00   7.6506412e-01  -2.0009689e+07
   8.7229076e-10  -5.6925084e-03   1.1941369e+00   7.6679211e-01  -1.9824334e+07
   8.7495832e-10  -5.6398712e-03   1.1919156e+00   7.6850705e-01  -1.9640710e+07
   8.7762588e-10  -5.5877215e-03   1.1897175e+00   7.7020901e-01  -1.9458800e+07
   8.8029343e-10  -5.5360548e-03   1.1875425e+00   7.7189808e-01  -1.9278588e+07
   8.8296099e-10  -5.4848666e-03   1.1853902e+00   7.7357430e-01  -1.9100057e+07
   8.8562854e-10  -5.4341524e-03   1.1832605e+00   7.7523777e-01  -1.8923191e+07
   8.8829610e-10  -5.3839078e-03   1.1811530e+00   7.7688854e-01  -1.8747975e+07
   8.9096365e-10  -5.3341284e-03   1.1790675e+00   7.7852668e-01  -1.8574392e+07
   8.9363121e-10  -5.2848099e-03   1.1770037e+00   7.8015228e-01  -1.8402427e+07
   8.9629877e-10  -5.2359480e-03   1.1749615e+00   7.8176540e-01  -1.8232064e+07
   8.9896632e-10  -5.1875384e-03   1.1729405e+00   7.8336611e-01  -1.8063289e+07
   9.0163388e-10  -5.1395770e-03   1.1709405e+00   7.8495448e-01  -1.7896085e+07
   9.0430143e-10  -5.0920594e-03   1.1689613e+00   7.8653059e-01  -1.7730439e+07
   9.0696899e-10  -5.0449817e-03   1.1670026e+00   7.8809450e-01  -1.7566335e+07
   9.0963655e-10  -4.9983397e-03   1.1650643e+00   7.8964629e-01  -1.7403758e+07
   9.1230410e-10  -4.9521294e-03   1.1631460e+00   7.9118603e-01  -1.7242695e+07
   9.1497166e-10  -4.9063467e-03   1.1612476e+00   7.9271378e-01  -1.7083130e+07
   9.1763921e-10  -4.8609876e-03   1.1593688e+00   7.9422963e-01  -1.6925049e+07
   9.2030677e-10  -4.8160483e-03   1.1575094e+00   7.9573365e-01  -1.6768439e+07
   9.2297432e-10  -4.7715249e-03   1.1556692e+00   7.9722589e-01  -1.6613285e+07
   9.2564188e-10  -4.7274133e-03   1.1538480e+00   7.9870644e-01  -1.6459574e+07
   9.2830944e-10  -4.6837099e-03   1.1520456e+00   8.0017537e-01  -1.6307292e+07
   9.3097699e-10  -4.6404108e-03   1.1502617e+00   8.0163275e-01  -1.6156425e+07
   9.3364455e-10  -4.5975123e-03   1.1484961e+00   8.0307865e-01  -1.6006960e+07
   9.3631210e-10  -4.5550107e-03   1.1467487e+00   8.0451314e-01  -1.5858884e+07
   9.3897966e-10  -4.5129022e-03   1.1450193e+00   8.0593629e-01  -1.5712184e+07
   9.4164722e-10  -4.4711832e-03   1.1433076e+00   8.0734818e-01  -1.5566846e+07
   9.4431477e-10  -4.4298501e-03   1.1416134e+00   8.0874887e-01  -1.5422858e+07
   9.4698233e-10  -4.3888994e-03   1.1399366e+00   8.1013844e-01  -1.5280207e+07
   9.4964988e-10  -4.3483274e-03   1.1382769e+00   8.1151696e-01  -1.5138880e+07
   9.5231744e-10  -4.3081306e-03   1.1366342e+00   8.1288449e-01  -1.4998865e+07
   9.5498499e-10  -4.2683056e-03   1.1350083e+00   8.1424111e-01  -1.4860150e+07
   9.5765255e-10  -4.2288489e-03   1.1333990e+00   8.1558689e-01  -1.4722723e+07
   9.6032011e-10  -4.1897571e-03   1.1318061e+00   8.1692189e-01  -1.4586570e+07
   9.6298766e-10  -4.1510268e-03   1.1302294e+00   8.1824620e-01  -1.4451681e+07
   9.6565522e-10  -4.1126546e-03   1.1286688e+00   8.1955988e-01  -1.4318043e+07
   9.6832277e-10  -4.0746373e-03   1.1271241e+00   8.2086299e-01  -1.4185644e+07
   9.7099033e-10  -4.0369715e-03   1.1255951e+00   8.2215562e-01  -1.4054474e+07
   9.7365789e-10  -3.9996540e-03   1.1240816e+00   8.2343782e-01  -1.3924520e+07
   9.7632544e-10  -3.9626816e-03   1.1225835e+00   8.2470967e-01  -1.3795770e+07
   9.7899300e-10  -3.9260510e-03   1.1211005e+00   8.2597124e-01  -1.3668215e+07
   9.8166055e-10  -3.8897591e-03   1.1196326e+00   8.2722259e-01  -1.3541842e+07
   9.8432811e-10  -3.8538027e-03   1.1181796e+00   8.2846380e-01  -1.3416640e+07
   9.8699567e-10  -3.8181788e-03   1.1167413e+00   8.2969493e-01  -1.3292599e+07
   9.8966322e-10  -3.7828842e-03   1.1153175e+00   8.3091606e-01  -1.3169707e+07
   9.9233078e-10  -3.7479159e-03   1.1139081e+00   8.3212724e-01  -1.3047954e+07
   9.9499833e-10  -3.7132709e-03   1.1125129e+00   8.3332856e-01  -1.2927330e+07
   9.9766589e-10  -3.6789462e-03   1.1111318e+00   8.3452007e-01  -1.2807822e+07
   1.0003334e-09  -3.6449388e-03   1.1097647e+00   8.3570184e-01  -1.2689422e+07
   1.0030010e-09  -3.6112457e-03   1.1084113e+00   8.3687395e-01  -1.2572119e+07
   1.0056686e-09  -3.5778641e-03   1.1070715e+00   8.3803645e-01  -1.2455902e+07
   1.0083361e-09  -3.5447911e-03   1.1057452e+00   8.3918942e-01  -1.2340761e+07
   1.0110037e-09  -3.5120239e-03   1.1044323e+00   8.4033292e-01  -1.2226686e+07
   1.0136712e-09  -3.4795595e-03   1.1031325e+00   8.4146702e-01  -1.2113668e+07
   1.0163388e-09  -3.4473952e-03   1.1018458e+00   8.4259179e-01  -1.2001696e+07
   1.0190063e-09  -3.4155282e-03   1.1005720e+00   8.4370728e-01  -1.1890761e+07
   1.0216739e-09  -3.3839557e-03   1.0993110e+00   8.4481357e-01  -1.1780853e+07
   1.0243414e-09  -3.3526751e-03   1.0980626e+00   8.4591072e-01  -1.1671963e+07
   1.0270090e-09  -3.3216836e-03   1.0968267e+00   8.4699880e-01  -1.1564080e+07
   1.0296766e-09  -3.2909785e-03   1.0956032e+00   8.4807787e-01  -1.1457196e+07
   1.0323441e-09  -3.2605573e-03   1.0943919e+00   8.4914800e-01  -1.1351301e+07
   1.0350117e-09  -3.2304172e-03   1.0931927e+00   8.5020925e-01  -1.1246386e+07
   1.0376792e-09  -3.2005557e-03   1.0920055e+00   8.5126168e-01  -1.1142441e+07
   1.0403468e-09  -3.1709702e-03   1.0908302e+00   8.5230536e-01  -1.1039459e+07
   1.0430143e-09  -3.1416581e-03   1.0896665e+00   8.5334035e-01  -1.0937430e+07
   1.0456819e-09  -3.1126169e-03   1.0885145e+00   8.5436671e-01  -1.0836344e+07
   1.0483494e-09  -3.0838442e-03   1.0873739e+00   8.5538452e-01  -1.0736194e+07
   1.0510170e-09  -3.0553373e-03   1.0862447e+00   8.5639382e-01  -1.0636970e+07
   1.0536846e-09  -3.0270939e-03   1.0851267e+00   8.5739469e-01  -1.0538664e+07
   1.0563521e-09  -2.9991116e-03   1.0840199e+00   8.5838718e-01  -1.0441267e+07
   1.0590197e-09  -2.9713878e-03   1.0829240e+00   8.5937136e-01  -1.0344771e+07
   1.0616872e-09  -2.9439203e-03   1.0818390e+00   8.6034729e-01  -1.0249168e+07
   1.0643548e-09  -2.9167066e-03   1.0807648e+00   8.6131502e-01  -1.0154449e+07
   1.0670223e-09  -2.8897444e-03   1.0797012e+00   8.6227463e-01  -1.0060606e+07
   1.0696899e-09  -2.8630313e-03   1.0786482e+00   8.6322616e-01  -9.9676303e+06
   1.0723575e-09  -2.8365652e-03   1.0776056e+00   8.6416969e-01  -9.8755147e+06
   1.0750250e-09  -2.8103436e-03   1.0765733e+00   8.6510527e-01  -9.7842509e+06
   1.0776926e-09  -2.7843644e-03   1.0755513e+00   8.6603296e-01  -9.6938310e+06
   1.0803601e-09  -2.7586252e-03   1.0745393e+00   8.6695282e-01  -9.6042471e+06
   1.0830277e-09  -2.7331239e-03   1.0735374e+00   8.6786490e-01  -9.5154914e+06
   1.0856952e-09  -2.7078582e-03   1.0725453e+00   8.6876928e-01  -9.4275564e+06
   1.0883628e-09  -2.6828261e-03   1.0715631e+00   8.6966600e-01  -9.3404343e+06
   1.0910303e-09  -2.6580253e-03   1.0705905e+00   8.7055513e-01  -9.2541176e+06
   1.0936979e-09  -2.6334536e-03   1.0696275e+00   8.7143671e-01  -9.1685989e+06
   1.0963655e-09  -2.6091091e-03   1.0686740e+00   8.7231082e-01  -9.0838707e+06
   1.0990330e-09  -2.5849895e-03   1.0677300e+00   8.7317750e-01  -8.9999257e+06
   1.1017006e-09  -2.5610928e-03   1.0667952e+00   8.7403682e-01  -8.9167567e+06
   1.1043681e-09  -2.5374169e-03   1.0658696e+00   8.7488882e-01  -8.8343564e+06
   1.1070357e-09  -2.5139598e-03   1.0649531e+00   8.7573357e-01  -8.7527177e+06
   1.1097032e-09  -2.4907195e-03   1.0640456e+00   8.7657112e-01  -8.6718335e+06
   1.1123708e-09  -2.4676939e-03   1.0631470e+00   8.7740154e-01  -8.5916969e+06
   1.1150383e-09  -2.4448812e-03   1.0622572e+00   8.7822486e-01  -8.5123010e+06
   1.1177059e-09  -2.4222792e-03   1.0613762e+00   8.7904115e-01  -8.4336388e+06
   1.1203735e-09  -2.3998861e-03   1.0605038e+00   8.7985046e-01  -8.3557036e+06
   1.1230410e-09  -2.3777000e-03   1.0596400e+00   8.8065285e-01  -8.2784886e+06
   1.1257086e-09  -2.3557188e-03   1.0587847e+00   8.8144837e-01  -8.2019872e+06
   1.1283761e-09  -2.3339408e-03   1.0579377e+00   8.8223707e-01  -8.1261927e+06
   1.1310437e-09  -2.3123641e-03   1.0570990e+00   8.8301901e-01  -8.0510986e+06
   1.1337112e-09  -2.2909867e-03   1.0562685e+00   8.8379424e-01  -7.9766984e+06
   1.1363788e-09  -2.2698069e-03   1.0554461e+00   8.8456281e-01  -7.9029857e+06
   1.1390463e-09  -2.2488228e-03   1.0546318e+00   8.8532478e-01  -7.8299542e+06
   1.1417139e-09  -2.2280326e-03   1.0538254e+00   8.8608020e-01  -7.7575974e+06
   1.1443815e-09  -2.2074345e-03   1.0530269e+00   8.8682911e-01  -7.6859092e+06
   1.1470490e-09  -2.1870268e-03   1.0522362e+00   8.8757158e-01  -7.6148834e+06
   1.1497166e-09  -2.1668077e-03   1.0514533e+00   8.8830764e-01  -7.5445138e+06
   1.1523841e-09  -2.1467754e-03   1.0506779e+00   8.8903736e-01  -7.4747944e+06
   1.1550517e-09  -2.1269283e-03   1.0499101e+00   8.8976078e-01  -7.4057192e+06
   1.1577192e-09  -2.1072645e-03   1.0491498e+00   8.9047796e-01  -7.3372822e+06
   1.1603868e-09  -2.0877825e-03   1.0483969e+00   8.9118893e-01  -7.2694774e+06
   1.1630544e-09  -2.0684805e-03   1.0476513e+00   8.9189376e-01  -7.2022991e+06
   1.1657219e-09  -2.0493569e-03   1.0469130e+00   8.9259249e-01  -7.1357414e+06
   1.1683895e-09  -2.0304100e-03   1.0461818e+00   8.9328517e-01  -7.0697987e+06
   1.1710570e-09  -2.0116381e-03   1.0454578e+00   8.9397185e-01  -7.0044651e+06
   1.1737246e-09  -1.9930398e-03   1.0447408e+00   8.9465257e-01  -6.9397351e+06
   1.1763921e-09  -1.9746134e-03   1.0440308e+00   8.9532739e-01  -6.8756032e+06
   1.1790597e-09  -1.9563572e-03   1.0433276e+00   8.9599635e-01  -6.8120637e+06
   1.1817272e-09  -1.9382697e-03   1.0426313e+00   8.9665950e-01  -6.7491111e+06
   1.1843948e-09  -1.9203494e-03   1.0419417e+00   8.9731689e-01  -6.6867402e+06
   1.1870624e-09  -1.9025947e-03   1.0412589e+00   8.9796856e-01  -6.6249454e+06
   1.1897299e-09  -1.8850041e-03   1.0405826e+00   8.9861456e-01  -6.5637215e+06
   1.1923975e-09  -1.8675760e-03   1.0399129e+00   8.9925493e-01  -6.5030632e+06
   1.1950650e-09  -1.8503090e-03   1.0392497e+00   8.9988973e-01  -6.4429652e+06
   1.1977326e-09  -1.8332016e-03   1.0385929e+00   9.0051899e-01  -6.3834223e+06
   1.2004001e-09  -1.8162522e-03   1.0379424e+00   9.0114276e-01  -6.3244296e+06
   1.2030677e-09  -1.7994595e-03   1.0372983e+00   9.0176109e-01  -6.2659817e+06
   1.2057352e-09  -1.7828220e-03   1.0366603e+00   9.0237402e-01  -6.2080738e+06
   1.2084028e-09  -1.7663383e-03   1.0360286e+00   9.0298159e-01  -6.1507008e+06
   1.2110704e-09  -1.7500069e-03   1.0354029e+00   9.0358386e-01  -6.0938578e+06
   1.2137379e-09  -1.7338264e-03   1.0347833e+00   9.0418085e-01  -6.0375399e+06
   1.2164055e-09  -1.7177955e-03   1.0341697e+00   9.0477262e-01  -5.9817422e+06
   1.2190730e-09  -1.7019127e-03   1.0335620e+00   9.0535921e-01  -5.9264599e+06
   1.2217406e-09  -1.6861767e-03   1.0329601e+00   9.0594066e-01  -5.8716883e+06
   1.2244081e-09  -1.6705861e-03   1.0323641e+00   9.0651702e-01  -5.8174227e+06
   1.2270757e-09  -1.6551397e-03   1.0317738e+00   9.0708831e-01  -5.7636583e+06
   1.2297432e-09  -1.6398359e-03   1.0311892e+00   9.0765460e-01  -5.7103905e+06
   1.2324108e-09  -1.6246737e-03   1.0306102e+00   9.0821591e-01  -5.6576148e+06
   1.2350784e-09  -1.6096515e-03   1.0300368e+00   9.0877230e-01  -5.6053267e+06
   1.2377459e-09  -1.5947682e-03   1.0294689e+00   9.0932379e-01  -5.5535215e+06
   1.2404135e-09  -1.5800224e-03   1.0289065e+00   9.0987044e-01  -5.5021948e+06
   1.2430810e-09  -1.5654129e-03   1.0283495e+00   9.1041228e-01  -5.4513423e+06
   1.2457486e-09  -1.5509385e-03   1.0277978e+00   9.1094934e-01  -5.4009595e+06
   1.2484161e-09  -1.5365978e-03   1.0272515e+00   9.1148168e-01  -5.3510421e+06
   1.2510837e-09  -1.5223897e-03   1.0267104e+00   9.1200933e-01  -5.3015858e+06
   1.2537513e-09  -1.5083128e-03   1.0261745e+00   9.1253233e-01  -5.2525863e+06
   1.2564188e-09  -1.4943661e-03   1.0256437e+00   9.1305072e-01  -5.2040395e+06
   1.2590864e-09  -1.4805483e-03   1.0251181e+00   9.1356454e-01  -5.1559411e+06
   1.2617539e-09  -1.4668582e-03   1.0245975e+00   9.1407382e-01  -5.1082870e+06
   1.2644215e-09  -1.4532946e-03   1.0240818e+00   9.1457860e-01  -5.0610731e+06
   1.2670890e-09  -1.4398564e-03   1.0235712e+00   9.1507893e-01  -5.0142953e+06
   1.2697566e-09  -1.4265424e-03   1.0230654e+00   9.1557483e-01  -4.9679497e+06
   1.2724241e-09  -1.4133515e-03   1.0225645e+00   9.1606635e-01  -4.9220321e+06
   1.2750917e-09  -1.4002825e-03   1.0220683e+00   9.1655352e-01  -4.8765387e+06
   1.2777593e-09  -1.3873342e-03   1.0215769e+00   9.1703638e-01  -4.8314656e+06
   1.2804268e-09  -1.3745057e-03   1.0210903e+00   9.1751497e-01  -4.7868088e+06
   1.2830944e-09  -1.3617957e-03   1.0206083e+00   9.1798931e-01  -4.7425645e+06
   1.2857619e-09  -1.3492032e-03   1.0201308e+00   9.1845946e-01  -4.6987289e+06
   1.2884295e-09  -1.3367271e-03   1.0196580e+00   9.1892544e-01  -4.6552983e+06
   1.2910970e-09  -1.3243663e-03   1.0191897e+00   9.1938728e-01  -4.6122689e+06
   1.2937646e-09  -1.3121198e-03   1.0187259e+00   9.1984503e-01  -4.5696369e+06
   1.2964321e-09  -1.2999864e-03   1.0182665e+00   9.2029871e-01  -4.5273988e+06
   1.2990997e-09  -1.2879653e-03   1.0178114e+00   9.2074837e-01  -4.4855509e+06
   1.3017673e-09  -1.2760552e-03   1.0173608e+00   9.2119404e-01  -4.4440895e+06
   1.3044348e-09  -1.2642552e-03   1.0169144e+00   9.2163574e-01  -4.4030112e+06
   1.3071024e-09  -1.2525643e-03   1.0164723e+00   9.2207352e-01  -4.3623123e+06
   1.3097699e-09  -1.2409814e-03   1.0160344e+00   9.2250740e-01  -4.3219894e+06
   1.3124375e-09  -1.2295057e-03   1.0156007e+00   9.2293743e-01  -4.2820390e+06
   1.3151050e-09  -1.2181360e-03   1.0151712e+00   9.2336363e-01  -4.2424576e+06
   1.3177726e-09  -1.2068713e-03   1.0147457e+00   9.2378603e-01  -4.2032419e+06
   1.3204401e-09  -1.1957109e-03   1.0143243e+00   9.2420468e-01  -4.1643885e+06
   1.3231077e-09  -1.1846536e-03   1.0139069e+00   9.2461959e-01  -4.1258940e+06
   1.3257753e-09  -1.1736984e-03   1.0134935e+00   9.2503081e-01  -4.0877552e+06
   1.3284428e-09  -1.1628446e-03   1.0130840e+00   9.2543836e-01  -4.0499687e+06
   1.3311104e-09  -1.1520911e-03   1.0126784e+00   9.2584227e-01  -4.0125312e+06
   1.3337779e-09  -1.1414370e-03   1.0122767e+00   9.2624259e-01  -3.9754396e+06
   1.3364455e-09  -1.1308814e-03   1.0118788e+00   9.2663932e-01  -3.9386907e+06
   1.3391130e-09  -1.1204233e-03   1.0114847e+00   9.2703252e-01  -3.9022813e+06
   1.3417806e-09  -1.1100620e-03   1.0110943e+00   9.2742221e-01  -3.8662082e+06
   1.3444481e-09  -1.0997964e-03   1.0107077e+00   9.2780842e-01  -3.8304684e+06
   1.3471157e-09  -1.0896257e-03   1.0103247e+00   9.2819117e-01  -3.7950588e+06
   1.3497833e-09  -1.0795490e-03   1.0099454e+00   9.2857050e-01  -3.7599764e+06
   1.3524508e-09  -1.0695655e-03   1.0095697e+00   9.2894644e-01  -3.7252180e+06
   1.3551184e-09  -1.0596743e-03   1.0091975e+00   9.2931902e-01  -3.6907808e+06
   1.3577859e-09  -1.0498745e-03   1.0088289e+00   9.2968826e-01  -3.6566617e+06
   1.3604535e-09  -1.0401653e-03   1.0084638e+00   9.3005420e-01  -3.6228579e+06
   1.3631210e-09  -1.0305459e-03   1.0081022e+00   9.3041687e-01  -3.5893664e+06
   1.3657886e-09  -1.0210154e-03   1.0077439e+00   9.3077628e-01  -3.5561843e+06
   1.3684562e-09  -1.0115730e-03   1.0073891e+00   9.3113247e-01  -3.5233087e+06
   1.3711237e-09  -1.0022179e-03   1.0070377e+00   9.3148548e-01  -3.4907369e+06
   1.3737913e-09  -9.9294923e-04   1.0066896e+00   9.3183531e-01  -3.4584661e+06
   1.3764588e-09  -9.8376629e-04   1.0063447e+00   9.3218201e-01  -3.4264934e+06
   1.3791264e-09  -9.7466824e-04   1.0060032e+00   9.3252560e-01  -3.3948161e+06
   1.3817939e-09  -9.6565431e-04   1.0056649e+00   9.3286611e-01  -3.3634315e+06
   1.3844615e-09  -9.5672370e-04   1.0053298e+00   9.3320356e-01  -3.3323369e+06
   1.3871290e-09  -9.4787566e-04   1.0049979e+00   9.3353798e-01  -3.3015295e+06
   1.3897966e-09  -9.3910942e-04   1.0046691e+00   9.3386940e-01  -3.2710069e+06
   1.3924642e-09  -9.3042423e-04   1.0043434e+00   9.3419784e-01  -3.2407662e+06
   1.3951317e-09  -9.2181932e-04   1.0040209e+00   9.3452334e-01  -3.2108050e+06
   1.3977993e-09  -9.1329398e-04   1.0037013e+00   9.3484590e-01  -3.1811206e+06
   1.4004668e-09  -9.0484745e-04   1.0033848e+00   9.3516556e-01  -3.1517104e+06
   1.4031344e-09  -8.9647901e-04   1.0030713e+00   9.3548236e-01  -3.1225720e+06
   1.4058019e-09  -8.8818794e-04   1.0027608e+00   9.3579630e-01  -3.0937029e+06
   1.4084695e-09  -8.7997352e-04   1.0024532e+00   9.3610741e-01  -3.0651005e+06
   1.4111370e-09  -8.7183505e-04   1.0021485e+00   9.3641573e-01  -3.0367624e+06
   1.4138046e-09  -8.6377182e-04   1.0018467e+00   9.3672127e-01  -3.0086862e+06
   1.4164722e-09  -8.5578314e-04   1.0015477e+00   9.3702406e-01  -2.9808693e+06
   1.4191397e-09  -8.4786832e-04   1.0012516e+00   9.3732412e-01  -2.9533096e+06
   1.4218073e-09  -8.4002668e-04   1.0009583e+00   9.3762148e-01  -2.9260044e+06
   1.4244748e-09  -8.3225754e-04   1.0006677e+00   9.3791616e-01  -2.8989516e+06
   1.4271424e-09  -8.2456022e-04   1.0003799e+00   9.3820818e-01  -2.8721488e+06
   1.4298099e-09  -8.1693408e-04   1.0000948e+00   9.3849757e-01  -2.8455937e+06
   1.4324775e-09  -8.0937845e-04   9.9981242e-01   9.3878435e-01  -2.8192839e+06
   1.4351450e-09  -8.0189267e-04   9.9953268e-01   9.3906854e-01  -2.7932173e+06
   1.4378126e-09  -7.9447611e-04   9.9925558e-01   9.3935017e-01  -2.7673915e+06
   1.4404802e-09  -7.8712811e-04   9.9898110e-01   9.3962926e-01  -2.7418044e+06
   1.4431477e-09  -7.7984806e-04   9.9870921e-01   9.3990583e-01  -2.7164537e+06
   1.4458153e-09  -7.7263532e-04   9.9843989e-01   9.4017990e-01  -2.6913374e+06
   1.4484828e-09  -7.6548927e-04   9.9817311e-01   9.4045149e-01  -2.6664531e+06
   1.4511504e-09  -7.5840929e-04   9.9790884e-01   9.4072064e-01  -2.6417987e+06
   1.4538179e-09  -7.5139478e-04   9.9764707e-01   9.4098735e-01  -2.6173723e+06
   1.4564855e-09  -7.4444512e-04   9.9738776e-01   9.4125165e-01  -2.5931715e+06
   1.4591531e-09  -7.3755972e-04   9.9713090e-01   9.4151356e-01  -2.5691944e+06
   1.4618206e-09  -7.3073798e-04   9.9687646e-01   9.4177310e-01  -2.5454389e+06
   1.4644882e-09  -7.2397932e-04   9.9662441e-01   9.4203030e-01  -2.5219029e+06
   1.4671557e-09  -7.1728316e-04   9.9637474e-01   9.4228517e-01  -2.4985844e+06
   1.4698233e-09  -7.1064890e-04   9.9612743e-01   9.4253774e-01  -2.4754814e+06
   1.4724908e-09  -7.0407600e-04   9.9588244e-01   9.4278801e-01  -2.4525919e+06
   1.4751584e-09  -6.9756386e-04   9.9563976e-01   9.4303603e-01  -2.4299140e+06
   1.4778259e-09  -6.9111195e-04   9.9539937e-01   9.4328180e-01  -2.4074457e+06
   1.4804935e-09  -6.8471969e-04   9.9516124e-01   9.4352534e-01  -2.3851850e+06
   1.4831611e-09  -6.7838654e-04   9.9492535e-01   9.4376668e-01  -2.3631300e+06
   1.4858286e-09  -6.7211194e-04   9.9469168e-01   9.4400583e-01  -2.3412789e+06
   1.4884962e-09  -6.6589537e-04   9.9446021e-01   9.4424281e-01  -2.3196297e+06
   1.4911637e-09  -6.5973628e-04   9.9423091e-01   9.4447765e-01  -2.2981807e+06
   1.4938313e-09  -6.5363414e-04   9.9400378e-01   9.4471036e-01  -2.2769298e+06
   1.4964988e-09  -6.4758843e-04   9.9377878e-01   9.4494096e-01  -2.2558754e+06
   1.4991664e-09  -6.4159862e-04   9.9355590e-01   9.4516947e-01  -2.2350155e+06
   1.5018339e-09  -6.3566420e-04   9.9333511e-01   9.4539591e-01  -2.2143485e+06
   1.5045015e-09  -6.2978466e-04   9.9311640e-01   9.4562029e-01  -2.1938724e+06
   1.5071691e-09  -6.2395948e-04   9.9289974e-01   9.4584264e-01  -2.1735857e+06
   1.5098366e-09  -6.1818817e-04   9.9268512e-01   9.4606297e-01  -2.1534864e+06
   1.5125042e-09  -6.1247023e-04   9.9247252e-01   9.4628130e-01  -2.1335729e+06
   1.5151717e-09  -6.0680516e-04   9.9226191e-01   9.4649764e-01  -2.1138434e+06
   1.5178393e-09  -6.0119247e-04   9.9205329e-01   9.4671203e-01  -2.0942963e+06
   1.5205068e-09  -5.9563169e-04   9.9184662e-01   9.4692446e-01  -2.0749299e+06
   1.5231744e-09  -5.9012233e-04   9.9164190e-01   9.4713497e-01  -2.0557425e+06
   1.5258419e-09  -5.8466392e-04   9.9143909e-01   9.4734357e-01  -2.0367324e+06
   1.5285095e-09  -5.7925598e-04   9.9123820e-01   9.4755027e-01  -2.0178981e+06
   1.5311771e-09  -5.7389805e-04   9.9103918e-01   9.4775509e-01  -1.9992378e+06
   1.5338446e-09  -5.6858967e-04   9.9084204e-01   9.4795805e-01  -1.9807500e+06
   1.5365122e-09  -5.6333038e-04   9.9064675e-01   9.4815917e-01  -1.9624332e+06
   1.5391797e-09  -5.5811972e-04   9.9045329e-01   9.4835846e-01  -1.9442856e+06
   1.5418473e-09  -5.5295725e-04   9.9026164e-01   9.4855593e-01  -1.9263057e+06
   1.5445148e-09  -5.4784251e-04   9.9007179e-01   9.4875161e-01  -1.9084921e+06
   1.5471824e-09  -5.4277508e-04   9.8988373e-01   9.4894551e-01  -1.8908431e+06
   1.5498499e-09  -5.3775451e-04   9.8969743e-01   9.4913765e-01  -1.8733573e+06
   1.5525175e-09  -5.3278037e-04   9.8951287e-01   9.4932804e-01  -1.8560331e+06
   1.5551851e-09  -5.2785222e-04   9.8933005e-01   9.4951669e-01  -1.8388690e+06
   1.5578526e-09  -5.2296965e-04   9.8914894e-01   9.4970363e-01  -1.8218636e+06
   1.5605202e-09  -5.1813224e-04   9.8896953e-01   9.4988887e-01  -1.8050154e+06
   1.5631877e-09  -5.1333956e-04   9.8879180e-01   9.5007242e-01  -1.7883230e+06
   1.5658553e-09  -5.0859120e-04   9.8861573e-01   9.5025430e-01  -1.7717848e+06
   1.5685228e-09  -5.0388675e-04   9.8844132e-01   9.5043452e-01  -1.7553995e+06
   1.5711904e-09  -4.9922581e-04   9.8826854e-01   9.5061310e-01  -1.7391657e+06
   1.5738580e-09  -4.9460797e-04   9.8809738e-01   9.5079005e-01  -1.7230820e+06
   1.5765255e-09  -4.9003284e-04   9.8792782e-01   9.5096540e-01  -1.7071469e+06
   1.5791931e-09  -4.8550002e-04   9.8775985e-01   9.5113914e-01  -1.6913592e+06
   1.5818606e-09  -4.8100912e-04   9.8759346e-01   9.5131130e-01  -1.6757174e+06
   1.5845282e-09  -4.7655976e-04   9.8742862e-01   9.5148189e-01  -1.6602202e+06
   1.5871957e-09  -4.7215154e-04   9.8726533e-01   9.5165093e-01  -1.6448663e+06
   1.5898633e-09  -4.6778408e-04   9.8710356e-01   9.5181842e-01  -1.6296543e+06
   1.5925308e-09  -4.6345702e-04   9.8694331e-01   9.5198439e-01  -1.6145829e+06
   1.5951984e-09  -4.5916998e-04   9.8678456e-01   9.5214885e-01  -1.5996509e+06
   1.5978660e-09  -4.5492258e-04   9.8662730e-01   9.5231180e-01  -1.5848569e+06
   1.6005335e-09  -4.5071447e-04   9.8647151e-01   9.5247327e-01  -1.5701996e+06
   1.6032011e-09  -4.4654527e-04   9.8631718e-01   9.5263326e-01  -1.5556779e+06
   1.6058686e-09  -4.4241463e-04   9.8616429e-01   9.5279180e-01  -1.5412905e+06
   1.6085362e-09  -4.3832220e-04   9.8601283e-01   9.5294889e-01  -1.5270360e+06
   1.6112037e-09  -4.3426761e-04   9.8586279e-01   9.5310454e-01  -1.5129133e+06
   1.6138713e-09  -4.3025052e-04   9.8571415e-01   9.5325877e-01  -1.4989212e+06
   1.6165388e-09  -4.2627058e-04   9.8556690e-01   9.5341160e-01  -1.4850585e+06
   1.6192064e-09  -4.2232745e-04   9.8542103e-01   9.5356303e-01  -1.4713239e+06
   1.6218740e-09  -4.1842079e-04   9.8527652e-01   9.5371308e-01  -1.4577163e+06
   1.6245415e-09  -4.1455026e-04   9.8513337e-01   9.5386175e-01  -1.4442344e+06
   1.6272091e-09  -4.1071553e-04   9.8499155e-01   9.5400907e-01  -1.4308773e+06
   1.6298766e-09  -4.0691626e-04   9.8485106e-01   9.5415505e-01  -1.4176436e+06
   1.6325442e-09  -4.0315213e-04   9.8471188e-01   9.5429969e-01  -1.4045323e+06
   1.6352117e-09  -3.9942282e-04   9.8457400e-01   9.5444300e-01  -1.3915422e+06
   1.6378793e-09  -3.9572799e-04   9.8443742e-01   9.5458501e-01  -1.3786722e+06
   1.6405468e-09  -3.9206734e-04   9.8430210e-01   9.5472572e-01  -1.3659212e+06
   1.6432144e-09  -3.8844055e-04   9.8416806e-01   9.5486515e-01  -1.3532881e+06
   1.6458820e-09  -3.8484730e-04   9.8403526e-01   9.5500330e-01  -1.3407718e+06
   1.6485495e-09  -3.8128728e-04   9.8390371e-01   9.5514018e-01  -1.3283712e+06
   1.6512171e-09  -3.7776018e-04   9.8377338e-01   9.5527582e-01  -1.3160853e+06
   1.6538846e-09  -3.7426571e-04   9.8364428e-01   9.5541021e-01  -1.3039129e+06
   1.6565522e-09  -3.7080356e-04   9.8351638e-01   9.5554338e-01  -1.2918531e+06
   1.6592197e-09  -3.6737343e-04   9.8338967e-01   9.5567533e-01  -1.2799048e+06
   1.6618873e-09  -3.6397503e-04   9.8326414e-01   9.5580607e-01  -1.2680670e+06
   1.6645549e-09  -3.6060806e-04   9.8313979e-01   9.5593561e-01  -1.2563387e+06
   1.6672224e-09  -3.5727223e-04   9.8301660e-01   9.5606397e-01  -1.2447187e+06
   1.6698900e-09  -3.5396725e-04   9.8289456e-01   9.5619116e-01  -1.2332063e+06
   1.6725575e-09  -3.5069284e-04   9.8277366e-01   9.5631718e-01  -1.2218002e+06
   1.6752251e-09  -3.4744871e-04   9.8265389e-01   9.5644205e-01  -1.2104996e+06
   1.6778926e-09  -3.4423459e-04   9.8253524e-01   9.5656577e-01  -1.1993036e+06
   1.6805602e-09  -3.4105020e-04   9.8241769e-01   9.5668836e-01  -1.1882110e+06
   1.6832277e-09  -3.3789527e-04   9.8230124e-01   9.5680983e-01  -1.1772210e+06
   1.6858953e-09  -3.3476951e-04   9.8218588e-01   9.5693019e-01  -1.1663326e+06
   1.6885629e-09  -3.3167266e-04   9.8207159e-01   9.5704945e-01  -1.1555449e+06
   1.6912304e-09  -3.2860446e-04   9.8195837e-01   9.5716761e-01  -1.1448570e+06
   1.6938980e-09  -3.2556463e-04   9.8184621e-01   9.5728469e-01  -1.1342679e+06
   1.6965655e-09  -3.2255292e-04   9.8173509e-01   9.5740070e-01  -1.1237767e+06
   1.6992331e-09  -3.1956907e-04   9.8162501e-01   9.5751565e-01  -1.1133825e+06
   1.7019006e-09  -3.1661282e-04   9.8151595e-01   9.5762954e-01  -1.1030844e+06
   1.7045682e-09  -3.1368391e-04   9.8140792e-01   9.5774239e-01  -1.0928815e+06
   1.7072357e-09  -3.1078209e-04   9.8130089e-01   9.5785421e-01  -1.0827730e+06
   1.7099033e-09  -3.0790711e-04   9.8119486e-01   9.5796500e-01  -1.0727579e+06
   1.7125709e-09  -3.0505872e-04   9.8108981e-01   9.5807477e-01  -1.0628355e+06
   1.7152384e-09  -3.0223668e-04   9.8098575e-01   9.5818354e-01  -1.0530048e+06
   1.7179060e-09  -2.9944075e-04   9.8088266e-01   9.5829131e-01  -1.0432650e+06
   1.7205735e-09  -2.9667067e-04   9.8078053e-01   9.5839810e-01  -1.0336153e+06
   1.7232411e-09  -2.9392621e-04   9.8067935e-01   9.5850391e-01  -1.0240548e+06
   1.7259086e-09  -2.9120714e-04   9.8057911e-01   9.5860874e-01  -1.0145828e+06
   1.7285762e-09  -2.8851322e-04   9.8047981e-01   9.5871262e-01  -1.0051983e+06
   1.7312437e-09  -2.8584422e-04   9.8038143e-01   9.5881554e-01  -9.9590056e+05
   1.7339113e-09  -2.8319991e-04   9.8028397e-01   9.5891752e-01  -9.8668883e+05
   1.7365789e-09  -2.8058005e-04   9.8018742e-01   9.5901856e-01  -9.7756229e+05
   1.7392464e-09  -2.7798443e-04   9.8009177e-01   9.5911867e-01  -9.6852014e+05
   1.7419140e-09  -2.7541281e-04   9.7999701e-01   9.5921787e-01  -9.5956160e+05
   1.7445815e-09  -2.7286498e-04   9.7990313e-01   9.5931616e-01  -9.5068591e+05
   1.7472491e-09  -2.7034072e-04   9.7981013e-01   9.5941355e-01  -9.4189230e+05
   1.7499166e-09  -2.6783981e-04   9.7971799e-01   9.5951004e-01  -9.3318000e+05
   1.7525842e-09  -2.6536203e-04   9.7962671e-01   9.5960565e-01  -9.2454827e+05
   1.7552518e-09  -2.6290717e-04   9.7953628e-01   9.5970037e-01  -9.1599637e+05
   1.7579193e-09  -2.6047502e-04   9.7944670e-01   9.5979424e-01  -9.0752355e+05
   1.7605869e-09  -2.5806536e-04   9.7935795e-01   9.5988723e-01  -8.9912908e+05
   1.7632544e-09  -2.5567800e-04   9.7927002e-01   9.5997938e-01  -8.9081224e+05
   1.7659220e-09  -2.5331271e-04   9.7918292e-01   9.6007068e-01  -8.8257232e+05
   1.7685895e-09  -2.5096931e-04   9.7909662e-01   9.6016114e-01  -8.7440859e+05
   1.7712571e-09  -2.4864758e-04   9.7901113e-01   9.6025077e-01  -8.6632036e+05
   1.7739246e-09  -2.4634732e-04   9.7892644e-01   9.6033958e-01  -8.5830693e+05
   1.7765922e-09  -2.4406835e-04   9.7884253e-01   9.6042757e-01  -8.5036761e+05
   1.7792598e-09  -2.4181045e-04   9.7875940e-01   9.6051476e-01  -8.4250171e+05
   1.7819273e-09  -2.3957344e-04   9.7867705e-01   9.6060114e-01  -8.3470855e+05
   1.7845949e-09  -2.3735713e-04   9.7859547e-01   9.6068673e-01  -8.2698747e+05
   1.7872624e-09  -2.3516131e-04   9.7851464e-01   9.6077153e-01  -8.1933778e+05
   1.7899300e-09  -2.3298580e-04   9.7843457e-01   9.6085556e-01  -8.1175885e+05
   1.7925975e-09  -2.3083042e-04   9.7835524e-01   9.6093881e-01  -8.0425000e+05
   1.7952651e-09  -2.2869498e-04   9.7827665e-01   9.6102130e-01  -7.9681060e+05
   1.7979326e-09  -2.2657929e-04   9.7819879e-01   9.6110303e-01  -7.8943999e+05
   1.8006002e-09  -2.2448317e-04   9.7812166e-01   9.6118401e-01  -7.8213756e+05
   1.8032678e-09  -2.2240644e-04   9.7804524e-01   9.6126425e-01  -7.7490265e+05
   1.8059353e-09  -2.2034892e-04   9.7796954e-01   9.6134375e-01  -7.6773466e+05
   1.8086029e-09  -2.1831043e-04   9.7789454e-01   9.6142252e-01  -7.6063296e+05
   1.8112704e-09  -2.1629080e-04   9.7782023e-01   9.6150056e-01  -7.5359693e+05
   1.8139380e-09  -2.1428985e-04   9.7774662e-01   9.6157789e-01  -7.4662598e+05
   1.8166055e-09  -2.1230740e-04   9.7767369e-01   9.6165450e-01  -7.3971950e+05
   1.8192731e-09  -2.1034330e-04   9.7760145e-01   9.6173042e-01  -7.3287689e+05
   1.8219406e-09  -2.0839737e-04   9.7752987e-01   9.6180563e-01  -7.2609757e+05
   1.8246082e-09  -2.0646944e-04   9.7745896e-01   9.6188015e-01  -7.1938095e+05
   1.8272758e-09  -2.0455934e-04   9.7738871e-01   9.6195399e-01  -7.1272644e+05
   1.8299433e-09  -2.0266691e-04   9.7731911e-01   9.6202715e-01  -7.0613348e+05
   1.8326109e-09  -2.0079198e-04   9.7725016e-01   9.6209963e-01  -6.9960149e+05
   1.8352784e-09  -1.9893440e-04   9.7718185e-01   9.6217145e-01  -6.9312992e+05
   1.8379460e-09  -1.9709400e-04   9.7711418e-01   9.6224261e-01  -6.8671820e+05
   1.8406135e-09  -1.9527063e-04   9.7704713e-01   9.6231312e-01  -6.8036578e+05
   1.8432811e-09  -1.9346412e-04   9.7698071e-01   9.6238298e-01  -6.7407211e+05
   1.8459486e-09  -1.9167433e-04   9.7691491e-01   9.6245219e-01  -6.6783665e+05
   1.8486162e-09  -1.8990109e-04   9.7684972e-01   9.6252077e-01  -6.6165885e+05
   1.8512838e-09  -1.8814425e-04   9.7678513e-01   9.6258871e-01  -6.5553820e+05
   1.8539513e-09  -1.8640367e-04   9.7672114e-01   9.6265603e-01  -6.4947416e+05
   1.8566189e-09  -1.8467918e-04   9.7665775e-01   9.6272274e-01  -6.4346620e+05
   1.8592864e-09  -1.8297065e-04   9.7659495e-01   9.6278883e-01  -6.3751381e+05
   1.8619540e-09  -1.8127793e-04   9.7653274e-01   9.6285431e-01  -6.3161647e+05
   1.8646215e-09  -1.7960086e-04   9.7647110e-01   9.6291918e-01  -6.2577367e+05
   1.8672891e-09  -1.7793931e-04   9.7641003e-01   9.6298347e-01  -6.1998492e+05
   1.8699567e-09  -1.7629313e-04   9.7634953e-01   9.6304716e-01  -6.1424970e+05
   1.8726242e-09  -1.7466217e-04   9.7628960e-01   9.6311026e-01  -6.0856753e+05
   1.8752918e-09  -1.7304630e-04   9.7623022e-01   9.6317278e-01  -6.0293792e+05
   1.8779593e-09  -1.7144538e-04   9.7617139e-01   9.6323473e-01  -5.9736037e+05
   1.8806269e-09  -1.6985927e-04   9.7611311e-01   9.6329611e-01  -5.9183441e+05
   1.8832944e-09  -1.6828783e-04   9.7605537e-01   9.6335692e-01  -5.8635956e+05
   1.8859620e-09  -1.6673093e-04   9.7599817e-01   9.6341717e-01  -5.8093535e+05
   1.8886295e-09  -1.6518843e-04   9.7594149e-01   9.6347687e-01  -5.7556131e+05
   1.8912971e-09  -1.6366021e-04   9.7588535e-01   9.6353602e-01  -5.7023697e+05
   1.8939647e-09  -1.6214611e-04   9.7582973e-01   9.6359462e-01  -5.6496188e+05
   1.8966322e-09  -1.6064603e-04   9.7577462e-01   9.6365269e-01  -5.5973558e+05
   1.8992998e-09  -1.5915982e-04   9.7572003e-01   9.6371022e-01  -5.5455763e+05
   1.9019673e-09  -1.5768736e-04   9.7566594e-01   9.6376722e-01  -5.4942756e+05
   1.9046349e-09  -1.5622852e-04   9.7561235e-01   9.6382369e-01  -5.4434494e+05
   1.9073024e-09  -1.5478318e-04   9.7555927e-01   9.6387965e-01  -5.3930934e+05
   1.9099700e-09  -1.5335120e-04   9.7550667e-01   9.6393509e-01  -5.3432031e+05
   1.9126375e-09  -1.5193248e-04   9.7545457e-01   9.6399002e-01  -5.2937742e+05
   1.9153051e-09  -1.5052687e-04   9.7540295e-01   9.6404444e-01  -5.2448026e+05
   1.9179727e-09  -1.4913427e-04   9.7535180e-01   9.6409837e-01  -5.1962839e+05
   1.9206402e-09  -1.4775456e-04   9.7530114e-01   9.6415179e-01  -5.1482139e+05
   1.9233078e-09  -1.4638761e-04   9.7525094e-01   9.6420473e-01  -5.1005886e+05
   1.9259753e-09  -1.4503330e-04   9.7520121e-01   9.6425717e-01  -5.0534039e+05
   1.9286429e-09  -1.4369152e-04   9.7515194e-01   9.6430914e-01  -5.0066555e+05
   1.9313104e-09  -1.4236215e-04   9.7510313e-01   9.6436062e-01  -4.9603396e+05
   1.9339780e-09  -1.4104508e-04   9.7505477e-01   9.6441163e-01  -4.9144520e+05
   1.9366455e-09  -1.3974020e-04   9.7500687e-01   9.6446217e-01  -4.8689889e+05
   1.9393131e-09  -1.3844739e-04   9.7495940e-01   9.6451225e-01  -4.8239464e+05
   1.9419807e-09  -1.3716653e-04   9.7491238e-01   9.6456186e-01  -4.7793204e+05
   1.9446482e-09  -1.3589753e-04   9.7486579e-01   9.6461102e-01  -4.7351072e+05
   1.9473158e-09  -1.3464026e-04   9.7481964e-01   9.6465972e-01  -4.6913030e+05
   1.9499833e-09  -1.3339463e-04   9.7477391e-01   9.6470798e-01  -4.6479040e+05
   1.9526509e-09  -1.3216052e-04   9.7472861e-01   9.6475579e-01  -4.6049064e+05
   1.9553184e-09  -1.3093783e-04   9.7468373e-01   9.6480316e-01  -4.5623065e+05
   1.9579860e-09  -1.2972644e-04   9.7463927e-01   9.6485009e-01  -4.5201007e+05
   1.9606536e-09  -1.2852627e-04   9.7459522e-01   9.6489659e-01  -4.4782852e+05
   1.9633211e-09  -1.2733719e-04   9.7455158e-01   9.6494266e-01  -4.4368565e+05
   1.9659887e-09  -1.2615912e-04   9.7450834e-01   9.6498831e-01  -4.3958111e+05
   1.9686562e-09  -1.2499195e-04   9.7446550e-01   9.6503354e-01  -4.3551453e+05
   1.9713238e-09  -1.2383557e-04   9.7442306e-01   9.6507835e-01  -4.3148557e+05
   1.9739913e-09  -1.2268989e-04   9.7438102e-01   9.6512274e-01  -4.2749387e+05
   1.9766589e-09  -1.2155481e-04   9.7433937e-01   9.6516673e-01  -4.2353910e+05
   1.9793264e-09  -1.2043023e-04   9.7429810e-01   9.6521031e-01  -4.1962091e+05
   1.9819940e-09  -1.1931605e-04   9.7425722e-01   9.6525350e-01  -4.1573896e+05
   1.9846616e-09  -1.1821218e-04   9.7421671e-01   9.6529628e-01  -4.1189292e+05
   1.9873291e-09  -1.1711853e-04   9.7417658e-01   9.6533867e-01  -4.0808246e+05
   1.9899967e-09  -1.1603499e-04   9.7413682e-01   9.6538066e-01  -4.0430724e+05
   1.9926642e-09  -1.1496147e-04   9.7409744e-01   9.6542227e-01  -4.0056694e+05
   1.9953318e-09  -1.1389789e-04   9.7405841e-01   9.6546350e-01  -3.9686125e+05
   1.9979993e-09  -1.1284414e-04   9.7401975e-01   9.6550435e-01  -3.9318983e+05
   2.0006669e-09  -1.1180014e-04   9.7398145e-01   9.6554482e-01  -3.8955237e+05
   2.0033344e-09  -1.1076581e-04   9.7394351e-01   9.6558491e-01  -3.8594856e+05
   2.0060020e-09  -1.0974104e-04   9.7390591e-01   9.6562464e-01  -3.8237808e+05
   2.0086696e-09  -1.0872575e-04   9.7386867e-01   9.6566400e-01  -3.7884063e+05
   2.0113371e-09  -1.0771985e-04   9.7383177e-01   9.6570300e-01  -3.7533591e+05
   2.0140047e-09  -1.0672326e-04   9.7379521e-01   9.6574164e-01  -3.7186360e+05
   2.0166722e-09  -1.0573589e-04   9.7375899e-01   9.6577992e-01  -3.6842341e+05
   2.0193398e-09  -1.0475765e-04   9.7372311e-01   9.6581785e-01  -3.6501505e+05
   2.0220073e-09  -1.0378846e-04   9.7368756e-01   9.6585543e-01  -3.6163821e+05
   2.0246749e-09  -1.0282824e-04   9.7365234e-01   9.6589266e-01  -3.5829261e+05
   2.0273424e-09  -1.0187690e-04   9.7361745e-01   9.6592955e-01  -3.5497796e+05
   2.0300100e-09  -1.0093437e-04   9.7358288e-01   9.6596610e-01  -3.5169397e+05
   2.0326776e-09  -1.0000055e-04   9.7354863e-01   9.6600231e-01  -3.4844036e+05
   2.0353451e-09  -9.9075373e-05   9.7351470e-01   9.6603819e-01  -3.4521684e+05
   2.0380127e-09  -9.8158754e-05   9.7348109e-01   9.6607373e-01  -3.4202315e+05
   2.0406802e-09  -9.7250615e-05   9.7344778e-01   9.6610895e-01  -3.3885899e+05
   2.0433478e-09  -9.6350877e-05   9.7341479e-01   9.6614385e-01  -3.3572411e+05
   2.0460153e-09  -9.5459463e-05   9.7338210e-01   9.6617842e-01  -3.3261822e+05
   2.0486829e-09  -9.4576296e-05   9.7334971e-01   9.6621267e-01  -3.2954107e+05
   2.0513505e-09  -9.3701300e-05   9.7331763e-01   9.6624661e-01  -3.2649238e+05
   2.0540180e-09  -9.2834398e-05   9.7328584e-01   9.6628023e-01  -3.2347189e+05
   2.0566856e-09  -9.1975516e-05   9.7325434e-01   9.6631355e-01  -3.2047935e+05
   2.0593531e-09  -9.1124580e-05   9.7322314e-01   9.6634655e-01  -3.1751448e+05
   2.0620207e-09  -9.0281516e-05   9.7319223e-01   9.6637926e-01  -3.1457705e+05
   2.0646882e-09  -8.9446252e-05   9.7316161e-01   9.6641166e-01  -3.1166678e+05
   2.0673558e-09  -8.8618715e-05   9.7313127e-01   9.6644376e-01  -3.0878344e+05
   2.0700233e-09  -8.7798834e-05   9.7310121e-01   9.6647556e-01  -3.0592677e+05
   2.0726909e-09  -8.6986538e-05   9.7307142e-01   9.6650707e-01  -3.0309652e+05
   2.0753585e-09  -8.6181757e-05   9.7304192e-01   9.6653829e-01  -3.0029246e+05
   2.0780260e-09  -8.5384421e-05   9.7301269e-01   9.6656923e-01  -2.9751434e+05
   2.0806936e-09  -8.4594462e-05   9.7298373e-01   9.6659988e-01  -2.9476191e+05
   2.0833611e-09  -8.3811811e-05   9.7295504e-01   9.6663024e-01  -2.9203495e+05
   2.0860287e-09  -8.3036401e-05   9.7292661e-01   9.6666032e-01  -2.8933321e+05
   2.0886962e-09  -8.2268164e-05   9.7289845e-01   9.6669013e-01  -2.8665647e+05
   2.0913638e-09  -8.1507034e-05   9.7287055e-01   9.6671966e-01  -2.8400449e+05
   2.0940313e-09  -8.0752946e-05   9.7284291e-01   9.6674892e-01  -2.8137704e+05
   2.0966989e-09  -8.0005835e-05   9.7281552e-01   9.6677791e-01  -2.7877389e+05
   2.0993665e-09  -7.9265635e-05   9.7278839e-01   9.6680663e-01  -2.7619483e+05
   2.1020340e-09  -7.8532283e-05   9.7276151e-01   9.6683509e-01  -2.7363963e+05
   2.1047016e-09  -7.7805716e-05   9.7273488e-01   9.6686328e-01  -2.7110806e+05
   2.1073691e-09  -7.7085871e-05   9.7270849e-01   9.6689122e-01  -2.6859991e+05
   2.1100367e-09  -7.6372685e-05   9.7268235e-01   9.6691889e-01  -2.6611497e+05
   2.1127042e-09  -7.5666097e-05   9.7265645e-01   9.6694631e-01  -2.6365301e+05
   2.1153718e-09  -7.4966046e-05   9.7263080e-01   9.6697348e-01  -2.6121382e+05
   2.1180393e-09  -7.4272472e-05   9.7260538e-01   9.6700039e-01  -2.5879720e+05
   2.1207069e-09  -7.3585315e-05   9.7258019e-01   9.6702706e-01  -2.5640294e+05
   2.1233745e-09  -7.2904514e-05   9.7255524e-01   9.6705348e-01  -2.5403083e+05
   2.1260420e-09  -7.2230012e-05   9.7253052e-01   9.6707966e-01  -2.5168066e+05
   2.1287096e-09  -7.1561750e-05   9.7250603e-01   9.6710560e-01  -2.4935223e+05
   2.1313771e-09  -7.0899671e-05   9.7248177e-01   9.6713129e-01  -2.4704534e+05
   2.1340447e-09  -7.0243717e-05   9.7245773e-01   9.6715675e-01  -2.4475979e+05
   2.1367122e-09  -6.9593831e-05   9.7243391e-01   9.6718198e-01  -2.4249539e+05
   2.1393798e-09  -6.8949958e-05   9.7241032e-01   9.6720697e-01  -2.4025193e+05
   2.1420473e-09  -6.8312042e-05   9.7238694e-01   9.6723173e-01  -2.3802923e+05
   2.1447149e-09  -6.7680028e-05   9.7236378e-01   9.6725626e-01  -2.3582708e+05
   2.1473825e-09  -6.7053860e-05   9.7234084e-01   9.6728057e-01  -2.3364531e+05
   2.1500500e-09  -6.6433486e-05   9.7231811e-01   9.6730465e-01  -2.3148373e+05
   2.1527176e-09  -6.5818851e-05   9.7229559e-01   9.6732851e-01  -2.2934214e+05
   2.1553851e-09  -6.5209902e-05   9.7227327e-01   9.6735215e-01  -2.2722036e+05
   2.1580527e-09  -6.4606587e-05   9.7225117e-01   9.6737557e-01  -2.2511821e+05
   2.1607202e-09  -6.4008854e-05   9.7222927e-01   9.6739877e-01  -2.2303551e+05
   2.1633878e-09  -6.3416651e-05   9.7220757e-01   9.6742176e-01  -2.2097208e+05
   2.1660554e-09  -6.2829926e-05   9.7218607e-01   9.6744454e-01  -2.1892773e+05
   2.1687229e-09  -6.2248630e-05   9.7216477e-01   9.6746711e-01  -2.1690230e+05
   2.1713905e-09  -6.1672712e-05   9.7214367e-01   9.6748946e-01  -2.1489560e+05
   2.1740580e-09  -6.1102122e-05   9.7212277e-01   9.6751162e-01  -2.1290747e+05
   2.1767256e-09  -6.0536810e-05   9.7210206e-01   9.6753356e-01  -2.1093773e+05
   2.1793931e-09  -5.9976729e-05   9.7208154e-01   9.6755531e-01  -2.0898621e+05
   2.1820607e-09  -5.9421829e-05   9.7206121e-01   9.6757685e-01  -2.0705275e+05
   2.1847282e-09  -5.8872064e-05   9.7204107e-01   9.6759820e-01  -2.0513717e+05
   2.1873958e-09  -5.8327384e-05   9.7202111e-01   9.6761935e-01  -2.0323931e+05
   2.1900634e-09  -5.7787744e-05   9.7200134e-01   9.6764030e-01  -2.0135901e+05
   2.1927309e-09  -5.7253096e-05   9.7198176e-01   9.6766106e-01  -1.9949611e+05
   2.1953985e-09  -5.6723394e-05   9.7196235e-01   9.6768163e-01  -1.9765044e+05
   2.1980660e-09  -5.6198593e-05   9.7194313e-01   9.6770200e-01  -1.9582184e+05
   2.2007336e-09  -5.5678648e-05   9.7192408e-01   9.6772219e-01  -1.9401017e+05
   2.2034011e-09  -5.5163513e-05   9.7190521e-01   9.6774220e-01  -1.9221525e+05
   2.2060687e-09  -5.4653143e-05   9.7188652e-01   9.6776202e-01  -1.9043693e+05
   2.2087362e-09  -5.4147496e-05   9.7186800e-01   9.6778165e-01  -1.8867507e+05
   2.2114038e-09  -5.3646526e-05   9.7184964e-01   9.6780110e-01  -1.8692951e+05
   2.2140714e-09  -5.3150191e-05   9.7183146e-01   9.6782038e-01  -1.8520009e+05
   2.2167389e-09  -5.2658449e-05   9.7181345e-01   9.6783947e-01  -1.8348668e+05
   2.2194065e-09  -5.2171255e-05   9.7179561e-01   9.6785839e-01  -1.8178911e+05
   2.2220740e-09  -5.1688570e-05   9.7177793e-01   9.6787714e-01  -1.8010725e+05
   2.2247416e-09  -5.1210349e-05   9.7176041e-01   9.6789571e-01  -1.7844095e+05
   2.2274091e-09  -5.0736553e-05   9.7174306e-01   9.6791411e-01  -1.7679007e+05
   2.2300767e-09  -5.0267141e-05   9.7172586e-01   9.6793234e-01  -1.7515446e+05
   2.2327442e-09  -4.9802071e-05   9.7170883e-01   9.6795040e-01  -1.7353397e+05
   2.2354118e-09  -4.9341304e-05   9.7169196e-01   9.6796830e-01  -1.7192849e+05
   2.2380794e-09  -4.8884800e-05   9.7167524e-01   9.6798603e-01  -1.7033785e+05
   2.2407469e-09  -4.8432520e-05   9.7165867e-01   9.6800359e-01  -1.6876193e+05
   2.2434145e-09  -4.7984424e-05   9.7164226e-01   9.6802100e-01  -1.6720059e+05
   2.2460820e-09  -4.7540473e-05   9.7162600e-01   9.6803824e-01  -1.6565369e+05
   2.2487496e-09  -4.7100630e-05   9.7160989e-01   9.6805532e-01  -1.6412110e+05
   2.2514171e-09  -4.6664856e-05   9.7159393e-01   9.6807225e-01  -1.6260269e+05
   2.2540847e-09  -4.6233114e-05   9.7157812e-01   9.6808902e-01  -1.6109833e+05
   2.2567523e-09  -4.5805366e-05   9.7156246e-01   9.6810563e-01  -1.5960789e+05
   2.2594198e-09  -4.5381576e-05   9.7154694e-01   9.6812209e-01  -1.5813123e+05
   2.2620874e-09  -4.4961706e-05   9.7153156e-01   9.6813840e-01  -1.5666824e+05
   2.2647549e-09  -4.4545721e-05   9.7151633e-01   9.6815456e-01  -1.5521878e+05
   2.2674225e-09  -4.4133585e-05   9.7150123e-01   9.6817057e-01  -1.5378273e+05
   2.2700900e-09  -4.3725261e-05   9.7148628e-01   9.6818643e-01  -1.5235997e+05
   2.2727576e-09  -4.3320716e-05   9.7147147e-01   9.6820214e-01  -1.5095037e+05
   2.2754251e-09  -4.2919913e-05   9.7145679e-01   9.6821771e-01  -1.4955380e+05
   2.2780927e-09  -4.2522818e-05   9.7144225e-01   9.6823314e-01  -1.4817016e+05
   2.2807603e-09  -4.2129397e-05   9.7142784e-01   9.6824842e-01  -1.4679932e+05
   2.2834278e-09  -4.1739616e-05   9.7141357e-01   9.6826356e-01  -1.4544117e+05
   2.2860954e-09  -4.1353441e-05   9.7139943e-01   9.6827856e-01  -1.4409557e+05
   2.2887629e-09  -4.0970839e-05   9.7138542e-01   9.6829343e-01  -1.4276243e+05
   2.2914305e-09  -4.0591777e-05   9.7137154e-01   9.6830815e-01  -1.4144162e+05
   2.2940980e-09  -4.0216221e-05   9.7135779e-01   9.6832274e-01  -1.4013302e+05
   2.2967656e-09  -3.9844140e-05   9.7134416e-01   9.6833720e-01  -1.3883654e+05
   2.2994331e-09  -3.9475502e-05   9.7133066e-01   9.6835152e-01  -1.3755205e+05
   2.3021007e-09  -3.9110274e-05   9.7131729e-01   9.6836570e-01  -1.3627944e+05
   2.3047683e-09  -3.8748426e-05   9.7130404e-01   9.6837976e-01  -1.3501861e+05
   2.3074358e-09  -3.8389925e-05   9.7129091e-01   9.6839369e-01  -1.3376944e+05
   2.3101034e-09  -3.8034740e-05   9.7127791e-01   9.6840749e-01  -1.3253182e+05
   2.3127709e-09  -3.7682842e-05   9.7126502e-01   9.6842116e-01  -1.3130566e+05
   2.3154385e-09  -3.7334200e-05   9.7125226e-01   9.6843471e-01  -1.3009084e+05
   2.3181060e-09  -3.6988783e-05   9.7123961e-01   9.6844813e-01  -1.2888726e+05
   2.3207736e-09  -3.6646562e-05   9.7122708e-01   9.6846142e-01  -1.2769482e+05
   2.3234411e-09  -3.6307507e-05   9.7121467e-01   9.6847460e-01  -1.2651340e+05
   2.3261087e-09  -3.5971589e-05   9.7120237e-01   9.6848765e-01  -1.2534292e+05
   2.3287763e-09  -3.5638779e-05   9.7119019e-01   9.6850058e-01  -1.2418326e+05
   2.3314438e-09  -3.5309048e-05   9.7117811e-01   9.6851339e-01  -1.2303434e+05
   2.3341114e-09  -3.4982368e-05   9.7116615e-01   9.6852608e-01  -1.2189604e+05
   2.3367789e-09  -3.4658710e-05   9.7115430e-01   9.6853866e-01  -1.2076828e+05
   2.3394465e-09  -3.4338046e-05   9.7114256e-01   9.6855112e-01  -1.1965094e+05
   2.3421140e-09  -3.4020349e-05   9.7113093e-01   9.6856346e-01  -1.1854395e+05
   2.3447816e-09  -3.3705592e-05   9.7111941e-01   9.6857569e-01  -1.1744719e+05
   2.3474491e-09  -3.3393747e-05   9.7110799e-01   9.6858781e-01  -1.1636059e+05
   2.3501167e-09  -3.3084786e-05   9.7109668e-01   9.6859981e-01  -1.1528403e+05
   2.3527843e-09  -3.2778684e-05   9.7108548e-01   9.6861171e-01  -1.1421744e+05
   2.3554518e-09  -3.2475415e-05   9.7107437e-01   9.6862349e-01  -1.1316071e+05
   2.3581194e-09  -3.2174951e-05   9.7106337e-01   9.6863517e-01  -1.1211376e+05
   2.3607869e-09  -3.1877267e-05   9.7105248e-01   9.6864673e-01  -1.1107649e+05
   2.3634545e-09  -3.1582337e-05   9.7104168e-01   9.6865819e-01  -1.1004883e+05
   2.3661220e-09  -3.1290135e-05   9.7103098e-01   9.6866955e-01  -1.0903067e+05
   2.3687896e-09  -3.1000638e-05   9.7102038e-01   9.6868080e-01  -1.0802193e+05
   2.3714572e-09  -3.0713818e-05   9.7100988e-01   9.6869194e-01  -1.0702252e+05
   2.3741247e-09  -3.0429652e-05   9.7099948e-01   9.6870298e-01  -1.0603235e+05
   2.3767923e-09  -3.0148115e-05   9.7098918e-01   9.6871393e-01  -1.0505135e+05
   2.3794598e-09  -2.9869183e-05   9.7097897e-01   9.6872476e-01  -1.0407943e+05
   2.3821274e-09  -2.9592832e-05   9.7096885e-01   9.6873550e-01  -1.0311649e+05
   2.3847949e-09  -2.9319038e-05   9.7095883e-01   9.6874614e-01  -1.0216247e+05
   2.3874625e-09  -2.9047776e-05   9.7094890e-01   9.6875668e-01  -1.0121727e+05
   2.3901300e-09  -2.8779024e-05   9.7093906e-01   9.6876713e-01  -1.0028081e+05
   2.3927976e-09  -2.8512759e-05   9.7092931e-01   9.6877748e-01  -9.9353023e+04
   2.3954652e-09  -2.8248957e-05   9.7091966e-01   9.6878773e-01  -9.8433816e+04
   2.3981327e-09  -2.7987596e-05   9.7091009e-01   9.6879789e-01  -9.7523113e+04
   2.4008003e-09  -2.7728653e-05   9.7090061e-01   9.6880795e-01  -9.6620836e+04
   2.4034678e-09  -2.7472106e-05   9.7089122e-01   9.6881792e-01  -9.5726906e+04
   2.4061354e-09  -2.7217932e-05   9.7088192e-01   9.6882780e-01  -9.4841247e+04
   2.4088029e-09  -2.6966110e-05   9.7087270e-01   9.6883758e-01  -9.3963781e+04
   2.4114705e-09  -2.6716617e-05   9.7086357e-01   9.6884728e-01  -9.3094434e+04
   2.4141380e-09  -2.6469433e-05   9.7085452e-01   9.6885689e-01  -9.2233129e+04
   2.4168056e-09  -2.6224536e-05   9.7084555e-01   9.6886640e-01  -9.1379793e+04
   2.4194732e-09  -2.5981905e-05   9.7083667e-01   9.6887583e-01  -9.0534352e+04
   2.4221407e-09  -2.5741518e-05   9.7082787e-01   9.6888518e-01  -8.9696733e+04
   2.4248083e-09  -2.5503356e-05   9.7081916e-01   9.6889443e-01  -8.8866862e+04
   2.4274758e-09  -2.5267397e-05   9.7081052e-01   9.6890360e-01  -8.8044670e+04
   2.4301434e-09  -2.5033621e-05   9.7080196e-01   9.6891269e-01  -8.7230085e+04
   2.4328109e-09  -2.4802008e-05   9.7079349e-01   9.6892169e-01  -8.6423035e+04
   2.4354785e-09  -2.4572538e-05   9.7078509e-01   9.6893061e-01  -8.5623452e+04
   2.4381460e-09  -2.4345191e-05   9.7077677e-01   9.6893944e-01  -8.4831267e+04
   2.4408136e-09  -2.4119947e-05   9.7076852e-01   9.6894820e-01  -8.4046411e+04
   2.4434812e-09  -2.3896787e-05   9.7076035e-01   9.6895687e-01  -8.3268816e+04
   2.4461487e-09  -2.3675692e-05   9.7075226e-01   9.6896547e-01  -8.2498416e+04
   2.4488163e-09  -2.3456643e-05   9.7074425e-01   9.6897398e-01  -8.1735143e+04
   2.4514838e-09  -2.3239620e-05   9.7073630e-01   9.6898242e-01  -8.0978931e+04
   2.4541514e-09  -2.3024605e-05   9.7072843e-01   9.6899077e-01  -8.0229716e+04
   2.4568189e-09  -2.2811579e-05   9.7072064e-01   9.6899905e-01  -7.9487432e+04
   2.4594865e-09  -2.2600524e-05   9.7071291e-01   9.6900726e-01  -7.8752016e+04
   2.4621541e-09  -2.2391422e-05   9.7070526e-01   9.6901538e-01  -7.8023403e+04
   2.4648216e-09  -2.2184255e-05   9.7069768e-01   9.6902344e-01  -7.7301532e+04
   2.4674892e-09  -2.1979004e-05   9.7069016e-01   9.6903141e-01  -7.6586339e+04
   2.4701567e-09  -2.1775652e-05   9.7068272e-01   9.6903932e-01  -7.5877763e+04
   2.4728243e-09  -2.1574182e-05   9.7067535e-01   9.6904715e-01  -7.5175743e+04
   2.4754918e-09  -2.1374576e-05   9.7066804e-01   9.6905491e-01  -7.4480217e+04
   2.4781594e-09  -2.1176816e-05   9.7066081e-01   9.6906259e-01  -7.3791127e+04
   2.4808269e-09  -2.0980886e-05   9.7065364e-01   9.6907021e-01  -7.3108412e+04
   2.4834945e-09  -2.0786769e-05   9.7064653e-01   9.6907776e-01  -7.2432013e+04
   2.4861621e-09  -2.0594448e-05   9.7063949e-01   9.6908523e-01  -7.1761872e+04
   2.4888296e-09  -2.0403906e-05   9.7063252e-01   9.6909264e-01  -7.1097931e+04
   2.4914972e-09  -2.0215127e-05   9.7062561e-01   9.6909998e-01  -7.0440132e+04
   2.4941647e-09  -2.0028094e-05   9.7061877e-01   9.6910725e-01  -6.9788420e+04
   2.4968323e-09  -1.9842792e-05   9.7061198e-01   9.6911445e-01  -6.9142737e+04
   2.4994998e-09  -1.9659205e-05   9.7060527e-01   9.6912159e-01  -6.8503027e+04
   2.5021674e-09  -1.9477316e-05   9.7059861e-01   9.6912866e-01  -6.7869237e+04
   2.5048349e-09  -1.9297110e-05   9.7059201e-01   9.6913566e-01  -6.7241310e+04
   2.5075025e-09  -1.9118571e-05   9.7058548e-01   9.6914260e-01  -6.6619192e+04
   2.5101701e-09  -1.8941684e-05   9.7057901e-01   9.6914948e-01  -6.6002830e+04
   2.5128376e-09  -1.8766433e-05   9.7057259e-01   9.6915629e-01  -6.5392171e+04
   2.5155052e-09  -1.8592804e-05   9.7056624e-01   9.6916304e-01  -6.4787161e+04
   2.5181727e-09  -1.8420781e-05   9.7055994e-01   9.6916973e-01  -6.4187749e+04
   2.5208403e-09  -1.8250350e-05   9.7055371e-01   9.6917635e-01  -6.3593883e+04
   2.5235078e-09  -1.8081496e-05   9.7054753e-01   9.6918292e-01  -6.3005510e+04
   2.5261754e-09  -1.7914204e-05   9.7054141e-01   9.6918942e-01  -6.2422582e+04
   2.5288429e-09  -1.7748460e-05   9.7053534e-01   9.6919586e-01  -6.1845046e+04
   2.5315105e-09  -1.7584249e-05   9.7052933e-01   9.6920225e-01  -6.1272854e+04
   2.5341781e-09  -1.7421558e-05   9.7052338e-01   9.6920857e-01  -6.0705956e+04
   2.5368456e-09  -1.7260371e-05   9.7051748e-01   9.6921484e-01  -6.0144302e+04
   2.5395132e-09  -1.7100676e-05   9.7051164e-01   9.6922104e-01  -5.9587845e+04
   2.5421807e-09  -1.6942459e-05   9.7050585e-01   9.6922719e-01  -5.9036536e+04
   2.5448483e-09  -1.6785705e-05   9.7050011e-01   9.6923329e-01  -5.8490328e+04
   2.5475158e-09  -1.6630402e-05   9.7049443e-01   9.6923933e-01  -5.7949173e+04
   2.5501834e-09  -1.6476536e-05   9.7048880e-01   9.6924531e-01  -5.7413025e+04
   2.5528510e-09  -1.6324093e-05   9.7048322e-01   9.6925123e-01  -5.6881838e+04
   2.5555185e-09  -1.6173060e-05   9.7047769e-01   9.6925711e-01  -5.6355565e+04
   2.5581861e-09  -1.6023425e-05   9.7047222e-01   9.6926292e-01  -5.5834160e+04
   2.5608536e-09  -1.5875175e-05   9.7046679e-01   9.6926869e-01  -5.5317580e+04
   2.5635212e-09  -1.5728295e-05   9.7046142e-01   9.6927440e-01  -5.4805779e+04
   2.5661887e-09  -1.5582775e-05   9.7045609e-01   9.6928005e-01  -5.4298714e+04
   2.5688563e-09  -1.5438602e-05   9.7045082e-01   9.6928566e-01  -5.3796339e+04
   2.5715238e-09  -1.5295762e-05   9.7044559e-01   9.6929121e-01  -5.3298613e+04
   2.5741914e-09  -1.5154243e-05   9.7044041e-01   9.6929671e-01  -5.2805491e+04
   2.5768590e-09  -1.5014034e-05   9.7043528e-01   9.6930216e-01  -5.2316932e+04
   2.5795265e-09  -1.4875123e-05   9.7043020e-01   9.6930756e-01  -5.1832893e+04
   2.5821941e-09  -1.4737496e-05   9.7042516e-01   9.6931292e-01  -5.1353332e+04
   2.5848616e-09  -1.4601143e-05   9.7042017e-01   9.6931822e-01  -5.0878208e+04
   2.5875292e-09  -1.4466051e-05   9.7041523e-01   9.6932347e-01  -5.0407480e+04
   2.5901967e-09  -1.4332210e-05   9.7041033e-01   9.6932867e-01  -4.9941107e+04
   2.5928643e-09  -1.4199606e-05   9.7040548e-01   9.6933383e-01  -4.9479049e+04
   2.5955318e-09  -1.4068230e-05   9.7040067e-01   9.6933894e-01  -4.9021265e+04
   2.5981994e-09  -1.3938068e-05   9.7039591e-01   9.6934400e-01  -4.8567717e+04
   2.6008670e-09  -1.3809112e-05   9.7039119e-01   9.6934901e-01  -4.8118366e+04
   2.6035345e-09  -1.3681348e-05   9.7038652e-01   9.6935398e-01  -4.7673172e+04
   2.6062021e-09  -1.3554766e-05   9.7038188e-01   9.6935890e-01  -4.7232096e+04
   2.6088696e-09  -1.3429356e-05   9.7037730e-01   9.6936377e-01  -4.6795102e+04
   2.6115372e-09  -1.3305106e-05   9.7037275e-01   9.6936860e-01  -4.6362150e+04
   2.6142047e-09  -1.3182005e-05   9.7036824e-01   9.6937339e-01  -4.5933204e+04
   2.6168723e-09  -1.3060043e-05   9.7036378e-01   9.6937813e-01  -4.5508227e+04
   2.6195398e-09  -1.2939210e-05   9.7035936e-01   9.6938283e-01  -4.5087181e+04
   2.6222074e-09  -1.2819495e-05   9.7035498e-01   9.6938748e-01  -4.4670031e+04
   2.6248750e-09  -1.2700887e-05   9.7035064e-01   9.6939210e-01  -4.4256741e+04
   2.6275425e-09  -1.2583377e-05   9.7034634e-01   9.6939667e-01  -4.3847274e+04
   2.6302101e-09  -1.2466953e-05   9.7034208e-01   9.6940119e-01  -4.3441596e+04
   2.6328776e-09  -1.2351608e-05   9.7033786e-01   9.6940568e-01  -4.3039671e+04
   2.6355452e-09  -1.2237329e-05   9.7033368e-01   9.6941012e-01  -4.2641464e+04
   2.6382127e-09  -1.2124107e-05   9.7032954e-01   9.6941452e-01  -4.2246942e+04
   2.6408803e-09  -1.2011933e-05   9.7032543e-01   9.6941888e-01  -4.1856070e+04
   2.6435478e-09  -1.1900797e-05   9.7032137e-01   9.6942320e-01  -4.1468814e+04
   2.6462154e-09  -1.1790689e-05   9.7031734e-01   9.6942749e-01  -4.1085141e+04
   2.6488830e-09  -1.1681600e-05   9.7031335e-01   9.6943173e-01  -4.0705018e+04
   2.6515505e-09  -1.1573520e-05   9.7030939e-01   9.6943593e-01  -4.0328411e+04
   2.6542181e-09  -1.1466441e-05   9.7030547e-01   9.6944009e-01  -3.9955289e+04
   2.6568856e-09  -1.1360351e-05   9.7030159e-01   9.6944422e-01  -3.9585619e+04
   2.6595532e-09  -1.1255244e-05   9.7029775e-01   9.6944830e-01  -3.9219370e+04
   2.6622207e-09  -1.1151109e-05   9.7029394e-01   9.6945235e-01  -3.8856509e+04
   2.6648883e-09  -1.1047937e-05   9.7029016e-01   9.6945636e-01  -3.8497005e+04
   2.6675559e-09  -1.0945720e-05   9.7028642e-01   9.6946034e-01  -3.8140827e+04
   2.6702234e-09  -1.0844449e-05   9.7028272e-01   9.6946428e-01  -3.7787944e+04
   2.6728910e-09  -1.0744114e-05   9.7027905e-01   9.6946818e-01  -3.7438327e+04
   2.6755585e-09  -1.0644708e-05   9.7027541e-01   9.6947204e-01  -3.7091944e+04
   2.6782261e-09  -1.0546222e-05   9.7027180e-01   9.6947587e-01  -3.6748765e+04
   2.6808936e-09  -1.0448646e-05   9.7026823e-01   9.6947967e-01  -3.6408762e+04
   2.6835612e-09  -1.0351974e-05   9.7026470e-01   9.6948343e-01  -3.6071905e+04
   2.6862287e-09  -1.0256196e-05   9.7026119e-01   9.6948715e-01  -3.5738164e+04
   2.6888963e-09  -1.0161304e-05   9.7025772e-01   9.6949084e-01  -3.5407511e+04
   2.6915639e-09  -1.0067290e-05   9.7025428e-01   9.6949449e-01  -3.5079917e+04
   2.6942314e-09  -9.9741462e-06   9.7025087e-01   9.6949812e-01  -3.4755354e+04
   2.6968990e-09  -9.8818639e-06   9.7024750e-01   9.6950170e-01  -3.4433794e+04
   2.6995665e-09  -9.7904354e-06   9.7024415e-01   9.6950526e-01  -3.4115209e+04
   2.7022341e-09  -9.6998528e-06   9.7024084e-01   9.6950878e-01  -3.3799572e+04
   2.7049016e-09  -9.6101083e-06   9.7023756e-01   9.6951227e-01  -3.3486854e+04
   2.7075692e-09  -9.5211942e-06   9.7023430e-01   9.6951573e-01  -3.3177030e+04
   2.7102367e-09  -9.4331026e-06   9.7023108e-01   9.6951915e-01  -3.2870073e+04
   2.7129043e-09  -9.3458261e-06   9.7022789e-01   9.6952255e-01  -3.2565956e+04
   2.7155719e-09  -9.2593571e-06   9.7022472e-01   9.6952591e-01  -3.2264652e+04
   2.7182394e-09  -9.1736881e-06   9.7022159e-01   9.6952924e-01  -3.1966136e+04
   2.7209070e-09  -9.0888117e-06   9.7021848e-01   9.6953254e-01  -3.1670381e+04
   2.7235745e-09  -9.0047207e-06   9.7021541e-01   9.6953581e-01  -3.1377364e+04
   2.7262421e-09  -8.9214076e-06   9.7021236e-01   9.6953905e-01  -3.1087057e+04
   2.7289096e-09  -8.8388654e-06   9.7020934e-01   9.6954226e-01  -3.0799436e+04
   2.7315772e-09  -8.7570868e-06   9.7020635e-01   9.6954544e-01  -3.0514476e+04
   2.7342447e-09  -8.6760649e-06   9.7020338e-01   9.6954859e-01  -3.0232153e+04
   2.7369123e-09  -8.5957926e-06   9.7020045e-01   9.6955171e-01  -2.9952441e+04
   2.7395799e-09  -8.5162630e-06   9.7019754e-01   9.6955480e-01  -2.9675318e+04
   2.7422474e-09  -8.4374692e-06   9.7019465e-01   9.6955787e-01  -2.9400758e+04
   2.7449150e-09  -8.3594044e-06   9.7019180e-01   9.6956090e-01  -2.9128739e+04
   2.7475825e-09  -8.2820618e-06   9.7018897e-01   9.6956391e-01  -2.8859236e+04
   2.7502501e-09  -8.2054349e-06   9.7018616e-01   9.6956689e-01  -2.8592227e+04
   2.7529176e-09  -8.1295169e-06   9.7018339e-01   9.6956984e-01  -2.8327689e+04
   2.7555852e-09  -8.0543013e-06   9.7018063e-01   9.6957277e-01  -2.8065597e+04
   2.7582528e-09  -7.9797817e-06   9.7017791e-01   9.6957567e-01  -2.7805931e+04
   2.7609203e-09  -7.9059515e-06   9.7017521e-01   9.6957854e-01  -2.7548667e+04
   2.7635879e-09  -7.8328043e-06   9.7017253e-01   9.6958138e-01  -2.7293784e+04
   2.7662554e-09  -7.7603340e-06   9.7016988e-01   9.6958420e-01  -2.7041258e+04
   2.7689230e-09  -7.6885341e-06   9.7016725e-01   9.6958699e-01  -2.6791069e+04
   2.7715905e-09  -7.6173986e-06   9.7016465e-01   9.6958976e-01  -2.6543195e+04
   2.7742581e-09  -7.5469212e-06   9.7016207e-01   9.6959250e-01  -2.6297614e+04
   2.7769256e-09  -7.4770958e-06   9.7015952e-01   9.6959521e-01  -2.6054305e+04
   2.7795932e-09  -7.4079165e-06   9.7015699e-01   9.6959790e-01  -2.5813247e+04
   2.7822608e-09  -7.3393773e-06   9.7015448e-01   9.6960057e-01  -2.5574420e+04
   2.7849283e-09  -7.2714722e-06   9.7015200e-01   9.6960321e-01  -2.5337802e+04
   2.7875959e-09  -7.2041953e-06   9.7014953e-01   9.6960583e-01  -2.5103374e+04
   2.7902634e-09  -7.1375410e-06   9.7014710e-01   9.6960842e-01  -2.4871114e+04
   2.7929310e-09  -7.0715033e-06   9.7014468e-01   9.6961098e-01  -2.4641003e+04
   2.7955985e-09  -7.0060766e-06   9.7014229e-01   9.6961353e-01  -2.4413021e+04
   2.7982661e-09  -6.9412552e-06   9.7013991e-01   9.6961605e-01  -2.4187149e+04
   2.8009336e-09  -6.8770336e-06   9.7013757e-01   9.6961855e-01  -2.3963366e+04
   2.8036012e-09  -6.8134061e-06   9.7013524e-01   9.6962102e-01  -2.3741654e+04
   2.8062688e-09  -6.7503674e-06   9.7013293e-01   9.6962347e-01  -2.3521993e+04
   2.8089363e-09  -6.6879118e-06   9.7013065e-01   9.6962590e-01  -2.3304365e+04
   2.8116039e-09  -6.6260342e-06   9.7012838e-01   9.6962831e-01  -2.3088749e+04
   2.8142714e-09  -6.5647290e-06   9.7012614e-01   9.6963069e-01  -2.2875129e+04
   2.8169390e-09  -6.5039911e-06   9.7012392e-01   9.6963305e-01  -2.2663485e+04
   2.8196065e-09  -6.4438150e-06   9.7012172e-01   9.6963539e-01  -2.2453800e+04
   2.8222741e-09  -6.3841958e-06   9.7011954e-01   9.6963771e-01  -2.2246054e+04
   2.8249416e-09  -6.3251282e-06   9.7011737e-01   9.6964001e-01  -2.2040231e+04
   2.8276092e-09  -6.2666070e-06   9.7011523e-01   9.6964228e-01  -2.1836311e+04
   2.8302768e-09  -6.2086273e-06   9.7011311e-01   9.6964454e-01  -2.1634279e+04
   2.8329443e-09  -6.1511841e-06   9.7011101e-01   9.6964677e-01  -2.1434116e+04
   2.8356119e-09  -6.0942723e-06   9.7010893e-01   9.6964899e-01  -2.1235804e+04
   2.8382794e-09  -6.0378870e-06   9.7010687e-01   9.6965118e-01  -2.1039327e+04
   2.8409470e-09  -5.9820235e-06   9.7010482e-01   9.6965335e-01  -2.0844669e+04
   2.8436145e-09  -5.9266768e-06   9.7010280e-01   9.6965550e-01  -2.0651811e+04
   2.8462821e-09  -5.8718422e-06   9.7010079e-01   9.6965764e-01  -2.0460737e+04
   2.8489496e-09  -5.8175149e-06   9.7009880e-01   9.6965975e-01  -2.0271432e+04
   2.8516172e-09  -5.7636903e-06   9.7009684e-01   9.6966184e-01  -2.0083878e+04
   2.8542848e-09  -5.7103636e-06   9.7009488e-01   9.6966392e-01  -1.9898059e+04
   2.8569523e-09  -5.6575304e-06   9.7009295e-01   9.6966597e-01  -1.9713959e+04
   2.8596199e-09  -5.6051859e-06   9.7009104e-01   9.6966801e-01  -1.9531563e+04
   2.8622874e-09  -5.5533258e-06   9.7008914e-01   9.6967002e-01  -1.9350854e+04
   2.8649550e-09  -5.5019455e-06   9.7008726e-01   9.6967202e-01  -1.9171817e+04
   2.8676225e-09  -5.4510406e-06   9.7008540e-01   9.6967400e-01  -1.8994437e+04
   2.8702901e-09  -5.4006066e-06   9.7008355e-01   9.6967596e-01  -1.8818697e+04
   2.8729577e-09  -5.3506393e-06   9.7008172e-01   9.6967791e-01  -1.8644584e+04
   2.8756252e-09  -5.3011342e-06   9.7007991e-01   9.6967983e-01  -1.8472081e+04
   2.8782928e-09  -5.2520872e-06   9.7007812e-01   9.6968174e-01  -1.8301175e+04
   2.8809603e-09  -5.2034940e-06   9.7007634e-01   9.6968363e-01  -1.8131850e+04
   2.8836279e-09  -5.1553504e-06   9.7007458e-01   9.6968550e-01  -1.7964091e+04
   2.8862954e-09  -5.1076522e-06   9.7007284e-01   9.6968735e-01  -1.7797885e+04
   2.8889630e-09  -5.0603953e-06   9.7007111e-01   9.6968919e-01  -1.7633216e+04
   2.8916305e-09  -5.0135757e-06   9.7006939e-01   9.6969101e-01  -1.7470071e+04
   2.8942981e-09  -4.9671892e-06   9.7006770e-01   9.6969282e-01  -1.7308435e+04
   2.8969657e-09  -4.9212319e-06   9.7006602e-01   9.6969460e-01  -1.7148295e+04
   2.8996332e-09  -4.8756998e-06   9.7006435e-01   9.6969637e-01  -1.6989637e+04
   2.9023008e-09  -4.8305890e-06   9.7006270e-01   9.6969813e-01  -1.6832446e+04
   2.9049683e-09  -4.7858955e-06   9.7006107e-01   9.6969987e-01  -1.6676710e+04
   2.9076359e-09  -4.7416156e-06   9.7005945e-01   9.6970159e-01  -1.6522414e+04
   2.9103034e-09  -4.6977453e-06   9.7005784e-01   9.6970330e-01  -1.6369546e+04
   2.9129710e-09  -4.6542810e-06   9.7005625e-01   9.6970499e-01  -1.6218093e+04
   2.9156385e-09  -4.6112187e-06   9.7005468e-01   9.6970666e-01  -1.6068040e+04
   2.9183061e-09  -4.5685549e-06   9.7005311e-01   9.6970832e-01  -1.5919376e+04
   2.9209737e-09  -4.5262859e-06   9.7005157e-01   9.6970996e-01  -1.5772088e+04
   2.9236412e-09  -4.4844079e-06   9.7005004e-01   9.6971159e-01  -1.5626162e+04
   2.9263088e-09  -4.4429174e-06   9.7004852e-01   9.6971321e-01  -1.5481586e+04
   2.9289763e-09  -4.4018107e-06   9.7004701e-01   9.6971480e-01  -1.5338348e+04
   2.9316439e-09  -4.3610844e-06   9.7004553e-01   9.6971639e-01  -1.5196436e+04
   2.9343114e-09  -4.3207349e-06   9.7004405e-01   9.6971796e-01  -1.5055836e+04
   2.9369790e-09  -4.2807586e-06   9.7004259e-01   9.6971951e-01  -1.4916537e+04
   2.9396465e-09  -4.2411523e-06   9.7004114e-01   9.6972105e-01  -1.4778527e+04
   2.9423141e-09  -4.2019124e-06   9.7003970e-01   9.6972258e-01  -1.4641794e+04
   2.9449817e-09  -4.1630356e-06   9.7003828e-01   9.6972409e-01  -1.4506325e+04
   2.9476492e-09  -4.1245184e-06   9.7003687e-01   9.6972559e-01  -1.4372111e+04
   2.9503168e-09  -4.0863577e-06   9.7003548e-01   9.6972707e-01  -1.4239138e+04
   2.9529843e-09  -4.0485500e-06   9.7003409e-01   9.6972854e-01  -1.4107395e+04
   2.9556519e-09  -4.0110921e-06   9.7003272e-01   9.6973000e-01  -1.3976871e+04
   2.9583194e-09  -3.9739807e-06   9.7003136e-01   9.6973144e-01  -1.3847555e+04
   2.9609870e-09  -3.9372127e-06   9.7003002e-01   9.6973287e-01  -1.3719435e+04
   2.9636546e-09  -3.9007849e-06   9.7002869e-01   9.6973429e-01  -1.3592501e+04
   2.9663221e-09  -3.8646942e-06   9.7002737e-01   9.6973569e-01  -1.3466741e+04
   2.9689897e-09  -3.8289373e-06   9.7002606e-01   9.6973708e-01  -1.3342144e+04
   2.9716572e-09  -3.7935113e-06   9.7002476e-01   9.6973846e-01  -1.3218700e+04
   2.9743248e-09  -3.7584131e-06   9.7002348e-01   9.6973983e-01  -1.3096399e+04
   2.9769923e-09  -3.7236396e-06   9.7002221e-01   9.6974118e-01  -1.2975229e+04
   2.9796599e-09  -3.6891878e-06   9.7002095e-01   9.6974252e-01  -1.2855180e+04
   2.9823274e-09  -3.6550548e-06   9.7001970e-01   9.6974385e-01  -1.2736242e+04
   2.9849950e-09  -3.6212375e-06   9.7001846e-01   9.6974516e-01  -1.2618404e+04
   2.9876626e-09  -3.5877332e-06   9.7001724e-01   9.6974646e-01  -1.2501656e+04
   2.9903301e-09  -3.5545388e-06   9.7001602e-01   9.6974775e-01  -1.2385989e+04
   2.9929977e-09  -3.5216516e-06   9.7001482e-01   9.6974903e-01  -1.2271392e+04
   2.9956652e-09  -3.4890687e-06   9.7001363e-01   9.6975030e-01  -1.2157855e+04
   2.9983328e-09  -3.4567872e-06   9.7001245e-01   9.6975156e-01  -1.2045369e+04
   3.0010003e-09  -3.4248043e-06   9.7001128e-01   9.6975280e-01  -1.1933923e+04
   3.0036679e-09  -3.3931174e-06   9.7001012e-01   9.6975403e-01  -1.1823508e+04
   3.0063354e-09  -3.3617237e-06   9.7000897e-01   9.6975525e-01  -1.1714115e+04
   3.0090030e-09  -3.3306204e-06   9.7000783e-01   9.6975646e-01  -1.1605734e+04
   3.0116706e-09  -3.2998049e-06   9.7000670e-01   9.6975766e-01  -1.1498356e+04
   3.0143381e-09  -3.2692745e-06   9.7000559e-01   9.6975885e-01  -1.1391971e+04
   3.0170057e-09  -3.2390266e-06   9.7000448e-01   9.6976003e-01  -1.1286571e+04
   3.0196732e-09  -3.2090585e-06   9.7000338e-01   9.6976119e-01  -1.1182146e+04
   3.0223408e-09  -3.1793678e-06   9.7000230e-01   9.6976235e-01  -1.1078687e+04
   3.0250083e-09  -3.1499517e-06   9.7000122e-01   9.6976349e-01  -1.0976185e+04
   3.0276759e-09  -3.1208077e-06   9.7000015e-01   9.6976462e-01  -1.0874631e+04
   3.0303434e-09  -3.0919335e-06   9.6999910e-01   9.6976575e-01  -1.0774017e+04
   3.0330110e-09  -3.0633263e-06   9.6999805e-01   9.6976686e-01  -1.0674334e+04
   3.0356786e-09  -3.0349839e-06   9.6999702e-01   9.6976796e-01  -1.0575574e+04
   3.0383461e-09  -3.0069036e-06   9.6999599e-01   9.6976905e-01  -1.0477727e+04
   3.0410137e-09  -2.9790832e-06   9.6999497e-01   9.6977013e-01  -1.0380785e+04
   3.0436812e-09  -2.9515202e-06   9.6999396e-01   9.6977121e-01  -1.0284740e+04
   3.0463488e-09  -2.9242122e-06   9.6999296e-01   9.6977227e-01  -1.0189584e+04
   3.0490163e-09  -2.8971568e-06   9.6999197e-01   9.6977332e-01  -1.0095308e+04
   3.0516839e-09  -2.8703518e-06   9.6999099e-01   9.6977436e-01  -1.0001905e+04
   3.0543515e-09  -2.8437948e-06   9.6999002e-01   9.6977540e-01  -9.9093654e+03
   3.0570190e-09  -2.8174835e-06   9.6998906e-01   9.6977642e-01  -9.8176823e+03
   3.0596866e-09  -2.7914156e-06   9.6998811e-01   9.6977743e-01  -9.7268474e+03
   3.0623541e-09  -2.7655889e-06   9.6998716e-01   9.6977844e-01  -9.6368530e+03
   3.0650217e-09  -2.7400012e-06   9.6998622e-01   9.6977943e-01  -9.5476912e+03
   3.0676892e-09  -2.7146502e-06   9.6998530e-01   9.6978042e-01  -9.4593543e+03
   3.0703568e-09  -2.6895337e-06   9.6998438e-01   9.6978140e-01  -9.3718347e+03
   3.0730243e-09  -2.6646497e-06   9.6998347e-01   9.6978236e-01  -9.2851249e+03
   3.0756919e-09  -2.6399959e-06   9.6998257e-01   9.6978332e-01  -9.1992173e+03
   3.0783595e-09  -2.6155701e-06   9.6998167e-01   9.6978427e-01  -9.1141046e+03
   3.0810270e-09  -2.5913704e-06   9.6998079e-01   9.6978521e-01  -9.0297793e+03
   3.0836946e-09  -2.5673946e-06   9.6997991e-01   9.6978615e-01  -8.9462342e+03
   3.0863621e-09  -2.5436405e-06   9.6997904e-01   9.6978707e-01  -8.8634621e+03
   3.0890297e-09  -2.5201063e-06   9.6997818e-01   9.6978798e-01  -8.7814559e+03
   3.0916972e-09  -2.4967898e-06   9.6997733e-01   9.6978889e-01  -8.7002083e+03
   3.0943648e-09  -2.4736891e-06   9.6997648e-01   9.6978979e-01  -8.6197125e+03
   3.0970323e-09  -2.4508020e-06   9.6997565e-01   9.6979068e-01  -8.5399614e+03
   3.0996999e-09  -2.4281268e-06   9.6997482e-01   9.6979156e-01  -8.4609482e+03
   3.1023675e-09  -2.4056613e-06   9.6997399e-01   9.6979244e-01  -8.3826660e+03
   3.1050350e-09  -2.3834037e-06   9.6997318e-01   9.6979330e-01  -8.3051081e+03
   3.1077026e-09  -2.3613520e-06   9.6997237e-01   9.6979416e-01  -8.2282678e+03
   3.1103701e-09  -2.3395043e-06   9.6997157e-01   9.6979501e-01  -8.1521385e+03
   3.1130377e-09  -2.3178588e-06   9.6997078e-01   9.6979585e-01  -8.0767134e+03
   3.1157052e-09  -2.2964135e-06   9.6997000e-01   9.6979668e-01  -8.0019863e+03
   3.1183728e-09  -2.2751667e-06   9.6996922e-01   9.6979751e-01  -7.9279505e+03
   3.1210403e-09  -2.2541164e-06   9.6996845e-01   9.6979833e-01  -7.8545997e+03
   3.1237079e-09  -2.2332609e-06   9.6996769e-01   9.6979914e-01  -7.7819276e+03
   3.1263755e-09  -2.2125983e-06   9.6996693e-01   9.6979994e-01  -7.7099278e+03
   3.1290430e-09  -2.1921270e-06   9.6996618e-01   9.6980074e-01  -7.6385942e+03
   3.1317106e-09  -2.1718450e-06   9.6996544e-01   9.6980153e-01  -7.5679206e+03
   3.1343781e-09  -2.1517507e-06   9.6996471e-01   9.6980231e-01  -7.4979008e+03
   3.1370457e-09  -2.1318423e-06   9.6996398e-01   9.6980309e-01  -7.4285289e+03
   3.1397132e-09  -2.1121181e-06   9.6996326e-01   9.6980385e-01  -7.3597989e+03
   3.1423808e-09  -2.0925764e-06   9.6996254e-01   9.6980461e-01  -7.2917047e+03
   3.1450483e-09  -2.0732155e-06   9.6996183e-01   9.6980537e-01  -7.2242406e+03
   3.1477159e-09  -2.0540337e-06   9.6996113e-01   9.6980611e-01  -7.1574006e+03
   3.1503835e-09  -2.0350294e-06   9.6996044e-01   9.6980685e-01  -7.0911791e+03
   3.1530510e-09  -2.0162009e-06   9.6995975e-01   9.6980758e-01  -7.0255702e+03
   3.1557186e-09  -1.9975466e-06   9.6995907e-01   9.6980831e-01  -6.9605684e+03
   3.1583861e-09  -1.9790650e-06   9.6995839e-01   9.6980903e-01  -6.8961680e+03
   3.1610537e-09  -1.9607543e-06   9.6995772e-01   9.6980974e-01  -6.8323634e+03
   3.1637212e-09  -1.9426130e-06   9.6995706e-01   9.6981044e-01  -6.7691492e+03
   3.1663888e-09  -1.9246396e-06   9.6995640e-01   9.6981114e-01  -6.7065198e+03
   3.1690564e-09  -1.9068325e-06   9.6995575e-01   9.6981184e-01  -6.6444699e+03
   3.1717239e-09  -1.8891901e-06   9.6995510e-01   9.6981252e-01  -6.5829940e+03
   3.1743915e-09  -1.8717110e-06   9.6995446e-01   9.6981320e-01  -6.5220870e+03
   3.1770590e-09  -1.8543935e-06   9.6995383e-01   9.6981388e-01  -6.4617435e+03
   3.1797266e-09  -1.8372363e-06   9.6995320e-01   9.6981454e-01  -6.4019583e+03
   3.1823941e-09  -1.8202379e-06   9.6995258e-01   9.6981520e-01  -6.3427262e+03
   3.1850617e-09  -1.8033967e-06   9.6995196e-01   9.6981586e-01  -6.2840422e+03
   3.1877292e-09  -1.7867113e-06   9.6995135e-01   9.6981651e-01  -6.2259011e+03
   3.1903968e-09  -1.7701803e-06   9.6995075e-01   9.6981715e-01  -6.1682979e+03
   3.1930644e-09  -1.7538023e-06   9.6995015e-01   9.6981779e-01  -6.1112277e+03
   3.1957319e-09  -1.7375758e-06   9.6994956e-01   9.6981842e-01  -6.0546855e+03
   3.1983995e-09  -1.7214994e-06   9.6994897e-01   9.6981904e-01  -5.9986665e+03
   3.2010670e-09  -1.7055718e-06   9.6994839e-01   9.6981966e-01  -5.9431657e+03
   3.2037346e-09  -1.6897915e-06   9.6994781e-01   9.6982028e-01  -5.8881785e+03
   3.2064021e-09  -1.6741572e-06   9.6994724e-01   9.6982089e-01  -5.8337000e+03
   3.2090697e-09  -1.6586676e-06   9.6994667e-01   9.6982149e-01  -5.7797256e+03
   3.2117372e-09  -1.6433213e-06   9.6994611e-01   9.6982209e-01  -5.7262505e+03
   3.2144048e-09  -1.6281170e-06   9.6994555e-01   9.6982268e-01  -5.6732702e+03
   3.2170724e-09  -1.6130533e-06   9.6994500e-01   9.6982326e-01  -5.6207801e+03
   3.2197399e-09  -1.5981291e-06   9.6994446e-01   9.6982384e-01  -5.5687756e+03
   3.2224075e-09  -1.5833429e-06   9.6994392e-01   9.6982442e-01  -5.5172523e+03
   3.2250750e-09  -1.5686935e-06   9.6994338e-01   9.6982499e-01  -5.4662056e+03
   3.2277426e-09  -1.5541796e-06   9.6994285e-01   9.6982555e-01  -5.4156313e+03
   3.2304101e-09  -1.5398001e-06   9.6994232e-01   9.6982611e-01  -5.3655249e+03
   3.2330777e-09  -1.5255535e-06   9.6994180e-01   9.6982667e-01  -5.3158821e+03
   3.2357452e-09  -1.5114388e-06   9.6994129e-01   9.6982721e-01  -5.2666986e+03
   3.2384128e-09  -1.4974547e-06   9.6994077e-01   9.6982776e-01  -5.2179701e+03
   3.2410804e-09  -1.4836000e-06   9.6994027e-01   9.6982830e-01  -5.1696925e+03
   3.2437479e-09  -1.4698734e-06   9.6993976e-01   9.6982883e-01  -5.1218616e+03
   3.2464155e-09  -1.4562739e-06   9.6993927e-01   9.6982936e-01  -5.0744732e+03
   3.2490830e-09  -1.4428002e-06   9.6993877e-01   9.6982988e-01  -5.0275232e+03
   3.2517506e-09  -1.4294511e-06   9.6993829e-01   9.6983040e-01  -4.9810076e+03
   3.2544181e-09  -1.4162255e-06   9.6993780e-01   9.6983092e-01  -4.9349224e+03
   3.2570857e-09  -1.4031224e-06   9.6993732e-01   9.6983143e-01  -4.8892636e+03
   3.2597533e-09  -1.3901404e-06   9.6993685e-01   9.6983193e-01  -4.8440273e+03
   3.2624208e-09  -1.3772786e-06   9.6993638e-01   9.6983243e-01  -4.7992094e+03
   3.2650884e-09  -1.3645357e-06   9.6993591e-01   9.6983293e-01  -4.7548063e+03
   3.2677559e-09  -1.3519108e-06   9.6993545e-01   9.6983342e-01  -4.7108139e+03
   3.2704235e-09  -1.3394026e-06   9.6993499e-01   9.6983391e-01  -4.6672286e+03
   3.2730910e-09  -1.3270102e-06   9.6993454e-01   9.6983439e-01  -4.6240465e+03
   3.2757586e-09  -1.3147325e-06   9.6993409e-01   9.6983486e-01  -4.5812640e+03
   3.2784261e-09  -1.3025683e-06   9.6993364e-01   9.6983534e-01  -4.5388773e+03
   3.2810937e-09  -1.2905167e-06   9.6993320e-01   9.6983581e-01  -4.4968828e+03
   3.2837613e-09  -1.2785766e-06   9.6993277e-01   9.6983627e-01  -4.4552768e+03
   3.2864288e-09  -1.2667470e-06   9.6993233e-01   9.6983673e-01  -4.4140558e+03
   3.2890964e-09  -1.2550268e-06   9.6993191e-01   9.6983719e-01  -4.3732161e+03
   3.2917639e-09  -1.2434150e-06   9.6993148e-01   9.6983764e-01  -4.3327543e+03
   3.2944315e-09  -1.2319107e-06   9.6993106e-01   9.6983809e-01  -4.2926668e+03
   3.2970990e-09  -1.2205128e-06   9.6993064e-01   9.6983853e-01  -4.2529503e+03
   3.2997666e-09  -1.2092204e-06   9.6993023e-01   9.6983897e-01  -4.2136012e+03
   3.3024341e-09  -1.1980325e-06   9.6992982e-01   9.6983940e-01  -4.1746162e+03
   3.3051017e-09  -1.1869481e-06   9.6992942e-01   9.6983983e-01  -4.1359919e+03
   3.3077693e-09  -1.1759662e-06   9.6992901e-01   9.6984026e-01  -4.0977249e+03
   3.3104368e-09  -1.1650859e-06   9.6992862e-01   9.6984069e-01  -4.0598120e+03
   3.3131044e-09  -1.1543063e-06   9.6992822e-01   9.6984110e-01  -4.0222499e+03
   3.3157719e-09  -1.1436265e-06   9.6992783e-01   9.6984152e-01  -3.9850353e+03
   3.3184395e-09  -1.1330454e-06   9.6992744e-01   9.6984193e-01  -3.9481650e+03
   3.3211070e-09  -1.1225623e-06   9.6992706e-01   9.6984234e-01  -3.9116358e+03
   3.3237746e-09  -1.1121761e-06   9.6992668e-01   9.6984274e-01  -3.8754446e+03
   3.3264421e-09  -1.1018860e-06   9.6992630e-01   9.6984314e-01  -3.8395883e+03
   3.3291097e-09  -1.0916912e-06   9.6992593e-01   9.6984354e-01  -3.8040637e+03
   3.3317773e-09  -1.0815906e-06   9.6992556e-01   9.6984393e-01  -3.7688678e+03
   3.3344448e-09  -1.0715836e-06   9.6992520e-01   9.6984432e-01  -3.7339975e+03
   3.3371124e-09  -1.0616691e-06   9.6992483e-01   9.6984471e-01  -3.6994499e+03
   3.3397799e-09  -1.0518463e-06   9.6992447e-01   9.6984509e-01  -3.6652219e+03
   3.3424475e-09  -1.0421144e-06   9.6992412e-01   9.6984547e-01  -3.6313106e+03
   3.3451150e-09  -1.0324726e-06   9.6992377e-01   9.6984584e-01  -3.5977130e+03
   3.3477826e-09  -1.0229199e-06   9.6992342e-01   9.6984621e-01  -3.5644263e+03
   3.3504502e-09  -1.0134557e-06   9.6992307e-01   9.6984658e-01  -3.5314475e+03
   3.3531177e-09  -1.0040790e-06   9.6992273e-01   9.6984695e-01  -3.4987739e+03
   3.3557853e-09  -9.9478906e-07   9.6992239e-01   9.6984731e-01  -3.4664026e+03
   3.3584528e-09  -9.8558508e-07   9.6992205e-01   9.6984767e-01  -3.4343308e+03
   3.3611204e-09  -9.7646626e-07   9.6992172e-01   9.6984802e-01  -3.4025557e+03
   3.3637879e-09  -9.6743181e-07   9.6992139e-01   9.6984837e-01  -3.3710746e+03
   3.3664555e-09  -9.5848094e-07   9.6992106e-01   9.6984872e-01  -3.3398848e+03
   3.3691230e-09  -9.4961289e-07   9.6992073e-01   9.6984907e-01  -3.3089836e+03
   3.3717906e-09  -9.4082689e-07   9.6992041e-01   9.6984941e-01  -3.2783683e+03
   3.3744582e-09  -9.3212218e-07   9.6992009e-01   9.6984975e-01  -3.2480362e+03
   3.3771257e-09  -9.2349800e-07   9.6991978e-01   9.6985008e-01  -3.2179847e+03
   3.3797933e-09  -9.1495362e-07   9.6991947e-01   9.6985041e-01  -3.1882113e+03
   3.3824608e-09  -9.0648830e-07   9.6991916e-01   9.6985074e-01  -3.1587134e+03
   3.3851284e-09  -8.9810129e-07   9.6991885e-01   9.6985107e-01  -3.1294884e+03
   3.3877959e-09  -8.8979188e-07   9.6991855e-01   9.6985139e-01  -3.1005338e+03
   3.3904635e-09  -8.8155936e-07   9.6991825e-01   9.6985171e-01  -3.0718471e+03
   3.3931310e-09  -8.7340300e-07   9.6991795e-01   9.6985203e-01  -3.0434257e+03
   3.3957986e-09  -8.6532211e-07   9.6991765e-01   9.6985234e-01  -3.0152674e+03
   3.3984662e-09  -8.5731598e-07   9.6991736e-01   9.6985266e-01  -2.9873696e+03
   3.4011337e-09  -8.4938393e-07   9.6991707e-01   9.6985296e-01  -2.9597299e+03
   3.4038013e-09  -8.4152526e-07   9.6991678e-01   9.6985327e-01  -2.9323459e+03
   3.4064688e-09  -8.3373931e-07   9.6991650e-01   9.6985357e-01  -2.9052153e+03
   3.4091364e-09  -8.2602539e-07   9.6991621e-01   9.6985387e-01  -2.8783357e+03
   3.4118039e-09  -8.1838285e-07   9.6991593e-01   9.6985417e-01  -2.8517048e+03
   3.4144715e-09  -8.1081101e-07   9.6991566e-01   9.6985446e-01  -2.8253202e+03
   3.4171390e-09  -8.0330923e-07   9.6991538e-01   9.6985476e-01  -2.7991798e+03
   3.4198066e-09  -7.9587686e-07   9.6991511e-01   9.6985504e-01  -2.7732813e+03
   3.4224742e-09  -7.8851325e-07   9.6991484e-01   9.6985533e-01  -2.7476224e+03
   3.4251417e-09  -7.8121778e-07   9.6991457e-01   9.6985562e-01  -2.7222009e+03
   3.4278093e-09  -7.7398980e-07   9.6991431e-01   9.6985590e-01  -2.6970145e+03
   3.4304768e-09  -7.6682869e-07   9.6991405e-01   9.6985617e-01  -2.6720612e+03
   3.4331444e-09  -7.5973385e-07   9.6991379e-01   9.6985645e-01  -2.6473388e+03
   3.4358119e-09  -7.5270464e-07   9.6991353e-01   9.6985672e-01  -2.6228452e+03
   3.4384795e-09  -7.4574047e-07   9.6991328e-01   9.6985699e-01  -2.5985781e+03
   3.4411470e-09  -7.3884074e-07   9.6991302e-01   9.6985726e-01  -2.5745356e+03
   3.4438146e-09  -7.3200484e-07   9.6991277e-01   9.6985753e-01  -2.5507155e+03
   3.4464822e-09  -7.2523219e-07   9.6991253e-01   9.6985779e-01  -2.5271158e+03
   3.4491497e-09  -7.1852220e-07   9.6991228e-01   9.6985805e-01  -2.5037344e+03
   3.4518173e-09  -7.1187430e-07   9.6991204e-01   9.6985831e-01  -2.4805694e+03
   3.4544848e-09  -7.0528790e-07   9.6991180e-01   9.6985857e-01  -2.4576187e+03
   3.4571524e-09  -6.9876244e-07   9.6991156e-01   9.6985882e-01  -2.4348803e+03
   3.4598199e-09  -6.9229735e-07   9.6991132e-01   9.6985907e-01  -2.4123523e+03
   3.4624875e-09  -6.8589208e-07   9.6991109e-01   9.6985932e-01  -2.3900328e+03
   3.4651551e-09  -6.7954608e-07   9.6991086e-01   9.6985957e-01  -2.3679198e+03
   3.4678226e-09  -6.7325878e-07   9.6991063e-01   9.6985981e-01  -2.3460113e+03
   3.4704902e-09  -6.6702966e-07   9.6991040e-01   9.6986006e-01  -2.3243056e+03
   3.4731577e-09  -6.6085818e-07   9.6991017e-01   9.6986030e-01  -2.3028006e+03
   3.4758253e-09  -6.5474379e-07   9.6990995e-01   9.6986053e-01  -2.2814947e+03
   3.4784928e-09  -6.4868597e-07   9.6990973e-01   9.6986077e-01  -2.2603859e+03
   3.4811604e-09  -6.4268420e-07   9.6990951e-01   9.6986100e-01  -2.2394723e+03
   3.4838279e-09  -6.3673796e-07   9.6990929e-01   9.6986123e-01  -2.2187523e+03
   3.4864955e-09  -6.3084674e-07   9.6990907e-01   9.6986146e-01  -2.1982240e+03
   3.4891631e-09  -6.2501002e-07   9.6990886e-01   9.6986169e-01  -2.1778856e+03
   3.4918306e-09  -6.1922731e-07   9.6990865e-01   9.6986192e-01  -2.1577354e+03
   3.4944982e-09  -6.1349810e-07   9.6990844e-01   9.6986214e-01  -2.1377716e+03
   3.4971657e-09  -6.0782190e-07   9.6990823e-01   9.6986236e-01  -2.1179926e+03
   3.4998333e-09  -6.0219821e-07   9.6990803e-01   9.6986258e-01  -2.0983965e+03
   3.5025008e-09  -5.9662655e-07   9.6990782e-01   9.6986279e-01  -2.0789817e+03
   3.5051684e-09  -5.9110645e-07   9.6990762e-01   9.6986301e-01  -2.0597466e+03
   3.5078359e-09  -5.8563742e-07   9.6990742e-01   9.6986322e-01  -2.0406894e+03
   3.5105035e-09  -5.8021899e-07   9.6990722e-01   9.6986343e-01  -2.0218086e+03
   3.5131711e-09  -5.7485069e-07   9.6990703e-01   9.6986364e-01  -2.0031024e+03
   3.5158386e-09  -5.6953206e-07   9.6990683e-01   9.6986385e-01  -1.9845693e+03
   3.5185062e-09  -5.6426264e-07   9.6990664e-01   9.6986405e-01  -1.9662077e+03
   3.5211737e-09  -5.5904197e-07   9.6990645e-01   9.6986426e-01  -1.9480160e+03
   3.5238413e-09  -5.5386960e-07   9.6990626e-01   9.6986446e-01  -1.9299926e+03
   3.5265088e-09  -5.4874510e-07   9.6990607e-01   9.6986466e-01  -1.9121359e+03
   3.5291764e-09  -5.4366800e-07   9.6990589e-01   9.6986485e-01  -1.8944445e+03
   3.5318439e-09  -5.3863788e-07   9.6990570e-01   9.6986505e-01  -1.8769167e+03
   3.5345115e-09  -5.3365429e-07   9.6990552e-01   9.6986524e-01  -1.8595511e+03
   3.5371791e-09  -5.2871682e-07   9.6990534e-01   9.6986544e-01  -1.8423462e+03
   3.5398466e-09  -5.2382503e-07   9.6990516e-01   9.6986563e-01  -1.8253004e+03
   3.5425142e-09  -5.1897850e-07   9.6990498e-01   9.6986581e-01  -1.8084124e+03
   3.5451817e-09  -5.1417681e-07   9.6990481e-01   9.6986600e-01  -1.7916806e+03
   3.5478493e-09  -5.0941955e-07   9.6990463e-01   9.6986619e-01  -1.7751037e+03
   3.5505168e-09  -5.0470630e-07   9.6990446e-01   9.6986637e-01  -1.7586801e+03
   3.5531844e-09  -5.0003666e-07   9.6990429e-01   9.6986655e-01  -1.7424084e+03
   3.5558520e-09  -4.9541022e-07   9.6990412e-01   9.6986673e-01  -1.7262873e+03
   3.5585195e-09  -4.9082659e-07   9.6990395e-01   9.6986691e-01  -1.7103154e+03
   3.5611871e-09  -4.8628536e-07   9.6990379e-01   9.6986709e-01  -1.6944912e+03
   3.5638546e-09  -4.8178616e-07   9.6990362e-01   9.6986726e-01  -1.6788135e+03
   3.5665222e-09  -4.7732858e-07   9.6990346e-01   9.6986743e-01  -1.6632808e+03
   3.5691897e-09  -4.7291224e-07   9.6990330e-01   9.6986761e-01  -1.6478918e+03
   3.5718573e-09  -4.6853676e-07   9.6990314e-01   9.6986778e-01  -1.6326451e+03
   3.5745248e-09  -4.6420177e-07   9.6990298e-01   9.6986795e-01  -1.6175396e+03
   3.5771924e-09  -4.5990689e-07   9.6990282e-01   9.6986811e-01  -1.6025738e+03
   3.5798600e-09  -4.5565174e-07   9.6990267e-01   9.6986828e-01  -1.5877465e+03
   3.5825275e-09  -4.5143596e-07   9.6990251e-01   9.6986844e-01  -1.5730564e+03
   3.5851951e-09  -4.4725919e-07   9.6990236e-01   9.6986860e-01  -1.5585021e+03
   3.5878626e-09  -4.4312106e-07   9.6990221e-01   9.6986877e-01  -1.5440826e+03
   3.5905302e-09  -4.3902121e-07   9.6990206e-01   9.6986892e-01  -1.5297964e+03
   3.5931977e-09  -4.3495930e-07   9.6990191e-01   9.6986908e-01  -1.5156425e+03
   3.5958653e-09  -4.3093498e-07   9.6990176e-01   9.6986924e-01  -1.5016194e+03
   3.5985328e-09  -4.2694788e-07   9.6990162e-01   9.6986939e-01  -1.4877262e+03
   3.6012004e-09  -4.2299768e-07   9.6990147e-01   9.6986955e-01  -1.4739614e+03
   3.6038680e-09  -4.1908402e-07   9.6990133e-01   9.6986970e-01  -1.4603241e+03
   3.6065355e-09  -4.1520657e-07   9.6990119e-01   9.6986985e-01  -1.4468129e+03
   3.6092031e-09  -4.1136500e-07   9.6990105e-01   9.6987000e-01  -1.4334267e+03
   3.6118706e-09  -4.0755897e-07   9.6990091e-01   9.6987015e-01  -1.4201643e+03
   3.6145382e-09  -4.0378815e-07   9.6990077e-01   9.6987029e-01  -1.4070247e+03
   3.6172057e-09  -4.0005223e-07   9.6990063e-01   9.6987044e-01  -1.3940066e+03
   3.6198733e-09  -3.9635087e-07   9.6990050e-01   9.6987058e-01  -1.3811090e+03
   3.6225408e-09  -3.9268375e-07   9.6990036e-01   9.6987073e-01  -1.3683307e+03
   3.6252084e-09  -3.8905056e-07   9.6990023e-01   9.6987087e-01  -1.3556706e+03
   3.6278760e-09  -3.8545099e-07   9.6990010e-01   9.6987101e-01  -1.3431277e+03
   3.6305435e-09  -3.8188472e-07   9.6989997e-01   9.6987115e-01  -1.3307008e+03
   3.6332111e-09  -3.7835145e-07   9.6989984e-01   9.6987128e-01  -1.3183889e+03
   3.6358786e-09  -3.7485087e-07   9.6989971e-01   9.6987142e-01  -1.3061909e+03
   3.6385462e-09  -3.7138268e-07   9.6989958e-01   9.6987156e-01  -1.2941058e+03
   3.6412137e-09  -3.6794657e-07   9.6989946e-01   9.6987169e-01  -1.2821325e+03
   3.6438813e-09  -3.6454226e-07   9.6989933e-01   9.6987182e-01  -1.2702700e+03
   3.6465488e-09  -3.6116944e-07   9.6989921e-01   9.6987195e-01  -1.2585172e+03
   3.6492164e-09  -3.5782783e-07   9.6989909e-01   9.6987208e-01  -1.2468731e+03
   3.6518840e-09  -3.5451714e-07   9.6989897e-01   9.6987221e-01  -1.2353368e+03
   3.6545515e-09  -3.5123708e-07   9.6989885e-01   9.6987234e-01  -1.2239072e+03
   3.6572191e-09  -3.4798736e-07   9.6989873e-01   9.6987247e-01  -1.2125834e+03
   3.6598866e-09  -3.4476772e-07   9.6989861e-01   9.6987259e-01  -1.2013644e+03
   3.6625542e-09  -3.4157786e-07   9.6989849e-01   9.6987271e-01  -1.1902491e+03
   3.6652217e-09  -3.3841751e-07   9.6989838e-01   9.6987284e-01  -1.1792367e+03
   3.6678893e-09  -3.3528641e-07   9.6989826e-01   9.6987296e-01  -1.1683262e+03
   3.6705569e-09  -3.3218427e-07   9.6989815e-01   9.6987308e-01  -1.1575166e+03
   3.6732244e-09  -3.2911084e-07   9.6989804e-01   9.6987320e-01  -1.1468070e+03
   3.6758920e-09  -3.2606584e-07   9.6989793e-01   9.6987332e-01  -1.1361965e+03
   3.6785595e-09  -3.2304902e-07   9.6989782e-01   9.6987344e-01  -1.1256842e+03
   3.6812271e-09  -3.2006010e-07   9.6989771e-01   9.6987355e-01  -1.1152692e+03
   3.6838946e-09  -3.1709885e-07   9.6989760e-01   9.6987367e-01  -1.1049505e+03
   3.6865622e-09  -3.1416498e-07   9.6989749e-01   9.6987378e-01  -1.0947273e+03
   3.6892297e-09  -3.1125827e-07   9.6989738e-01   9.6987389e-01  -1.0845987e+03
   3.6918973e-09  -3.0837845e-07   9.6989728e-01   9.6987401e-01  -1.0745637e+03
   3.6945649e-09  -3.0552527e-07   9.6989718e-01   9.6987412e-01  -1.0646217e+03
   3.6972324e-09  -3.0269849e-07   9.6989707e-01   9.6987423e-01  -1.0547716e+03
   3.6999000e-09  -2.9989786e-07   9.6989697e-01   9.6987434e-01  -1.0450126e+03
   3.7025675e-09  -2.9712315e-07   9.6989687e-01   9.6987444e-01  -1.0353440e+03
   3.7052351e-09  -2.9437411e-07   9.6989677e-01   9.6987455e-01  -1.0257648e+03
   3.7079026e-09  -2.9165050e-07   9.6989667e-01   9.6987466e-01  -1.0162742e+03
   3.7105702e-09  -2.8895209e-07   9.6989657e-01   9.6987476e-01  -1.0068714e+03
   3.7132377e-09  -2.8627865e-07   9.6989647e-01   9.6987487e-01  -9.9755566e+02
   3.7159053e-09  -2.8362995e-07   9.6989637e-01   9.6987497e-01  -9.8832608e+02
   3.7185729e-09  -2.8100575e-07   9.6989628e-01   9.6987507e-01  -9.7918190e+02
   3.7212404e-09  -2.7840583e-07   9.6989618e-01   9.6987517e-01  -9.7012231e+02
   3.7239080e-09  -2.7582996e-07   9.6989609e-01   9.6987527e-01  -9.6114655e+02
   3.7265755e-09  -2.7327793e-07   9.6989600e-01   9.6987537e-01  -9.5225383e+02
   3.7292431e-09  -2.7074951e-07   9.6989590e-01   9.6987547e-01  -9.4344339e+02
   3.7319106e-09  -2.6824448e-07   9.6989581e-01   9.6987557e-01  -9.3471447e+02
   3.7345782e-09  -2.6576263e-07   9.6989572e-01   9.6987566e-01  -9.2606631e+02
   3.7372457e-09  -2.6330374e-07   9.6989563e-01   9.6987576e-01  -9.1749817e+02
   3.7399133e-09  -2.6086760e-07   9.6989554e-01   9.6987585e-01  -9.0900930e+02
   3.7425809e-09  -2.5845401e-07   9.6989545e-01   9.6987595e-01  -9.0059896e+02
   3.7452484e-09  -2.5606274e-07   9.6989537e-01   9.6987604e-01  -8.9226644e+02
   3.7479160e-09  -2.5369360e-07   9.6989528e-01   9.6987613e-01  -8.8401102e+02
   3.7505835e-09  -2.5134637e-07   9.6989519e-01   9.6987622e-01  -8.7583198e+02
   3.7532511e-09  -2.4902087e-07   9.6989511e-01   9.6987631e-01  -8.6772862e+02
   3.7559186e-09  -2.4671688e-07   9.6989502e-01   9.6987640e-01  -8.5970023e+02
   3.7585862e-09  -2.4443420e-07   9.6989494e-01   9.6987649e-01  -8.5174611e+02
   3.7612538e-09  -2.4217265e-07   9.6989486e-01   9.6987658e-01  -8.4386559e+02
   3.7639213e-09  -2.3993202e-07   9.6989478e-01   9.6987667e-01  -8.3605798e+02
   3.7665889e-09  -2.3771212e-07   9.6989469e-01   9.6987675e-01  -8.2832261e+02
   3.7692564e-09  -2.3551276e-07   9.6989461e-01   9.6987684e-01  -8.2065881e+02
   3.7719240e-09  -2.3333375e-07   9.6989453e-01   9.6987692e-01  -8.1306591e+02
   3.7745915e-09  -2.3117490e-07   9.6989446e-01   9.6987701e-01  -8.0554327e+02
   3.7772591e-09  -2.2903603e-07   9.6989438e-01   9.6987709e-01  -7.9809022e+02
   3.7799266e-09  -2.2691694e-07   9.6989430e-01   9.6987717e-01  -7.9070614e+02
   3.7825942e-09  -2.2481746e-07   9.6989422e-01   9.6987726e-01  -7.8339037e+02
   3.7852618e-09  -2.2273741e-07   9.6989415e-01   9.6987734e-01  -7.7614229e+02
   3.7879293e-09  -2.2067660e-07   9.6989407e-01   9.6987742e-01  -7.6896127e+02
   3.7905969e-09  -2.1863485e-07   9.6989400e-01   9.6987750e-01  -7.6184669e+02
   3.7932644e-09  -2.1661200e-07   9.6989392e-01   9.6987757e-01  -7.5479793e+02
   3.7959320e-09  -2.1460787e-07   9.6989385e-01   9.6987765e-01  -7.4781440e+02
   3.7985995e-09  -2.1262227e-07   9.6989378e-01   9.6987773e-01  -7.4089547e+02
   3.8012671e-09  -2.1065505e-07   9.6989371e-01   9.6987781e-01  -7.3404056e+02
   3.8039346e-09  -2.0870603e-07   9.6989363e-01   9.6987788e-01  -7.2724907e+02
   3.8066022e-09  -2.0677504e-07   9.6989356e-01   9.6987796e-01  -7.2052042e+02
   3.8092698e-09  -2.0486191e-07   9.6989349e-01   9.6987803e-01  -7.1385403e+02
   3.8119373e-09  -2.0296649e-07   9.6989342e-01   9.6987811e-01  -7.0724930e+02
   3.8146049e-09  -2.0108861e-07   9.6989336e-01   9.6987818e-01  -7.0070569e+02
   3.8172724e-09  -1.9922809e-07   9.6989329e-01   9.6987825e-01  -6.9422262e+02
   3.8199400e-09  -1.9738480e-07   9.6989322e-01   9.6987832e-01  -6.8779954e+02
   3.8226075e-09  -1.9555855e-07   9.6989315e-01   9.6987839e-01  -6.8143589e+02
   3.8252751e-09  -1.9374921e-07   9.6989309e-01   9.6987846e-01  -6.7513111e+02
   3.8279426e-09  -1.9195660e-07   9.6989302e-01   9.6987853e-01  -6.6888466e+02
   3.8306102e-09  -1.9018058e-07   9.6989296e-01   9.6987860e-01  -6.6269601e+02
   3.8332778e-09  -1.8842099e-07   9.6989289e-01   9.6987867e-01  -6.5656463e+02
   3.8359453e-09  -1.8667769e-07   9.6989283e-01   9.6987874e-01  -6.5048997e+02
   3.8386129e-09  -1.8495051e-07   9.6989276e-01   9.6987881e-01  -6.4447150e+02
   3.8412804e-09  -1.8323931e-07   9.6989270e-01   9.6987887e-01  -6.3850873e+02
   3.8439480e-09  -1.8154394e-07   9.6989264e-01   9.6987894e-01  -6.3260113e+02
   3.8466155e-09  -1.7986426e-07   9.6989258e-01   9.6987900e-01  -6.2674819e+02
   3.8492831e-09  -1.7820012e-07   9.6989252e-01   9.6987907e-01  -6.2094939e+02
   3.8519507e-09  -1.7655138e-07   9.6989246e-01   9.6987913e-01  -6.1520425e+02
   3.8546182e-09  -1.7491789e-07   9.6989240e-01   9.6987920e-01  -6.0951226e+02
   3.8572858e-09  -1.7329952e-07   9.6989234e-01   9.6987926e-01  -6.0387293e+02
   3.8599533e-09  -1.7169612e-07   9.6989228e-01   9.6987932e-01  -5.9828578e+02
   3.8626209e-09  -1.7010755e-07   9.6989222e-01   9.6987938e-01  -5.9275032e+02
   3.8652884e-09  -1.6853368e-07   9.6989216e-01   9.6987944e-01  -5.8726608e+02
   3.8679560e-09  -1.6697438e-07   9.6989211e-01   9.6987951e-01  -5.8183258e+02
   3.8706235e-09  -1.6542950e-07   9.6989205e-01   9.6987957e-01  -5.7644936e+02
   3.8732911e-09  -1.6389891e-07   9.6989199e-01   9.6987963e-01  -5.7111595e+02
   3.8759587e-09  -1.6238248e-07   9.6989194e-01   9.6987968e-01  -5.6583188e+02
   3.8786262e-09  -1.6088009e-07   9.6989188e-01   9.6987974e-01  -5.6059668e+02
   3.8812938e-09  -1.5939160e-07   9.6989183e-01   9.6987980e-01  -5.5540993e+02
   3.8839613e-09  -1.5791687e-07   9.6989178e-01   9.6987986e-01  -5.5027117e+02
   3.8866289e-09  -1.5645580e-07   9.6989172e-01   9.6987991e-01  -5.4517996e+02
   3.8892964e-09  -1.5500824e-07   9.6989167e-01   9.6987997e-01  -5.4013585e+02
   3.8919640e-09  -1.5357407e-07   9.6989162e-01   9.6988003e-01  -5.3513841e+02
   3.8946315e-09  -1.5215317e-07   9.6989157e-01   9.6988008e-01  -5.3018720e+02
   3.8972991e-09  -1.5074542e-07   9.6989151e-01   9.6988014e-01  -5.2528181e+02
   3.8999667e-09  -1.4935069e-07   9.6989146e-01   9.6988019e-01  -5.2042180e+02
