   0.0000000e+00  -1.4621261e-01   6.2458847e+00   7.1513136e-05  -5.1848623e+08
   2.6675559e-12  -1.4483466e-01   6.2379380e+00   7.9506041e-05  -5.1469592e+08
   5.3351117e-12  -1.4346683e-01   6.2296381e+00   8.8317606e-05  -5.1090365e+08
   8.0026676e-12  -1.4210912e-01   6.2209742e+00   9.8022613e-05  -5.0710949e+08
   1.0670223e-11  -1.4076153e-01   6.2119356e+00   1.0870163e-04  -5.0331358e+08
   1.3337779e-11  -1.3942408e-01   6.2025115e+00   1.2044136e-04  -4.9951601e+08
   1.6005335e-11  -1.3809675e-01   6.1926912e+00   1.3333495e-04  -4.9571692e+08
   1.8672891e-11  -1.3677956e-01   6.1824640e+00   1.4748237e-04  -4.9191647e+08
   2.1340447e-11  -1.3547252e-01   6.1718195e+00   1.6299075e-04  -4.8811481e+08
   2.4008003e-11  -1.3417561e-01   6.1607471e+00   1.7997475e-04  -4.8431212e+08
   2.6675559e-11  -1.3288886e-01   6.1492366e+00   1.9855689e-04  -4.8050858e+08
   2.9343114e-11  -1.3161225e-01   6.1372780e+00   2.1886797e-04  -4.7670441e+08
   3.2010670e-11  -1.3034578e-01   6.1248614e+00   2.4104733e-04  -4.7289982e+08
   3.4678226e-11  -1.2908947e-01   6.1119771e+00   2.6524331e-04  -4.6909506e+08
   3.7345782e-11  -1.2784331e-01   6.0986159e+00   2.9161352e-04  -4.6529039e+08
   4.0013338e-11  -1.2660730e-01   6.0847688e+00   3.2032521e-04  -4.6148606e+08
   4.2680894e-11  -1.2538143e-01   6.0704271e+00   3.5155559e-04  -4.5768238e+08
   4.5348449e-11  -1.2416571e-01   6.0555826e+00   3.8549215e-04  -4.5387965e+08
   4.8016005e-11  -1.2296014e-01   6.0402274e+00   4.2233297e-04  -4.5007820e+08
   5.0683561e-11  -1.2176470e-01   6.0243542e+00   4.6228697e-04  -4.4627837e+08
   5.3351117e-11  -1.2057939e-01   6.0079560e+00   5.0557419e-04  -4.4248053e+08
   5.6018673e-11  -1.1940422e-01   5.9910266e+00   5.5242601e-04  -4.3868505e+08
   5.8686229e-11  -1.1823916e-01   5.9735600e+00   6.0308537e-04  -4.3489233e+08
   6.1353785e-11  -1.1708422e-01   5.9555512e+00   6.5780692e-04  -4.3110279e+08
   6.4021340e-11  -1.1593938e-01   5.9369953e+00   7.1685719e-04  -4.2731687e+08
   6.6688896e-11  -1.1480463e-01   5.9178886e+00   7.8051467e-04  -4.2353501e+08
   6.9356452e-11  -1.1367997e-01   5.8982277e+00   8.4906990e-04  -4.1975769e+08
   7.2024008e-11  -1.1256538e-01   5.8780101e+00   9.2282547e-04  -4.1598539e+08
   7.4691564e-11  -1.1146084e-01   5.8572339e+00   1.0020960e-03  -4.1221862e+08
   7.7359120e-11  -1.1036634e-01   5.8358979e+00   1.0872081e-03  -4.0845789e+08
   8.0026676e-11  -1.0928186e-01   5.8140018e+00   1.1785002e-03  -4.0470374e+08
   8.2694231e-11  -1.0820739e-01   5.7915461e+00   1.2763225e-03  -4.0095672e+08
   8.5361787e-11  -1.0714291e-01   5.7685320e+00   1.3810366e-03  -3.9721740e+08
   8.8029343e-11  -1.0608838e-01   5.7449616e+00   1.4930154e-03  -3.9348636e+08
   9.0696899e-11  -1.0504380e-01   5.7208377e+00   1.6126425e-03  -3.8976417e+08
   9.3364455e-11  -1.0400913e-01   5.6961641e+00   1.7403123e-03  -3.8605146e+08
   9.6032011e-11  -1.0298436e-01   5.6709451e+00   1.8764290e-03  -3.8234883e+08
   9.8699567e-11  -1.0196944e-01   5.6451863e+00   2.0214065e-03  -3.7865690e+08
   1.0136712e-10  -1.0096436e-01   5.6188938e+00   2.1756679e-03  -3.7497631e+08
   1.0403468e-10  -9.9969083e-02   5.5920746e+00   2.3396446e-03  -3.7130769e+08
   1.0670223e-10  -9.8983572e-02   5.5647365e+00   2.5137758e-03  -3.6765169e+08
   1.0936979e-10  -9.8007796e-02   5.5368881e+00   2.6985082e-03  -3.6400897e+08
   1.1203735e-10  -9.7041718e-02   5.5085389e+00   2.8942945e-03  -3.6038018e+08
   1.1470490e-10  -9.6085300e-02   5.4796990e+00   3.1015932e-03  -3.5676598e+08
   1.1737246e-10  -9.5138502e-02   5.4503792e+00   3.3208678e-03  -3.5316702e+08
   1.2004001e-10  -9.4201282e-02   5.4205913e+00   3.5525857e-03  -3.4958397e+08
   1.2270757e-10  -9.3273598e-02   5.3903475e+00   3.7972173e-03  -3.4601748e+08
   1.2537513e-10  -9.2355405e-02   5.3596609e+00   4.0552352e-03  -3.4246821e+08
   1.2804268e-10  -9.1446655e-02   5.3285450e+00   4.3271136e-03  -3.3893682e+08
   1.3071024e-10  -9.0547299e-02   5.2970140e+00   4.6133266e-03  -3.3542393e+08
   1.3337779e-10  -8.9657289e-02   5.2650827e+00   4.9143479e-03  -3.3193020e+08
   1.3604535e-10  -8.8776571e-02   5.2327664e+00   5.2306496e-03  -3.2845626e+08
   1.3871290e-10  -8.7905092e-02   5.2000809e+00   5.5627010e-03  -3.2500272e+08
   1.4138046e-10  -8.7042798e-02   5.1670423e+00   5.9109679e-03  -3.2157020e+08
   1.4404802e-10  -8.6189630e-02   5.1336673e+00   6.2759118e-03  -3.1815929e+08
   1.4671557e-10  -8.5345531e-02   5.0999728e+00   6.6579883e-03  -3.1477059e+08
   1.4938313e-10  -8.4510441e-02   5.0659761e+00   7.0576466e-03  -3.1140465e+08
   1.5205068e-10  -8.3684297e-02   5.0316946e+00   7.4753288e-03  -3.0806204e+08
   1.5471824e-10  -8.2867038e-02   4.9971463e+00   7.9114683e-03  -3.0474329e+08
   1.5738580e-10  -8.2058599e-02   4.9623489e+00   8.3664896e-03  -3.0144892e+08
   1.6005335e-10  -8.1258914e-02   4.9273207e+00   8.8408069e-03  -2.9817944e+08
   1.6272091e-10  -8.0467916e-02   4.8920796e+00   9.3348236e-03  -2.9493533e+08
   1.6538846e-10  -7.9685537e-02   4.8566440e+00   9.8489317e-03  -2.9171705e+08
   1.6805602e-10  -7.8911707e-02   4.8210321e+00   1.0383511e-02  -2.8852505e+08
   1.7072357e-10  -7.8146356e-02   4.7852620e+00   1.0938927e-02  -2.8535974e+08
   1.7339113e-10  -7.7389411e-02   4.7493518e+00   1.1515533e-02  -2.8222152e+08
   1.7605869e-10  -7.6640801e-02   4.7133195e+00   1.2113667e-02  -2.7911077e+08
   1.7872624e-10  -7.5900451e-02   4.6771830e+00   1.2733652e-02  -2.7602784e+08
   1.8139380e-10  -7.5168286e-02   4.6409599e+00   1.3375798e-02  -2.7297306e+08
   1.8406135e-10  -7.4444232e-02   4.6046677e+00   1.4040396e-02  -2.6994674e+08
   1.8672891e-10  -7.3728211e-02   4.5683236e+00   1.4727723e-02  -2.6694915e+08
   1.8939647e-10  -7.3020148e-02   4.5319444e+00   1.5438038e-02  -2.6398056e+08
   1.9206402e-10  -7.2319963e-02   4.4955468e+00   1.6171584e-02  -2.6104120e+08
   1.9473158e-10  -7.1627580e-02   4.4591471e+00   1.6928588e-02  -2.5813127e+08
   1.9739913e-10  -7.0942918e-02   4.4227612e+00   1.7709257e-02  -2.5525097e+08
   2.0006669e-10  -7.0265900e-02   4.3864046e+00   1.8513783e-02  -2.5240046e+08
   2.0273424e-10  -6.9596444e-02   4.3500926e+00   1.9342340e-02  -2.4957988e+08
   2.0540180e-10  -6.8934472e-02   4.3138399e+00   2.0195084e-02  -2.4678933e+08
   2.0806936e-10  -6.8279902e-02   4.2776607e+00   2.1072155e-02  -2.4402893e+08
   2.1073691e-10  -6.7632655e-02   4.2415690e+00   2.1973674e-02  -2.4129874e+08
   2.1340447e-10  -6.6992650e-02   4.2055783e+00   2.2899744e-02  -2.3859880e+08
   2.1607202e-10  -6.6359805e-02   4.1697014e+00   2.3850454e-02  -2.3592915e+08
   2.1873958e-10  -6.5734041e-02   4.1339510e+00   2.4825872e-02  -2.3328979e+08
   2.2140714e-10  -6.5115276e-02   4.0983390e+00   2.5826053e-02  -2.3068071e+08
   2.2407469e-10  -6.4503429e-02   4.0628770e+00   2.6851032e-02  -2.2810188e+08
   2.2674225e-10  -6.3898420e-02   4.0275760e+00   2.7900831e-02  -2.2555325e+08
   2.2940980e-10  -6.3300169e-02   3.9924468e+00   2.8975453e-02  -2.2303473e+08
   2.3207736e-10  -6.2708595e-02   3.9574994e+00   3.0074887e-02  -2.2054626e+08
   2.3474491e-10  -6.2123619e-02   3.9227435e+00   3.1199107e-02  -2.1808772e+08
   2.3741247e-10  -6.1545159e-02   3.8881881e+00   3.2348069e-02  -2.1565899e+08
   2.4008003e-10  -6.0973138e-02   3.8538421e+00   3.3521719e-02  -2.1325993e+08
   2.4274758e-10  -6.0407476e-02   3.8197137e+00   3.4719985e-02  -2.1089039e+08
   2.4541514e-10  -5.9848095e-02   3.7858106e+00   3.5942783e-02  -2.0855022e+08
   2.4808269e-10  -5.9294917e-02   3.7521401e+00   3.7190016e-02  -2.0623921e+08
   2.5075025e-10  -5.8747863e-02   3.7187091e+00   3.8461572e-02  -2.0395720e+08
   2.5341781e-10  -5.8206858e-02   3.6855241e+00   3.9757328e-02  -2.0170397e+08
   2.5608536e-10  -5.7671823e-02   3.6525911e+00   4.1077148e-02  -1.9947930e+08
   2.5875292e-10  -5.7142685e-02   3.6199156e+00   4.2420887e-02  -1.9728297e+08
   2.6142047e-10  -5.6619367e-02   3.5875028e+00   4.3788385e-02  -1.9511475e+08
   2.6408803e-10  -5.6101794e-02   3.5553576e+00   4.5179474e-02  -1.9297439e+08
   2.6675559e-10  -5.5589893e-02   3.5234844e+00   4.6593975e-02  -1.9086164e+08
   2.6942314e-10  -5.5083590e-02   3.4918871e+00   4.8031698e-02  -1.8877624e+08
   2.7209070e-10  -5.4582813e-02   3.4605694e+00   4.9492445e-02  -1.8671792e+08
   2.7475825e-10  -5.4087490e-02   3.4295348e+00   5.0976009e-02  -1.8468640e+08
   2.7742581e-10  -5.3597550e-02   3.3987860e+00   5.2482173e-02  -1.8268141e+08
   2.8009336e-10  -5.3112922e-02   3.3683258e+00   5.4010715e-02  -1.8070266e+08
   2.8276092e-10  -5.2633537e-02   3.3381566e+00   5.5561403e-02  -1.7874986e+08
   2.8542848e-10  -5.2159326e-02   3.3082803e+00   5.7133997e-02  -1.7682272e+08
   2.8809603e-10  -5.1690221e-02   3.2786987e+00   5.8728252e-02  -1.7492093e+08
   2.9076359e-10  -5.1226155e-02   3.2494133e+00   6.0343915e-02  -1.7304419e+08
   2.9343114e-10  -5.0767061e-02   3.2204252e+00   6.1980730e-02  -1.7119221e+08
   2.9609870e-10  -5.0312873e-02   3.1917354e+00   6.3638432e-02  -1.6936468e+08
   2.9876626e-10  -4.9863528e-02   3.1633446e+00   6.5316752e-02  -1.6756127e+08
   3.0143381e-10  -4.9418960e-02   3.1352532e+00   6.7015416e-02  -1.6578170e+08
   3.0410137e-10  -4.8979108e-02   3.1074615e+00   6.8734145e-02  -1.6402565e+08
   3.0676892e-10  -4.8543907e-02   3.0799695e+00   7.0472658e-02  -1.6229280e+08
   3.0943648e-10  -4.8113298e-02   3.0527771e+00   7.2230666e-02  -1.6058284e+08
   3.1210403e-10  -4.7687219e-02   3.0258838e+00   7.4007881e-02  -1.5889547e+08
   3.1477159e-10  -4.7265611e-02   2.9992891e+00   7.5804008e-02  -1.5723036e+08
   3.1743915e-10  -4.6848415e-02   2.9729923e+00   7.7618751e-02  -1.5558722e+08
   3.2010670e-10  -4.6435572e-02   2.9469926e+00   7.9451811e-02  -1.5396574e+08
   3.2277426e-10  -4.6027025e-02   2.9212888e+00   8.1302886e-02  -1.5236559e+08
   3.2544181e-10  -4.5622717e-02   2.8958797e+00   8.3171673e-02  -1.5078649e+08
   3.2810937e-10  -4.5222594e-02   2.8707642e+00   8.5057866e-02  -1.4922812e+08
   3.3077693e-10  -4.4826599e-02   2.8459407e+00   8.6961158e-02  -1.4769018e+08
   3.3344448e-10  -4.4434680e-02   2.8214077e+00   8.8881240e-02  -1.4617237e+08
   3.3611204e-10  -4.4046782e-02   2.7971635e+00   9.0817803e-02  -1.4467439e+08
   3.3877959e-10  -4.3662853e-02   2.7732063e+00   9.2770536e-02  -1.4319594e+08
   3.4144715e-10  -4.3282842e-02   2.7495342e+00   9.4739127e-02  -1.4173674e+08
   3.4411470e-10  -4.2906697e-02   2.7261453e+00   9.6723265e-02  -1.4029649e+08
   3.4678226e-10  -4.2534369e-02   2.7030376e+00   9.8722637e-02  -1.3887490e+08
   3.4944982e-10  -4.2165807e-02   2.6802089e+00   1.0073693e-01  -1.3747169e+08
   3.5211737e-10  -4.1800964e-02   2.6576569e+00   1.0276583e-01  -1.3608658e+08
   3.5478493e-10  -4.1439792e-02   2.6353796e+00   1.0480903e-01  -1.3471928e+08
   3.5745248e-10  -4.1082242e-02   2.6133744e+00   1.0686622e-01  -1.3336953e+08
   3.6012004e-10  -4.0728270e-02   2.5916392e+00   1.0893708e-01  -1.3203706e+08
   3.6278760e-10  -4.0377829e-02   2.5701713e+00   1.1102130e-01  -1.3072158e+08
   3.6545515e-10  -4.0030874e-02   2.5489684e+00   1.1311857e-01  -1.2942285e+08
   3.6812271e-10  -3.9687361e-02   2.5280279e+00   1.1522859e-01  -1.2814059e+08
   3.7079026e-10  -3.9347246e-02   2.5073474e+00   1.1735104e-01  -1.2687455e+08
   3.7345782e-10  -3.9010487e-02   2.4869241e+00   1.1948562e-01  -1.2562448e+08
   3.7612538e-10  -3.8677041e-02   2.4667556e+00   1.2163203e-01  -1.2439013e+08
   3.7879293e-10  -3.8346866e-02   2.4468391e+00   1.2378995e-01  -1.2317124e+08
   3.8146049e-10  -3.8019922e-02   2.4271721e+00   1.2595909e-01  -1.2196757e+08
   3.8412804e-10  -3.7696168e-02   2.4077518e+00   1.2813914e-01  -1.2077890e+08
   3.8679560e-10  -3.7375566e-02   2.3885755e+00   1.3032980e-01  -1.1960497e+08
   3.8946315e-10  -3.7058074e-02   2.3696407e+00   1.3253078e-01  -1.1844556e+08
   3.9213071e-10  -3.6743657e-02   2.3509445e+00   1.3474179e-01  -1.1730043e+08
   3.9479827e-10  -3.6432274e-02   2.3324843e+00   1.3696251e-01  -1.1616937e+08
   3.9746582e-10  -3.6123890e-02   2.3142574e+00   1.3919267e-01  -1.1505216e+08
   4.0013338e-10  -3.5818468e-02   2.2962609e+00   1.4143198e-01  -1.1394856e+08
   4.0280093e-10  -3.5515971e-02   2.2784923e+00   1.4368013e-01  -1.1285838e+08
   4.0546849e-10  -3.5216364e-02   2.2609488e+00   1.4593686e-01  -1.1178140e+08
   4.0813605e-10  -3.4919613e-02   2.2436277e+00   1.4820187e-01  -1.1071740e+08
   4.1080360e-10  -3.4625682e-02   2.2265264e+00   1.5047488e-01  -1.0966620e+08
   4.1347116e-10  -3.4334539e-02   2.2096420e+00   1.5275562e-01  -1.0862759e+08
   4.1613871e-10  -3.4046149e-02   2.1929720e+00   1.5504380e-01  -1.0760136e+08
   4.1880627e-10  -3.3760480e-02   2.1765137e+00   1.5733916e-01  -1.0658734e+08
   4.2147382e-10  -3.3477500e-02   2.1602644e+00   1.5964141e-01  -1.0558533e+08
   4.2414138e-10  -3.3197176e-02   2.1442215e+00   1.6195029e-01  -1.0459513e+08
   4.2680894e-10  -3.2919478e-02   2.1283823e+00   1.6426553e-01  -1.0361658e+08
   4.2947649e-10  -3.2644375e-02   2.1127443e+00   1.6658687e-01  -1.0264948e+08
   4.3214405e-10  -3.2371836e-02   2.0973049e+00   1.6891405e-01  -1.0169367e+08
   4.3481160e-10  -3.2101832e-02   2.0820615e+00   1.7124680e-01  -1.0074896e+08
   4.3747916e-10  -3.1834333e-02   2.0670116e+00   1.7358486e-01  -9.9815191e+07
   4.4014672e-10  -3.1569310e-02   2.0521526e+00   1.7592799e-01  -9.8892191e+07
   4.4281427e-10  -3.1306735e-02   2.0374820e+00   1.7827593e-01  -9.7979797e+07
   4.4548183e-10  -3.1046580e-02   2.0229974e+00   1.8062843e-01  -9.7077845e+07
   4.4814938e-10  -3.0788817e-02   2.0086962e+00   1.8298524e-01  -9.6186178e+07
   4.5081694e-10  -3.0533419e-02   1.9945760e+00   1.8534613e-01  -9.5304641e+07
   4.5348449e-10  -3.0280358e-02   1.9806345e+00   1.8771084e-01  -9.4433079e+07
   4.5615205e-10  -3.0029610e-02   1.9668692e+00   1.9007914e-01  -9.3571342e+07
   4.5881961e-10  -2.9781147e-02   1.9532778e+00   1.9245080e-01  -9.2719284e+07
   4.6148716e-10  -2.9534943e-02   1.9398579e+00   1.9482558e-01  -9.1876760e+07
   4.6415472e-10  -2.9290975e-02   1.9266071e+00   1.9720325e-01  -9.1043627e+07
   4.6682227e-10  -2.9049217e-02   1.9135233e+00   1.9958358e-01  -9.0219746e+07
   4.6948983e-10  -2.8809643e-02   1.9006042e+00   2.0196635e-01  -8.9404980e+07
   4.7215739e-10  -2.8572232e-02   1.8878474e+00   2.0435134e-01  -8.8599194e+07
   4.7482494e-10  -2.8336957e-02   1.8752508e+00   2.0673832e-01  -8.7802257e+07
   4.7749250e-10  -2.8103797e-02   1.8628122e+00   2.0912707e-01  -8.7014039e+07
   4.8016005e-10  -2.7872728e-02   1.8505294e+00   2.1151740e-01  -8.6234412e+07
   4.8282761e-10  -2.7643727e-02   1.8384003e+00   2.1390907e-01  -8.5463253e+07
   4.8549517e-10  -2.7416772e-02   1.8264228e+00   2.1630189e-01  -8.4700437e+07
   4.8816272e-10  -2.7191840e-02   1.8145948e+00   2.1869565e-01  -8.3945846e+07
   4.9083028e-10  -2.6968911e-02   1.8029142e+00   2.2109014e-01  -8.3199361e+07
   4.9349783e-10  -2.6747962e-02   1.7913790e+00   2.2348516e-01  -8.2460865e+07
   4.9616539e-10  -2.6528972e-02   1.7799872e+00   2.2588053e-01  -8.1730245e+07
   4.9883294e-10  -2.6311921e-02   1.7687369e+00   2.2827603e-01  -8.1007390e+07
   5.0150050e-10  -2.6096788e-02   1.7576259e+00   2.3067147e-01  -8.0292189e+07
   5.0416806e-10  -2.5883552e-02   1.7466526e+00   2.3306668e-01  -7.9584535e+07
   5.0683561e-10  -2.5672194e-02   1.7358148e+00   2.3546146e-01  -7.8884322e+07
   5.0950317e-10  -2.5462694e-02   1.7251108e+00   2.3785562e-01  -7.8191445e+07
   5.1217072e-10  -2.5255033e-02   1.7145386e+00   2.4024898e-01  -7.7505804e+07
   5.1483828e-10  -2.5049190e-02   1.7040966e+00   2.4264137e-01  -7.6827298e+07
   5.1750584e-10  -2.4845149e-02   1.6937828e+00   2.4503261e-01  -7.6155828e+07
   5.2017339e-10  -2.4642889e-02   1.6835955e+00   2.4742252e-01  -7.5491298e+07
   5.2284095e-10  -2.4442392e-02   1.6735329e+00   2.4981093e-01  -7.4833613e+07
   5.2550850e-10  -2.4243641e-02   1.6635933e+00   2.5219768e-01  -7.4182680e+07
   5.2817606e-10  -2.4046618e-02   1.6537750e+00   2.5458259e-01  -7.3538408e+07
   5.3084361e-10  -2.3851304e-02   1.6440763e+00   2.5696550e-01  -7.2900706e+07
   5.3351117e-10  -2.3657682e-02   1.6344956e+00   2.5934626e-01  -7.2269487e+07
   5.3617873e-10  -2.3465736e-02   1.6250312e+00   2.6172469e-01  -7.1644663e+07
   5.3884628e-10  -2.3275448e-02   1.6156815e+00   2.6410065e-01  -7.1026149e+07
   5.4151384e-10  -2.3086801e-02   1.6064450e+00   2.6647399e-01  -7.0413862e+07
   5.4418139e-10  -2.2899779e-02   1.5973200e+00   2.6884454e-01  -6.9807720e+07
   5.4684895e-10  -2.2714367e-02   1.5883050e+00   2.7121217e-01  -6.9207642e+07
   5.4951651e-10  -2.2530546e-02   1.5793985e+00   2.7357672e-01  -6.8613549e+07
   5.5218406e-10  -2.2348303e-02   1.5705990e+00   2.7593805e-01  -6.8025361e+07
   5.5485162e-10  -2.2167621e-02   1.5619051e+00   2.7829602e-01  -6.7443004e+07
   5.5751917e-10  -2.1988485e-02   1.5533152e+00   2.8065049e-01  -6.6866402e+07
   5.6018673e-10  -2.1810879e-02   1.5448279e+00   2.8300132e-01  -6.6295480e+07
   5.6285428e-10  -2.1634788e-02   1.5364419e+00   2.8534839e-01  -6.5730167e+07
   5.6552184e-10  -2.1460198e-02   1.5281557e+00   2.8769155e-01  -6.5170390e+07
   5.6818940e-10  -2.1287094e-02   1.5199680e+00   2.9003067e-01  -6.4616079e+07
   5.7085695e-10  -2.1115461e-02   1.5118774e+00   2.9236564e-01  -6.4067166e+07
   5.7352451e-10  -2.0945286e-02   1.5038826e+00   2.9469632e-01  -6.3523582e+07
   5.7619206e-10  -2.0776553e-02   1.4959822e+00   2.9702259e-01  -6.2985261e+07
   5.7885962e-10  -2.0609250e-02   1.4881750e+00   2.9934433e-01  -6.2452137e+07
   5.8152718e-10  -2.0443361e-02   1.4804598e+00   3.0166142e-01  -6.1924145e+07
   5.8419473e-10  -2.0278874e-02   1.4728351e+00   3.0397375e-01  -6.1401223e+07
   5.8686229e-10  -2.0115776e-02   1.4652999e+00   3.0628120e-01  -6.0883308e+07
   5.8952984e-10  -1.9954052e-02   1.4578529e+00   3.0858366e-01  -6.0370339e+07
   5.9219740e-10  -1.9793690e-02   1.4504929e+00   3.1088102e-01  -5.9862254e+07
   5.9486495e-10  -1.9634677e-02   1.4432188e+00   3.1317317e-01  -5.9358996e+07
   5.9753251e-10  -1.9477001e-02   1.4360293e+00   3.1546001e-01  -5.8860506e+07
   6.0020007e-10  -1.9320647e-02   1.4289233e+00   3.1774143e-01  -5.8366725e+07
   6.0286762e-10  -1.9165605e-02   1.4218997e+00   3.2001733e-01  -5.7877599e+07
   6.0553518e-10  -1.9011861e-02   1.4149573e+00   3.2228761e-01  -5.7393071e+07
   6.0820273e-10  -1.8859403e-02   1.4080952e+00   3.2455218e-01  -5.6913086e+07
   6.1087029e-10  -1.8708220e-02   1.4013121e+00   3.2681094e-01  -5.6437592e+07
   6.1353785e-10  -1.8558299e-02   1.3946071e+00   3.2906380e-01  -5.5966534e+07
   6.1620540e-10  -1.8409629e-02   1.3879791e+00   3.3131066e-01  -5.5499861e+07
   6.1887296e-10  -1.8262198e-02   1.3814270e+00   3.3355144e-01  -5.5037523e+07
   6.2154051e-10  -1.8115995e-02   1.3749499e+00   3.3578605e-01  -5.4579467e+07
   6.2420807e-10  -1.7971007e-02   1.3685468e+00   3.3801441e-01  -5.4125645e+07
   6.2687563e-10  -1.7827225e-02   1.3622166e+00   3.4023642e-01  -5.3676008e+07
   6.2954318e-10  -1.7684637e-02   1.3559583e+00   3.4245201e-01  -5.3230508e+07
   6.3221074e-10  -1.7543231e-02   1.3497712e+00   3.4466110e-01  -5.2789098e+07
   6.3487829e-10  -1.7402998e-02   1.3436541e+00   3.4686362e-01  -5.2351730e+07
   6.3754585e-10  -1.7263926e-02   1.3376062e+00   3.4905947e-01  -5.1918359e+07
   6.4021340e-10  -1.7126005e-02   1.3316265e+00   3.5124860e-01  -5.1488941e+07
   6.4288096e-10  -1.6989224e-02   1.3257142e+00   3.5343093e-01  -5.1063429e+07
   6.4554852e-10  -1.6853573e-02   1.3198684e+00   3.5560638e-01  -5.0641781e+07
   6.4821607e-10  -1.6719041e-02   1.3140881e+00   3.5777490e-01  -5.0223954e+07
   6.5088363e-10  -1.6585619e-02   1.3083726e+00   3.5993641e-01  -4.9809904e+07
   6.5355118e-10  -1.6453297e-02   1.3027210e+00   3.6209084e-01  -4.9399590e+07
   6.5621874e-10  -1.6322064e-02   1.2971324e+00   3.6423813e-01  -4.8992972e+07
   6.5888630e-10  -1.6191911e-02   1.2916061e+00   3.6637823e-01  -4.8590007e+07
   6.6155385e-10  -1.6062827e-02   1.2861411e+00   3.6851106e-01  -4.8190657e+07
   6.6422141e-10  -1.5934805e-02   1.2807368e+00   3.7063658e-01  -4.7794882e+07
   6.6688896e-10  -1.5807833e-02   1.2753923e+00   3.7275472e-01  -4.7402642e+07
   6.6955652e-10  -1.5681903e-02   1.2701069e+00   3.7486543e-01  -4.7013901e+07
   6.7222407e-10  -1.5557006e-02   1.2648798e+00   3.7696865e-01  -4.6628619e+07
   6.7489163e-10  -1.5433132e-02   1.2597102e+00   3.7906434e-01  -4.6246760e+07
   6.7755919e-10  -1.5310271e-02   1.2545975e+00   3.8115243e-01  -4.5868287e+07
   6.8022674e-10  -1.5188416e-02   1.2495407e+00   3.8323289e-01  -4.5493164e+07
   6.8289430e-10  -1.5067557e-02   1.2445394e+00   3.8530566e-01  -4.5121356e+07
   6.8556185e-10  -1.4947686e-02   1.2395927e+00   3.8737070e-01  -4.4752827e+07
   6.8822941e-10  -1.4828793e-02   1.2346999e+00   3.8942796e-01  -4.4387543e+07
   6.9089697e-10  -1.4710870e-02   1.2298604e+00   3.9147740e-01  -4.4025470e+07
   6.9356452e-10  -1.4593909e-02   1.2250735e+00   3.9351898e-01  -4.3666573e+07
   6.9623208e-10  -1.4477901e-02   1.2203385e+00   3.9555265e-01  -4.3310821e+07
   6.9889963e-10  -1.4362838e-02   1.2156548e+00   3.9757838e-01  -4.2958180e+07
   7.0156719e-10  -1.4248712e-02   1.2110216e+00   3.9959613e-01  -4.2608617e+07
   7.0423474e-10  -1.4135513e-02   1.2064385e+00   4.0160586e-01  -4.2262102e+07
   7.0690230e-10  -1.4023236e-02   1.2019046e+00   4.0360753e-01  -4.1918603e+07
   7.0956986e-10  -1.3911870e-02   1.1974195e+00   4.0560113e-01  -4.1578089e+07
   7.1223741e-10  -1.3801409e-02   1.1929825e+00   4.0758660e-01  -4.1240529e+07
   7.1490497e-10  -1.3691844e-02   1.1885930e+00   4.0956392e-01  -4.0905893e+07
   7.1757252e-10  -1.3583169e-02   1.1842504e+00   4.1153306e-01  -4.0574152e+07
   7.2024008e-10  -1.3475374e-02   1.1799542e+00   4.1349399e-01  -4.0245276e+07
   7.2290764e-10  -1.3368453e-02   1.1757037e+00   4.1544668e-01  -3.9919236e+07
   7.2557519e-10  -1.3262398e-02   1.1714983e+00   4.1739112e-01  -3.9596004e+07
   7.2824275e-10  -1.3157201e-02   1.1673376e+00   4.1932726e-01  -3.9275552e+07
   7.3091030e-10  -1.3052855e-02   1.1632210e+00   4.2125509e-01  -3.8957852e+07
   7.3357786e-10  -1.2949354e-02   1.1591478e+00   4.2317459e-01  -3.8642876e+07
   7.3624542e-10  -1.2846689e-02   1.1551177e+00   4.2508573e-01  -3.8330598e+07
   7.3891297e-10  -1.2744853e-02   1.1511300e+00   4.2698849e-01  -3.8020990e+07
   7.4158053e-10  -1.2643840e-02   1.1471843e+00   4.2888286e-01  -3.7714027e+07
   7.4424808e-10  -1.2543642e-02   1.1432800e+00   4.3076881e-01  -3.7409682e+07
   7.4691564e-10  -1.2444252e-02   1.1394166e+00   4.3264633e-01  -3.7107930e+07
   7.4958319e-10  -1.2345664e-02   1.1355936e+00   4.3451540e-01  -3.6808745e+07
   7.5225075e-10  -1.2247871e-02   1.1318105e+00   4.3637601e-01  -3.6512103e+07
   7.5491831e-10  -1.2150865e-02   1.1280669e+00   4.3822814e-01  -3.6217978e+07
   7.5758586e-10  -1.2054641e-02   1.1243622e+00   4.4007179e-01  -3.5926346e+07
   7.6025342e-10  -1.1959192e-02   1.1206961e+00   4.4190693e-01  -3.5637183e+07
   7.6292097e-10  -1.1864510e-02   1.1170679e+00   4.4373356e-01  -3.5350465e+07
   7.6558853e-10  -1.1770590e-02   1.1134774e+00   4.4555166e-01  -3.5066169e+07
   7.6825609e-10  -1.1677426e-02   1.1099239e+00   4.4736124e-01  -3.4784271e+07
   7.7092364e-10  -1.1585010e-02   1.1064071e+00   4.4916227e-01  -3.4504749e+07
   7.7359120e-10  -1.1493336e-02   1.1029265e+00   4.5095476e-01  -3.4227579e+07
   7.7625875e-10  -1.1402399e-02   1.0994818e+00   4.5273869e-01  -3.3952741e+07
   7.7892631e-10  -1.1312192e-02   1.0960724e+00   4.5451407e-01  -3.3680210e+07
   7.8159386e-10  -1.1222709e-02   1.0926979e+00   4.5628088e-01  -3.3409966e+07
   7.8426142e-10  -1.1133944e-02   1.0893580e+00   4.5803912e-01  -3.3141987e+07
   7.8692898e-10  -1.1045890e-02   1.0860522e+00   4.5978880e-01  -3.2876252e+07
   7.8959653e-10  -1.0958543e-02   1.0827801e+00   4.6152990e-01  -3.2612739e+07
   7.9226409e-10  -1.0871895e-02   1.0795414e+00   4.6326243e-01  -3.2351428e+07
   7.9493164e-10  -1.0785942e-02   1.0763356e+00   4.6498639e-01  -3.2092298e+07
   7.9759920e-10  -1.0700677e-02   1.0731623e+00   4.6670178e-01  -3.1835329e+07
   8.0026676e-10  -1.0616095e-02   1.0700211e+00   4.6840859e-01  -3.1580500e+07
   8.0293431e-10  -1.0532189e-02   1.0669118e+00   4.7010684e-01  -3.1327793e+07
   8.0560187e-10  -1.0448955e-02   1.0638339e+00   4.7179652e-01  -3.1077187e+07
   8.0826942e-10  -1.0366386e-02   1.0607870e+00   4.7347764e-01  -3.0828662e+07
   8.1093698e-10  -1.0284478e-02   1.0577708e+00   4.7515020e-01  -3.0582201e+07
   8.1360453e-10  -1.0203225e-02   1.0547849e+00   4.7681420e-01  -3.0337783e+07
   8.1627209e-10  -1.0122620e-02   1.0518289e+00   4.7846966e-01  -3.0095390e+07
   8.1893965e-10  -1.0042660e-02   1.0489026e+00   4.8011658e-01  -2.9855003e+07
   8.2160720e-10  -9.9633384e-03   1.0460056e+00   4.8175497e-01  -2.9616605e+07
   8.2427476e-10  -9.8846500e-03   1.0431376e+00   4.8338483e-01  -2.9380176e+07
   8.2694231e-10  -9.8065897e-03   1.0402981e+00   4.8500617e-01  -2.9145700e+07
   8.2960987e-10  -9.7291522e-03   1.0374870e+00   4.8661900e-01  -2.8913158e+07
   8.3227743e-10  -9.6523325e-03   1.0347037e+00   4.8822334e-01  -2.8682533e+07
   8.3494498e-10  -9.5761255e-03   1.0319482e+00   4.8981919e-01  -2.8453808e+07
   8.3761254e-10  -9.5005261e-03   1.0292199e+00   4.9140656e-01  -2.8226965e+07
   8.4028009e-10  -9.4255293e-03   1.0265187e+00   4.9298547e-01  -2.8001988e+07
   8.4294765e-10  -9.3511302e-03   1.0238441e+00   4.9455592e-01  -2.7778860e+07
   8.4561521e-10  -9.2773239e-03   1.0211960e+00   4.9611793e-01  -2.7557563e+07
   8.4828276e-10  -9.2041054e-03   1.0185740e+00   4.9767152e-01  -2.7338083e+07
   8.5095032e-10  -9.1314700e-03   1.0159777e+00   4.9921669e-01  -2.7120402e+07
   8.5361787e-10  -9.0594129e-03   1.0134070e+00   5.0075346e-01  -2.6904505e+07
   8.5628543e-10  -8.9879294e-03   1.0108615e+00   5.0228185e-01  -2.6690376e+07
   8.5895298e-10  -8.9170147e-03   1.0083410e+00   5.0380187e-01  -2.6477998e+07
   8.6162054e-10  -8.8466643e-03   1.0058451e+00   5.0531354e-01  -2.6267357e+07
   8.6428810e-10  -8.7768734e-03   1.0033736e+00   5.0681687e-01  -2.6058438e+07
   8.6695565e-10  -8.7076376e-03   1.0009263e+00   5.0831188e-01  -2.5851224e+07
   8.6962321e-10  -8.6389522e-03   9.9850272e-01   5.0979860e-01  -2.5645702e+07
   8.7229076e-10  -8.5708129e-03   9.9610277e-01   5.1127702e-01  -2.5441855e+07
   8.7495832e-10  -8.5032151e-03   9.9372613e-01   5.1274718e-01  -2.5239670e+07
   8.7762588e-10  -8.4361545e-03   9.9137255e-01   5.1420910e-01  -2.5039131e+07
   8.8029343e-10  -8.3696266e-03   9.8904178e-01   5.1566279e-01  -2.4840225e+07
   8.8296099e-10  -8.3036271e-03   9.8673355e-01   5.1710827e-01  -2.4642938e+07
   8.8562854e-10  -8.2381518e-03   9.8444763e-01   5.1854556e-01  -2.4447254e+07
   8.8829610e-10  -8.1731964e-03   9.8218376e-01   5.1997469e-01  -2.4253160e+07
   8.9096365e-10  -8.1087566e-03   9.7994171e-01   5.2139567e-01  -2.4060642e+07
   8.9363121e-10  -8.0448283e-03   9.7772123e-01   5.2280852e-01  -2.3869688e+07
   8.9629877e-10  -7.9814073e-03   9.7552209e-01   5.2421327e-01  -2.3680282e+07
   8.9896632e-10  -7.9184895e-03   9.7334405e-01   5.2560994e-01  -2.3492411e+07
   9.0163388e-10  -7.8560708e-03   9.7118689e-01   5.2699855e-01  -2.3306063e+07
   9.0430143e-10  -7.7941472e-03   9.6905038e-01   5.2837912e-01  -2.3121224e+07
   9.0696899e-10  -7.7327147e-03   9.6693428e-01   5.2975169e-01  -2.2937882e+07
   9.0963655e-10  -7.6717692e-03   9.6483839e-01   5.3111626e-01  -2.2756022e+07
   9.1230410e-10  -7.6113070e-03   9.6276248e-01   5.3247286e-01  -2.2575634e+07
   9.1497166e-10  -7.5513239e-03   9.6070633e-01   5.3382153e-01  -2.2396703e+07
   9.1763921e-10  -7.4918163e-03   9.5866973e-01   5.3516227e-01  -2.2219217e+07
   9.2030677e-10  -7.4327802e-03   9.5665248e-01   5.3649513e-01  -2.2043165e+07
   9.2297432e-10  -7.3742118e-03   9.5465436e-01   5.3782011e-01  -2.1868534e+07
   9.2564188e-10  -7.3161074e-03   9.5267517e-01   5.3913726e-01  -2.1695311e+07
   9.2830944e-10  -7.2584632e-03   9.5071470e-01   5.4044658e-01  -2.1523485e+07
   9.3097699e-10  -7.2012755e-03   9.4877275e-01   5.4174812e-01  -2.1353044e+07
   9.3364455e-10  -7.1445406e-03   9.4684914e-01   5.4304189e-01  -2.1183976e+07
   9.3631210e-10  -7.0882549e-03   9.4494365e-01   5.4432792e-01  -2.1016270e+07
   9.3897966e-10  -7.0324148e-03   9.4305610e-01   5.4560624e-01  -2.0849913e+07
   9.4164722e-10  -6.9770166e-03   9.4118630e-01   5.4687687e-01  -2.0684895e+07
   9.4431477e-10  -6.9220569e-03   9.3933406e-01   5.4813985e-01  -2.0521204e+07
   9.4698233e-10  -6.8675321e-03   9.3749919e-01   5.4939519e-01  -2.0358829e+07
   9.4964988e-10  -6.8134387e-03   9.3568151e-01   5.5064294e-01  -2.0197759e+07
   9.5231744e-10  -6.7597732e-03   9.3388083e-01   5.5188310e-01  -2.0037982e+07
   9.5498499e-10  -6.7065322e-03   9.3209699e-01   5.5311572e-01  -1.9879489e+07
   9.5765255e-10  -6.6537123e-03   9.3032980e-01   5.5434082e-01  -1.9722267e+07
   9.6032011e-10  -6.6013101e-03   9.2857908e-01   5.5555843e-01  -1.9566307e+07
   9.6298766e-10  -6.5493223e-03   9.2684467e-01   5.5676857e-01  -1.9411598e+07
   9.6565522e-10  -6.4977455e-03   9.2512640e-01   5.5797128e-01  -1.9258129e+07
   9.6832277e-10  -6.4465765e-03   9.2342409e-01   5.5916659e-01  -1.9105891e+07
   9.7099033e-10  -6.3958120e-03   9.2173757e-01   5.6035452e-01  -1.8954872e+07
   9.7365789e-10  -6.3454486e-03   9.2006669e-01   5.6153510e-01  -1.8805062e+07
   9.7632544e-10  -6.2954833e-03   9.1841129e-01   5.6270837e-01  -1.8656452e+07
   9.7899300e-10  -6.2459129e-03   9.1677119e-01   5.6387435e-01  -1.8509031e+07
   9.8166055e-10  -6.1967341e-03   9.1514625e-01   5.6503306e-01  -1.8362790e+07
   9.8432811e-10  -6.1479439e-03   9.1353630e-01   5.6618456e-01  -1.8217719e+07
   9.8699567e-10  -6.0995391e-03   9.1194119e-01   5.6732885e-01  -1.8073807e+07
   9.8966322e-10  -6.0515167e-03   9.1036077e-01   5.6846597e-01  -1.7931046e+07
   9.9233078e-10  -6.0038735e-03   9.0879489e-01   5.6959596e-01  -1.7789426e+07
   9.9499833e-10  -5.9566067e-03   9.0724339e-01   5.7071883e-01  -1.7648937e+07
   9.9766589e-10  -5.9097131e-03   9.0570614e-01   5.7183463e-01  -1.7509570e+07
   1.0003334e-09  -5.8631897e-03   9.0418298e-01   5.7294339e-01  -1.7371316e+07
   1.0030010e-09  -5.8170338e-03   9.0267376e-01   5.7404512e-01  -1.7234165e+07
   1.0056686e-09  -5.7712422e-03   9.0117836e-01   5.7513987e-01  -1.7098108e+07
   1.0083361e-09  -5.7258121e-03   8.9969662e-01   5.7622767e-01  -1.6963137e+07
   1.0110037e-09  -5.6807406e-03   8.9822841e-01   5.7730854e-01  -1.6829242e+07
   1.0136712e-09  -5.6360248e-03   8.9677359e-01   5.7838252e-01  -1.6696415e+07
   1.0163388e-09  -5.5916620e-03   8.9533202e-01   5.7944964e-01  -1.6564646e+07
   1.0190063e-09  -5.5476493e-03   8.9390357e-01   5.8050992e-01  -1.6433928e+07
   1.0216739e-09  -5.5039838e-03   8.9248811e-01   5.8156341e-01  -1.6304251e+07
   1.0243414e-09  -5.4606629e-03   8.9108551e-01   5.8261013e-01  -1.6175606e+07
   1.0270090e-09  -5.4176839e-03   8.8969563e-01   5.8365011e-01  -1.6047986e+07
   1.0296766e-09  -5.3750439e-03   8.8831835e-01   5.8468338e-01  -1.5921382e+07
   1.0323441e-09  -5.3327402e-03   8.8695354e-01   5.8570998e-01  -1.5795785e+07
   1.0350117e-09  -5.2907703e-03   8.8560108e-01   5.8672994e-01  -1.5671188e+07
   1.0376792e-09  -5.2491314e-03   8.8426084e-01   5.8774329e-01  -1.5547582e+07
   1.0403468e-09  -5.2078210e-03   8.8293270e-01   5.8875006e-01  -1.5424959e+07
   1.0430143e-09  -5.1668363e-03   8.8161654e-01   5.8975028e-01  -1.5303311e+07
   1.0456819e-09  -5.1261749e-03   8.8031223e-01   5.9074398e-01  -1.5182631e+07
   1.0483494e-09  -5.0858341e-03   8.7901968e-01   5.9173120e-01  -1.5062909e+07
   1.0510170e-09  -5.0458113e-03   8.7773874e-01   5.9271196e-01  -1.4944139e+07
   1.0536846e-09  -5.0061042e-03   8.7646931e-01   5.9368631e-01  -1.4826312e+07
   1.0563521e-09  -4.9667101e-03   8.7521128e-01   5.9465426e-01  -1.4709421e+07
   1.0590197e-09  -4.9276266e-03   8.7396454e-01   5.9561585e-01  -1.4593458e+07
   1.0616872e-09  -4.8888512e-03   8.7272896e-01   5.9657112e-01  -1.4478417e+07
   1.0643548e-09  -4.8503815e-03   8.7150444e-01   5.9752010e-01  -1.4364288e+07
   1.0670223e-09  -4.8122150e-03   8.7029087e-01   5.9846281e-01  -1.4251065e+07
   1.0696899e-09  -4.7743493e-03   8.6908815e-01   5.9939929e-01  -1.4138741e+07
   1.0723575e-09  -4.7367821e-03   8.6789616e-01   6.0032957e-01  -1.4027308e+07
   1.0750250e-09  -4.6995109e-03   8.6671481e-01   6.0125369e-01  -1.3916759e+07
   1.0776926e-09  -4.6625335e-03   8.6554398e-01   6.0217167e-01  -1.3807086e+07
   1.0803601e-09  -4.6258475e-03   8.6438358e-01   6.0308354e-01  -1.3698283e+07
   1.0830277e-09  -4.5894505e-03   8.6323349e-01   6.0398934e-01  -1.3590343e+07
   1.0856952e-09  -4.5533404e-03   8.6209363e-01   6.0488910e-01  -1.3483259e+07
   1.0883628e-09  -4.5175147e-03   8.6096389e-01   6.0578286e-01  -1.3377023e+07
   1.0910303e-09  -4.4819714e-03   8.5984418e-01   6.0667063e-01  -1.3271629e+07
   1.0936979e-09  -4.4467080e-03   8.5873438e-01   6.0755246e-01  -1.3167070e+07
   1.0963655e-09  -4.4117225e-03   8.5763442e-01   6.0842837e-01  -1.3063340e+07
   1.0990330e-09  -4.3770126e-03   8.5654419e-01   6.0929840e-01  -1.2960431e+07
   1.1017006e-09  -4.3425761e-03   8.5546360e-01   6.1016258e-01  -1.2858337e+07
   1.1043681e-09  -4.3084109e-03   8.5439256e-01   6.1102094e-01  -1.2757051e+07
   1.1070357e-09  -4.2745148e-03   8.5333097e-01   6.1187351e-01  -1.2656567e+07
   1.1097032e-09  -4.2408857e-03   8.5227874e-01   6.1272032e-01  -1.2556879e+07
   1.1123708e-09  -4.2075214e-03   8.5123579e-01   6.1356141e-01  -1.2457980e+07
   1.1150383e-09  -4.1744200e-03   8.5020201e-01   6.1439680e-01  -1.2359864e+07
   1.1177059e-09  -4.1415792e-03   8.4917734e-01   6.1522653e-01  -1.2262523e+07
   1.1203735e-09  -4.1089970e-03   8.4816167e-01   6.1605063e-01  -1.2165953e+07
   1.1230410e-09  -4.0766715e-03   8.4715492e-01   6.1686912e-01  -1.2070147e+07
   1.1257086e-09  -4.0446005e-03   8.4615701e-01   6.1768205e-01  -1.1975099e+07
   1.1283761e-09  -4.0127820e-03   8.4516785e-01   6.1848944e-01  -1.1880802e+07
   1.1310437e-09  -3.9812141e-03   8.4418736e-01   6.1929132e-01  -1.1787252e+07
   1.1337112e-09  -3.9498948e-03   8.4321545e-01   6.2008772e-01  -1.1694440e+07
   1.1363788e-09  -3.9188220e-03   8.4225204e-01   6.2087867e-01  -1.1602363e+07
   1.1390463e-09  -3.8879939e-03   8.4129706e-01   6.2166421e-01  -1.1511013e+07
   1.1417139e-09  -3.8574085e-03   8.4035042e-01   6.2244436e-01  -1.1420386e+07
   1.1443815e-09  -3.8270640e-03   8.3941205e-01   6.2321916e-01  -1.1330474e+07
   1.1470490e-09  -3.7969583e-03   8.3848186e-01   6.2398864e-01  -1.1241273e+07
   1.1497166e-09  -3.7670896e-03   8.3755977e-01   6.2475282e-01  -1.1152777e+07
   1.1523841e-09  -3.7374561e-03   8.3664572e-01   6.2551174e-01  -1.1064980e+07
   1.1550517e-09  -3.7080558e-03   8.3573962e-01   6.2626543e-01  -1.0977877e+07
   1.1577192e-09  -3.6788870e-03   8.3484141e-01   6.2701391e-01  -1.0891462e+07
   1.1603868e-09  -3.6499477e-03   8.3395099e-01   6.2775722e-01  -1.0805729e+07
   1.1630544e-09  -3.6212363e-03   8.3306831e-01   6.2849539e-01  -1.0720673e+07
   1.1657219e-09  -3.5927509e-03   8.3219329e-01   6.2922845e-01  -1.0636289e+07
   1.1683895e-09  -3.5644897e-03   8.3132586e-01   6.2995642e-01  -1.0552571e+07
   1.1710570e-09  -3.5364509e-03   8.3046595e-01   6.3067934e-01  -1.0469515e+07
   1.1737246e-09  -3.5086328e-03   8.2961348e-01   6.3139724e-01  -1.0387113e+07
   1.1763921e-09  -3.4810336e-03   8.2876838e-01   6.3211015e-01  -1.0305363e+07
   1.1790597e-09  -3.4536517e-03   8.2793060e-01   6.3281809e-01  -1.0224257e+07
   1.1817272e-09  -3.4264852e-03   8.2710005e-01   6.3352109e-01  -1.0143792e+07
   1.1843948e-09  -3.3995326e-03   8.2627668e-01   6.3421920e-01  -1.0063962e+07
   1.1870624e-09  -3.3727921e-03   8.2546041e-01   6.3491242e-01  -9.9847611e+06
   1.1897299e-09  -3.3462620e-03   8.2465118e-01   6.3560080e-01  -9.9061856e+06
   1.1923975e-09  -3.3199407e-03   8.2384893e-01   6.3628436e-01  -9.8282300e+06
   1.1950650e-09  -3.2938265e-03   8.2305358e-01   6.3696314e-01  -9.7508894e+06
   1.1977326e-09  -3.2679178e-03   8.2226508e-01   6.3763715e-01  -9.6741589e+06
   1.2004001e-09  -3.2422130e-03   8.2148336e-01   6.3830643e-01  -9.5980337e+06
   1.2030677e-09  -3.2167104e-03   8.2070836e-01   6.3897101e-01  -9.5225088e+06
   1.2057352e-09  -3.1914086e-03   8.1994001e-01   6.3963092e-01  -9.4475796e+06
   1.2084028e-09  -3.1663058e-03   8.1917826e-01   6.4028618e-01  -9.3732413e+06
   1.2110704e-09  -3.1414005e-03   8.1842305e-01   6.4093683e-01  -9.2994892e+06
   1.2137379e-09  -3.1166912e-03   8.1767430e-01   6.4158289e-01  -9.2263187e+06
   1.2164055e-09  -3.0921763e-03   8.1693198e-01   6.4222438e-01  -9.1537250e+06
   1.2190730e-09  -3.0678543e-03   8.1619601e-01   6.4286135e-01  -9.0817037e+06
   1.2217406e-09  -3.0437237e-03   8.1546633e-01   6.4349381e-01  -9.0102501e+06
   1.2244081e-09  -3.0197829e-03   8.1474290e-01   6.4412179e-01  -8.9393598e+06
   1.2270757e-09  -2.9960305e-03   8.1402565e-01   6.4474532e-01  -8.8690283e+06
   1.2297432e-09  -2.9724649e-03   8.1331452e-01   6.4536444e-01  -8.7992511e+06
   1.2324108e-09  -2.9490848e-03   8.1260947e-01   6.4597916e-01  -8.7300239e+06
   1.2350784e-09  -2.9258886e-03   8.1191043e-01   6.4658951e-01  -8.6613423e+06
   1.2377459e-09  -2.9028748e-03   8.1121735e-01   6.4719553e-01  -8.5932020e+06
   1.2404135e-09  -2.8800422e-03   8.1053017e-01   6.4779723e-01  -8.5255985e+06
   1.2430810e-09  -2.8573891e-03   8.0984885e-01   6.4839465e-01  -8.4585278e+06
   1.2457486e-09  -2.8349143e-03   8.0917332e-01   6.4898781e-01  -8.3919856e+06
   1.2484161e-09  -2.8126163e-03   8.0850354e-01   6.4957674e-01  -8.3259676e+06
   1.2510837e-09  -2.7904937e-03   8.0783946e-01   6.5016146e-01  -8.2604698e+06
   1.2537513e-09  -2.7685451e-03   8.0718101e-01   6.5074201e-01  -8.1954879e+06
   1.2564188e-09  -2.7467692e-03   8.0652816e-01   6.5131841e-01  -8.1310180e+06
   1.2590864e-09  -2.7251645e-03   8.0588084e-01   6.5189068e-01  -8.0670559e+06
   1.2617539e-09  -2.7037299e-03   8.0523902e-01   6.5245885e-01  -8.0035976e+06
   1.2644215e-09  -2.6824638e-03   8.0460263e-01   6.5302295e-01  -7.9406392e+06
   1.2670890e-09  -2.6613650e-03   8.0397164e-01   6.5358301e-01  -7.8781766e+06
   1.2697566e-09  -2.6404322e-03   8.0334599e-01   6.5413904e-01  -7.8162060e+06
   1.2724241e-09  -2.6196641e-03   8.0272563e-01   6.5469108e-01  -7.7547235e+06
   1.2750917e-09  -2.5990593e-03   8.0211053e-01   6.5523916e-01  -7.6937251e+06
   1.2777593e-09  -2.5786166e-03   8.0150062e-01   6.5578328e-01  -7.6332070e+06
   1.2804268e-09  -2.5583346e-03   8.0089586e-01   6.5632349e-01  -7.5731656e+06
   1.2830944e-09  -2.5382123e-03   8.0029621e-01   6.5685981e-01  -7.5135969e+06
   1.2857619e-09  -2.5182482e-03   7.9970162e-01   6.5739226e-01  -7.4544972e+06
   1.2884295e-09  -2.4984411e-03   7.9911205e-01   6.5792087e-01  -7.3958629e+06
   1.2910970e-09  -2.4787898e-03   7.9852745e-01   6.5844567e-01  -7.3376902e+06
   1.2937646e-09  -2.4592931e-03   7.9794777e-01   6.5896667e-01  -7.2799755e+06
   1.2964321e-09  -2.4399497e-03   7.9737298e-01   6.5948390e-01  -7.2227152e+06
   1.2990997e-09  -2.4207585e-03   7.9680302e-01   6.5999739e-01  -7.1659056e+06
   1.3017673e-09  -2.4017182e-03   7.9623787e-01   6.6050716e-01  -7.1095433e+06
   1.3044348e-09  -2.3828277e-03   7.9567746e-01   6.6101324e-01  -7.0536246e+06
   1.3071024e-09  -2.3640858e-03   7.9512176e-01   6.6151564e-01  -6.9981461e+06
   1.3097699e-09  -2.3454913e-03   7.9457074e-01   6.6201441e-01  -6.9431043e+06
   1.3124375e-09  -2.3270430e-03   7.9402434e-01   6.6250955e-01  -6.8884958e+06
   1.3151050e-09  -2.3087398e-03   7.9348252e-01   6.6300109e-01  -6.8343170e+06
   1.3177726e-09  -2.2905806e-03   7.9294525e-01   6.6348906e-01  -6.7805647e+06
   1.3204401e-09  -2.2725642e-03   7.9241249e-01   6.6397348e-01  -6.7272355e+06
   1.3231077e-09  -2.2546895e-03   7.9188419e-01   6.6445437e-01  -6.6743259e+06
   1.3257753e-09  -2.2369554e-03   7.9136031e-01   6.6493176e-01  -6.6218328e+06
   1.3284428e-09  -2.2193608e-03   7.9084083e-01   6.6540567e-01  -6.5697527e+06
   1.3311104e-09  -2.2019045e-03   7.9032569e-01   6.6587612e-01  -6.5180825e+06
   1.3337779e-09  -2.1845855e-03   7.8981486e-01   6.6634314e-01  -6.4668189e+06
   1.3364455e-09  -2.1674028e-03   7.8930830e-01   6.6680675e-01  -6.4159588e+06
   1.3391130e-09  -2.1503552e-03   7.8880597e-01   6.6726697e-01  -6.3654988e+06
   1.3417806e-09  -2.1334416e-03   7.8830784e-01   6.6772383e-01  -6.3154359e+06
   1.3444481e-09  -2.1166611e-03   7.8781387e-01   6.6817734e-01  -6.2657669e+06
   1.3471157e-09  -2.1000125e-03   7.8732403e-01   6.6862753e-01  -6.2164887e+06
   1.3497833e-09  -2.0834949e-03   7.8683827e-01   6.6907443e-01  -6.1675982e+06
   1.3524508e-09  -2.0671072e-03   7.8635656e-01   6.6951805e-01  -6.1190925e+06
   1.3551184e-09  -2.0508484e-03   7.8587886e-01   6.6995841e-01  -6.0709683e+06
   1.3577859e-09  -2.0347174e-03   7.8540515e-01   6.7039555e-01  -6.0232228e+06
   1.3604535e-09  -2.0187133e-03   7.8493538e-01   6.7082947e-01  -5.9758529e+06
   1.3631210e-09  -2.0028351e-03   7.8446952e-01   6.7126021e-01  -5.9288557e+06
   1.3657886e-09  -1.9870818e-03   7.8400754e-01   6.7168778e-01  -5.8822282e+06
   1.3684562e-09  -1.9714523e-03   7.8354940e-01   6.7211221e-01  -5.8359676e+06
   1.3711237e-09  -1.9559458e-03   7.8309507e-01   6.7253351e-01  -5.7900709e+06
   1.3737913e-09  -1.9405612e-03   7.8264451e-01   6.7295171e-01  -5.7445352e+06
   1.3764588e-09  -1.9252976e-03   7.8219770e-01   6.7336684e-01  -5.6993578e+06
   1.3791264e-09  -1.9101540e-03   7.8175460e-01   6.7377890e-01  -5.6545357e+06
   1.3817939e-09  -1.8951295e-03   7.8131518e-01   6.7418792e-01  -5.6100662e+06
   1.3844615e-09  -1.8802232e-03   7.8087940e-01   6.7459392e-01  -5.5659465e+06
   1.3871290e-09  -1.8654341e-03   7.8044723e-01   6.7499693e-01  -5.5221739e+06
   1.3897966e-09  -1.8507614e-03   7.8001865e-01   6.7539696e-01  -5.4787456e+06
   1.3924642e-09  -1.8362040e-03   7.7959362e-01   6.7579403e-01  -5.4356589e+06
   1.3951317e-09  -1.8217611e-03   7.7917211e-01   6.7618817e-01  -5.3929111e+06
   1.3977993e-09  -1.8074318e-03   7.7875410e-01   6.7657940e-01  -5.3504995e+06
   1.4004668e-09  -1.7932151e-03   7.7833954e-01   6.7696772e-01  -5.3084215e+06
   1.4031344e-09  -1.7791103e-03   7.7792841e-01   6.7735317e-01  -5.2666745e+06
   1.4058019e-09  -1.7651164e-03   7.7752068e-01   6.7773577e-01  -5.2252558e+06
   1.4084695e-09  -1.7512326e-03   7.7711632e-01   6.7811553e-01  -5.1841629e+06
   1.4111370e-09  -1.7374579e-03   7.7671531e-01   6.7849247e-01  -5.1433932e+06
   1.4138046e-09  -1.7237916e-03   7.7631761e-01   6.7886662e-01  -5.1029442e+06
   1.4164722e-09  -1.7102327e-03   7.7592319e-01   6.7923799e-01  -5.0628133e+06
   1.4191397e-09  -1.6967805e-03   7.7553203e-01   6.7960660e-01  -5.0229980e+06
   1.4218073e-09  -1.6834341e-03   7.7514410e-01   6.7997247e-01  -4.9834958e+06
   1.4244748e-09  -1.6701926e-03   7.7475936e-01   6.8033562e-01  -4.9443043e+06
   1.4271424e-09  -1.6570553e-03   7.7437780e-01   6.8069607e-01  -4.9054210e+06
   1.4298099e-09  -1.6440212e-03   7.7399939e-01   6.8105384e-01  -4.8668435e+06
   1.4324775e-09  -1.6310897e-03   7.7362409e-01   6.8140895e-01  -4.8285695e+06
   1.4351450e-09  -1.6182599e-03   7.7325189e-01   6.8176141e-01  -4.7905964e+06
   1.4378126e-09  -1.6055310e-03   7.7288275e-01   6.8211125e-01  -4.7529219e+06
   1.4404802e-09  -1.5929021e-03   7.7251665e-01   6.8245848e-01  -4.7155437e+06
   1.4431477e-09  -1.5803726e-03   7.7215356e-01   6.8280311e-01  -4.6784595e+06
   1.4458153e-09  -1.5679417e-03   7.7179346e-01   6.8314518e-01  -4.6416669e+06
   1.4484828e-09  -1.5556084e-03   7.7143632e-01   6.8348470e-01  -4.6051636e+06
   1.4511504e-09  -1.5433722e-03   7.7108212e-01   6.8382168e-01  -4.5689474e+06
   1.4538179e-09  -1.5312322e-03   7.7073083e-01   6.8415614e-01  -4.5330160e+06
   1.4564855e-09  -1.5191877e-03   7.7038242e-01   6.8448810e-01  -4.4973671e+06
   1.4591531e-09  -1.5072379e-03   7.7003688e-01   6.8481758e-01  -4.4619986e+06
   1.4618206e-09  -1.4953821e-03   7.6969417e-01   6.8514460e-01  -4.4269082e+06
   1.4644882e-09  -1.4836195e-03   7.6935427e-01   6.8546917e-01  -4.3920937e+06
   1.4671557e-09  -1.4719494e-03   7.6901717e-01   6.8579131e-01  -4.3575530e+06
   1.4698233e-09  -1.4603711e-03   7.6868283e-01   6.8611103e-01  -4.3232840e+06
   1.4724908e-09  -1.4488839e-03   7.6835123e-01   6.8642837e-01  -4.2892844e+06
   1.4751584e-09  -1.4374870e-03   7.6802234e-01   6.8674332e-01  -4.2555521e+06
   1.4778259e-09  -1.4261797e-03   7.6769616e-01   6.8705591e-01  -4.2220851e+06
   1.4804935e-09  -1.4149614e-03   7.6737264e-01   6.8736616e-01  -4.1888813e+06
   1.4831611e-09  -1.4038312e-03   7.6705178e-01   6.8767408e-01  -4.1559385e+06
   1.4858286e-09  -1.3927886e-03   7.6673354e-01   6.8797969e-01  -4.1232548e+06
   1.4884962e-09  -1.3818329e-03   7.6641791e-01   6.8828300e-01  -4.0908281e+06
   1.4911637e-09  -1.3709633e-03   7.6610486e-01   6.8858404e-01  -4.0586563e+06
   1.4938313e-09  -1.3601792e-03   7.6579437e-01   6.8888281e-01  -4.0267376e+06
   1.4964988e-09  -1.3494799e-03   7.6548641e-01   6.8917934e-01  -3.9950698e+06
   1.4991664e-09  -1.3388647e-03   7.6518098e-01   6.8947363e-01  -3.9636510e+06
   1.5018339e-09  -1.3283330e-03   7.6487804e-01   6.8976572e-01  -3.9324793e+06
   1.5045015e-09  -1.3178842e-03   7.6457758e-01   6.9005560e-01  -3.9015526e+06
   1.5071691e-09  -1.3075175e-03   7.6427957e-01   6.9034330e-01  -3.8708692e+06
   1.5098366e-09  -1.2972323e-03   7.6398399e-01   6.9062884e-01  -3.8404270e+06
   1.5125042e-09  -1.2870281e-03   7.6369083e-01   6.9091222e-01  -3.8102242e+06
   1.5151717e-09  -1.2769041e-03   7.6340006e-01   6.9119347e-01  -3.7802588e+06
   1.5178393e-09  -1.2668597e-03   7.6311166e-01   6.9147260e-01  -3.7505291e+06
   1.5205068e-09  -1.2568943e-03   7.6282562e-01   6.9174962e-01  -3.7210332e+06
   1.5231744e-09  -1.2470073e-03   7.6254190e-01   6.9202455e-01  -3.6917691e+06
   1.5258419e-09  -1.2371980e-03   7.6226050e-01   6.9229741e-01  -3.6627352e+06
   1.5285095e-09  -1.2274659e-03   7.6198140e-01   6.9256821e-01  -3.6339295e+06
   1.5311771e-09  -1.2178103e-03   7.6170456e-01   6.9283696e-01  -3.6053504e+06
   1.5338446e-09  -1.2082306e-03   7.6142998e-01   6.9310369e-01  -3.5769959e+06
   1.5365122e-09  -1.1987263e-03   7.6115764e-01   6.9336839e-01  -3.5488644e+06
   1.5391797e-09  -1.1892968e-03   7.6088752e-01   6.9363110e-01  -3.5209541e+06
   1.5418473e-09  -1.1799414e-03   7.6061959e-01   6.9389182e-01  -3.4932633e+06
   1.5445148e-09  -1.1706595e-03   7.6035384e-01   6.9415056e-01  -3.4657901e+06
   1.5471824e-09  -1.1614507e-03   7.6009026e-01   6.9440735e-01  -3.4385330e+06
   1.5498499e-09  -1.1523143e-03   7.5982881e-01   6.9466220e-01  -3.4114902e+06
   1.5525175e-09  -1.1432498e-03   7.5956950e-01   6.9491511e-01  -3.3846601e+06
   1.5551851e-09  -1.1342565e-03   7.5931229e-01   6.9516611e-01  -3.3580408e+06
   1.5578526e-09  -1.1253340e-03   7.5905717e-01   6.9541521e-01  -3.3316309e+06
   1.5605202e-09  -1.1164816e-03   7.5880413e-01   6.9566242e-01  -3.3054287e+06
   1.5631877e-09  -1.1076989e-03   7.5855314e-01   6.9590776e-01  -3.2794324e+06
   1.5658553e-09  -1.0989852e-03   7.5830418e-01   6.9615124e-01  -3.2536406e+06
   1.5685228e-09  -1.0903401e-03   7.5805725e-01   6.9639287e-01  -3.2280516e+06
   1.5711904e-09  -1.0817629e-03   7.5781233e-01   6.9663266e-01  -3.2026637e+06
   1.5738580e-09  -1.0732533e-03   7.5756939e-01   6.9687064e-01  -3.1774755e+06
   1.5765255e-09  -1.0648105e-03   7.5732842e-01   6.9710681e-01  -3.1524853e+06
   1.5791931e-09  -1.0564342e-03   7.5708940e-01   6.9734118e-01  -3.1276916e+06
   1.5818606e-09  -1.0481237e-03   7.5685233e-01   6.9757378e-01  -3.1030929e+06
   1.5845282e-09  -1.0398786e-03   7.5661717e-01   6.9780461e-01  -3.0786876e+06
   1.5871957e-09  -1.0316983e-03   7.5638392e-01   6.9803368e-01  -3.0544741e+06
   1.5898633e-09  -1.0235824e-03   7.5615257e-01   6.9826101e-01  -3.0304511e+06
   1.5925308e-09  -1.0155303e-03   7.5592308e-01   6.9848661e-01  -3.0066169e+06
   1.5951984e-09  -1.0075415e-03   7.5569546e-01   6.9871050e-01  -2.9829701e+06
   1.5978660e-09  -9.9961555e-04   7.5546968e-01   6.9893268e-01  -2.9595093e+06
   1.6005335e-09  -9.9175194e-04   7.5524572e-01   6.9915318e-01  -2.9362329e+06
   1.6032011e-09  -9.8395019e-04   7.5502358e-01   6.9937199e-01  -2.9131396e+06
   1.6058686e-09  -9.7620979e-04   7.5480324e-01   6.9958914e-01  -2.8902278e+06
   1.6085362e-09  -9.6853027e-04   7.5458468e-01   6.9980463e-01  -2.8674962e+06
   1.6112037e-09  -9.6091115e-04   7.5436788e-01   7.0001848e-01  -2.8449433e+06
   1.6138713e-09  -9.5335196e-04   7.5415284e-01   7.0023070e-01  -2.8225677e+06
   1.6165388e-09  -9.4585222e-04   7.5393954e-01   7.0044131e-01  -2.8003681e+06
   1.6192064e-09  -9.3841146e-04   7.5372797e-01   7.0065031e-01  -2.7783430e+06
   1.6218740e-09  -9.3102923e-04   7.5351810e-01   7.0085771e-01  -2.7564911e+06
   1.6245415e-09  -9.2370506e-04   7.5330993e-01   7.0106353e-01  -2.7348110e+06
   1.6272091e-09  -9.1643849e-04   7.5310344e-01   7.0126778e-01  -2.7133014e+06
   1.6298766e-09  -9.0922908e-04   7.5289862e-01   7.0147047e-01  -2.6919609e+06
   1.6325442e-09  -9.0207637e-04   7.5269545e-01   7.0167162e-01  -2.6707883e+06
   1.6352117e-09  -8.9497992e-04   7.5249392e-01   7.0187123e-01  -2.6497820e+06
   1.6378793e-09  -8.8793928e-04   7.5229402e-01   7.0206931e-01  -2.6289410e+06
   1.6405468e-09  -8.8095402e-04   7.5209574e-01   7.0226588e-01  -2.6082638e+06
   1.6432144e-09  -8.7402369e-04   7.5189905e-01   7.0246095e-01  -2.5877492e+06
   1.6458820e-09  -8.6714788e-04   7.5170395e-01   7.0265453e-01  -2.5673960e+06
   1.6485495e-09  -8.6032615e-04   7.5151043e-01   7.0284662e-01  -2.5472027e+06
   1.6512171e-09  -8.5355807e-04   7.5131846e-01   7.0303725e-01  -2.5271682e+06
   1.6538846e-09  -8.4684323e-04   7.5112804e-01   7.0322642e-01  -2.5072913e+06
   1.6565522e-09  -8.4018120e-04   7.5093916e-01   7.0341415e-01  -2.4875707e+06
   1.6592197e-09  -8.3357157e-04   7.5075180e-01   7.0360043e-01  -2.4680051e+06
   1.6618873e-09  -8.2701392e-04   7.5056595e-01   7.0378529e-01  -2.4485934e+06
   1.6645549e-09  -8.2050786e-04   7.5038160e-01   7.0396874e-01  -2.4293343e+06
   1.6672224e-09  -8.1405296e-04   7.5019873e-01   7.0415078e-01  -2.4102266e+06
   1.6698900e-09  -8.0764884e-04   7.5001733e-01   7.0433143e-01  -2.3912692e+06
   1.6725575e-09  -8.0129509e-04   7.4983740e-01   7.0451069e-01  -2.3724608e+06
   1.6752251e-09  -7.9499131e-04   7.4965891e-01   7.0468858e-01  -2.3538003e+06
   1.6778926e-09  -7.8873712e-04   7.4948186e-01   7.0486510e-01  -2.3352866e+06
   1.6805602e-09  -7.8253212e-04   7.4930624e-01   7.0504028e-01  -2.3169185e+06
   1.6832277e-09  -7.7637592e-04   7.4913203e-01   7.0521410e-01  -2.2986947e+06
   1.6858953e-09  -7.7026814e-04   7.4895922e-01   7.0538660e-01  -2.2806143e+06
   1.6885629e-09  -7.6420841e-04   7.4878780e-01   7.0555777e-01  -2.2626760e+06
   1.6912304e-09  -7.5819634e-04   7.4861776e-01   7.0572763e-01  -2.2448788e+06
   1.6938980e-09  -7.5223156e-04   7.4844909e-01   7.0589619e-01  -2.2272216e+06
   1.6965655e-09  -7.4631369e-04   7.4828177e-01   7.0606345e-01  -2.2097032e+06
   1.6992331e-09  -7.4044237e-04   7.4811580e-01   7.0622943e-01  -2.1923225e+06
   1.7019006e-09  -7.3461724e-04   7.4795116e-01   7.0639414e-01  -2.1750785e+06
   1.7045682e-09  -7.2883792e-04   7.4778784e-01   7.0655758e-01  -2.1579701e+06
   1.7072357e-09  -7.2310406e-04   7.4762584e-01   7.0671976e-01  -2.1409962e+06
   1.7099033e-09  -7.1741530e-04   7.4746514e-01   7.0688070e-01  -2.1241558e+06
   1.7125709e-09  -7.1177128e-04   7.4730573e-01   7.0704040e-01  -2.1074479e+06
   1.7152384e-09  -7.0617167e-04   7.4714760e-01   7.0719887e-01  -2.0908713e+06
   1.7179060e-09  -7.0061609e-04   7.4699074e-01   7.0735613e-01  -2.0744250e+06
   1.7205735e-09  -6.9510422e-04   7.4683514e-01   7.0751218e-01  -2.0581081e+06
   1.7232411e-09  -6.8963570e-04   7.4668078e-01   7.0766702e-01  -2.0419195e+06
   1.7259086e-09  -6.8421019e-04   7.4652767e-01   7.0782068e-01  -2.0258582e+06
   1.7285762e-09  -6.7882736e-04   7.4637578e-01   7.0797315e-01  -2.0099232e+06
   1.7312437e-09  -6.7348687e-04   7.4622512e-01   7.0812445e-01  -1.9941135e+06
   1.7339113e-09  -6.6818839e-04   7.4607566e-01   7.0827459e-01  -1.9784281e+06
   1.7365789e-09  -6.6293158e-04   7.4592740e-01   7.0842357e-01  -1.9628660e+06
   1.7392464e-09  -6.5771613e-04   7.4578033e-01   7.0857140e-01  -1.9474264e+06
   1.7419140e-09  -6.5254170e-04   7.4563444e-01   7.0871810e-01  -1.9321081e+06
   1.7445815e-09  -6.4740797e-04   7.4548972e-01   7.0886366e-01  -1.9169103e+06
   1.7472491e-09  -6.4231462e-04   7.4534616e-01   7.0900811e-01  -1.9018320e+06
   1.7499166e-09  -6.3726133e-04   7.4520375e-01   7.0915144e-01  -1.8868723e+06
   1.7525842e-09  -6.3224780e-04   7.4506248e-01   7.0929367e-01  -1.8720302e+06
   1.7552518e-09  -6.2727370e-04   7.4492235e-01   7.0943480e-01  -1.8573049e+06
   1.7579193e-09  -6.2233873e-04   7.4478333e-01   7.0957484e-01  -1.8426953e+06
   1.7605869e-09  -6.1744257e-04   7.4464543e-01   7.0971381e-01  -1.8282006e+06
   1.7632544e-09  -6.1258493e-04   7.4450863e-01   7.0985170e-01  -1.8138199e+06
   1.7659220e-09  -6.0776550e-04   7.4437293e-01   7.0998853e-01  -1.7995523e+06
   1.7685895e-09  -6.0298398e-04   7.4423832e-01   7.1012431e-01  -1.7853969e+06
   1.7712571e-09  -5.9824007e-04   7.4410478e-01   7.1025903e-01  -1.7713528e+06
   1.7739246e-09  -5.9353348e-04   7.4397232e-01   7.1039272e-01  -1.7574192e+06
   1.7765922e-09  -5.8886391e-04   7.4384091e-01   7.1052538e-01  -1.7435951e+06
   1.7792598e-09  -5.8423107e-04   7.4371055e-01   7.1065701e-01  -1.7298798e+06
   1.7819273e-09  -5.7963468e-04   7.4358124e-01   7.1078763e-01  -1.7162723e+06
   1.7845949e-09  -5.7507444e-04   7.4345297e-01   7.1091723e-01  -1.7027718e+06
   1.7872624e-09  -5.7055007e-04   7.4332571e-01   7.1104584e-01  -1.6893774e+06
   1.7899300e-09  -5.6606129e-04   7.4319948e-01   7.1117345e-01  -1.6760884e+06
   1.7925975e-09  -5.6160782e-04   7.4307426e-01   7.1130008e-01  -1.6629040e+06
   1.7952651e-09  -5.5718939e-04   7.4295003e-01   7.1142573e-01  -1.6498232e+06
   1.7979326e-09  -5.5280571e-04   7.4282680e-01   7.1155041e-01  -1.6368452e+06
   1.8006002e-09  -5.4845651e-04   7.4270456e-01   7.1167413e-01  -1.6239694e+06
   1.8032678e-09  -5.4414152e-04   7.4258329e-01   7.1179689e-01  -1.6111947e+06
   1.8059353e-09  -5.3986048e-04   7.4246300e-01   7.1191870e-01  -1.5985206e+06
   1.8086029e-09  -5.3561312e-04   7.4234366e-01   7.1203957e-01  -1.5859461e+06
   1.8112704e-09  -5.3139916e-04   7.4222528e-01   7.1215951e-01  -1.5734705e+06
   1.8139380e-09  -5.2721836e-04   7.4210784e-01   7.1227852e-01  -1.5610931e+06
   1.8166055e-09  -5.2307044e-04   7.4199134e-01   7.1239660e-01  -1.5488129e+06
   1.8192731e-09  -5.1895515e-04   7.4187577e-01   7.1251378e-01  -1.5366294e+06
   1.8219406e-09  -5.1487223e-04   7.4176113e-01   7.1263005e-01  -1.5245416e+06
   1.8246082e-09  -5.1082143e-04   7.4164740e-01   7.1274542e-01  -1.5125489e+06
   1.8272758e-09  -5.0680250e-04   7.4153458e-01   7.1285989e-01  -1.5006506e+06
   1.8299433e-09  -5.0281518e-04   7.4142266e-01   7.1297348e-01  -1.4888458e+06
   1.8326109e-09  -4.9885923e-04   7.4131163e-01   7.1308619e-01  -1.4771338e+06
   1.8352784e-09  -4.9493439e-04   7.4120149e-01   7.1319803e-01  -1.4655140e+06
   1.8379460e-09  -4.9104044e-04   7.4109223e-01   7.1330900e-01  -1.4539855e+06
   1.8406135e-09  -4.8717711e-04   7.4098384e-01   7.1341912e-01  -1.4425477e+06
   1.8432811e-09  -4.8334417e-04   7.4087632e-01   7.1352838e-01  -1.4311999e+06
   1.8459486e-09  -4.7954139e-04   7.4076965e-01   7.1363679e-01  -1.4199413e+06
   1.8486162e-09  -4.7576852e-04   7.4066383e-01   7.1374437e-01  -1.4087712e+06
   1.8512838e-09  -4.7202533e-04   7.4055886e-01   7.1385111e-01  -1.3976890e+06
   1.8539513e-09  -4.6831159e-04   7.4045473e-01   7.1395703e-01  -1.3866940e+06
   1.8566189e-09  -4.6462706e-04   7.4035143e-01   7.1406212e-01  -1.3757854e+06
   1.8592864e-09  -4.6097152e-04   7.4024895e-01   7.1416640e-01  -1.3649627e+06
   1.8619540e-09  -4.5734473e-04   7.4014728e-01   7.1426987e-01  -1.3542250e+06
   1.8646215e-09  -4.5374647e-04   7.4004643e-01   7.1437254e-01  -1.3435718e+06
   1.8672891e-09  -4.5017652e-04   7.3994638e-01   7.1447441e-01  -1.3330024e+06
   1.8699567e-09  -4.4663466e-04   7.3984713e-01   7.1457550e-01  -1.3225161e+06
   1.8726242e-09  -4.4312065e-04   7.3974867e-01   7.1467580e-01  -1.3121122e+06
   1.8752918e-09  -4.3963429e-04   7.3965100e-01   7.1477532e-01  -1.3017902e+06
   1.8779593e-09  -4.3617536e-04   7.3955410e-01   7.1487407e-01  -1.2915494e+06
   1.8806269e-09  -4.3274363e-04   7.3945798e-01   7.1497205e-01  -1.2813891e+06
   1.8832944e-09  -4.2933891e-04   7.3936262e-01   7.1506928e-01  -1.2713088e+06
   1.8859620e-09  -4.2596096e-04   7.3926802e-01   7.1516575e-01  -1.2613077e+06
   1.8886295e-09  -4.2260960e-04   7.3917418e-01   7.1526147e-01  -1.2513853e+06
   1.8912971e-09  -4.1928459e-04   7.3908108e-01   7.1535645e-01  -1.2415409e+06
   1.8939647e-09  -4.1598574e-04   7.3898872e-01   7.1545069e-01  -1.2317739e+06
   1.8966322e-09  -4.1271285e-04   7.3889710e-01   7.1554420e-01  -1.2220838e+06
   1.8992998e-09  -4.0946570e-04   7.3880621e-01   7.1563698e-01  -1.2124698e+06
   1.9019673e-09  -4.0624409e-04   7.3871604e-01   7.1572905e-01  -1.2029315e+06
   1.9046349e-09  -4.0304783e-04   7.3862659e-01   7.1582040e-01  -1.1934682e+06
   1.9073024e-09  -3.9987672e-04   7.3853786e-01   7.1591103e-01  -1.1840794e+06
   1.9099700e-09  -3.9673055e-04   7.3844983e-01   7.1600097e-01  -1.1747644e+06
   1.9126375e-09  -3.9360913e-04   7.3836250e-01   7.1609021e-01  -1.1655226e+06
   1.9153051e-09  -3.9051227e-04   7.3827586e-01   7.1617875e-01  -1.1563535e+06
   1.9179727e-09  -3.8743977e-04   7.3818991e-01   7.1626661e-01  -1.1472566e+06
   1.9206402e-09  -3.8439144e-04   7.3810465e-01   7.1635378e-01  -1.1382312e+06
   1.9233078e-09  -3.8136710e-04   7.3802007e-01   7.1644028e-01  -1.1292768e+06
   1.9259753e-09  -3.7836654e-04   7.3793616e-01   7.1652610e-01  -1.1203928e+06
   1.9286429e-09  -3.7538959e-04   7.3785292e-01   7.1661126e-01  -1.1115787e+06
   1.9313104e-09  -3.7243606e-04   7.3777033e-01   7.1669575e-01  -1.1028339e+06
   1.9339780e-09  -3.6950577e-04   7.3768841e-01   7.1677959e-01  -1.0941579e+06
   1.9366455e-09  -3.6659853e-04   7.3760714e-01   7.1686278e-01  -1.0855501e+06
   1.9393131e-09  -3.6371416e-04   7.3752651e-01   7.1694532e-01  -1.0770101e+06
   1.9419807e-09  -3.6085248e-04   7.3744653e-01   7.1702722e-01  -1.0685372e+06
   1.9446482e-09  -3.5801331e-04   7.3736718e-01   7.1710848e-01  -1.0601309e+06
   1.9473158e-09  -3.5519648e-04   7.3728846e-01   7.1718911e-01  -1.0517908e+06
   1.9499833e-09  -3.5240181e-04   7.3721037e-01   7.1726911e-01  -1.0435163e+06
   1.9526509e-09  -3.4962913e-04   7.3713289e-01   7.1734849e-01  -1.0353068e+06
   1.9553184e-09  -3.4687826e-04   7.3705604e-01   7.1742725e-01  -1.0271620e+06
   1.9579860e-09  -3.4414903e-04   7.3697979e-01   7.1750540e-01  -1.0190812e+06
   1.9606536e-09  -3.4144127e-04   7.3690415e-01   7.1758294e-01  -1.0110639e+06
   1.9633211e-09  -3.3875482e-04   7.3682912e-01   7.1765988e-01  -1.0031097e+06
   1.9659887e-09  -3.3608950e-04   7.3675467e-01   7.1773622e-01  -9.9521812e+05
   1.9686562e-09  -3.3344514e-04   7.3668082e-01   7.1781197e-01  -9.8738857e+05
   1.9713238e-09  -3.3082159e-04   7.3660756e-01   7.1788712e-01  -9.7962060e+05
   1.9739913e-09  -3.2821869e-04   7.3653488e-01   7.1796169e-01  -9.7191374e+05
   1.9766589e-09  -3.2563625e-04   7.3646278e-01   7.1803568e-01  -9.6426750e+05
   1.9793264e-09  -3.2307414e-04   7.3639124e-01   7.1810910e-01  -9.5668140e+05
   1.9819940e-09  -3.2053218e-04   7.3632028e-01   7.1818194e-01  -9.4915496e+05
   1.9846616e-09  -3.1801022e-04   7.3624988e-01   7.1825422e-01  -9.4168774e+05
   1.9873291e-09  -3.1550810e-04   7.3618004e-01   7.1832593e-01  -9.3427924e+05
   1.9899967e-09  -3.1302567e-04   7.3611075e-01   7.1839708e-01  -9.2692902e+05
   1.9926642e-09  -3.1056277e-04   7.3604202e-01   7.1846768e-01  -9.1963662e+05
   1.9953318e-09  -3.0811924e-04   7.3597383e-01   7.1853773e-01  -9.1240157e+05
   1.9979993e-09  -3.0569493e-04   7.3590618e-01   7.1860724e-01  -9.0522344e+05
   2.0006669e-09  -3.0328970e-04   7.3583907e-01   7.1867620e-01  -8.9810177e+05
   2.0033344e-09  -3.0090340e-04   7.3577249e-01   7.1874463e-01  -8.9103612e+05
   2.0060020e-09  -2.9853586e-04   7.3570644e-01   7.1881252e-01  -8.8402604e+05
   2.0086696e-09  -2.9618695e-04   7.3564091e-01   7.1887988e-01  -8.7707111e+05
   2.0113371e-09  -2.9385653e-04   7.3557591e-01   7.1894672e-01  -8.7017088e+05
   2.0140047e-09  -2.9154443e-04   7.3551142e-01   7.1901304e-01  -8.6332493e+05
   2.0166722e-09  -2.8925053e-04   7.3544744e-01   7.1907884e-01  -8.5653283e+05
   2.0193398e-09  -2.8697467e-04   7.3538397e-01   7.1914413e-01  -8.4979416e+05
   2.0220073e-09  -2.8471672e-04   7.3532100e-01   7.1920891e-01  -8.4310849e+05
   2.0246749e-09  -2.8247653e-04   7.3525853e-01   7.1927318e-01  -8.3647542e+05
   2.0273424e-09  -2.8025397e-04   7.3519656e-01   7.1933696e-01  -8.2989452e+05
   2.0300100e-09  -2.7804889e-04   7.3513508e-01   7.1940023e-01  -8.2336539e+05
   2.0326776e-09  -2.7586116e-04   7.3507409e-01   7.1946301e-01  -8.1688761e+05
   2.0353451e-09  -2.7369065e-04   7.3501358e-01   7.1952531e-01  -8.1046079e+05
   2.0380127e-09  -2.7153721e-04   7.3495355e-01   7.1958711e-01  -8.0408453e+05
   2.0406802e-09  -2.6940071e-04   7.3489399e-01   7.1964844e-01  -7.9775842e+05
   2.0433478e-09  -2.6728102e-04   7.3483491e-01   7.1970929e-01  -7.9148207e+05
   2.0460153e-09  -2.6517800e-04   7.3477630e-01   7.1976966e-01  -7.8525510e+05
   2.0486829e-09  -2.6309154e-04   7.3471815e-01   7.1982956e-01  -7.7907710e+05
   2.0513505e-09  -2.6102148e-04   7.3466047e-01   7.1988899e-01  -7.7294771e+05
   2.0540180e-09  -2.5896772e-04   7.3460324e-01   7.1994796e-01  -7.6686653e+05
   2.0566856e-09  -2.5693011e-04   7.3454646e-01   7.2000647e-01  -7.6083319e+05
   2.0593531e-09  -2.5490853e-04   7.3449014e-01   7.2006453e-01  -7.5484730e+05
   2.0620207e-09  -2.5290286e-04   7.3443426e-01   7.2012213e-01  -7.4890851e+05
   2.0646882e-09  -2.5091297e-04   7.3437882e-01   7.2017928e-01  -7.4301643e+05
   2.0673558e-09  -2.4893873e-04   7.3432383e-01   7.2023598e-01  -7.3717070e+05
   2.0700233e-09  -2.4698003e-04   7.3426927e-01   7.2029225e-01  -7.3137095e+05
   2.0726909e-09  -2.4503673e-04   7.3421514e-01   7.2034807e-01  -7.2561683e+05
   2.0753585e-09  -2.4310873e-04   7.3416144e-01   7.2040346e-01  -7.1990797e+05
   2.0780260e-09  -2.4119589e-04   7.3410816e-01   7.2045841e-01  -7.1424402e+05
   2.0806936e-09  -2.3929811e-04   7.3405531e-01   7.2051294e-01  -7.0862462e+05
   2.0833611e-09  -2.3741525e-04   7.3400288e-01   7.2056704e-01  -7.0304943e+05
   2.0860287e-09  -2.3554721e-04   7.3395086e-01   7.2062072e-01  -6.9751810e+05
   2.0886962e-09  -2.3369386e-04   7.3389926e-01   7.2067398e-01  -6.9203028e+05
   2.0913638e-09  -2.3185510e-04   7.3384806e-01   7.2072682e-01  -6.8658563e+05
   2.0940313e-09  -2.3003080e-04   7.3379727e-01   7.2077925e-01  -6.8118381e+05
   2.0966989e-09  -2.2822086e-04   7.3374688e-01   7.2083127e-01  -6.7582448e+05
   2.0993665e-09  -2.2642516e-04   7.3369689e-01   7.2088288e-01  -6.7050731e+05
   2.1020340e-09  -2.2464358e-04   7.3364730e-01   7.2093410e-01  -6.6523197e+05
   2.1047016e-09  -2.2287602e-04   7.3359810e-01   7.2098491e-01  -6.5999813e+05
   2.1073691e-09  -2.2112237e-04   7.3354929e-01   7.2103532e-01  -6.5480546e+05
   2.1100367e-09  -2.1938252e-04   7.3350086e-01   7.2108534e-01  -6.4965364e+05
   2.1127042e-09  -2.1765635e-04   7.3345282e-01   7.2113497e-01  -6.4454235e+05
   2.1153718e-09  -2.1594376e-04   7.3340516e-01   7.2118421e-01  -6.3947127e+05
   2.1180393e-09  -2.1424465e-04   7.3335788e-01   7.2123307e-01  -6.3444008e+05
   2.1207069e-09  -2.1255891e-04   7.3331097e-01   7.2128155e-01  -6.2944847e+05
   2.1233745e-09  -2.1088643e-04   7.3326443e-01   7.2132964e-01  -6.2449612e+05
   2.1260420e-09  -2.0922711e-04   7.3321826e-01   7.2137736e-01  -6.1958273e+05
   2.1287096e-09  -2.0758084e-04   7.3317246e-01   7.2142471e-01  -6.1470800e+05
   2.1313771e-09  -2.0594753e-04   7.3312702e-01   7.2147169e-01  -6.0987162e+05
   2.1340447e-09  -2.0432707e-04   7.3308194e-01   7.2151830e-01  -6.0507328e+05
   2.1367122e-09  -2.0271935e-04   7.3303721e-01   7.2156455e-01  -6.0031268e+05
   2.1393798e-09  -2.0112429e-04   7.3299284e-01   7.2161043e-01  -5.9558954e+05
   2.1420473e-09  -1.9954178e-04   7.3294882e-01   7.2165596e-01  -5.9090356e+05
   2.1447149e-09  -1.9797171e-04   7.3290515e-01   7.2170113e-01  -5.8625444e+05
   2.1473825e-09  -1.9641400e-04   7.3286183e-01   7.2174595e-01  -5.8164189e+05
   2.1500500e-09  -1.9486855e-04   7.3281885e-01   7.2179041e-01  -5.7706563e+05
   2.1527176e-09  -1.9333525e-04   7.3277620e-01   7.2183453e-01  -5.7252537e+05
   2.1553851e-09  -1.9181402e-04   7.3273390e-01   7.2187831e-01  -5.6802083e+05
   2.1580527e-09  -1.9030476e-04   7.3269193e-01   7.2192174e-01  -5.6355172e+05
   2.1607202e-09  -1.8880737e-04   7.3265029e-01   7.2196483e-01  -5.5911777e+05
   2.1633878e-09  -1.8732176e-04   7.3260898e-01   7.2200759e-01  -5.5471871e+05
   2.1660554e-09  -1.8584784e-04   7.3256800e-01   7.2205001e-01  -5.5035425e+05
   2.1687229e-09  -1.8438552e-04   7.3252734e-01   7.2209210e-01  -5.4602412e+05
   2.1713905e-09  -1.8293471e-04   7.3248701e-01   7.2213386e-01  -5.4172806e+05
   2.1740580e-09  -1.8149530e-04   7.3244699e-01   7.2217529e-01  -5.3746580e+05
   2.1767256e-09  -1.8006723e-04   7.3240729e-01   7.2221640e-01  -5.3323707e+05
   2.1793931e-09  -1.7865039e-04   7.3236790e-01   7.2225719e-01  -5.2904161e+05
   2.1820607e-09  -1.7724469e-04   7.3232883e-01   7.2229765e-01  -5.2487915e+05
   2.1847282e-09  -1.7585006e-04   7.3229006e-01   7.2233781e-01  -5.2074944e+05
   2.1873958e-09  -1.7446640e-04   7.3225161e-01   7.2237764e-01  -5.1665221e+05
   2.1900634e-09  -1.7309363e-04   7.3221345e-01   7.2241717e-01  -5.1258722e+05
   2.1927309e-09  -1.7173166e-04   7.3217560e-01   7.2245639e-01  -5.0855421e+05
   2.1953985e-09  -1.7038040e-04   7.3213804e-01   7.2249530e-01  -5.0455293e+05
   2.1980660e-09  -1.6903978e-04   7.3210079e-01   7.2253390e-01  -5.0058313e+05
   2.2007336e-09  -1.6770970e-04   7.3206383e-01   7.2257220e-01  -4.9664455e+05
   2.2034011e-09  -1.6639009e-04   7.3202716e-01   7.2261021e-01  -4.9273697e+05
   2.2060687e-09  -1.6508086e-04   7.3199078e-01   7.2264791e-01  -4.8886012e+05
   2.2087362e-09  -1.6378193e-04   7.3195468e-01   7.2268533e-01  -4.8501377e+05
   2.2114038e-09  -1.6249322e-04   7.3191888e-01   7.2272244e-01  -4.8119769e+05
   2.2140714e-09  -1.6121465e-04   7.3188335e-01   7.2275927e-01  -4.7741162e+05
   2.2167389e-09  -1.5994614e-04   7.3184811e-01   7.2279581e-01  -4.7365534e+05
   2.2194065e-09  -1.5868762e-04   7.3181315e-01   7.2283206e-01  -4.6992861e+05
   2.2220740e-09  -1.5743899e-04   7.3177846e-01   7.2286803e-01  -4.6623120e+05
   2.2247416e-09  -1.5620019e-04   7.3174404e-01   7.2290372e-01  -4.6256288e+05
   2.2274091e-09  -1.5497113e-04   7.3170990e-01   7.2293913e-01  -4.5892342e+05
   2.2300767e-09  -1.5375175e-04   7.3167603e-01   7.2297426e-01  -4.5531259e+05
   2.2327442e-09  -1.5254196e-04   7.3164243e-01   7.2300912e-01  -4.5173017e+05
   2.2354118e-09  -1.5134169e-04   7.3160909e-01   7.2304370e-01  -4.4817593e+05
   2.2380794e-09  -1.5015086e-04   7.3157601e-01   7.2307801e-01  -4.4464966e+05
   2.2407469e-09  -1.4896940e-04   7.3154320e-01   7.2311206e-01  -4.4115112e+05
   2.2434145e-09  -1.4779724e-04   7.3151064e-01   7.2314584e-01  -4.3768011e+05
   2.2460820e-09  -1.4663430e-04   7.3147835e-01   7.2317935e-01  -4.3423641e+05
   2.2487496e-09  -1.4548051e-04   7.3144631e-01   7.2321260e-01  -4.3081980e+05
   2.2514171e-09  -1.4433580e-04   7.3141452e-01   7.2324559e-01  -4.2743007e+05
   2.2540847e-09  -1.4320009e-04   7.3138298e-01   7.2327832e-01  -4.2406701e+05
   2.2567523e-09  -1.4207332e-04   7.3135169e-01   7.2331080e-01  -4.2073041e+05
   2.2594198e-09  -1.4095542e-04   7.3132065e-01   7.2334302e-01  -4.1742006e+05
   2.2620874e-09  -1.3984631e-04   7.3128985e-01   7.2337499e-01  -4.1413575e+05
   2.2647549e-09  -1.3874593e-04   7.3125930e-01   7.2340670e-01  -4.1087728e+05
   2.2674225e-09  -1.3765421e-04   7.3122899e-01   7.2343817e-01  -4.0764444e+05
   2.2700900e-09  -1.3657107e-04   7.3119892e-01   7.2346940e-01  -4.0443704e+05
   2.2727576e-09  -1.3549646e-04   7.3116908e-01   7.2350038e-01  -4.0125488e+05
   2.2754251e-09  -1.3443031e-04   7.3113949e-01   7.2353111e-01  -3.9809775e+05
   2.2780927e-09  -1.3337254e-04   7.3111012e-01   7.2356161e-01  -3.9496546e+05
   2.2807603e-09  -1.3232310e-04   7.3108099e-01   7.2359186e-01  -3.9185781e+05
   2.2834278e-09  -1.3128191e-04   7.3105209e-01   7.2362188e-01  -3.8877461e+05
   2.2860954e-09  -1.3024891e-04   7.3102341e-01   7.2365167e-01  -3.8571566e+05
   2.2887629e-09  -1.2922405e-04   7.3099496e-01   7.2368122e-01  -3.8268079e+05
   2.2914305e-09  -1.2820724e-04   7.3096674e-01   7.2371054e-01  -3.7966979e+05
   2.2940980e-09  -1.2719844e-04   7.3093874e-01   7.2373962e-01  -3.7668248e+05
   2.2967656e-09  -1.2619758e-04   7.3091096e-01   7.2376849e-01  -3.7371867e+05
   2.2994331e-09  -1.2520458e-04   7.3088340e-01   7.2379712e-01  -3.7077818e+05
   2.3021007e-09  -1.2421941e-04   7.3085606e-01   7.2382553e-01  -3.6786082e+05
   2.3047683e-09  -1.2324198e-04   7.3082894e-01   7.2385372e-01  -3.6496642e+05
   2.3074358e-09  -1.2227225e-04   7.3080202e-01   7.2388169e-01  -3.6209479e+05
   2.3101034e-09  -1.2131014e-04   7.3077532e-01   7.2390943e-01  -3.5924575e+05
   2.3127709e-09  -1.2035561e-04   7.3074884e-01   7.2393697e-01  -3.5641913e+05
   2.3154385e-09  -1.1940858e-04   7.3072256e-01   7.2396428e-01  -3.5361474e+05
   2.3181060e-09  -1.1846901e-04   7.3069648e-01   7.2399138e-01  -3.5083242e+05
   2.3207736e-09  -1.1753683e-04   7.3067062e-01   7.2401827e-01  -3.4807199e+05
   2.3234411e-09  -1.1661198e-04   7.3064496e-01   7.2404495e-01  -3.4533328e+05
   2.3261087e-09  -1.1569441e-04   7.3061950e-01   7.2407141e-01  -3.4261611e+05
   2.3287763e-09  -1.1478406e-04   7.3059424e-01   7.2409768e-01  -3.3992033e+05
   2.3314438e-09  -1.1388088e-04   7.3056918e-01   7.2412373e-01  -3.3724575e+05
   2.3341114e-09  -1.1298480e-04   7.3054432e-01   7.2414958e-01  -3.3459221e+05
   2.3367789e-09  -1.1209577e-04   7.3051966e-01   7.2417523e-01  -3.3195955e+05
   2.3394465e-09  -1.1121373e-04   7.3049519e-01   7.2420068e-01  -3.2934761e+05
   2.3421140e-09  -1.1033864e-04   7.3047091e-01   7.2422592e-01  -3.2675621e+05
   2.3447816e-09  -1.0947043e-04   7.3044682e-01   7.2425097e-01  -3.2418520e+05
   2.3474491e-09  -1.0860905e-04   7.3042293e-01   7.2427583e-01  -3.2163442e+05
   2.3501167e-09  -1.0775445e-04   7.3039922e-01   7.2430048e-01  -3.1910371e+05
   2.3527843e-09  -1.0690658e-04   7.3037570e-01   7.2432495e-01  -3.1659291e+05
   2.3554518e-09  -1.0606537e-04   7.3035237e-01   7.2434922e-01  -3.1410187e+05
   2.3581194e-09  -1.0523079e-04   7.3032922e-01   7.2437330e-01  -3.1163042e+05
   2.3607869e-09  -1.0440277e-04   7.3030626e-01   7.2439720e-01  -3.0917842e+05
   2.3634545e-09  -1.0358127e-04   7.3028347e-01   7.2442091e-01  -3.0674571e+05
   2.3661220e-09  -1.0276623e-04   7.3026086e-01   7.2444443e-01  -3.0433214e+05
   2.3687896e-09  -1.0195760e-04   7.3023844e-01   7.2446776e-01  -3.0193756e+05
   2.3714572e-09  -1.0115534e-04   7.3021619e-01   7.2449091e-01  -2.9956182e+05
   2.3741247e-09  -1.0035939e-04   7.3019411e-01   7.2451389e-01  -2.9720477e+05
   2.3767923e-09  -9.9569697e-05   7.3017221e-01   7.2453668e-01  -2.9486626e+05
   2.3794598e-09  -9.8786222e-05   7.3015048e-01   7.2455929e-01  -2.9254616e+05
   2.3821274e-09  -9.8008912e-05   7.3012893e-01   7.2458173e-01  -2.9024430e+05
   2.3847949e-09  -9.7237717e-05   7.3010754e-01   7.2460398e-01  -2.8796056e+05
   2.3874625e-09  -9.6472591e-05   7.3008633e-01   7.2462607e-01  -2.8569479e+05
   2.3901300e-09  -9.5713485e-05   7.3006528e-01   7.2464798e-01  -2.8344685e+05
   2.3927976e-09  -9.4960352e-05   7.3004439e-01   7.2466972e-01  -2.8121659e+05
   2.3954652e-09  -9.4213145e-05   7.3002367e-01   7.2469129e-01  -2.7900387e+05
   2.3981327e-09  -9.3471817e-05   7.3000312e-01   7.2471269e-01  -2.7680857e+05
   2.4008003e-09  -9.2736322e-05   7.2998273e-01   7.2473392e-01  -2.7463054e+05
   2.4034678e-09  -9.2006614e-05   7.2996249e-01   7.2475499e-01  -2.7246965e+05
   2.4061354e-09  -9.1282648e-05   7.2994242e-01   7.2477589e-01  -2.7032575e+05
   2.4088029e-09  -9.0564379e-05   7.2992251e-01   7.2479662e-01  -2.6819873e+05
   2.4114705e-09  -8.9851761e-05   7.2990275e-01   7.2481720e-01  -2.6608844e+05
   2.4141380e-09  -8.9144750e-05   7.2988315e-01   7.2483761e-01  -2.6399475e+05
   2.4168056e-09  -8.8443302e-05   7.2986370e-01   7.2485786e-01  -2.6191754e+05
   2.4194732e-09  -8.7747374e-05   7.2984441e-01   7.2487795e-01  -2.5985667e+05
   2.4221407e-09  -8.7056921e-05   7.2982527e-01   7.2489789e-01  -2.5781202e+05
   2.4248083e-09  -8.6371901e-05   7.2980628e-01   7.2491767e-01  -2.5578345e+05
   2.4274758e-09  -8.5692271e-05   7.2978744e-01   7.2493729e-01  -2.5377084e+05
   2.4301434e-09  -8.5017989e-05   7.2976875e-01   7.2495676e-01  -2.5177407e+05
   2.4328109e-09  -8.4349012e-05   7.2975020e-01   7.2497608e-01  -2.4979301e+05
   2.4354785e-09  -8.3685299e-05   7.2973180e-01   7.2499524e-01  -2.4782753e+05
   2.4381460e-09  -8.3026808e-05   7.2971355e-01   7.2501426e-01  -2.4587752e+05
   2.4408136e-09  -8.2373499e-05   7.2969544e-01   7.2503312e-01  -2.4394286e+05
   2.4434812e-09  -8.1725330e-05   7.2967748e-01   7.2505184e-01  -2.4202341e+05
   2.4461487e-09  -8.1082262e-05   7.2965965e-01   7.2507041e-01  -2.4011907e+05
   2.4488163e-09  -8.0444253e-05   7.2964197e-01   7.2508884e-01  -2.3822971e+05
   2.4514838e-09  -7.9811264e-05   7.2962442e-01   7.2510712e-01  -2.3635521e+05
   2.4541514e-09  -7.9183256e-05   7.2960702e-01   7.2512525e-01  -2.3449547e+05
   2.4568189e-09  -7.8560190e-05   7.2958975e-01   7.2514325e-01  -2.3265035e+05
   2.4594865e-09  -7.7942026e-05   7.2957262e-01   7.2516110e-01  -2.3081976e+05
   2.4621541e-09  -7.7328726e-05   7.2955562e-01   7.2517881e-01  -2.2900356e+05
   2.4648216e-09  -7.6720251e-05   7.2953876e-01   7.2519639e-01  -2.2720166e+05
   2.4674892e-09  -7.6116565e-05   7.2952203e-01   7.2521382e-01  -2.2541394e+05
   2.4701567e-09  -7.5517628e-05   7.2950543e-01   7.2523112e-01  -2.2364028e+05
   2.4728243e-09  -7.4923405e-05   7.2948896e-01   7.2524829e-01  -2.2188057e+05
   2.4754918e-09  -7.4333857e-05   7.2947262e-01   7.2526532e-01  -2.2013471e+05
   2.4781594e-09  -7.3748948e-05   7.2945642e-01   7.2528221e-01  -2.1840259e+05
   2.4808269e-09  -7.3168641e-05   7.2944033e-01   7.2529897e-01  -2.1668410e+05
   2.4834945e-09  -7.2592900e-05   7.2942438e-01   7.2531561e-01  -2.1497912e+05
   2.4861621e-09  -7.2021689e-05   7.2940855e-01   7.2533211e-01  -2.1328756e+05
   2.4888296e-09  -7.1454973e-05   7.2939285e-01   7.2534848e-01  -2.1160932e+05
   2.4914972e-09  -7.0892717e-05   7.2937727e-01   7.2536472e-01  -2.0994427e+05
   2.4941647e-09  -7.0334884e-05   7.2936181e-01   7.2538083e-01  -2.0829233e+05
   2.4968323e-09  -6.9781441e-05   7.2934648e-01   7.2539682e-01  -2.0665338e+05
   2.4994998e-09  -6.9232352e-05   7.2933126e-01   7.2541268e-01  -2.0502733e+05
   2.5021674e-09  -6.8687584e-05   7.2931617e-01   7.2542842e-01  -2.0341408e+05
   2.5048349e-09  -6.8147102e-05   7.2930119e-01   7.2544404e-01  -2.0181351e+05
   2.5075025e-09  -6.7610874e-05   7.2928634e-01   7.2545953e-01  -2.0022554e+05
   2.5101701e-09  -6.7078864e-05   7.2927160e-01   7.2547490e-01  -1.9865007e+05
   2.5128376e-09  -6.6551041e-05   7.2925697e-01   7.2549015e-01  -1.9708699e+05
   2.5155052e-09  -6.6027371e-05   7.2924247e-01   7.2550528e-01  -1.9553621e+05
   2.5181727e-09  -6.5507821e-05   7.2922807e-01   7.2552029e-01  -1.9399763e+05
   2.5208403e-09  -6.4992359e-05   7.2921379e-01   7.2553518e-01  -1.9247116e+05
   2.5235078e-09  -6.4480954e-05   7.2919962e-01   7.2554996e-01  -1.9095669e+05
   2.5261754e-09  -6.3973572e-05   7.2918557e-01   7.2556462e-01  -1.8945415e+05
   2.5288429e-09  -6.3470183e-05   7.2917162e-01   7.2557917e-01  -1.8796342e+05
   2.5315105e-09  -6.2970755e-05   7.2915779e-01   7.2559360e-01  -1.8648443e+05
   2.5341781e-09  -6.2475256e-05   7.2914406e-01   7.2560792e-01  -1.8501707e+05
   2.5368456e-09  -6.1983656e-05   7.2913044e-01   7.2562212e-01  -1.8356126e+05
   2.5395132e-09  -6.1495925e-05   7.2911693e-01   7.2563621e-01  -1.8211690e+05
   2.5421807e-09  -6.1012031e-05   7.2910353e-01   7.2565020e-01  -1.8068391e+05
   2.5448483e-09  -6.0531945e-05   7.2909023e-01   7.2566407e-01  -1.7926219e+05
   2.5475158e-09  -6.0055636e-05   7.2907704e-01   7.2567784e-01  -1.7785166e+05
   2.5501834e-09  -5.9583075e-05   7.2906395e-01   7.2569149e-01  -1.7645222e+05
   2.5528510e-09  -5.9114233e-05   7.2905096e-01   7.2570504e-01  -1.7506380e+05
   2.5555185e-09  -5.8649079e-05   7.2903808e-01   7.2571848e-01  -1.7368630e+05
   2.5581861e-09  -5.8187586e-05   7.2902529e-01   7.2573182e-01  -1.7231964e+05
   2.5608536e-09  -5.7729724e-05   7.2901261e-01   7.2574505e-01  -1.7096374e+05
   2.5635212e-09  -5.7275465e-05   7.2900003e-01   7.2575818e-01  -1.6961850e+05
   2.5661887e-09  -5.6824780e-05   7.2898755e-01   7.2577121e-01  -1.6828385e+05
   2.5688563e-09  -5.6377641e-05   7.2897516e-01   7.2578413e-01  -1.6695969e+05
   2.5715238e-09  -5.5934021e-05   7.2896288e-01   7.2579695e-01  -1.6564596e+05
   2.5741914e-09  -5.5493891e-05   7.2895069e-01   7.2580967e-01  -1.6434257e+05
   2.5768590e-09  -5.5057225e-05   7.2893859e-01   7.2582229e-01  -1.6304942e+05
   2.5795265e-09  -5.4623995e-05   7.2892659e-01   7.2583481e-01  -1.6176646e+05
   2.5821941e-09  -5.4194173e-05   7.2891469e-01   7.2584724e-01  -1.6049359e+05
   2.5848616e-09  -5.3767733e-05   7.2890288e-01   7.2585956e-01  -1.5923073e+05
   2.5875292e-09  -5.3344649e-05   7.2889116e-01   7.2587179e-01  -1.5797781e+05
   2.5901967e-09  -5.2924894e-05   7.2887954e-01   7.2588392e-01  -1.5673475e+05
   2.5928643e-09  -5.2508442e-05   7.2886800e-01   7.2589596e-01  -1.5550147e+05
   2.5955318e-09  -5.2095267e-05   7.2885656e-01   7.2590790e-01  -1.5427789e+05
   2.5981994e-09  -5.1685343e-05   7.2884521e-01   7.2591975e-01  -1.5306395e+05
   2.6008670e-09  -5.1278645e-05   7.2883395e-01   7.2593151e-01  -1.5185955e+05
   2.6035345e-09  -5.0875146e-05   7.2882277e-01   7.2594317e-01  -1.5066463e+05
   2.6062021e-09  -5.0474823e-05   7.2881169e-01   7.2595474e-01  -1.4947911e+05
   2.6088696e-09  -5.0077649e-05   7.2880069e-01   7.2596623e-01  -1.4830292e+05
   2.6115372e-09  -4.9683601e-05   7.2878978e-01   7.2597762e-01  -1.4713598e+05
   2.6142047e-09  -4.9292654e-05   7.2877895e-01   7.2598892e-01  -1.4597823e+05
   2.6168723e-09  -4.8904782e-05   7.2876821e-01   7.2600013e-01  -1.4482958e+05
   2.6195398e-09  -4.8519963e-05   7.2875756e-01   7.2601126e-01  -1.4368998e+05
   2.6222074e-09  -4.8138171e-05   7.2874698e-01   7.2602229e-01  -1.4255934e+05
   2.6248750e-09  -4.7759384e-05   7.2873650e-01   7.2603324e-01  -1.4143759e+05
   2.6275425e-09  -4.7383577e-05   7.2872609e-01   7.2604411e-01  -1.4032468e+05
   2.6302101e-09  -4.7010728e-05   7.2871577e-01   7.2605489e-01  -1.3922052e+05
   2.6328776e-09  -4.6640812e-05   7.2870552e-01   7.2606558e-01  -1.3812504e+05
   2.6355452e-09  -4.6273807e-05   7.2869536e-01   7.2607619e-01  -1.3703819e+05
   2.6382127e-09  -4.5909690e-05   7.2868528e-01   7.2608672e-01  -1.3595989e+05
   2.6408803e-09  -4.5548438e-05   7.2867528e-01   7.2609716e-01  -1.3489007e+05
   2.6435478e-09  -4.5190028e-05   7.2866535e-01   7.2610753e-01  -1.3382867e+05
   2.6462154e-09  -4.4834439e-05   7.2865551e-01   7.2611781e-01  -1.3277563e+05
   2.6488830e-09  -4.4481647e-05   7.2864574e-01   7.2612801e-01  -1.3173086e+05
   2.6515505e-09  -4.4131632e-05   7.2863605e-01   7.2613813e-01  -1.3069432e+05
   2.6542181e-09  -4.3784371e-05   7.2862644e-01   7.2614817e-01  -1.2966594e+05
   2.6568856e-09  -4.3439842e-05   7.2861690e-01   7.2615813e-01  -1.2864564e+05
   2.6595532e-09  -4.3098024e-05   7.2860743e-01   7.2616801e-01  -1.2763338e+05
   2.6622207e-09  -4.2758896e-05   7.2859804e-01   7.2617782e-01  -1.2662908e+05
   2.6648883e-09  -4.2422436e-05   7.2858873e-01   7.2618755e-01  -1.2563268e+05
   2.6675559e-09  -4.2088624e-05   7.2857949e-01   7.2619720e-01  -1.2464412e+05
   2.6702234e-09  -4.1757438e-05   7.2857032e-01   7.2620677e-01  -1.2366334e+05
   2.6728910e-09  -4.1428859e-05   7.2856122e-01   7.2621627e-01  -1.2269028e+05
   2.6755585e-09  -4.1102865e-05   7.2855220e-01   7.2622570e-01  -1.2172487e+05
   2.6782261e-09  -4.0779436e-05   7.2854324e-01   7.2623505e-01  -1.2076706e+05
   2.6808936e-09  -4.0458552e-05   7.2853436e-01   7.2624433e-01  -1.1981679e+05
   2.6835612e-09  -4.0140193e-05   7.2852555e-01   7.2625354e-01  -1.1887399e+05
   2.6862287e-09  -3.9824339e-05   7.2851680e-01   7.2626267e-01  -1.1793861e+05
   2.6888963e-09  -3.9510970e-05   7.2850813e-01   7.2627173e-01  -1.1701060e+05
   2.6915639e-09  -3.9200067e-05   7.2849952e-01   7.2628072e-01  -1.1608988e+05
   2.6942314e-09  -3.8891611e-05   7.2849098e-01   7.2628964e-01  -1.1517641e+05
   2.6968990e-09  -3.8585581e-05   7.2848251e-01   7.2629849e-01  -1.1427012e+05
   2.6995665e-09  -3.8281960e-05   7.2847411e-01   7.2630727e-01  -1.1337097e+05
   2.7022341e-09  -3.7980728e-05   7.2846577e-01   7.2631598e-01  -1.1247889e+05
   2.7049016e-09  -3.7681866e-05   7.2845749e-01   7.2632463e-01  -1.1159384e+05
   2.7075692e-09  -3.7385356e-05   7.2844929e-01   7.2633320e-01  -1.1071574e+05
   2.7102367e-09  -3.7091179e-05   7.2844114e-01   7.2634171e-01  -1.0984456e+05
   2.7129043e-09  -3.6799316e-05   7.2843306e-01   7.2635015e-01  -1.0898023e+05
   2.7155719e-09  -3.6509751e-05   7.2842505e-01   7.2635852e-01  -1.0812270e+05
   2.7182394e-09  -3.6222463e-05   7.2841710e-01   7.2636683e-01  -1.0727191e+05
   2.7209070e-09  -3.5937437e-05   7.2840921e-01   7.2637507e-01  -1.0642783e+05
   2.7235745e-09  -3.5654653e-05   7.2840138e-01   7.2638325e-01  -1.0559038e+05
   2.7262421e-09  -3.5374094e-05   7.2839361e-01   7.2639137e-01  -1.0475952e+05
   2.7289096e-09  -3.5095743e-05   7.2838591e-01   7.2639942e-01  -1.0393520e+05
   2.7315772e-09  -3.4819582e-05   7.2837827e-01   7.2640740e-01  -1.0311737e+05
   2.7342447e-09  -3.4545594e-05   7.2837068e-01   7.2641533e-01  -1.0230597e+05
   2.7369123e-09  -3.4273762e-05   7.2836316e-01   7.2642319e-01  -1.0150096e+05
   2.7395799e-09  -3.4004069e-05   7.2835569e-01   7.2643099e-01  -1.0070228e+05
   2.7422474e-09  -3.3736499e-05   7.2834829e-01   7.2643873e-01  -9.9909887e+04
   2.7449150e-09  -3.3471033e-05   7.2834094e-01   7.2644641e-01  -9.9123727e+04
   2.7475825e-09  -3.3207657e-05   7.2833365e-01   7.2645402e-01  -9.8343754e+04
   2.7502501e-09  -3.2946353e-05   7.2832642e-01   7.2646158e-01  -9.7569917e+04
   2.7529176e-09  -3.2687105e-05   7.2831924e-01   7.2646908e-01  -9.6802170e+04
   2.7555852e-09  -3.2429897e-05   7.2831212e-01   7.2647652e-01  -9.6040463e+04
   2.7582528e-09  -3.2174712e-05   7.2830506e-01   7.2648390e-01  -9.5284750e+04
   2.7609203e-09  -3.1921536e-05   7.2829806e-01   7.2649122e-01  -9.4534983e+04
   2.7635879e-09  -3.1670352e-05   7.2829110e-01   7.2649849e-01  -9.3791116e+04
   2.7662554e-09  -3.1421145e-05   7.2828421e-01   7.2650570e-01  -9.3053102e+04
   2.7689230e-09  -3.1173898e-05   7.2827736e-01   7.2651285e-01  -9.2320895e+04
   2.7715905e-09  -3.0928597e-05   7.2827057e-01   7.2651994e-01  -9.1594450e+04
   2.7742581e-09  -3.0685226e-05   7.2826384e-01   7.2652698e-01  -9.0873720e+04
   2.7769256e-09  -3.0443770e-05   7.2825716e-01   7.2653397e-01  -9.0158662e+04
   2.7795932e-09  -3.0204215e-05   7.2825053e-01   7.2654090e-01  -8.9449230e+04
   2.7822608e-09  -2.9966544e-05   7.2824395e-01   7.2654777e-01  -8.8745380e+04
   2.7849283e-09  -2.9730743e-05   7.2823742e-01   7.2655459e-01  -8.8047069e+04
   2.7875959e-09  -2.9496798e-05   7.2823095e-01   7.2656136e-01  -8.7354252e+04
   2.7902634e-09  -2.9264693e-05   7.2822453e-01   7.2656807e-01  -8.6666887e+04
   2.7929310e-09  -2.9034415e-05   7.2821815e-01   7.2657474e-01  -8.5984930e+04
   2.7955985e-09  -2.8805949e-05   7.2821183e-01   7.2658134e-01  -8.5308339e+04
   2.7982661e-09  -2.8579281e-05   7.2820556e-01   7.2658790e-01  -8.4637072e+04
   2.8009336e-09  -2.8354396e-05   7.2819933e-01   7.2659441e-01  -8.3971087e+04
   2.8036012e-09  -2.8131281e-05   7.2819316e-01   7.2660086e-01  -8.3310343e+04
   2.8062688e-09  -2.7909921e-05   7.2818703e-01   7.2660726e-01  -8.2654797e+04
   2.8089363e-09  -2.7690304e-05   7.2818096e-01   7.2661362e-01  -8.2004410e+04
   2.8116039e-09  -2.7472414e-05   7.2817493e-01   7.2661992e-01  -8.1359140e+04
   2.8142714e-09  -2.7256239e-05   7.2816895e-01   7.2662617e-01  -8.0718948e+04
   2.8169390e-09  -2.7041765e-05   7.2816301e-01   7.2663238e-01  -8.0083793e+04
   2.8196065e-09  -2.6828978e-05   7.2815712e-01   7.2663853e-01  -7.9453635e+04
   2.8222741e-09  -2.6617866e-05   7.2815128e-01   7.2664464e-01  -7.8828436e+04
   2.8249416e-09  -2.6408415e-05   7.2814548e-01   7.2665070e-01  -7.8208157e+04
   2.8276092e-09  -2.6200613e-05   7.2813973e-01   7.2665671e-01  -7.7592758e+04
   2.8302768e-09  -2.5994445e-05   7.2813403e-01   7.2666268e-01  -7.6982202e+04
   2.8329443e-09  -2.5789900e-05   7.2812837e-01   7.2666859e-01  -7.6376450e+04
   2.8356119e-09  -2.5586964e-05   7.2812275e-01   7.2667446e-01  -7.5775464e+04
   2.8382794e-09  -2.5385625e-05   7.2811718e-01   7.2668029e-01  -7.5179207e+04
   2.8409470e-09  -2.5185870e-05   7.2811165e-01   7.2668607e-01  -7.4587642e+04
   2.8436145e-09  -2.4987687e-05   7.2810617e-01   7.2669180e-01  -7.4000732e+04
   2.8462821e-09  -2.4791064e-05   7.2810073e-01   7.2669749e-01  -7.3418440e+04
   2.8489496e-09  -2.4595988e-05   7.2809533e-01   7.2670313e-01  -7.2840730e+04
   2.8516172e-09  -2.4402446e-05   7.2808998e-01   7.2670873e-01  -7.2267565e+04
   2.8542848e-09  -2.4210428e-05   7.2808466e-01   7.2671429e-01  -7.1698910e+04
   2.8569523e-09  -2.4019921e-05   7.2807939e-01   7.2671980e-01  -7.1134730e+04
   2.8596199e-09  -2.3830912e-05   7.2807416e-01   7.2672527e-01  -7.0574990e+04
   2.8622874e-09  -2.3643391e-05   7.2806897e-01   7.2673069e-01  -7.0019653e+04
   2.8649550e-09  -2.3457346e-05   7.2806383e-01   7.2673608e-01  -6.9468687e+04
   2.8676225e-09  -2.3272764e-05   7.2805872e-01   7.2674142e-01  -6.8922055e+04
   2.8702901e-09  -2.3089635e-05   7.2805365e-01   7.2674672e-01  -6.8379725e+04
   2.8729577e-09  -2.2907947e-05   7.2804862e-01   7.2675197e-01  -6.7841663e+04
   2.8756252e-09  -2.2727688e-05   7.2804364e-01   7.2675719e-01  -6.7307834e+04
   2.8782928e-09  -2.2548848e-05   7.2803869e-01   7.2676236e-01  -6.6778205e+04
   2.8809603e-09  -2.2371415e-05   7.2803378e-01   7.2676750e-01  -6.6252745e+04
   2.8836279e-09  -2.2195379e-05   7.2802891e-01   7.2677259e-01  -6.5731418e+04
   2.8862954e-09  -2.2020727e-05   7.2802408e-01   7.2677764e-01  -6.5214194e+04
   2.8889630e-09  -2.1847450e-05   7.2801928e-01   7.2678266e-01  -6.4701040e+04
   2.8916305e-09  -2.1675537e-05   7.2801453e-01   7.2678763e-01  -6.4191923e+04
   2.8942981e-09  -2.1504976e-05   7.2800981e-01   7.2679256e-01  -6.3686813e+04
   2.8969657e-09  -2.1335757e-05   7.2800512e-01   7.2679746e-01  -6.3185677e+04
   2.8996332e-09  -2.1167869e-05   7.2800048e-01   7.2680232e-01  -6.2688485e+04
   2.9023008e-09  -2.1001303e-05   7.2799587e-01   7.2680714e-01  -6.2195204e+04
   2.9049683e-09  -2.0836048e-05   7.2799130e-01   7.2681192e-01  -6.1705805e+04
   2.9076359e-09  -2.0672092e-05   7.2798676e-01   7.2681666e-01  -6.1220257e+04
   2.9103034e-09  -2.0509427e-05   7.2798226e-01   7.2682137e-01  -6.0738530e+04
   2.9129710e-09  -2.0348042e-05   7.2797780e-01   7.2682604e-01  -6.0260593e+04
   2.9156385e-09  -2.0187927e-05   7.2797337e-01   7.2683067e-01  -5.9786417e+04
   2.9183061e-09  -2.0029072e-05   7.2796897e-01   7.2683527e-01  -5.9315972e+04
   2.9209737e-09  -1.9871466e-05   7.2796461e-01   7.2683983e-01  -5.8849228e+04
   2.9236412e-09  -1.9715101e-05   7.2796029e-01   7.2684435e-01  -5.8386158e+04
   2.9263088e-09  -1.9559967e-05   7.2795599e-01   7.2684884e-01  -5.7926731e+04
   2.9289763e-09  -1.9406053e-05   7.2795174e-01   7.2685330e-01  -5.7470919e+04
   2.9316439e-09  -1.9253350e-05   7.2794751e-01   7.2685771e-01  -5.7018694e+04
   2.9343114e-09  -1.9101848e-05   7.2794332e-01   7.2686210e-01  -5.6570027e+04
   2.9369790e-09  -1.8951539e-05   7.2793916e-01   7.2686645e-01  -5.6124891e+04
   2.9396465e-09  -1.8802413e-05   7.2793503e-01   7.2687076e-01  -5.5683257e+04
   2.9423141e-09  -1.8654460e-05   7.2793094e-01   7.2687504e-01  -5.5245098e+04
   2.9449817e-09  -1.8507671e-05   7.2792688e-01   7.2687929e-01  -5.4810387e+04
   2.9476492e-09  -1.8362037e-05   7.2792285e-01   7.2688351e-01  -5.4379097e+04
   2.9503168e-09  -1.8217549e-05   7.2791885e-01   7.2688769e-01  -5.3951200e+04
   2.9529843e-09  -1.8074199e-05   7.2791489e-01   7.2689184e-01  -5.3526670e+04
   2.9556519e-09  -1.7931976e-05   7.2791095e-01   7.2689595e-01  -5.3105481e+04
   2.9583194e-09  -1.7790872e-05   7.2790705e-01   7.2690003e-01  -5.2687606e+04
   2.9609870e-09  -1.7650879e-05   7.2790318e-01   7.2690408e-01  -5.2273019e+04
   2.9636546e-09  -1.7511987e-05   7.2789934e-01   7.2690810e-01  -5.1861695e+04
   2.9663221e-09  -1.7374188e-05   7.2789552e-01   7.2691209e-01  -5.1453606e+04
   2.9689897e-09  -1.7237473e-05   7.2789174e-01   7.2691605e-01  -5.1048730e+04
   2.9716572e-09  -1.7101835e-05   7.2788799e-01   7.2691997e-01  -5.0647038e+04
   2.9743248e-09  -1.6967263e-05   7.2788427e-01   7.2692387e-01  -5.0248508e+04
   2.9769923e-09  -1.6833750e-05   7.2788057e-01   7.2692773e-01  -4.9853114e+04
   2.9796599e-09  -1.6701288e-05   7.2787691e-01   7.2693156e-01  -4.9460830e+04
   2.9823274e-09  -1.6569869e-05   7.2787327e-01   7.2693537e-01  -4.9071634e+04
   2.9849950e-09  -1.6439483e-05   7.2786967e-01   7.2693914e-01  -4.8685500e+04
   2.9876626e-09  -1.6310124e-05   7.2786609e-01   7.2694288e-01  -4.8302404e+04
   2.9903301e-09  -1.6181782e-05   7.2786254e-01   7.2694660e-01  -4.7922323e+04
   2.9929977e-09  -1.6054450e-05   7.2785901e-01   7.2695028e-01  -4.7545233e+04
   2.9956652e-09  -1.5928120e-05   7.2785552e-01   7.2695394e-01  -4.7171110e+04
   2.9983328e-09  -1.5802784e-05   7.2785205e-01   7.2695757e-01  -4.6799930e+04
   3.0010003e-09  -1.5678435e-05   7.2784861e-01   7.2696116e-01  -4.6431672e+04
   3.0036679e-09  -1.5555064e-05   7.2784520e-01   7.2696473e-01  -4.6066311e+04
   3.0063354e-09  -1.5432663e-05   7.2784181e-01   7.2696828e-01  -4.5703825e+04
   3.0090030e-09  -1.5311226e-05   7.2783845e-01   7.2697179e-01  -4.5344191e+04
   3.0116706e-09  -1.5190745e-05   7.2783512e-01   7.2697528e-01  -4.4987387e+04
   3.0143381e-09  -1.5071211e-05   7.2783181e-01   7.2697874e-01  -4.4633391e+04
   3.0170057e-09  -1.4952618e-05   7.2782853e-01   7.2698217e-01  -4.4282180e+04
   3.0196732e-09  -1.4834958e-05   7.2782528e-01   7.2698557e-01  -4.3933733e+04
   3.0223408e-09  -1.4718225e-05   7.2782205e-01   7.2698895e-01  -4.3588028e+04
   3.0250083e-09  -1.4602409e-05   7.2781885e-01   7.2699230e-01  -4.3245043e+04
   3.0276759e-09  -1.4487505e-05   7.2781567e-01   7.2699563e-01  -4.2904756e+04
   3.0303434e-09  -1.4373505e-05   7.2781251e-01   7.2699893e-01  -4.2567148e+04
   3.0330110e-09  -1.4260402e-05   7.2780939e-01   7.2700220e-01  -4.2232196e+04
   3.0356786e-09  -1.4148189e-05   7.2780628e-01   7.2700545e-01  -4.1899879e+04
   3.0383461e-09  -1.4036860e-05   7.2780320e-01   7.2700867e-01  -4.1570178e+04
   3.0410137e-09  -1.3926406e-05   7.2780015e-01   7.2701187e-01  -4.1243070e+04
   3.0436812e-09  -1.3816821e-05   7.2779712e-01   7.2701504e-01  -4.0918537e+04
   3.0463488e-09  -1.3708099e-05   7.2779411e-01   7.2701819e-01  -4.0596558e+04
   3.0490163e-09  -1.3600232e-05   7.2779112e-01   7.2702131e-01  -4.0277111e+04
   3.0516839e-09  -1.3493214e-05   7.2778816e-01   7.2702440e-01  -3.9960179e+04
   3.0543515e-09  -1.3387038e-05   7.2778523e-01   7.2702748e-01  -3.9645740e+04
   3.0570190e-09  -1.3281697e-05   7.2778231e-01   7.2703053e-01  -3.9333776e+04
   3.0596866e-09  -1.3177185e-05   7.2777942e-01   7.2703355e-01  -3.9024266e+04
   3.0623541e-09  -1.3073496e-05   7.2777655e-01   7.2703655e-01  -3.8717192e+04
   3.0650217e-09  -1.2970623e-05   7.2777371e-01   7.2703953e-01  -3.8412534e+04
   3.0676892e-09  -1.2868559e-05   7.2777089e-01   7.2704248e-01  -3.8110274e+04
   3.0703568e-09  -1.2767298e-05   7.2776808e-01   7.2704541e-01  -3.7810392e+04
   3.0730243e-09  -1.2666834e-05   7.2776531e-01   7.2704832e-01  -3.7512869e+04
   3.0756919e-09  -1.2567161e-05   7.2776255e-01   7.2705121e-01  -3.7217688e+04
   3.0783595e-09  -1.2468272e-05   7.2775981e-01   7.2705407e-01  -3.6924829e+04
   3.0810270e-09  -1.2370161e-05   7.2775710e-01   7.2705691e-01  -3.6634275e+04
   3.0836946e-09  -1.2272822e-05   7.2775441e-01   7.2705973e-01  -3.6346007e+04
   3.0863621e-09  -1.2176249e-05   7.2775174e-01   7.2706252e-01  -3.6060007e+04
   3.0890297e-09  -1.2080436e-05   7.2774909e-01   7.2706529e-01  -3.5776258e+04
   3.0916972e-09  -1.1985377e-05   7.2774646e-01   7.2706804e-01  -3.5494742e+04
   3.0943648e-09  -1.1891066e-05   7.2774385e-01   7.2707077e-01  -3.5215440e+04
   3.0970323e-09  -1.1797497e-05   7.2774126e-01   7.2707348e-01  -3.4938337e+04
   3.0996999e-09  -1.1704664e-05   7.2773869e-01   7.2707617e-01  -3.4663414e+04
   3.1023675e-09  -1.1612562e-05   7.2773614e-01   7.2707884e-01  -3.4390654e+04
   3.1050350e-09  -1.1521184e-05   7.2773362e-01   7.2708148e-01  -3.4120041e+04
   3.1077026e-09  -1.1430526e-05   7.2773111e-01   7.2708410e-01  -3.3851556e+04
   3.1103701e-09  -1.1340581e-05   7.2772862e-01   7.2708671e-01  -3.3585185e+04
   3.1130377e-09  -1.1251343e-05   7.2772615e-01   7.2708929e-01  -3.3320910e+04
   3.1157052e-09  -1.1162808e-05   7.2772370e-01   7.2709185e-01  -3.3058714e+04
   3.1183728e-09  -1.1074970e-05   7.2772127e-01   7.2709439e-01  -3.2798581e+04
   3.1210403e-09  -1.0987822e-05   7.2771886e-01   7.2709692e-01  -3.2540495e+04
   3.1237079e-09  -1.0901361e-05   7.2771647e-01   7.2709942e-01  -3.2284440e+04
   3.1263755e-09  -1.0815580e-05   7.2771410e-01   7.2710190e-01  -3.2030400e+04
   3.1290430e-09  -1.0730473e-05   7.2771175e-01   7.2710437e-01  -3.1778358e+04
   3.1317106e-09  -1.0646037e-05   7.2770941e-01   7.2710681e-01  -3.1528300e+04
   3.1343781e-09  -1.0562265e-05   7.2770709e-01   7.2710923e-01  -3.1280210e+04
   3.1370457e-09  -1.0479152e-05   7.2770480e-01   7.2711164e-01  -3.1034072e+04
   3.1397132e-09  -1.0396693e-05   7.2770251e-01   7.2711403e-01  -3.0789871e+04
   3.1423808e-09  -1.0314883e-05   7.2770025e-01   7.2711639e-01  -3.0547591e+04
   3.1450483e-09  -1.0233717e-05   7.2769801e-01   7.2711874e-01  -3.0307217e+04
   3.1477159e-09  -1.0153189e-05   7.2769578e-01   7.2712107e-01  -3.0068735e+04
   3.1503835e-09  -1.0073295e-05   7.2769357e-01   7.2712339e-01  -2.9832130e+04
   3.1530510e-09  -9.9940298e-06   7.2769138e-01   7.2712568e-01  -2.9597387e+04
   3.1557186e-09  -9.9153882e-06   7.2768920e-01   7.2712796e-01  -2.9364490e+04
   3.1583861e-09  -9.8373654e-06   7.2768704e-01   7.2713022e-01  -2.9133426e+04
   3.1610537e-09  -9.7599566e-06   7.2768490e-01   7.2713246e-01  -2.8904181e+04
   3.1637212e-09  -9.6831569e-06   7.2768278e-01   7.2713468e-01  -2.8676739e+04
   3.1663888e-09  -9.6069616e-06   7.2768067e-01   7.2713689e-01  -2.8451087e+04
   3.1690564e-09  -9.5313658e-06   7.2767858e-01   7.2713907e-01  -2.8227210e+04
   3.1717239e-09  -9.4563648e-06   7.2767651e-01   7.2714124e-01  -2.8005095e+04
   3.1743915e-09  -9.3819540e-06   7.2767445e-01   7.2714340e-01  -2.7784728e+04
   3.1770590e-09  -9.3081288e-06   7.2767241e-01   7.2714553e-01  -2.7566095e+04
   3.1797266e-09  -9.2348844e-06   7.2767038e-01   7.2714765e-01  -2.7349183e+04
   3.1823941e-09  -9.1622164e-06   7.2766837e-01   7.2714976e-01  -2.7133977e+04
   3.1850617e-09  -9.0901203e-06   7.2766638e-01   7.2715185e-01  -2.6920464e+04
   3.1877292e-09  -9.0185914e-06   7.2766440e-01   7.2715392e-01  -2.6708632e+04
   3.1903968e-09  -8.9476254e-06   7.2766244e-01   7.2715597e-01  -2.6498466e+04
   3.1930644e-09  -8.8772178e-06   7.2766049e-01   7.2715801e-01  -2.6289955e+04
   3.1957319e-09  -8.8073642e-06   7.2765856e-01   7.2716003e-01  -2.6083084e+04
   3.1983995e-09  -8.7380603e-06   7.2765664e-01   7.2716204e-01  -2.5877840e+04
   3.2010670e-09  -8.6693017e-06   7.2765474e-01   7.2716403e-01  -2.5674212e+04
   3.2037346e-09  -8.6010842e-06   7.2765285e-01   7.2716600e-01  -2.5472186e+04
   3.2064021e-09  -8.5334035e-06   7.2765098e-01   7.2716796e-01  -2.5271750e+04
   3.2090697e-09  -8.4662553e-06   7.2764912e-01   7.2716990e-01  -2.5072891e+04
   3.2117372e-09  -8.3996356e-06   7.2764728e-01   7.2717183e-01  -2.4875597e+04
   3.2144048e-09  -8.3335400e-06   7.2764545e-01   7.2717374e-01  -2.4679855e+04
   3.2170724e-09  -8.2679645e-06   7.2764364e-01   7.2717564e-01  -2.4485654e+04
   3.2197399e-09  -8.2029051e-06   7.2764184e-01   7.2717753e-01  -2.4292980e+04
   3.2224075e-09  -8.1383576e-06   7.2764005e-01   7.2717939e-01  -2.4101823e+04
   3.2250750e-09  -8.0743179e-06   7.2763828e-01   7.2718125e-01  -2.3912170e+04
   3.2277426e-09  -8.0107823e-06   7.2763653e-01   7.2718309e-01  -2.3724009e+04
   3.2304101e-09  -7.9477465e-06   7.2763478e-01   7.2718491e-01  -2.3537329e+04
   3.2330777e-09  -7.8852068e-06   7.2763305e-01   7.2718672e-01  -2.3352118e+04
   3.2357452e-09  -7.8231592e-06   7.2763134e-01   7.2718852e-01  -2.3168364e+04
   3.2384128e-09  -7.7615998e-06   7.2762963e-01   7.2719030e-01  -2.2986056e+04
   3.2410804e-09  -7.7005249e-06   7.2762794e-01   7.2719207e-01  -2.2805183e+04
   3.2437479e-09  -7.6399305e-06   7.2762627e-01   7.2719382e-01  -2.2625733e+04
   3.2464155e-09  -7.5798129e-06   7.2762461e-01   7.2719556e-01  -2.2447695e+04
   3.2490830e-09  -7.5201684e-06   7.2762296e-01   7.2719729e-01  -2.2271057e+04
   3.2517506e-09  -7.4609933e-06   7.2762132e-01   7.2719900e-01  -2.2095810e+04
   3.2544181e-09  -7.4022837e-06   7.2761970e-01   7.2720070e-01  -2.1921942e+04
   3.2570857e-09  -7.3440362e-06   7.2761809e-01   7.2720239e-01  -2.1749442e+04
   3.2597533e-09  -7.2862469e-06   7.2761649e-01   7.2720406e-01  -2.1578299e+04
   3.2624208e-09  -7.2289125e-06   7.2761490e-01   7.2720572e-01  -2.1408503e+04
   3.2650884e-09  -7.1720291e-06   7.2761333e-01   7.2720737e-01  -2.1240043e+04
   3.2677559e-09  -7.1155934e-06   7.2761177e-01   7.2720900e-01  -2.1072909e+04
   3.2704235e-09  -7.0596018e-06   7.2761022e-01   7.2721062e-01  -2.0907090e+04
   3.2730910e-09  -7.0040507e-06   7.2760868e-01   7.2721223e-01  -2.0742575e+04
   3.2757586e-09  -6.9489368e-06   7.2760716e-01   7.2721382e-01  -2.0579355e+04
   3.2784261e-09  -6.8942565e-06   7.2760565e-01   7.2721541e-01  -2.0417420e+04
   3.2810937e-09  -6.8400066e-06   7.2760415e-01   7.2721698e-01  -2.0256758e+04
   3.2837613e-09  -6.7861835e-06   7.2760266e-01   7.2721854e-01  -2.0097361e+04
   3.2864288e-09  -6.7327839e-06   7.2760118e-01   7.2722008e-01  -1.9939219e+04
   3.2890964e-09  -6.6798045e-06   7.2759972e-01   7.2722162e-01  -1.9782320e+04
   3.2917639e-09  -6.6272421e-06   7.2759826e-01   7.2722314e-01  -1.9626656e+04
   3.2944315e-09  -6.5750932e-06   7.2759682e-01   7.2722465e-01  -1.9472217e+04
   3.2970990e-09  -6.5233546e-06   7.2759539e-01   7.2722614e-01  -1.9318994e+04
   3.2997666e-09  -6.4720232e-06   7.2759397e-01   7.2722763e-01  -1.9166976e+04
   3.3024341e-09  -6.4210957e-06   7.2759256e-01   7.2722910e-01  -1.9016154e+04
   3.3051017e-09  -6.3705690e-06   7.2759116e-01   7.2723057e-01  -1.8866519e+04
   3.3077693e-09  -6.3204398e-06   7.2758978e-01   7.2723202e-01  -1.8718061e+04
   3.3104368e-09  -6.2707051e-06   7.2758840e-01   7.2723346e-01  -1.8570772e+04
   3.3131044e-09  -6.2213618e-06   7.2758704e-01   7.2723489e-01  -1.8424641e+04
   3.3157719e-09  -6.1724067e-06   7.2758568e-01   7.2723630e-01  -1.8279661e+04
   3.3184395e-09  -6.1238369e-06   7.2758434e-01   7.2723771e-01  -1.8135821e+04
   3.3211070e-09  -6.0756492e-06   7.2758301e-01   7.2723910e-01  -1.7993113e+04
   3.3237746e-09  -6.0278407e-06   7.2758169e-01   7.2724049e-01  -1.7851528e+04
   3.3264421e-09  -5.9804084e-06   7.2758037e-01   7.2724186e-01  -1.7711058e+04
   3.3291097e-09  -5.9333494e-06   7.2757907e-01   7.2724322e-01  -1.7571692e+04
   3.3317773e-09  -5.8866606e-06   7.2757778e-01   7.2724458e-01  -1.7433423e+04
   3.3344448e-09  -5.8403393e-06   7.2757650e-01   7.2724592e-01  -1.7296242e+04
   3.3371124e-09  -5.7943824e-06   7.2757523e-01   7.2724725e-01  -1.7160141e+04
   3.3397799e-09  -5.7487872e-06   7.2757397e-01   7.2724857e-01  -1.7025111e+04
   3.3424475e-09  -5.7035507e-06   7.2757272e-01   7.2724988e-01  -1.6891143e+04
   3.3451150e-09  -5.6586702e-06   7.2757148e-01   7.2725117e-01  -1.6758229e+04
   3.3477826e-09  -5.6141429e-06   7.2757024e-01   7.2725246e-01  -1.6626361e+04
   3.3504502e-09  -5.5699659e-06   7.2756902e-01   7.2725374e-01  -1.6495531e+04
   3.3531177e-09  -5.5261366e-06   7.2756781e-01   7.2725501e-01  -1.6365730e+04
   3.3557853e-09  -5.4826521e-06   7.2756661e-01   7.2725627e-01  -1.6236951e+04
   3.3584528e-09  -5.4395099e-06   7.2756542e-01   7.2725752e-01  -1.6109185e+04
   3.3611204e-09  -5.3967071e-06   7.2756423e-01   7.2725876e-01  -1.5982424e+04
   3.3637879e-09  -5.3542411e-06   7.2756306e-01   7.2725999e-01  -1.5856661e+04
   3.3664555e-09  -5.3121092e-06   7.2756189e-01   7.2726121e-01  -1.5731887e+04
   3.3691230e-09  -5.2703089e-06   7.2756074e-01   7.2726242e-01  -1.5608096e+04
   3.3717906e-09  -5.2288376e-06   7.2755959e-01   7.2726362e-01  -1.5485278e+04
   3.3744582e-09  -5.1876925e-06   7.2755845e-01   7.2726481e-01  -1.5363427e+04
   3.3771257e-09  -5.1468712e-06   7.2755732e-01   7.2726599e-01  -1.5242534e+04
   3.3797933e-09  -5.1063711e-06   7.2755620e-01   7.2726716e-01  -1.5122593e+04
   3.3824608e-09  -5.0661898e-06   7.2755509e-01   7.2726833e-01  -1.5003596e+04
   3.3851284e-09  -5.0263246e-06   7.2755399e-01   7.2726948e-01  -1.4885535e+04
   3.3877959e-09  -4.9867731e-06   7.2755290e-01   7.2727063e-01  -1.4768403e+04
   3.3904635e-09  -4.9475328e-06   7.2755181e-01   7.2727176e-01  -1.4652193e+04
   3.3931310e-09  -4.9086013e-06   7.2755073e-01   7.2727289e-01  -1.4536897e+04
   3.3957986e-09  -4.8699761e-06   7.2754967e-01   7.2727401e-01  -1.4422508e+04
   3.3984662e-09  -4.8316549e-06   7.2754861e-01   7.2727512e-01  -1.4309020e+04
   3.4011337e-09  -4.7936352e-06   7.2754755e-01   7.2727622e-01  -1.4196424e+04
   3.4038013e-09  -4.7559147e-06   7.2754651e-01   7.2727731e-01  -1.4084715e+04
   3.4064688e-09  -4.7184910e-06   7.2754548e-01   7.2727839e-01  -1.3973884e+04
   3.4091364e-09  -4.6813618e-06   7.2754445e-01   7.2727947e-01  -1.3863926e+04
   3.4118039e-09  -4.6445248e-06   7.2754343e-01   7.2728053e-01  -1.3754833e+04
   3.4144715e-09  -4.6079776e-06   7.2754242e-01   7.2728159e-01  -1.3646598e+04
   3.4171390e-09  -4.5717180e-06   7.2754142e-01   7.2728264e-01  -1.3539215e+04
   3.4198066e-09  -4.5357437e-06   7.2754042e-01   7.2728368e-01  -1.3432677e+04
   3.4224742e-09  -4.5000525e-06   7.2753944e-01   7.2728472e-01  -1.3326977e+04
   3.4251417e-09  -4.4646422e-06   7.2753846e-01   7.2728574e-01  -1.3222109e+04
   3.4278093e-09  -4.4295105e-06   7.2753748e-01   7.2728676e-01  -1.3118067e+04
   3.4304768e-09  -4.3946552e-06   7.2753652e-01   7.2728777e-01  -1.3014843e+04
   3.4331444e-09  -4.3600742e-06   7.2753556e-01   7.2728877e-01  -1.2912431e+04
   3.4358119e-09  -4.3257653e-06   7.2753462e-01   7.2728976e-01  -1.2810825e+04
   3.4384795e-09  -4.2917264e-06   7.2753367e-01   7.2729075e-01  -1.2710018e+04
   3.4411470e-09  -4.2579554e-06   7.2753274e-01   7.2729172e-01  -1.2610005e+04
   3.4438146e-09  -4.2244500e-06   7.2753181e-01   7.2729269e-01  -1.2510779e+04
   3.4464822e-09  -4.1912084e-06   7.2753089e-01   7.2729366e-01  -1.2412333e+04
   3.4491497e-09  -4.1582283e-06   7.2752998e-01   7.2729461e-01  -1.2314663e+04
   3.4518173e-09  -4.1255077e-06   7.2752908e-01   7.2729556e-01  -1.2217760e+04
   3.4544848e-09  -4.0930446e-06   7.2752818e-01   7.2729650e-01  -1.2121621e+04
   3.4571524e-09  -4.0608369e-06   7.2752729e-01   7.2729743e-01  -1.2026237e+04
   3.4598199e-09  -4.0288827e-06   7.2752641e-01   7.2729836e-01  -1.1931605e+04
   3.4624875e-09  -3.9971799e-06   7.2752553e-01   7.2729927e-01  -1.1837717e+04
   3.4651551e-09  -3.9657266e-06   7.2752466e-01   7.2730018e-01  -1.1744568e+04
   3.4678226e-09  -3.9345208e-06   7.2752380e-01   7.2730109e-01  -1.1652151e+04
   3.4704902e-09  -3.9035605e-06   7.2752294e-01   7.2730198e-01  -1.1560462e+04
   3.4731577e-09  -3.8728439e-06   7.2752209e-01   7.2730287e-01  -1.1469495e+04
   3.4758253e-09  -3.8423689e-06   7.2752125e-01   7.2730376e-01  -1.1379243e+04
   3.4784928e-09  -3.8121338e-06   7.2752041e-01   7.2730463e-01  -1.1289701e+04
   3.4811604e-09  -3.7821366e-06   7.2751958e-01   7.2730550e-01  -1.1200864e+04
   3.4838279e-09  -3.7523754e-06   7.2751876e-01   7.2730636e-01  -1.1112726e+04
   3.4864955e-09  -3.7228484e-06   7.2751794e-01   7.2730722e-01  -1.1025282e+04
   3.4891631e-09  -3.6935538e-06   7.2751713e-01   7.2730806e-01  -1.0938526e+04
   3.4918306e-09  -3.6644897e-06   7.2751633e-01   7.2730891e-01  -1.0852452e+04
   3.4944982e-09  -3.6356542e-06   7.2751553e-01   7.2730974e-01  -1.0767056e+04
   3.4971657e-09  -3.6070457e-06   7.2751474e-01   7.2731057e-01  -1.0682331e+04
   3.4998333e-09  -3.5786623e-06   7.2751396e-01   7.2731139e-01  -1.0598274e+04
   3.5025008e-09  -3.5505022e-06   7.2751318e-01   7.2731221e-01  -1.0514877e+04
   3.5051684e-09  -3.5225638e-06   7.2751240e-01   7.2731301e-01  -1.0432137e+04
   3.5078359e-09  -3.4948451e-06   7.2751164e-01   7.2731382e-01  -1.0350048e+04
   3.5105035e-09  -3.4673446e-06   7.2751088e-01   7.2731461e-01  -1.0268605e+04
   3.5131711e-09  -3.4400605e-06   7.2751012e-01   7.2731540e-01  -1.0187803e+04
   3.5158386e-09  -3.4129911e-06   7.2750937e-01   7.2731619e-01  -1.0107637e+04
   3.5185062e-09  -3.3861347e-06   7.2750863e-01   7.2731696e-01  -1.0028101e+04
   3.5211737e-09  -3.3594896e-06   7.2750789e-01   7.2731774e-01  -9.9491917e+03
   3.5238413e-09  -3.3330542e-06   7.2750716e-01   7.2731850e-01  -9.8709030e+03
   3.5265088e-09  -3.3068268e-06   7.2750644e-01   7.2731926e-01  -9.7932303e+03
   3.5291764e-09  -3.2808057e-06   7.2750572e-01   7.2732001e-01  -9.7161687e+03
   3.5318439e-09  -3.2549895e-06   7.2750501e-01   7.2732076e-01  -9.6397136e+03
   3.5345115e-09  -3.2293763e-06   7.2750430e-01   7.2732150e-01  -9.5638601e+03
   3.5371791e-09  -3.2039648e-06   7.2750359e-01   7.2732224e-01  -9.4886035e+03
   3.5398466e-09  -3.1787531e-06   7.2750290e-01   7.2732297e-01  -9.4139390e+03
   3.5425142e-09  -3.1537399e-06   7.2750221e-01   7.2732369e-01  -9.3398621e+03
   3.5451817e-09  -3.1289235e-06   7.2750152e-01   7.2732441e-01  -9.2663681e+03
   3.5478493e-09  -3.1043024e-06   7.2750084e-01   7.2732512e-01  -9.1934524e+03
   3.5505168e-09  -3.0798750e-06   7.2750016e-01   7.2732583e-01  -9.1211104e+03
   3.5531844e-09  -3.0556398e-06   7.2749949e-01   7.2732653e-01  -9.0493377e+03
   3.5558520e-09  -3.0315953e-06   7.2749883e-01   7.2732723e-01  -8.9781298e+03
   3.5585195e-09  -3.0077401e-06   7.2749817e-01   7.2732792e-01  -8.9074822e+03
   3.5611871e-09  -2.9840725e-06   7.2749751e-01   7.2732860e-01  -8.8373905e+03
   3.5638546e-09  -2.9605912e-06   7.2749686e-01   7.2732928e-01  -8.7678503e+03
   3.5665222e-09  -2.9372947e-06   7.2749622e-01   7.2732996e-01  -8.6988573e+03
   3.5691897e-09  -2.9141814e-06   7.2749558e-01   7.2733063e-01  -8.6304073e+03
   3.5718573e-09  -2.8912501e-06   7.2749495e-01   7.2733129e-01  -8.5624958e+03
   3.5745248e-09  -2.8684992e-06   7.2749432e-01   7.2733195e-01  -8.4951188e+03
   3.5771924e-09  -2.8459273e-06   7.2749369e-01   7.2733260e-01  -8.4282719e+03
   3.5798600e-09  -2.8235330e-06   7.2749307e-01   7.2733325e-01  -8.3619510e+03
   3.5825275e-09  -2.8013150e-06   7.2749246e-01   7.2733389e-01  -8.2961520e+03
   3.5851951e-09  -2.7792717e-06   7.2749185e-01   7.2733453e-01  -8.2308708e+03
   3.5878626e-09  -2.7574020e-06   7.2749125e-01   7.2733517e-01  -8.1661032e+03
   3.5905302e-09  -2.7357043e-06   7.2749065e-01   7.2733579e-01  -8.1018453e+03
   3.5931977e-09  -2.7141773e-06   7.2749005e-01   7.2733642e-01  -8.0380931e+03
   3.5958653e-09  -2.6928198e-06   7.2748946e-01   7.2733704e-01  -7.9748424e+03
   3.5985328e-09  -2.6716303e-06   7.2748887e-01   7.2733765e-01  -7.9120895e+03
   3.6012004e-09  -2.6506076e-06   7.2748829e-01   7.2733826e-01  -7.8498304e+03
   3.6038680e-09  -2.6297502e-06   7.2748772e-01   7.2733886e-01  -7.7880612e+03
   3.6065355e-09  -2.6090570e-06   7.2748714e-01   7.2733946e-01  -7.7267781e+03
   3.6092031e-09  -2.5885267e-06   7.2748658e-01   7.2734006e-01  -7.6659771e+03
   3.6118706e-09  -2.5681578e-06   7.2748601e-01   7.2734065e-01  -7.6056546e+03
   3.6145382e-09  -2.5479493e-06   7.2748545e-01   7.2734123e-01  -7.5458068e+03
   3.6172057e-09  -2.5278998e-06   7.2748490e-01   7.2734181e-01  -7.4864299e+03
   3.6198733e-09  -2.5080080e-06   7.2748435e-01   7.2734239e-01  -7.4275203e+03
   3.6225408e-09  -2.4882728e-06   7.2748380e-01   7.2734296e-01  -7.3690742e+03
   3.6252084e-09  -2.4686929e-06   7.2748326e-01   7.2734352e-01  -7.3110879e+03
   3.6278760e-09  -2.4492670e-06   7.2748272e-01   7.2734409e-01  -7.2535580e+03
   3.6305435e-09  -2.4299940e-06   7.2748219e-01   7.2734465e-01  -7.1964808e+03
   3.6332111e-09  -2.4108726e-06   7.2748166e-01   7.2734520e-01  -7.1398527e+03
   3.6358786e-09  -2.3919018e-06   7.2748114e-01   7.2734575e-01  -7.0836702e+03
   3.6385462e-09  -2.3730801e-06   7.2748062e-01   7.2734629e-01  -7.0279298e+03
   3.6412137e-09  -2.3544066e-06   7.2748010e-01   7.2734683e-01  -6.9726280e+03
   3.6438813e-09  -2.3358801e-06   7.2747959e-01   7.2734737e-01  -6.9177613e+03
   3.6465488e-09  -2.3174993e-06   7.2747908e-01   7.2734790e-01  -6.8633264e+03
   3.6492164e-09  -2.2992632e-06   7.2747858e-01   7.2734843e-01  -6.8093199e+03
   3.6518840e-09  -2.2811705e-06   7.2747808e-01   7.2734895e-01  -6.7557383e+03
   3.6545515e-09  -2.2632202e-06   7.2747758e-01   7.2734947e-01  -6.7025783e+03
   3.6572191e-09  -2.2454112e-06   7.2747709e-01   7.2734999e-01  -6.6498367e+03
   3.6598866e-09  -2.2277423e-06   7.2747660e-01   7.2735050e-01  -6.5975100e+03
   3.6625542e-09  -2.2102125e-06   7.2747611e-01   7.2735101e-01  -6.5455952e+03
   3.6652217e-09  -2.1928205e-06   7.2747563e-01   7.2735151e-01  -6.4940888e+03
   3.6678893e-09  -2.1755655e-06   7.2747516e-01   7.2735201e-01  -6.4429877e+03
   3.6705569e-09  -2.1584462e-06   7.2747468e-01   7.2735251e-01  -6.3922887e+03
   3.6732244e-09  -2.1414616e-06   7.2747421e-01   7.2735300e-01  -6.3419887e+03
   3.6758920e-09  -2.1246107e-06   7.2747375e-01   7.2735349e-01  -6.2920844e+03
   3.6785595e-09  -2.1078924e-06   7.2747329e-01   7.2735397e-01  -6.2425729e+03
   3.6812271e-09  -2.0913056e-06   7.2747283e-01   7.2735445e-01  -6.1934510e+03
   3.6838946e-09  -2.0748493e-06   7.2747237e-01   7.2735493e-01  -6.1447156e+03
   3.6865622e-09  -2.0585226e-06   7.2747192e-01   7.2735540e-01  -6.0963636e+03
   3.6892297e-09  -2.0423243e-06   7.2747147e-01   7.2735587e-01  -6.0483922e+03
   3.6918973e-09  -2.0262535e-06   7.2747103e-01   7.2735633e-01  -6.0007982e+03
   3.6945649e-09  -2.0103091e-06   7.2747059e-01   7.2735680e-01  -5.9535788e+03
   3.6972324e-09  -1.9944902e-06   7.2747015e-01   7.2735725e-01  -5.9067309e+03
   3.6999000e-09  -1.9787958e-06   7.2746972e-01   7.2735771e-01  -5.8602516e+03
   3.7025675e-09  -1.9632248e-06   7.2746928e-01   7.2735816e-01  -5.8141381e+03
   3.7052351e-09  -1.9477764e-06   7.2746886e-01   7.2735861e-01  -5.7683875e+03
   3.7079026e-09  -1.9324496e-06   7.2746843e-01   7.2735905e-01  -5.7229968e+03
   3.7105702e-09  -1.9172434e-06   7.2746801e-01   7.2735949e-01  -5.6779633e+03
   3.7132377e-09  -1.9021568e-06   7.2746760e-01   7.2735993e-01  -5.6332842e+03
   3.7159053e-09  -1.8871889e-06   7.2746718e-01   7.2736036e-01  -5.5889567e+03
   3.7185729e-09  -1.8723388e-06   7.2746677e-01   7.2736079e-01  -5.5449779e+03
   3.7212404e-09  -1.8576056e-06   7.2746636e-01   7.2736122e-01  -5.5013453e+03
   3.7239080e-09  -1.8429883e-06   7.2746596e-01   7.2736164e-01  -5.4580559e+03
   3.7265755e-09  -1.8284860e-06   7.2746556e-01   7.2736206e-01  -5.4151072e+03
   3.7292431e-09  -1.8140979e-06   7.2746516e-01   7.2736248e-01  -5.3724965e+03
   3.7319106e-09  -1.7998229e-06   7.2746477e-01   7.2736289e-01  -5.3302211e+03
   3.7345782e-09  -1.7856603e-06   7.2746438e-01   7.2736330e-01  -5.2882783e+03
   3.7372457e-09  -1.7716091e-06   7.2746399e-01   7.2736371e-01  -5.2466655e+03
   3.7399133e-09  -1.7576685e-06   7.2746360e-01   7.2736411e-01  -5.2053802e+03
   3.7425809e-09  -1.7438376e-06   7.2746322e-01   7.2736451e-01  -5.1644198e+03
   3.7452484e-09  -1.7301155e-06   7.2746284e-01   7.2736491e-01  -5.1237817e+03
   3.7479160e-09  -1.7165014e-06   7.2746246e-01   7.2736530e-01  -5.0834634e+03
   3.7505835e-09  -1.7029945e-06   7.2746209e-01   7.2736569e-01  -5.0434623e+03
   3.7532511e-09  -1.6895938e-06   7.2746172e-01   7.2736608e-01  -5.0037760e+03
   3.7559186e-09  -1.6762986e-06   7.2746135e-01   7.2736647e-01  -4.9644019e+03
   3.7585862e-09  -1.6631079e-06   7.2746099e-01   7.2736685e-01  -4.9253377e+03
   3.7612538e-09  -1.6500211e-06   7.2746062e-01   7.2736723e-01  -4.8865809e+03
   3.7639213e-09  -1.6370373e-06   7.2746027e-01   7.2736760e-01  -4.8481291e+03
   3.7665889e-09  -1.6241556e-06   7.2745991e-01   7.2736798e-01  -4.8099798e+03
   3.7692564e-09  -1.6113753e-06   7.2745956e-01   7.2736835e-01  -4.7721307e+03
   3.7719240e-09  -1.5986955e-06   7.2745921e-01   7.2736871e-01  -4.7345795e+03
   3.7745915e-09  -1.5861156e-06   7.2745886e-01   7.2736908e-01  -4.6973237e+03
   3.7772591e-09  -1.5736346e-06   7.2745851e-01   7.2736944e-01  -4.6603611e+03
   3.7799266e-09  -1.5612518e-06   7.2745817e-01   7.2736980e-01  -4.6236893e+03
   3.7825942e-09  -1.5489665e-06   7.2745783e-01   7.2737015e-01  -4.5873061e+03
   3.7852618e-09  -1.5367778e-06   7.2745749e-01   7.2737051e-01  -4.5512092e+03
   3.7879293e-09  -1.5246851e-06   7.2745716e-01   7.2737086e-01  -4.5153964e+03
   3.7905969e-09  -1.5126875e-06   7.2745683e-01   7.2737120e-01  -4.4798654e+03
   3.7932644e-09  -1.5007843e-06   7.2745650e-01   7.2737155e-01  -4.4446139e+03
   3.7959320e-09  -1.4889748e-06   7.2745617e-01   7.2737189e-01  -4.4096398e+03
   3.7985995e-09  -1.4772582e-06   7.2745585e-01   7.2737223e-01  -4.3749410e+03
   3.8012671e-09  -1.4656338e-06   7.2745553e-01   7.2737257e-01  -4.3405151e+03
   3.8039346e-09  -1.4541009e-06   7.2745521e-01   7.2737290e-01  -4.3063602e+03
   3.8066022e-09  -1.4426587e-06   7.2745489e-01   7.2737323e-01  -4.2724740e+03
   3.8092698e-09  -1.4313066e-06   7.2745458e-01   7.2737356e-01  -4.2388545e+03
   3.8119373e-09  -1.4200438e-06   7.2745427e-01   7.2737389e-01  -4.2054995e+03
   3.8146049e-09  -1.4088696e-06   7.2745396e-01   7.2737421e-01  -4.1724070e+03
   3.8172724e-09  -1.3977833e-06   7.2745365e-01   7.2737453e-01  -4.1395749e+03
   3.8199400e-09  -1.3867843e-06   7.2745335e-01   7.2737485e-01  -4.1070011e+03
   3.8226075e-09  -1.3758718e-06   7.2745304e-01   7.2737516e-01  -4.0746837e+03
   3.8252751e-09  -1.3650453e-06   7.2745274e-01   7.2737548e-01  -4.0426206e+03
   3.8279426e-09  -1.3543038e-06   7.2745245e-01   7.2737579e-01  -4.0108097e+03
   3.8306102e-09  -1.3436470e-06   7.2745215e-01   7.2737610e-01  -3.9792492e+03
   3.8332778e-09  -1.3330739e-06   7.2745186e-01   7.2737640e-01  -3.9479370e+03
   3.8359453e-09  -1.3225841e-06   7.2745157e-01   7.2737671e-01  -3.9168712e+03
   3.8386129e-09  -1.3121768e-06   7.2745128e-01   7.2737701e-01  -3.8860499e+03
   3.8412804e-09  -1.3018514e-06   7.2745100e-01   7.2737731e-01  -3.8554711e+03
   3.8439480e-09  -1.2916073e-06   7.2745071e-01   7.2737760e-01  -3.8251329e+03
   3.8466155e-09  -1.2814438e-06   7.2745043e-01   7.2737790e-01  -3.7950334e+03
   3.8492831e-09  -1.2713602e-06   7.2745015e-01   7.2737819e-01  -3.7651708e+03
   3.8519507e-09  -1.2613560e-06   7.2744988e-01   7.2737848e-01  -3.7355432e+03
   3.8546182e-09  -1.2514305e-06   7.2744960e-01   7.2737877e-01  -3.7061487e+03
   3.8572858e-09  -1.2415831e-06   7.2744933e-01   7.2737905e-01  -3.6769855e+03
   3.8599533e-09  -1.2318132e-06   7.2744906e-01   7.2737934e-01  -3.6480518e+03
   3.8626209e-09  -1.2221202e-06   7.2744879e-01   7.2737962e-01  -3.6193458e+03
   3.8652884e-09  -1.2125035e-06   7.2744853e-01   7.2737989e-01  -3.5908656e+03
   3.8679560e-09  -1.2029624e-06   7.2744826e-01   7.2738017e-01  -3.5626096e+03
   3.8706235e-09  -1.1934964e-06   7.2744800e-01   7.2738044e-01  -3.5345758e+03
   3.8732911e-09  -1.1841049e-06   7.2744774e-01   7.2738072e-01  -3.5067627e+03
   3.8759587e-09  -1.1747873e-06   7.2744748e-01   7.2738099e-01  -3.4791685e+03
   3.8786262e-09  -1.1655430e-06   7.2744723e-01   7.2738125e-01  -3.4517914e+03
   3.8812938e-09  -1.1563714e-06   7.2744697e-01   7.2738152e-01  -3.4246297e+03
   3.8839613e-09  -1.1472721e-06   7.2744672e-01   7.2738178e-01  -3.3976817e+03
   3.8866289e-09  -1.1382443e-06   7.2744647e-01   7.2738204e-01  -3.3709458e+03
   3.8892964e-09  -1.1292876e-06   7.2744623e-01   7.2738230e-01  -3.3444203e+03
   3.8919640e-09  -1.1204013e-06   7.2744598e-01   7.2738256e-01  -3.3181035e+03
   3.8946315e-09  -1.1115850e-06   7.2744574e-01   7.2738282e-01  -3.2919938e+03
   3.8972991e-09  -1.1028380e-06   7.2744549e-01   7.2738307e-01  -3.2660895e+03
   3.8999667e-09  -1.0941599e-06   7.2744525e-01   7.2738332e-01  -3.2403891e+03
