   0.0000000e+00  -1.2214957e-01   6.3477983e+00   4.7273480e-04  -5.2125729e+08
   1.0003334e-12  -1.2162884e-01   6.3468576e+00   4.9221072e-04  -5.1986154e+08
   2.0006669e-12  -1.2110951e-01   6.3459002e+00   5.1243197e-04  -5.1846569e+08
   3.0010003e-12  -1.2059157e-01   6.3449259e+00   5.3342457e-04  -5.1706976e+08
   4.0013338e-12  -1.2007503e-01   6.3439344e+00   5.5521531e-04  -5.1567375e+08
   5.0016672e-12  -1.1955989e-01   6.3429256e+00   5.7783182e-04  -5.1427765e+08
   6.0020007e-12  -1.1904615e-01   6.3418990e+00   6.0130257e-04  -5.1288146e+08
   7.0023341e-12  -1.1853380e-01   6.3408546e+00   6.2565688e-04  -5.1148519e+08
   8.0026676e-12  -1.1802284e-01   6.3397920e+00   6.5092497e-04  -5.1008884e+08
   9.0030010e-12  -1.1751329e-01   6.3387111e+00   6.7713797e-04  -5.0869242e+08
   1.0003334e-11  -1.1700513e-01   6.3376115e+00   7.0432792e-04  -5.0729592e+08
   1.1003668e-11  -1.1649836e-01   6.3364930e+00   7.3252781e-04  -5.0589934e+08
   1.2004001e-11  -1.1599300e-01   6.3353554e+00   7.6177163e-04  -5.0450269e+08
   1.3004335e-11  -1.1548903e-01   6.3341984e+00   7.9209435e-04  -5.0310598e+08
   1.4004668e-11  -1.1498646e-01   6.3330217e+00   8.2353195e-04  -5.0170919e+08
   1.5005002e-11  -1.1448529e-01   6.3318251e+00   8.5612147e-04  -5.0031235e+08
   1.6005335e-11  -1.1398551e-01   6.3306084e+00   8.8990102e-04  -4.9891543e+08
   1.7005669e-11  -1.1348713e-01   6.3293711e+00   9.2490979e-04  -4.9751846e+08
   1.8006002e-11  -1.1299015e-01   6.3281132e+00   9.6118810e-04  -4.9612144e+08
   1.9006335e-11  -1.1249457e-01   6.3268343e+00   9.9877740e-04  -4.9472436e+08
   2.0006669e-11  -1.1200038e-01   6.3255342e+00   1.0377203e-03  -4.9332723e+08
   2.1007002e-11  -1.1150759e-01   6.3242125e+00   1.0780607e-03  -4.9193005e+08
   2.2007336e-11  -1.1101620e-01   6.3228690e+00   1.1198436e-03  -4.9053283e+08
   2.3007669e-11  -1.1052621e-01   6.3215035e+00   1.1631152e-03  -4.8913556e+08
   2.4008003e-11  -1.1003761e-01   6.3201157e+00   1.2079232e-03  -4.8773826e+08
   2.5008336e-11  -1.0955041e-01   6.3187052e+00   1.2543163e-03  -4.8634093e+08
   2.6008670e-11  -1.0906461e-01   6.3172718e+00   1.3023449e-03  -4.8494357e+08
   2.7009003e-11  -1.0858021e-01   6.3158152e+00   1.3520604e-03  -4.8354617e+08
   2.8009336e-11  -1.0809720e-01   6.3143352e+00   1.4035158e-03  -4.8214876e+08
   2.9009670e-11  -1.0761560e-01   6.3128315e+00   1.4567654e-03  -4.8075133e+08
   3.0010003e-11  -1.0713539e-01   6.3113037e+00   1.5118650e-03  -4.7935389e+08
   3.1010337e-11  -1.0665658e-01   6.3097516e+00   1.5688718e-03  -4.7795643e+08
   3.2010670e-11  -1.0617916e-01   6.3081749e+00   1.6278446e-03  -4.7655897e+08
   3.3011004e-11  -1.0570315e-01   6.3065732e+00   1.6888437e-03  -4.7516151e+08
   3.4011337e-11  -1.0522853e-01   6.3049464e+00   1.7519308e-03  -4.7376405e+08
   3.5011671e-11  -1.0475531e-01   6.3032942e+00   1.8171695e-03  -4.7236661e+08
   3.6012004e-11  -1.0428349e-01   6.3016161e+00   1.8846246e-03  -4.7096917e+08
   3.7012337e-11  -1.0381307e-01   6.2999120e+00   1.9543630e-03  -4.6957176e+08
   3.8012671e-11  -1.0334404e-01   6.2981815e+00   2.0264528e-03  -4.6817437e+08
   3.9013004e-11  -1.0287641e-01   6.2964244e+00   2.1009643e-03  -4.6677701e+08
   4.0013338e-11  -1.0241018e-01   6.2946403e+00   2.1779690e-03  -4.6537968e+08
   4.1013671e-11  -1.0194535e-01   6.2928289e+00   2.2575407e-03  -4.6398240e+08
   4.2014005e-11  -1.0148191e-01   6.2909900e+00   2.3397545e-03  -4.6258517e+08
   4.3014338e-11  -1.0101988e-01   6.2891232e+00   2.4246877e-03  -4.6118799e+08
   4.4014672e-11  -1.0055924e-01   6.2872283e+00   2.5124193e-03  -4.5979086e+08
   4.5015005e-11  -1.0009999e-01   6.2853049e+00   2.6030301e-03  -4.5839381e+08
   4.6015338e-11  -9.9642149e-02   6.2833527e+00   2.6966030e-03  -4.5699682e+08
   4.7015672e-11  -9.9185701e-02   6.2813714e+00   2.7932226e-03  -4.5559992e+08
   4.8016005e-11  -9.8730650e-02   6.2793608e+00   2.8929757e-03  -4.5420310e+08
   4.9016339e-11  -9.8276997e-02   6.2773205e+00   2.9959511e-03  -4.5280638e+08
   5.0016672e-11  -9.7824741e-02   6.2752502e+00   3.1022394e-03  -4.5140975e+08
   5.1017006e-11  -9.7373882e-02   6.2731496e+00   3.2119335e-03  -4.5001324e+08
   5.2017339e-11  -9.6924420e-02   6.2710183e+00   3.3251284e-03  -4.4861684e+08
   5.3017673e-11  -9.6476354e-02   6.2688562e+00   3.4419209e-03  -4.4722056e+08
   5.4018006e-11  -9.6029685e-02   6.2666628e+00   3.5624103e-03  -4.4582441e+08
   5.5018339e-11  -9.5584413e-02   6.2644379e+00   3.6866980e-03  -4.4442840e+08
   5.6018673e-11  -9.5140536e-02   6.2621812e+00   3.8148875e-03  -4.4303254e+08
   5.7019006e-11  -9.4698057e-02   6.2598923e+00   3.9470846e-03  -4.4163684e+08
   5.8019340e-11  -9.4256973e-02   6.2575710e+00   4.0833974e-03  -4.4024130e+08
   5.9019673e-11  -9.3817284e-02   6.2552168e+00   4.2239362e-03  -4.3884594e+08
   6.0020007e-11  -9.3378992e-02   6.2528296e+00   4.3688138e-03  -4.3745075e+08
   6.1020340e-11  -9.2942095e-02   6.2504091e+00   4.5181450e-03  -4.3605576e+08
   6.2020674e-11  -9.2506593e-02   6.2479548e+00   4.6720474e-03  -4.3466097e+08
   6.3021007e-11  -9.2072487e-02   6.2454665e+00   4.8306408e-03  -4.3326639e+08
   6.4021340e-11  -9.1639775e-02   6.2429439e+00   4.9940472e-03  -4.3187203e+08
   6.5021674e-11  -9.1208458e-02   6.2403866e+00   5.1623915e-03  -4.3047790e+08
   6.6022007e-11  -9.0778535e-02   6.2377945e+00   5.3358007e-03  -4.2908401e+08
   6.7022341e-11  -9.0350007e-02   6.2351671e+00   5.5144045e-03  -4.2769037e+08
   6.8022674e-11  -8.9922872e-02   6.2325041e+00   5.6983350e-03  -4.2629700e+08
   6.9023008e-11  -8.9497131e-02   6.2298053e+00   5.8877269e-03  -4.2490389e+08
   7.0023341e-11  -8.9072783e-02   6.2270704e+00   6.0827176e-03  -4.2351107e+08
   7.1023675e-11  -8.8649829e-02   6.2242990e+00   6.2834467e-03  -4.2211855e+08
   7.2024008e-11  -8.8228267e-02   6.2214908e+00   6.4900569e-03  -4.2072633e+08
   7.3024341e-11  -8.7808097e-02   6.2186456e+00   6.7026931e-03  -4.1933442e+08
   7.4024675e-11  -8.7389320e-02   6.2157629e+00   6.9215031e-03  -4.1794285e+08
   7.5025008e-11  -8.6971935e-02   6.2128427e+00   7.1466373e-03  -4.1655162e+08
   7.6025342e-11  -8.6555940e-02   6.2098844e+00   7.3782487e-03  -4.1516074e+08
   7.7025675e-11  -8.6141337e-02   6.2068879e+00   7.6164931e-03  -4.1377023e+08
   7.8026009e-11  -8.5728125e-02   6.2038528e+00   7.8615288e-03  -4.1238009e+08
   7.9026342e-11  -8.5316303e-02   6.2007789e+00   8.1135172e-03  -4.1099035e+08
   8.0026676e-11  -8.4905871e-02   6.1976658e+00   8.3726222e-03  -4.0960101e+08
   8.1027009e-11  -8.4496828e-02   6.1945133e+00   8.6390103e-03  -4.0821209e+08
   8.2027342e-11  -8.4089175e-02   6.1913211e+00   8.9128509e-03  -4.0682360e+08
   8.3027676e-11  -8.3682910e-02   6.1880888e+00   9.1943164e-03  -4.0543556e+08
   8.4028009e-11  -8.3278034e-02   6.1848162e+00   9.4835815e-03  -4.0404797e+08
   8.5028343e-11  -8.2874545e-02   6.1815030e+00   9.7808241e-03  -4.0266086e+08
   8.6028676e-11  -8.2472443e-02   6.1781490e+00   1.0086225e-02  -4.0127424e+08
   8.7029010e-11  -8.2071728e-02   6.1747538e+00   1.0399966e-02  -3.9988811e+08
   8.8029343e-11  -8.1672399e-02   6.1713172e+00   1.0722236e-02  -3.9850251e+08
   8.9029677e-11  -8.1274456e-02   6.1678389e+00   1.1053221e-02  -3.9711743e+08
   9.0030010e-11  -8.0877899e-02   6.1643186e+00   1.1393114e-02  -3.9573291e+08
   9.1030343e-11  -8.0482725e-02   6.1607561e+00   1.1742110e-02  -3.9434894e+08
   9.2030677e-11  -8.0088936e-02   6.1571510e+00   1.2100405e-02  -3.9296556e+08
   9.3031010e-11  -7.9696531e-02   6.1535032e+00   1.2468200e-02  -3.9158277e+08
   9.4031344e-11  -7.9305508e-02   6.1498123e+00   1.2845697e-02  -3.9020059e+08
   9.5031677e-11  -7.8915867e-02   6.1460782e+00   1.3233102e-02  -3.8881903e+08
   9.6032011e-11  -7.8527608e-02   6.1423005e+00   1.3630624e-02  -3.8743812e+08
   9.7032344e-11  -7.8140730e-02   6.1384789e+00   1.4038473e-02  -3.8605787e+08
   9.8032678e-11  -7.7755233e-02   6.1346134e+00   1.4456863e-02  -3.8467829e+08
   9.9033011e-11  -7.7371115e-02   6.1307035e+00   1.4886011e-02  -3.8329941e+08
   1.0003334e-10  -7.6988375e-02   6.1267491e+00   1.5326135e-02  -3.8192124e+08
   1.0103368e-10  -7.6607014e-02   6.1227499e+00   1.5777459e-02  -3.8054380e+08
   1.0203401e-10  -7.6227031e-02   6.1187057e+00   1.6240205e-02  -3.7916711e+08
   1.0303434e-10  -7.5848424e-02   6.1146162e+00   1.6714603e-02  -3.7779118e+08
   1.0403468e-10  -7.5471193e-02   6.1104813e+00   1.7200880e-02  -3.7641604e+08
   1.0503501e-10  -7.5095337e-02   6.1063006e+00   1.7699270e-02  -3.7504169e+08
   1.0603535e-10  -7.4720856e-02   6.1020741e+00   1.8210008e-02  -3.7366817e+08
   1.0703568e-10  -7.4347748e-02   6.0978014e+00   1.8733331e-02  -3.7229549e+08
   1.0803601e-10  -7.3976012e-02   6.0934824e+00   1.9269479e-02  -3.7092366e+08
   1.0903635e-10  -7.3605649e-02   6.0891168e+00   1.9818694e-02  -3.6955271e+08
   1.1003668e-10  -7.3236656e-02   6.0847045e+00   2.0381222e-02  -3.6818266e+08
   1.1103701e-10  -7.2869033e-02   6.0802452e+00   2.0957309e-02  -3.6681353e+08
   1.1203735e-10  -7.2502779e-02   6.0757387e+00   2.1547205e-02  -3.6544533e+08
   1.1303768e-10  -7.2137894e-02   6.0711850e+00   2.2151161e-02  -3.6407809e+08
   1.1403801e-10  -7.1774375e-02   6.0665837e+00   2.2769433e-02  -3.6271183e+08
   1.1503835e-10  -7.1412223e-02   6.0619347e+00   2.3402277e-02  -3.6134657e+08
   1.1603868e-10  -7.1051435e-02   6.0572379e+00   2.4049950e-02  -3.5998232e+08
   1.1703901e-10  -7.0692012e-02   6.0524930e+00   2.4712713e-02  -3.5861912e+08
   1.1803935e-10  -7.0333952e-02   6.0477000e+00   2.5390830e-02  -3.5725697e+08
   1.1903968e-10  -6.9977254e-02   6.0428586e+00   2.6084564e-02  -3.5589591e+08
   1.2004001e-10  -6.9621917e-02   6.0379686e+00   2.6794182e-02  -3.5453594e+08
   1.2104035e-10  -6.9267940e-02   6.0330300e+00   2.7519953e-02  -3.5317711e+08
   1.2204068e-10  -6.8915321e-02   6.0280427e+00   2.8262148e-02  -3.5181942e+08
   1.2304101e-10  -6.8564060e-02   6.0230063e+00   2.9021037e-02  -3.5046290e+08
   1.2404135e-10  -6.8214155e-02   6.0179210e+00   2.9796895e-02  -3.4910757e+08
   1.2504168e-10  -6.7865605e-02   6.0127864e+00   3.0589997e-02  -3.4775345e+08
   1.2604201e-10  -6.7518409e-02   6.0076026e+00   3.1400620e-02  -3.4640057e+08
   1.2704235e-10  -6.7172566e-02   6.0023693e+00   3.2229042e-02  -3.4504894e+08
   1.2804268e-10  -6.6828074e-02   5.9970865e+00   3.3075544e-02  -3.4369860e+08
   1.2904301e-10  -6.6484933e-02   5.9917541e+00   3.3940405e-02  -3.4234956e+08
   1.3004335e-10  -6.6143140e-02   5.9863720e+00   3.4823909e-02  -3.4100185e+08
   1.3104368e-10  -6.5802694e-02   5.9809401e+00   3.5726340e-02  -3.3965549e+08
   1.3204401e-10  -6.5463595e-02   5.9754583e+00   3.6647980e-02  -3.3831050e+08
   1.3304435e-10  -6.5125840e-02   5.9699265e+00   3.7589117e-02  -3.3696691e+08
   1.3404468e-10  -6.4789428e-02   5.9643447e+00   3.8550037e-02  -3.3562474e+08
   1.3504502e-10  -6.4454359e-02   5.9587129e+00   3.9531026e-02  -3.3428402e+08
   1.3604535e-10  -6.4120630e-02   5.9530309e+00   4.0532374e-02  -3.3294476e+08
   1.3704568e-10  -6.3788239e-02   5.9472988e+00   4.1554368e-02  -3.3160700e+08
   1.3804602e-10  -6.3457187e-02   5.9415164e+00   4.2597298e-02  -3.3027076e+08
   1.3904635e-10  -6.3127470e-02   5.9356838e+00   4.3661453e-02  -3.2893605e+08
   1.4004668e-10  -6.2799087e-02   5.9298009e+00   4.4747123e-02  -3.2760292e+08
   1.4104702e-10  -6.2472037e-02   5.9238677e+00   4.5854600e-02  -3.2627137e+08
   1.4204735e-10  -6.2146318e-02   5.9178842e+00   4.6984172e-02  -3.2494144e+08
   1.4304768e-10  -6.1821929e-02   5.9118504e+00   4.8136131e-02  -3.2361314e+08
   1.4404802e-10  -6.1498868e-02   5.9057663e+00   4.9310766e-02  -3.2228652e+08
   1.4504835e-10  -6.1177133e-02   5.8996319e+00   5.0508369e-02  -3.2096158e+08
   1.4604868e-10  -6.0856722e-02   5.8934472e+00   5.1729228e-02  -3.1963836e+08
   1.4704902e-10  -6.0537635e-02   5.8872123e+00   5.2973633e-02  -3.1831688e+08
   1.4804935e-10  -6.0219868e-02   5.8809272e+00   5.4241875e-02  -3.1699716e+08
   1.4904968e-10  -5.9903421e-02   5.8745919e+00   5.5534239e-02  -3.1567923e+08
   1.5005002e-10  -5.9588291e-02   5.8682064e+00   5.6851016e-02  -3.1436312e+08
   1.5105035e-10  -5.9274476e-02   5.8617709e+00   5.8192490e-02  -3.1304885e+08
   1.5205068e-10  -5.8961976e-02   5.8552854e+00   5.9558949e-02  -3.1173645e+08
   1.5305102e-10  -5.8650787e-02   5.8487500e+00   6.0950677e-02  -3.1042594e+08
   1.5405135e-10  -5.8340908e-02   5.8421647e+00   6.2367957e-02  -3.0911734e+08
   1.5505168e-10  -5.8032338e-02   5.8355296e+00   6.3811073e-02  -3.0781069e+08
   1.5605202e-10  -5.7725073e-02   5.8288449e+00   6.5280305e-02  -3.0650601e+08
   1.5705235e-10  -5.7419113e-02   5.8221106e+00   6.6775932e-02  -3.0520332e+08
   1.5805268e-10  -5.7114455e-02   5.8153268e+00   6.8298232e-02  -3.0390266e+08
   1.5905302e-10  -5.6811097e-02   5.8084937e+00   6.9847481e-02  -3.0260404e+08
   1.6005335e-10  -5.6509037e-02   5.8016115e+00   7.1423953e-02  -3.0130749e+08
   1.6105368e-10  -5.6208273e-02   5.7946801e+00   7.3027920e-02  -3.0001304e+08
   1.6205402e-10  -5.5908802e-02   5.7876998e+00   7.4659652e-02  -2.9872071e+08
   1.6305435e-10  -5.5610624e-02   5.7806707e+00   7.6319417e-02  -2.9743053e+08
   1.6405468e-10  -5.5313735e-02   5.7735930e+00   7.8007479e-02  -2.9614252e+08
   1.6505502e-10  -5.5018134e-02   5.7664669e+00   7.9724102e-02  -2.9485672e+08
   1.6605535e-10  -5.4723817e-02   5.7592925e+00   8.1469546e-02  -2.9357314e+08
   1.6705569e-10  -5.4430784e-02   5.7520700e+00   8.3244067e-02  -2.9229181e+08
   1.6805602e-10  -5.4139031e-02   5.7447996e+00   8.5047921e-02  -2.9101276e+08
   1.6905635e-10  -5.3848557e-02   5.7374815e+00   8.6881359e-02  -2.8973601e+08
   1.7005669e-10  -5.3559358e-02   5.7301159e+00   8.8744628e-02  -2.8846159e+08
   1.7105702e-10  -5.3271434e-02   5.7227030e+00   9.0637975e-02  -2.8718953e+08
   1.7205735e-10  -5.2984781e-02   5.7152430e+00   9.2561641e-02  -2.8591984e+08
   1.7305769e-10  -5.2699396e-02   5.7077363e+00   9.4515864e-02  -2.8465256e+08
   1.7405802e-10  -5.2415279e-02   5.7001830e+00   9.6500879e-02  -2.8338771e+08
   1.7505835e-10  -5.2132425e-02   5.6925833e+00   9.8516917e-02  -2.8212531e+08
   1.7605869e-10  -5.1850833e-02   5.6849375e+00   1.0056420e-01  -2.8086539e+08
   1.7705902e-10  -5.1570501e-02   5.6772460e+00   1.0264296e-01  -2.7960798e+08
   1.7805935e-10  -5.1291425e-02   5.6695089e+00   1.0475342e-01  -2.7835310e+08
   1.7905969e-10  -5.1013603e-02   5.6617265e+00   1.0689578e-01  -2.7710077e+08
   1.8006002e-10  -5.0737032e-02   5.6538991e+00   1.0907025e-01  -2.7585102e+08
   1.8106035e-10  -5.0461711e-02   5.6460271e+00   1.1127706e-01  -2.7460388e+08
   1.8206069e-10  -5.0187636e-02   5.6381106e+00   1.1351638e-01  -2.7335937e+08
   1.8306102e-10  -4.9914805e-02   5.6301501e+00   1.1578843e-01  -2.7211751e+08
   1.8406135e-10  -4.9643214e-02   5.6221459e+00   1.1809340e-01  -2.7087833e+08
   1.8506169e-10  -4.9372862e-02   5.6140982e+00   1.2043147e-01  -2.6964185e+08
   1.8606202e-10  -4.9103746e-02   5.6060074e+00   1.2280282e-01  -2.6840809e+08
   1.8706235e-10  -4.8835862e-02   5.5978738e+00   1.2520763e-01  -2.6717709e+08
   1.8806269e-10  -4.8569209e-02   5.5896979e+00   1.2764609e-01  -2.6594886e+08
   1.8906302e-10  -4.8303783e-02   5.5814798e+00   1.3011834e-01  -2.6472342e+08
   1.9006335e-10  -4.8039582e-02   5.5732201e+00   1.3262456e-01  -2.6350081e+08
   1.9106369e-10  -4.7776602e-02   5.5649191e+00   1.3516490e-01  -2.6228104e+08
   1.9206402e-10  -4.7514841e-02   5.5565770e+00   1.3773951e-01  -2.6106414e+08
   1.9306435e-10  -4.7254296e-02   5.5481945e+00   1.4034854e-01  -2.5985013e+08
   1.9406469e-10  -4.6994965e-02   5.5397717e+00   1.4299212e-01  -2.5863903e+08
   1.9506502e-10  -4.6736843e-02   5.5313091e+00   1.4567040e-01  -2.5743086e+08
   1.9606536e-10  -4.6479929e-02   5.5228072e+00   1.4838350e-01  -2.5622566e+08
   1.9706569e-10  -4.6224219e-02   5.5142662e+00   1.5113154e-01  -2.5502343e+08
   1.9806602e-10  -4.5969710e-02   5.5056867e+00   1.5391463e-01  -2.5382421e+08
   1.9906636e-10  -4.5716399e-02   5.4970691e+00   1.5673290e-01  -2.5262801e+08
   2.0006669e-10  -4.5464284e-02   5.4884138e+00   1.5958643e-01  -2.5143485e+08
   2.0106702e-10  -4.5213360e-02   5.4797211e+00   1.6247534e-01  -2.5024476e+08
   2.0206736e-10  -4.4963626e-02   5.4709917e+00   1.6539971e-01  -2.4905776e+08
   2.0306769e-10  -4.4715078e-02   5.4622258e+00   1.6835962e-01  -2.4787386e+08
   2.0406802e-10  -4.4467713e-02   5.4534240e+00   1.7135516e-01  -2.4669310e+08
   2.0506836e-10  -4.4221527e-02   5.4445867e+00   1.7438639e-01  -2.4551549e+08
   2.0606869e-10  -4.3976518e-02   5.4357144e+00   1.7745339e-01  -2.4434104e+08
   2.0706902e-10  -4.3732683e-02   5.4268076e+00   1.8055622e-01  -2.4316979e+08
   2.0806936e-10  -4.3490017e-02   5.4178667e+00   1.8369492e-01  -2.4200174e+08
   2.0906969e-10  -4.3248519e-02   5.4088921e+00   1.8686954e-01  -2.4083693e+08
   2.1007002e-10  -4.3008184e-02   5.3998845e+00   1.9008012e-01  -2.3967536e+08
   2.1107036e-10  -4.2769010e-02   5.3908443e+00   1.9332670e-01  -2.3851706e+08
   2.1207069e-10  -4.2530993e-02   5.3817719e+00   1.9660929e-01  -2.3736205e+08
   2.1307102e-10  -4.2294129e-02   5.3726679e+00   1.9992793e-01  -2.3621034e+08
   2.1407136e-10  -4.2058417e-02   5.3635328e+00   2.0328261e-01  -2.3506196e+08
   2.1507169e-10  -4.1823851e-02   5.3543670e+00   2.0667336e-01  -2.3391691e+08
   2.1607202e-10  -4.1590430e-02   5.3451712e+00   2.1010016e-01  -2.3277523e+08
   2.1707236e-10  -4.1358149e-02   5.3359458e+00   2.1356301e-01  -2.3163692e+08
   2.1807269e-10  -4.1127005e-02   5.3266913e+00   2.1706189e-01  -2.3050200e+08
   2.1907302e-10  -4.0896995e-02   5.3174083e+00   2.2059678e-01  -2.2937049e+08
   2.2007336e-10  -4.0668116e-02   5.3080972e+00   2.2416766e-01  -2.2824242e+08
   2.2107369e-10  -4.0440363e-02   5.2987587e+00   2.2777448e-01  -2.2711778e+08
   2.2207402e-10  -4.0213733e-02   5.2893933e+00   2.3141721e-01  -2.2599660e+08
   2.2307436e-10  -3.9988224e-02   5.2800015e+00   2.3509579e-01  -2.2487890e+08
   2.2407469e-10  -3.9763831e-02   5.2705838e+00   2.3881017e-01  -2.2376468e+08
   2.2507503e-10  -3.9540551e-02   5.2611408e+00   2.4256028e-01  -2.2265397e+08
   2.2607536e-10  -3.9318381e-02   5.2516730e+00   2.4634606e-01  -2.2154679e+08
   2.2707569e-10  -3.9097316e-02   5.2421811e+00   2.5016743e-01  -2.2044313e+08
   2.2807603e-10  -3.8877354e-02   5.2326655e+00   2.5402431e-01  -2.1934303e+08
   2.2907636e-10  -3.8658491e-02   5.2231268e+00   2.5791660e-01  -2.1824648e+08
   2.3007669e-10  -3.8440723e-02   5.2135656e+00   2.6184420e-01  -2.1715352e+08
   2.3107703e-10  -3.8224046e-02   5.2039824e+00   2.6580702e-01  -2.1606414e+08
   2.3207736e-10  -3.8008458e-02   5.1943778e+00   2.6980494e-01  -2.1497837e+08
   2.3307769e-10  -3.7793954e-02   5.1847523e+00   2.7383784e-01  -2.1389621e+08
   2.3407803e-10  -3.7580531e-02   5.1751066e+00   2.7790561e-01  -2.1281768e+08
   2.3507836e-10  -3.7368185e-02   5.1654412e+00   2.8200810e-01  -2.1174279e+08
   2.3607869e-10  -3.7156913e-02   5.1557566e+00   2.8614519e-01  -2.1067155e+08
   2.3707903e-10  -3.6946711e-02   5.1460535e+00   2.9031673e-01  -2.0960397e+08
   2.3807936e-10  -3.6737575e-02   5.1363324e+00   2.9452256e-01  -2.0854007e+08
   2.3907969e-10  -3.6529501e-02   5.1265939e+00   2.9876254e-01  -2.0747985e+08
   2.4008003e-10  -3.6322487e-02   5.1168386e+00   3.0303650e-01  -2.0642333e+08
   2.4108036e-10  -3.6116527e-02   5.1070670e+00   3.0734426e-01  -2.0537051e+08
   2.4208069e-10  -3.5911619e-02   5.0972797e+00   3.1168566e-01  -2.0432141e+08
   2.4308103e-10  -3.5707759e-02   5.0874774e+00   3.1606051e-01  -2.0327604e+08
   2.4408136e-10  -3.5504942e-02   5.0776605e+00   3.2046863e-01  -2.0223440e+08
   2.4508169e-10  -3.5303166e-02   5.0678296e+00   3.2490982e-01  -2.0119651e+08
   2.4608203e-10  -3.5102427e-02   5.0579855e+00   3.2938387e-01  -2.0016236e+08
   2.4708236e-10  -3.4902720e-02   5.0481285e+00   3.3389059e-01  -1.9913198e+08
   2.4808269e-10  -3.4704042e-02   5.0382593e+00   3.3842977e-01  -1.9810537e+08
   2.4908303e-10  -3.4506389e-02   5.0283785e+00   3.4300118e-01  -1.9708253e+08
   2.5008336e-10  -3.4309758e-02   5.0184866e+00   3.4760460e-01  -1.9606348e+08
   2.5108369e-10  -3.4114144e-02   5.0085843e+00   3.5223981e-01  -1.9504822e+08
   2.5208403e-10  -3.3919544e-02   4.9986721e+00   3.5690657e-01  -1.9403675e+08
   2.5308436e-10  -3.3725954e-02   4.9887505e+00   3.6160464e-01  -1.9302909e+08
   2.5408469e-10  -3.3533370e-02   4.9788202e+00   3.6633377e-01  -1.9202524e+08
   2.5508503e-10  -3.3341789e-02   4.9688818e+00   3.7109372e-01  -1.9102521e+08
   2.5608536e-10  -3.3151206e-02   4.9589357e+00   3.7588423e-01  -1.9002900e+08
   2.5708570e-10  -3.2961618e-02   4.9489826e+00   3.8070504e-01  -1.8903662e+08
   2.5808603e-10  -3.2773021e-02   4.9390231e+00   3.8555588e-01  -1.8804807e+08
   2.5908636e-10  -3.2585411e-02   4.9290576e+00   3.9043649e-01  -1.8706335e+08
   2.6008670e-10  -3.2398784e-02   4.9190869e+00   3.9534659e-01  -1.8608248e+08
   2.6108703e-10  -3.2213136e-02   4.9091114e+00   4.0028589e-01  -1.8510545e+08
   2.6208736e-10  -3.2028464e-02   4.8991316e+00   4.0525412e-01  -1.8413228e+08
   2.6308770e-10  -3.1844764e-02   4.8891483e+00   4.1025099e-01  -1.8316295e+08
   2.6408803e-10  -3.1662031e-02   4.8791618e+00   4.1527620e-01  -1.8219749e+08
   2.6508836e-10  -3.1480262e-02   4.8691729e+00   4.2032946e-01  -1.8123588e+08
   2.6608870e-10  -3.1299454e-02   4.8591820e+00   4.2541046e-01  -1.8027813e+08
   2.6708903e-10  -3.1119601e-02   4.8491896e+00   4.3051891e-01  -1.7932425e+08
   2.6808936e-10  -3.0940701e-02   4.8391964e+00   4.3565448e-01  -1.7837423e+08
   2.6908970e-10  -3.0762750e-02   4.8292029e+00   4.4081686e-01  -1.7742808e+08
   2.7009003e-10  -3.0585743e-02   4.8192095e+00   4.4600575e-01  -1.7648580e+08
   2.7109036e-10  -3.0409676e-02   4.8092170e+00   4.5122081e-01  -1.7554739e+08
   2.7209070e-10  -3.0234547e-02   4.7992257e+00   4.5646173e-01  -1.7461285e+08
   2.7309103e-10  -3.0060350e-02   4.7892362e+00   4.6172817e-01  -1.7368218e+08
   2.7409136e-10  -2.9887083e-02   4.7792491e+00   4.6701980e-01  -1.7275539e+08
   2.7509170e-10  -2.9714741e-02   4.7692649e+00   4.7233630e-01  -1.7183247e+08
   2.7609203e-10  -2.9543320e-02   4.7592841e+00   4.7767732e-01  -1.7091342e+08
   2.7709236e-10  -2.9372816e-02   4.7493073e+00   4.8304252e-01  -1.6999824e+08
   2.7809270e-10  -2.9203227e-02   4.7393348e+00   4.8843156e-01  -1.6908694e+08
   2.7909303e-10  -2.9034546e-02   4.7293673e+00   4.9384410e-01  -1.6817950e+08
   2.8009336e-10  -2.8866772e-02   4.7194053e+00   4.9927978e-01  -1.6727594e+08
   2.8109370e-10  -2.8699900e-02   4.7094493e+00   5.0473825e-01  -1.6637624e+08
   2.8209403e-10  -2.8533926e-02   4.6994997e+00   5.1021917e-01  -1.6548041e+08
   2.8309436e-10  -2.8368846e-02   4.6895571e+00   5.1572216e-01  -1.6458844e+08
   2.8409470e-10  -2.8204656e-02   4.6796219e+00   5.2124688e-01  -1.6370034e+08
   2.8509503e-10  -2.8041353e-02   4.6696947e+00   5.2679297e-01  -1.6281610e+08
   2.8609537e-10  -2.7878932e-02   4.6597759e+00   5.3236006e-01  -1.6193571e+08
   2.8709570e-10  -2.7717390e-02   4.6498660e+00   5.3794779e-01  -1.6105918e+08
   2.8809603e-10  -2.7556723e-02   4.6399656e+00   5.4355580e-01  -1.6018650e+08
   2.8909637e-10  -2.7396928e-02   4.6300749e+00   5.4918371e-01  -1.5931767e+08
   2.9009670e-10  -2.7237999e-02   4.6201946e+00   5.5483115e-01  -1.5845268e+08
   2.9109703e-10  -2.7079934e-02   4.6103251e+00   5.6049776e-01  -1.5759153e+08
   2.9209737e-10  -2.6922728e-02   4.6004669e+00   5.6618317e-01  -1.5673422e+08
   2.9309770e-10  -2.6766378e-02   4.5906203e+00   5.7188699e-01  -1.5588074e+08
   2.9409803e-10  -2.6610880e-02   4.5807858e+00   5.7760886e-01  -1.5503109e+08
   2.9509837e-10  -2.6456230e-02   4.5709640e+00   5.8334841e-01  -1.5418527e+08
   2.9609870e-10  -2.6302423e-02   4.5611552e+00   5.8910525e-01  -1.5334326e+08
   2.9709903e-10  -2.6149458e-02   4.5513598e+00   5.9487900e-01  -1.5250507e+08
   2.9809937e-10  -2.5997329e-02   4.5415784e+00   6.0066930e-01  -1.5167068e+08
   2.9909970e-10  -2.5846032e-02   4.5318112e+00   6.0647575e-01  -1.5084010e+08
   3.0010003e-10  -2.5695565e-02   4.5220588e+00   6.1229799e-01  -1.5001331e+08
   3.0110037e-10  -2.5545923e-02   4.5123216e+00   6.1813564e-01  -1.4919032e+08
   3.0210070e-10  -2.5397102e-02   4.5025999e+00   6.2398831e-01  -1.4837111e+08
   3.0310103e-10  -2.5249098e-02   4.4928941e+00   6.2985562e-01  -1.4755568e+08
   3.0410137e-10  -2.5101909e-02   4.4832047e+00   6.3573719e-01  -1.4674403e+08
   3.0510170e-10  -2.4955529e-02   4.4735321e+00   6.4163265e-01  -1.4593614e+08
   3.0610203e-10  -2.4809956e-02   4.4638766e+00   6.4754161e-01  -1.4513201e+08
   3.0710237e-10  -2.4665185e-02   4.4542387e+00   6.5346370e-01  -1.4433163e+08
   3.0810270e-10  -2.4521213e-02   4.4446186e+00   6.5939853e-01  -1.4353500e+08
   3.0910303e-10  -2.4378036e-02   4.4350168e+00   6.6534572e-01  -1.4274211e+08
   3.1010337e-10  -2.4235650e-02   4.4254337e+00   6.7130490e-01  -1.4195295e+08
   3.1110370e-10  -2.4094052e-02   4.4158696e+00   6.7727569e-01  -1.4116751e+08
   3.1210403e-10  -2.3953237e-02   4.4063248e+00   6.8325771e-01  -1.4038579e+08
   3.1310437e-10  -2.3813203e-02   4.3967998e+00   6.8925058e-01  -1.3960777e+08
   3.1410470e-10  -2.3673945e-02   4.3872948e+00   6.9525392e-01  -1.3883346e+08
   3.1510504e-10  -2.3535460e-02   4.3778102e+00   7.0126737e-01  -1.3806284e+08
   3.1610537e-10  -2.3397743e-02   4.3683464e+00   7.0729054e-01  -1.3729590e+08
   3.1710570e-10  -2.3260792e-02   4.3589037e+00   7.1332307e-01  -1.3653263e+08
   3.1810604e-10  -2.3124603e-02   4.3494823e+00   7.1936457e-01  -1.3577304e+08
   3.1910637e-10  -2.2989171e-02   4.3400827e+00   7.2541468e-01  -1.3501710e+08
   3.2010670e-10  -2.2854494e-02   4.3307051e+00   7.3147303e-01  -1.3426480e+08
   3.2110704e-10  -2.2720568e-02   4.3213499e+00   7.3753925e-01  -1.3351615e+08
   3.2210737e-10  -2.2587388e-02   4.3120173e+00   7.4361298e-01  -1.3277113e+08
   3.2310770e-10  -2.2454952e-02   4.3027076e+00   7.4969383e-01  -1.3202973e+08
   3.2410804e-10  -2.2323256e-02   4.2934212e+00   7.5578146e-01  -1.3129194e+08
   3.2510837e-10  -2.2192296e-02   4.2841584e+00   7.6187550e-01  -1.3055776e+08
   3.2610870e-10  -2.2062068e-02   4.2749194e+00   7.6797558e-01  -1.2982717e+08
   3.2710904e-10  -2.1932570e-02   4.2657044e+00   7.7408135e-01  -1.2910016e+08
   3.2810937e-10  -2.1803797e-02   4.2565138e+00   7.8019244e-01  -1.2837672e+08
   3.2910970e-10  -2.1675745e-02   4.2473479e+00   7.8630851e-01  -1.2765685e+08
   3.3011004e-10  -2.1548412e-02   4.2382069e+00   7.9242920e-01  -1.2694053e+08
   3.3111037e-10  -2.1421794e-02   4.2290910e+00   7.9855416e-01  -1.2622775e+08
   3.3211070e-10  -2.1295887e-02   4.2200005e+00   8.0468303e-01  -1.2551851e+08
   3.3311104e-10  -2.1170687e-02   4.2109357e+00   8.1081546e-01  -1.2481279e+08
   3.3411137e-10  -2.1046192e-02   4.2018968e+00   8.1695112e-01  -1.2411058e+08
   3.3511170e-10  -2.0922397e-02   4.1928840e+00   8.2308965e-01  -1.2341187e+08
   3.3611204e-10  -2.0799300e-02   4.1838976e+00   8.2923072e-01  -1.2271666e+08
   3.3711237e-10  -2.0676896e-02   4.1749378e+00   8.3537399e-01  -1.2202492e+08
   3.3811270e-10  -2.0555182e-02   4.1660048e+00   8.4151911e-01  -1.2133666e+08
   3.3911304e-10  -2.0434155e-02   4.1570989e+00   8.4766576e-01  -1.2065185e+08
   3.4011337e-10  -2.0313811e-02   4.1482202e+00   8.5381360e-01  -1.1997049e+08
   3.4111370e-10  -2.0194147e-02   4.1393689e+00   8.5996230e-01  -1.1929257e+08
   3.4211404e-10  -2.0075160e-02   4.1305453e+00   8.6611153e-01  -1.1861807e+08
   3.4311437e-10  -1.9956845e-02   4.1217496e+00   8.7226096e-01  -1.1794699e+08
   3.4411470e-10  -1.9839200e-02   4.1129819e+00   8.7841029e-01  -1.1727931e+08
   3.4511504e-10  -1.9722221e-02   4.1042424e+00   8.8455917e-01  -1.1661502e+08
   3.4611537e-10  -1.9605904e-02   4.0955314e+00   8.9070731e-01  -1.1595411e+08
   3.4711571e-10  -1.9490247e-02   4.0868489e+00   8.9685438e-01  -1.1529658e+08
   3.4811604e-10  -1.9375246e-02   4.0781953e+00   9.0300006e-01  -1.1464239e+08
   3.4911637e-10  -1.9260898e-02   4.0695705e+00   9.0914406e-01  -1.1399156e+08
   3.5011671e-10  -1.9147199e-02   4.0609749e+00   9.1528607e-01  -1.1334406e+08
   3.5111704e-10  -1.9034146e-02   4.0524085e+00   9.2142577e-01  -1.1269988e+08
   3.5211737e-10  -1.8921736e-02   4.0438715e+00   9.2756287e-01  -1.1205902e+08
   3.5311771e-10  -1.8809965e-02   4.0353641e+00   9.3369708e-01  -1.1142145e+08
   3.5411804e-10  -1.8698830e-02   4.0268864e+00   9.3982809e-01  -1.1078717e+08
   3.5511837e-10  -1.8588328e-02   4.0184386e+00   9.4595561e-01  -1.1015616e+08
   3.5611871e-10  -1.8478455e-02   4.0100207e+00   9.5207936e-01  -1.0952842e+08
   3.5711904e-10  -1.8369209e-02   4.0016330e+00   9.5819905e-01  -1.0890393e+08
   3.5811937e-10  -1.8260586e-02   3.9932755e+00   9.6431438e-01  -1.0828268e+08
   3.5911971e-10  -1.8152582e-02   3.9849484e+00   9.7042509e-01  -1.0766466e+08
   3.6012004e-10  -1.8045195e-02   3.9766518e+00   9.7653090e-01  -1.0704985e+08
   3.6112037e-10  -1.7938421e-02   3.9683858e+00   9.8263152e-01  -1.0643825e+08
   3.6212071e-10  -1.7832258e-02   3.9601505e+00   9.8872669e-01  -1.0582984e+08
   3.6312104e-10  -1.7726701e-02   3.9519460e+00   9.9481615e-01  -1.0522460e+08
   3.6412137e-10  -1.7621748e-02   3.9437725e+00   1.0008996e+00  -1.0462254e+08
   3.6512171e-10  -1.7517396e-02   3.9356300e+00   1.0069768e+00  -1.0402363e+08
   3.6612204e-10  -1.7413641e-02   3.9275186e+00   1.0130475e+00  -1.0342786e+08
   3.6712237e-10  -1.7310481e-02   3.9194384e+00   1.0191115e+00  -1.0283522e+08
   3.6812271e-10  -1.7207912e-02   3.9113895e+00   1.0251684e+00  -1.0224570e+08
   3.6912304e-10  -1.7105931e-02   3.9033720e+00   1.0312180e+00  -1.0165928e+08
   3.7012337e-10  -1.7004535e-02   3.8953860e+00   1.0372602e+00  -1.0107596e+08
   3.7112371e-10  -1.6903720e-02   3.8874315e+00   1.0432945e+00  -1.0049571e+08
   3.7212404e-10  -1.6803485e-02   3.8795086e+00   1.0493209e+00  -9.9918541e+07
   3.7312437e-10  -1.6703826e-02   3.8716174e+00   1.0553390e+00  -9.9344423e+07
   3.7412471e-10  -1.6604739e-02   3.8637579e+00   1.0613487e+00  -9.8773349e+07
   3.7512504e-10  -1.6506221e-02   3.8559302e+00   1.0673496e+00  -9.8205306e+07
   3.7612538e-10  -1.6408271e-02   3.8481344e+00   1.0733416e+00  -9.7640282e+07
   3.7712571e-10  -1.6310884e-02   3.8403705e+00   1.0793245e+00  -9.7078264e+07
   3.7812604e-10  -1.6214058e-02   3.8326385e+00   1.0852980e+00  -9.6519240e+07
   3.7912638e-10  -1.6117789e-02   3.8249386e+00   1.0912618e+00  -9.5963197e+07
   3.8012671e-10  -1.6022075e-02   3.8172707e+00   1.0972158e+00  -9.5410123e+07
   3.8112704e-10  -1.5926913e-02   3.8096349e+00   1.1031598e+00  -9.4860005e+07
   3.8212738e-10  -1.5832300e-02   3.8020312e+00   1.1090936e+00  -9.4312832e+07
   3.8312771e-10  -1.5738232e-02   3.7944597e+00   1.1150169e+00  -9.3768589e+07
   3.8412804e-10  -1.5644707e-02   3.7869204e+00   1.1209295e+00  -9.3227266e+07
   3.8512838e-10  -1.5551723e-02   3.7794133e+00   1.1268313e+00  -9.2688849e+07
   3.8612871e-10  -1.5459275e-02   3.7719384e+00   1.1327221e+00  -9.2153326e+07
   3.8712904e-10  -1.5367361e-02   3.7644958e+00   1.1386016e+00  -9.1620685e+07
   3.8812938e-10  -1.5275979e-02   3.7570855e+00   1.1444696e+00  -9.1090912e+07
   3.8912971e-10  -1.5185126e-02   3.7497075e+00   1.1503260e+00  -9.0563997e+07
   3.9013004e-10  -1.5094798e-02   3.7423617e+00   1.1561706e+00  -9.0039925e+07
   3.9113038e-10  -1.5004992e-02   3.7350483e+00   1.1620032e+00  -8.9518685e+07
   3.9213071e-10  -1.4915707e-02   3.7277672e+00   1.1678236e+00  -8.9000264e+07
   3.9313104e-10  -1.4826939e-02   3.7205184e+00   1.1736317e+00  -8.8484650e+07
   3.9413138e-10  -1.4738685e-02   3.7133020e+00   1.1794272e+00  -8.7971830e+07
   3.9513171e-10  -1.4650942e-02   3.7061178e+00   1.1852101e+00  -8.7461793e+07
   3.9613204e-10  -1.4563709e-02   3.6989660e+00   1.1909800e+00  -8.6954524e+07
   3.9713238e-10  -1.4476981e-02   3.6918465e+00   1.1967370e+00  -8.6450013e+07
   3.9813271e-10  -1.4390757e-02   3.6847593e+00   1.2024807e+00  -8.5948246e+07
   3.9913304e-10  -1.4305033e-02   3.6777043e+00   1.2082111e+00  -8.5449212e+07
   4.0013338e-10  -1.4219807e-02   3.6706817e+00   1.2139279e+00  -8.4952898e+07
   4.0113371e-10  -1.4135076e-02   3.6636912e+00   1.2196312e+00  -8.4459291e+07
   4.0213404e-10  -1.4050837e-02   3.6567330e+00   1.2253206e+00  -8.3968380e+07
   4.0313438e-10  -1.3967088e-02   3.6498070e+00   1.2309960e+00  -8.3480152e+07
   4.0413471e-10  -1.3883826e-02   3.6429132e+00   1.2366573e+00  -8.2994594e+07
   4.0513505e-10  -1.3801049e-02   3.6360516e+00   1.2423044e+00  -8.2511695e+07
   4.0613538e-10  -1.3718753e-02   3.6292220e+00   1.2479371e+00  -8.2031442e+07
   4.0713571e-10  -1.3636936e-02   3.6224246e+00   1.2535552e+00  -8.1553823e+07
   4.0813605e-10  -1.3555596e-02   3.6156592e+00   1.2591588e+00  -8.1078826e+07
   4.0913638e-10  -1.3474729e-02   3.6089258e+00   1.2647475e+00  -8.0606439e+07
   4.1013671e-10  -1.3394333e-02   3.6022244e+00   1.2703213e+00  -8.0136648e+07
   4.1113705e-10  -1.3314406e-02   3.5955550e+00   1.2758800e+00  -7.9669443e+07
   4.1213738e-10  -1.3234946e-02   3.5889174e+00   1.2814236e+00  -7.9204812e+07
   4.1313771e-10  -1.3155948e-02   3.5823117e+00   1.2869519e+00  -7.8742741e+07
   4.1413805e-10  -1.3077412e-02   3.5757378e+00   1.2924648e+00  -7.8283219e+07
   4.1513838e-10  -1.2999334e-02   3.5691957e+00   1.2979622e+00  -7.7826234e+07
   4.1613871e-10  -1.2921711e-02   3.5626853e+00   1.3034440e+00  -7.7371774e+07
   4.1713905e-10  -1.2844542e-02   3.5562065e+00   1.3089100e+00  -7.6919827e+07
   4.1813938e-10  -1.2767824e-02   3.5497593e+00   1.3143602e+00  -7.6470381e+07
   4.1913971e-10  -1.2691554e-02   3.5433437e+00   1.3197944e+00  -7.6023424e+07
   4.2014005e-10  -1.2615730e-02   3.5369596e+00   1.3252126e+00  -7.5578944e+07
   4.2114038e-10  -1.2540349e-02   3.5306069e+00   1.3306146e+00  -7.5136929e+07
   4.2214071e-10  -1.2465409e-02   3.5242855e+00   1.3360004e+00  -7.4697368e+07
   4.2314105e-10  -1.2390908e-02   3.5179955e+00   1.3413698e+00  -7.4260248e+07
   4.2414138e-10  -1.2316842e-02   3.5117367e+00   1.3467228e+00  -7.3825558e+07
   4.2514171e-10  -1.2243210e-02   3.5055090e+00   1.3520592e+00  -7.3393286e+07
   4.2614205e-10  -1.2170010e-02   3.4993125e+00   1.3573791e+00  -7.2963420e+07
   4.2714238e-10  -1.2097238e-02   3.4931470e+00   1.3626822e+00  -7.2535948e+07
   4.2814271e-10  -1.2024892e-02   3.4870125e+00   1.3679686e+00  -7.2110860e+07
   4.2914305e-10  -1.1952971e-02   3.4809089e+00   1.3732381e+00  -7.1688143e+07
   4.3014338e-10  -1.1881471e-02   3.4748361e+00   1.3784907e+00  -7.1267785e+07
   4.3114371e-10  -1.1810390e-02   3.4687941e+00   1.3837262e+00  -7.0849775e+07
   4.3214405e-10  -1.1739726e-02   3.4627827e+00   1.3889447e+00  -7.0434102e+07
   4.3314438e-10  -1.1669477e-02   3.4568019e+00   1.3941460e+00  -7.0020754e+07
   4.3414471e-10  -1.1599641e-02   3.4508517e+00   1.3993301e+00  -6.9609720e+07
   4.3514505e-10  -1.1530214e-02   3.4449318e+00   1.4044968e+00  -6.9200987e+07
   4.3614538e-10  -1.1461195e-02   3.4390424e+00   1.4096462e+00  -6.8794546e+07
   4.3714572e-10  -1.1392581e-02   3.4331832e+00   1.4147782e+00  -6.8390383e+07
   4.3814605e-10  -1.1324370e-02   3.4273542e+00   1.4198927e+00  -6.7988489e+07
   4.3914638e-10  -1.1256560e-02   3.4215553e+00   1.4249897e+00  -6.7588851e+07
   4.4014672e-10  -1.1189149e-02   3.4157864e+00   1.4300690e+00  -6.7191459e+07
   4.4114705e-10  -1.1122134e-02   3.4100475e+00   1.4351307e+00  -6.6796300e+07
   4.4214738e-10  -1.1055514e-02   3.4043384e+00   1.4401747e+00  -6.6403365e+07
   4.4314772e-10  -1.0989285e-02   3.3986591e+00   1.4452010e+00  -6.6012642e+07
   4.4414805e-10  -1.0923446e-02   3.3930094e+00   1.4502094e+00  -6.5624119e+07
   4.4514838e-10  -1.0857994e-02   3.3873893e+00   1.4552000e+00  -6.5237786e+07
   4.4614872e-10  -1.0792928e-02   3.3817988e+00   1.4601727e+00  -6.4853632e+07
   4.4714905e-10  -1.0728245e-02   3.3762376e+00   1.4651274e+00  -6.4471645e+07
   4.4814938e-10  -1.0663943e-02   3.3707057e+00   1.4700642e+00  -6.4091815e+07
   4.4914972e-10  -1.0600020e-02   3.3652030e+00   1.4749829e+00  -6.3714130e+07
   4.5015005e-10  -1.0536473e-02   3.3597294e+00   1.4798836e+00  -6.3338580e+07
   4.5115038e-10  -1.0473301e-02   3.3542849e+00   1.4847662e+00  -6.2965154e+07
   4.5215072e-10  -1.0410502e-02   3.3488693e+00   1.4896307e+00  -6.2593842e+07
   4.5315105e-10  -1.0348073e-02   3.3434824e+00   1.4944770e+00  -6.2224631e+07
   4.5415138e-10  -1.0286012e-02   3.3381244e+00   1.4993052e+00  -6.1857512e+07
   4.5515172e-10  -1.0224317e-02   3.3327949e+00   1.5041151e+00  -6.1492474e+07
   4.5615205e-10  -1.0162987e-02   3.3274940e+00   1.5089068e+00  -6.1129506e+07
   4.5715238e-10  -1.0102018e-02   3.3222215e+00   1.5136802e+00  -6.0768598e+07
   4.5815272e-10  -1.0041409e-02   3.3169774e+00   1.5184353e+00  -6.0409738e+07
   4.5915305e-10  -9.9811586e-03   3.3117614e+00   1.5231722e+00  -6.0052917e+07
   4.6015338e-10  -9.9212638e-03   3.3065736e+00   1.5278906e+00  -5.9698124e+07
   4.6115372e-10  -9.8617228e-03   3.3014138e+00   1.5325908e+00  -5.9345349e+07
   4.6215405e-10  -9.8025337e-03   3.2962820e+00   1.5372726e+00  -5.8994580e+07
   4.6315438e-10  -9.7436945e-03   3.2911779e+00   1.5419359e+00  -5.8645808e+07
   4.6415472e-10  -9.6852031e-03   3.2861016e+00   1.5465809e+00  -5.8299022e+07
   4.6515505e-10  -9.6270576e-03   3.2810529e+00   1.5512075e+00  -5.7954213e+07
   4.6615539e-10  -9.5692560e-03   3.2760316e+00   1.5558157e+00  -5.7611369e+07
   4.6715572e-10  -9.5117963e-03   3.2710378e+00   1.5604055e+00  -5.7270480e+07
   4.6815605e-10  -9.4546766e-03   3.2660713e+00   1.5649768e+00  -5.6931536e+07
   4.6915639e-10  -9.3978950e-03   3.2611319e+00   1.5695297e+00  -5.6594528e+07
   4.7015672e-10  -9.3414495e-03   3.2562197e+00   1.5740641e+00  -5.6259445e+07
   4.7115705e-10  -9.2853382e-03   3.2513344e+00   1.5785801e+00  -5.5926276e+07
   4.7215739e-10  -9.2295592e-03   3.2464760e+00   1.5830776e+00  -5.5595013e+07
   4.7315772e-10  -9.1741106e-03   3.2416443e+00   1.5875567e+00  -5.5265644e+07
   4.7415805e-10  -9.1189905e-03   3.2368393e+00   1.5920173e+00  -5.4938160e+07
   4.7515839e-10  -9.0641970e-03   3.2320608e+00   1.5964595e+00  -5.4612552e+07
   4.7615872e-10  -9.0097283e-03   3.2273088e+00   1.6008832e+00  -5.4288808e+07
   4.7715905e-10  -8.9555824e-03   3.2225831e+00   1.6052885e+00  -5.3966920e+07
   4.7815939e-10  -8.9017576e-03   3.2178836e+00   1.6096753e+00  -5.3646877e+07
   4.7915972e-10  -8.8482520e-03   3.2132102e+00   1.6140437e+00  -5.3328670e+07
   4.8016005e-10  -8.7950638e-03   3.2085628e+00   1.6183937e+00  -5.3012289e+07
   4.8116039e-10  -8.7421911e-03   3.2039412e+00   1.6227253e+00  -5.2697724e+07
   4.8216072e-10  -8.6896321e-03   3.1993455e+00   1.6270384e+00  -5.2384967e+07
   4.8316105e-10  -8.6373851e-03   3.1947754e+00   1.6313332e+00  -5.2074006e+07
   4.8416139e-10  -8.5854482e-03   3.1902309e+00   1.6356096e+00  -5.1764833e+07
   4.8516172e-10  -8.5338197e-03   3.1857119e+00   1.6398676e+00  -5.1457438e+07
   4.8616205e-10  -8.4824977e-03   3.1812181e+00   1.6441073e+00  -5.1151812e+07
   4.8716239e-10  -8.4314806e-03   3.1767496e+00   1.6483287e+00  -5.0847945e+07
   4.8816272e-10  -8.3807665e-03   3.1723063e+00   1.6525317e+00  -5.0545827e+07
   4.8916305e-10  -8.3303538e-03   3.1678879e+00   1.6567164e+00  -5.0245451e+07
   4.9016339e-10  -8.2802406e-03   3.1634944e+00   1.6608828e+00  -4.9946805e+07
   4.9116372e-10  -8.2304253e-03   3.1591257e+00   1.6650310e+00  -4.9649881e+07
   4.9216405e-10  -8.1809061e-03   3.1547816e+00   1.6691609e+00  -4.9354670e+07
   4.9316439e-10  -8.1316813e-03   3.1504621e+00   1.6732726e+00  -4.9061163e+07
   4.9416472e-10  -8.0827493e-03   3.1461671e+00   1.6773661e+00  -4.8769349e+07
   4.9516506e-10  -8.0341083e-03   3.1418964e+00   1.6814415e+00  -4.8479221e+07
   4.9616539e-10  -7.9857567e-03   3.1376499e+00   1.6854986e+00  -4.8190770e+07
   4.9716572e-10  -7.9376927e-03   3.1334276e+00   1.6895377e+00  -4.7903985e+07
   4.9816606e-10  -7.8899148e-03   3.1292292e+00   1.6935586e+00  -4.7618858e+07
   4.9916639e-10  -7.8424212e-03   3.1250548e+00   1.6975615e+00  -4.7335381e+07
   5.0016672e-10  -7.7952103e-03   3.1209041e+00   1.7015464e+00  -4.7053544e+07
   5.0116706e-10  -7.7482806e-03   3.1167771e+00   1.7055132e+00  -4.6773339e+07
   5.0216739e-10  -7.7016303e-03   3.1126736e+00   1.7094620e+00  -4.6494756e+07
   5.0316772e-10  -7.6552578e-03   3.1085936e+00   1.7133929e+00  -4.6217786e+07
   5.0416806e-10  -7.6091616e-03   3.1045369e+00   1.7173059e+00  -4.5942422e+07
   5.0516839e-10  -7.5633400e-03   3.1005035e+00   1.7212009e+00  -4.5668655e+07
   5.0616872e-10  -7.5177914e-03   3.0964932e+00   1.7250782e+00  -4.5396475e+07
   5.0716906e-10  -7.4725143e-03   3.0925058e+00   1.7289375e+00  -4.5125874e+07
   5.0816939e-10  -7.4275071e-03   3.0885414e+00   1.7327791e+00  -4.4856843e+07
   5.0916972e-10  -7.3827681e-03   3.0845998e+00   1.7366030e+00  -4.4589375e+07
   5.1017006e-10  -7.3382960e-03   3.0806808e+00   1.7404091e+00  -4.4323460e+07
   5.1117039e-10  -7.2940890e-03   3.0767844e+00   1.7441975e+00  -4.4059090e+07
   5.1217072e-10  -7.2501457e-03   3.0729104e+00   1.7479683e+00  -4.3796256e+07
   5.1317106e-10  -7.2064645e-03   3.0690588e+00   1.7517215e+00  -4.3534951e+07
   5.1417139e-10  -7.1630439e-03   3.0652295e+00   1.7554571e+00  -4.3275165e+07
   5.1517172e-10  -7.1198824e-03   3.0614222e+00   1.7591752e+00  -4.3016891e+07
   5.1617206e-10  -7.0769785e-03   3.0576370e+00   1.7628757e+00  -4.2760120e+07
   5.1717239e-10  -7.0343307e-03   3.0538736e+00   1.7665589e+00  -4.2504844e+07
   5.1817272e-10  -6.9919375e-03   3.0501321e+00   1.7702246e+00  -4.2251054e+07
   5.1917306e-10  -6.9497974e-03   3.0464123e+00   1.7738729e+00  -4.1998743e+07
   5.2017339e-10  -6.9079089e-03   3.0427140e+00   1.7775039e+00  -4.1747903e+07
   5.2117372e-10  -6.8662706e-03   3.0390372e+00   1.7811177e+00  -4.1498525e+07
   5.2217406e-10  -6.8248809e-03   3.0353818e+00   1.7847141e+00  -4.1250602e+07
   5.2317439e-10  -6.7837386e-03   3.0317476e+00   1.7882934e+00  -4.1004124e+07
   5.2417472e-10  -6.7428420e-03   3.0281346e+00   1.7918555e+00  -4.0759085e+07
   5.2517506e-10  -6.7021899e-03   3.0245426e+00   1.7954006e+00  -4.0515477e+07
   5.2617539e-10  -6.6617807e-03   3.0209716e+00   1.7989285e+00  -4.0273291e+07
   5.2717573e-10  -6.6216130e-03   3.0174214e+00   1.8024394e+00  -4.0032520e+07
   5.2817606e-10  -6.5816854e-03   3.0138919e+00   1.8059334e+00  -3.9793155e+07
   5.2917639e-10  -6.5419966e-03   3.0103830e+00   1.8094104e+00  -3.9555190e+07
   5.3017673e-10  -6.5025451e-03   3.0068946e+00   1.8128705e+00  -3.9318616e+07
   5.3117706e-10  -6.4633295e-03   3.0034266e+00   1.8163138e+00  -3.9083426e+07
   5.3217739e-10  -6.4243485e-03   2.9999790e+00   1.8197403e+00  -3.8849611e+07
   5.3317773e-10  -6.3856006e-03   2.9965515e+00   1.8231501e+00  -3.8617165e+07
   5.3417806e-10  -6.3470846e-03   2.9931441e+00   1.8265431e+00  -3.8386080e+07
   5.3517839e-10  -6.3087991e-03   2.9897567e+00   1.8299196e+00  -3.8156348e+07
   5.3617873e-10  -6.2707426e-03   2.9863891e+00   1.8332794e+00  -3.7927961e+07
   5.3717906e-10  -6.2329140e-03   2.9830413e+00   1.8366227e+00  -3.7700913e+07
   5.3817939e-10  -6.1953117e-03   2.9797132e+00   1.8399495e+00  -3.7475196e+07
   5.3917973e-10  -6.1579346e-03   2.9764047e+00   1.8432598e+00  -3.7250801e+07
   5.4018006e-10  -6.1207812e-03   2.9731156e+00   1.8465538e+00  -3.7027723e+07
   5.4118039e-10  -6.0838504e-03   2.9698459e+00   1.8498314e+00  -3.6805954e+07
   5.4218073e-10  -6.0471407e-03   2.9665955e+00   1.8530927e+00  -3.6585485e+07
   5.4318106e-10  -6.0106508e-03   2.9633642e+00   1.8563378e+00  -3.6366311e+07
   5.4418139e-10  -5.9743796e-03   2.9601519e+00   1.8595667e+00  -3.6148423e+07
   5.4518173e-10  -5.9383256e-03   2.9569586e+00   1.8627794e+00  -3.5931816e+07
   5.4618206e-10  -5.9024877e-03   2.9537842e+00   1.8659761e+00  -3.5716480e+07
   5.4718239e-10  -5.8668645e-03   2.9506285e+00   1.8691567e+00  -3.5502410e+07
   5.4818273e-10  -5.8314549e-03   2.9474914e+00   1.8723214e+00  -3.5289598e+07
   5.4918306e-10  -5.7962574e-03   2.9443729e+00   1.8754701e+00  -3.5078038e+07
   5.5018339e-10  -5.7612710e-03   2.9412728e+00   1.8786030e+00  -3.4867721e+07
   5.5118373e-10  -5.7264942e-03   2.9381911e+00   1.8817200e+00  -3.4658642e+07
   5.5218406e-10  -5.6919260e-03   2.9351277e+00   1.8848213e+00  -3.4450793e+07
   5.5318439e-10  -5.6575651e-03   2.9320823e+00   1.8879069e+00  -3.4244168e+07
   5.5418473e-10  -5.6234103e-03   2.9290551e+00   1.8909768e+00  -3.4038759e+07
   5.5518506e-10  -5.5894603e-03   2.9260458e+00   1.8940311e+00  -3.3834559e+07
   5.5618540e-10  -5.5557139e-03   2.9230543e+00   1.8970698e+00  -3.3631562e+07
   5.5718573e-10  -5.5221700e-03   2.9200806e+00   1.9000931e+00  -3.3429762e+07
   5.5818606e-10  -5.4888273e-03   2.9171246e+00   1.9031009e+00  -3.3229151e+07
   5.5918640e-10  -5.4556848e-03   2.9141861e+00   1.9060934e+00  -3.3029722e+07
   5.6018673e-10  -5.4227411e-03   2.9112651e+00   1.9090705e+00  -3.2831469e+07
   5.6118706e-10  -5.3899951e-03   2.9083615e+00   1.9120323e+00  -3.2634386e+07
   5.6218740e-10  -5.3574456e-03   2.9054752e+00   1.9149790e+00  -3.2438465e+07
   5.6318773e-10  -5.3250916e-03   2.9026060e+00   1.9179104e+00  -3.2243700e+07
   5.6418806e-10  -5.2929318e-03   2.8997539e+00   1.9208268e+00  -3.2050085e+07
   5.6518840e-10  -5.2609650e-03   2.8969188e+00   1.9237281e+00  -3.1857613e+07
   5.6618873e-10  -5.2291903e-03   2.8941006e+00   1.9266145e+00  -3.1666278e+07
   5.6718906e-10  -5.1976063e-03   2.8912992e+00   1.9294859e+00  -3.1476073e+07
   5.6818940e-10  -5.1662120e-03   2.8885145e+00   1.9323424e+00  -3.1286991e+07
   5.6918973e-10  -5.1350063e-03   2.8857465e+00   1.9351841e+00  -3.1099027e+07
   5.7019006e-10  -5.1039881e-03   2.8829949e+00   1.9380110e+00  -3.0912174e+07
   5.7119040e-10  -5.0731562e-03   2.8802598e+00   1.9408232e+00  -3.0726426e+07
   5.7219073e-10  -5.0425095e-03   2.8775410e+00   1.9436208e+00  -3.0541777e+07
   5.7319106e-10  -5.0120470e-03   2.8748385e+00   1.9464038e+00  -3.0358219e+07
   5.7419140e-10  -4.9817676e-03   2.8721522e+00   1.9491722e+00  -3.0175748e+07
   5.7519173e-10  -4.9516701e-03   2.8694819e+00   1.9519262e+00  -2.9994356e+07
   5.7619206e-10  -4.9217535e-03   2.8668276e+00   1.9546657e+00  -2.9814039e+07
   5.7719240e-10  -4.8920167e-03   2.8641891e+00   1.9573909e+00  -2.9634788e+07
   5.7819273e-10  -4.8624588e-03   2.8615665e+00   1.9601017e+00  -2.9456600e+07
   5.7919306e-10  -4.8330785e-03   2.8589596e+00   1.9627983e+00  -2.9279467e+07
   5.8019340e-10  -4.8038748e-03   2.8563683e+00   1.9654807e+00  -2.9103383e+07
   5.8119373e-10  -4.7748468e-03   2.8537925e+00   1.9681490e+00  -2.8928343e+07
   5.8219406e-10  -4.7459933e-03   2.8512322e+00   1.9708032e+00  -2.8754340e+07
   5.8319440e-10  -4.7173134e-03   2.8486872e+00   1.9734434e+00  -2.8581369e+07
   5.8419473e-10  -4.6888060e-03   2.8461575e+00   1.9760696e+00  -2.8409424e+07
   5.8519507e-10  -4.6604700e-03   2.8436430e+00   1.9786819e+00  -2.8238498e+07
   5.8619540e-10  -4.6323045e-03   2.8411435e+00   1.9812803e+00  -2.8068587e+07
   5.8719573e-10  -4.6043085e-03   2.8386591e+00   1.9838650e+00  -2.7899684e+07
   5.8819607e-10  -4.5764809e-03   2.8361896e+00   1.9864359e+00  -2.7731783e+07
   5.8919640e-10  -4.5488207e-03   2.8337350e+00   1.9889932e+00  -2.7564879e+07
   5.9019673e-10  -4.5213270e-03   2.8312951e+00   1.9915368e+00  -2.7398966e+07
   5.9119707e-10  -4.4939988e-03   2.8288698e+00   1.9940669e+00  -2.7234038e+07
   5.9219740e-10  -4.4668350e-03   2.8264592e+00   1.9965834e+00  -2.7070090e+07
   5.9319773e-10  -4.4398347e-03   2.8240631e+00   1.9990866e+00  -2.6907116e+07
   5.9419807e-10  -4.4129970e-03   2.8216813e+00   2.0015763e+00  -2.6745110e+07
   5.9519840e-10  -4.3863208e-03   2.8193139e+00   2.0040527e+00  -2.6584068e+07
   5.9619873e-10  -4.3598053e-03   2.8169608e+00   2.0065158e+00  -2.6423982e+07
   5.9719907e-10  -4.3334494e-03   2.8146218e+00   2.0089657e+00  -2.6264849e+07
   5.9819940e-10  -4.3072522e-03   2.8122970e+00   2.0114024e+00  -2.6106662e+07
   5.9919973e-10  -4.2812127e-03   2.8099861e+00   2.0138261e+00  -2.5949416e+07
   6.0020007e-10  -4.2553301e-03   2.8076891e+00   2.0162367e+00  -2.5793105e+07
   6.0120040e-10  -4.2296033e-03   2.8054061e+00   2.0186343e+00  -2.5637725e+07
   6.0220073e-10  -4.2040316e-03   2.8031367e+00   2.0210189e+00  -2.5483269e+07
   6.0320107e-10  -4.1786138e-03   2.8008811e+00   2.0233907e+00  -2.5329733e+07
   6.0420140e-10  -4.1533492e-03   2.7986391e+00   2.0257497e+00  -2.5177111e+07
   6.0520173e-10  -4.1282368e-03   2.7964105e+00   2.0280959e+00  -2.5025398e+07
   6.0620207e-10  -4.1032756e-03   2.7941955e+00   2.0304295e+00  -2.4874589e+07
   6.0720240e-10  -4.0784649e-03   2.7919938e+00   2.0327503e+00  -2.4724678e+07
   6.0820273e-10  -4.0538037e-03   2.7898054e+00   2.0350586e+00  -2.4575660e+07
   6.0920307e-10  -4.0292911e-03   2.7876303e+00   2.0373543e+00  -2.4427531e+07
   6.1020340e-10  -4.0049262e-03   2.7854682e+00   2.0396376e+00  -2.4280284e+07
   6.1120373e-10  -3.9807082e-03   2.7833193e+00   2.0419085e+00  -2.4133915e+07
   6.1220407e-10  -3.9566361e-03   2.7811833e+00   2.0441669e+00  -2.3988420e+07
   6.1320440e-10  -3.9327092e-03   2.7790602e+00   2.0464131e+00  -2.3843791e+07
   6.1420473e-10  -3.9089265e-03   2.7769500e+00   2.0486470e+00  -2.3700026e+07
   6.1520507e-10  -3.8852871e-03   2.7748525e+00   2.0508688e+00  -2.3557118e+07
   6.1620540e-10  -3.8617903e-03   2.7727677e+00   2.0530783e+00  -2.3415063e+07
   6.1720574e-10  -3.8384352e-03   2.7706955e+00   2.0552759e+00  -2.3273856e+07
   6.1820607e-10  -3.8152209e-03   2.7686359e+00   2.0574613e+00  -2.3133492e+07
   6.1920640e-10  -3.7921465e-03   2.7665887e+00   2.0596348e+00  -2.2993965e+07
   6.2020674e-10  -3.7692113e-03   2.7645539e+00   2.0617964e+00  -2.2855272e+07
   6.2120707e-10  -3.7464145e-03   2.7625315e+00   2.0639461e+00  -2.2717407e+07
   6.2220740e-10  -3.7237551e-03   2.7605213e+00   2.0660841e+00  -2.2580366e+07
   6.2320774e-10  -3.7012324e-03   2.7585232e+00   2.0682102e+00  -2.2444144e+07
   6.2420807e-10  -3.6788455e-03   2.7565373e+00   2.0703247e+00  -2.2308735e+07
   6.2520840e-10  -3.6565937e-03   2.7545634e+00   2.0724275e+00  -2.2174136e+07
   6.2620874e-10  -3.6344762e-03   2.7526014e+00   2.0745188e+00  -2.2040341e+07
   6.2720907e-10  -3.6124920e-03   2.7506513e+00   2.0765985e+00  -2.1907346e+07
   6.2820940e-10  -3.5906405e-03   2.7487131e+00   2.0786667e+00  -2.1775146e+07
   6.2920974e-10  -3.5689209e-03   2.7467866e+00   2.0807236e+00  -2.1643737e+07
   6.3021007e-10  -3.5473323e-03   2.7448718e+00   2.0827690e+00  -2.1513114e+07
   6.3121040e-10  -3.5258739e-03   2.7429686e+00   2.0848031e+00  -2.1383272e+07
   6.3221074e-10  -3.5045451e-03   2.7410769e+00   2.0868260e+00  -2.1254207e+07
   6.3321107e-10  -3.4833450e-03   2.7391967e+00   2.0888377e+00  -2.1125914e+07
   6.3421140e-10  -3.4622728e-03   2.7373279e+00   2.0908382e+00  -2.0998389e+07
   6.3521174e-10  -3.4413278e-03   2.7354705e+00   2.0928277e+00  -2.0871628e+07
   6.3621207e-10  -3.4205092e-03   2.7336243e+00   2.0948060e+00  -2.0745625e+07
   6.3721240e-10  -3.3998163e-03   2.7317894e+00   2.0967734e+00  -2.0620377e+07
   6.3821274e-10  -3.3792484e-03   2.7299655e+00   2.0987299e+00  -2.0495879e+07
   6.3921307e-10  -3.3588045e-03   2.7281528e+00   2.1006755e+00  -2.0372126e+07
   6.4021340e-10  -3.3384841e-03   2.7263510e+00   2.1026102e+00  -2.0249115e+07
   6.4121374e-10  -3.3182864e-03   2.7245602e+00   2.1045342e+00  -2.0126840e+07
   6.4221407e-10  -3.2982106e-03   2.7227803e+00   2.1064474e+00  -2.0005299e+07
   6.4321440e-10  -3.2782560e-03   2.7210111e+00   2.1083500e+00  -1.9884486e+07
   6.4421474e-10  -3.2584220e-03   2.7192527e+00   2.1102419e+00  -1.9764396e+07
   6.4521507e-10  -3.2387077e-03   2.7175050e+00   2.1121233e+00  -1.9645027e+07
   6.4621541e-10  -3.2191124e-03   2.7157680e+00   2.1139942e+00  -1.9526374e+07
   6.4721574e-10  -3.1996355e-03   2.7140414e+00   2.1158546e+00  -1.9408432e+07
   6.4821607e-10  -3.1802762e-03   2.7123254e+00   2.1177046e+00  -1.9291197e+07
   6.4921641e-10  -3.1610338e-03   2.7106198e+00   2.1195442e+00  -1.9174665e+07
   6.5021674e-10  -3.1419077e-03   2.7089245e+00   2.1213735e+00  -1.9058832e+07
   6.5121707e-10  -3.1228970e-03   2.7072396e+00   2.1231926e+00  -1.8943695e+07
   6.5221741e-10  -3.1040012e-03   2.7055649e+00   2.1250015e+00  -1.8829248e+07
   6.5321774e-10  -3.0852196e-03   2.7039004e+00   2.1268002e+00  -1.8715488e+07
   6.5421807e-10  -3.0665514e-03   2.7022460e+00   2.1285888e+00  -1.8602411e+07
   6.5521841e-10  -3.0479960e-03   2.7006017e+00   2.1303673e+00  -1.8490012e+07
   6.5621874e-10  -3.0295527e-03   2.6989674e+00   2.1321359e+00  -1.8378288e+07
   6.5721907e-10  -3.0112208e-03   2.6973430e+00   2.1338945e+00  -1.8267235e+07
   6.5821941e-10  -2.9929996e-03   2.6957285e+00   2.1356431e+00  -1.8156849e+07
   6.5921974e-10  -2.9748886e-03   2.6941238e+00   2.1373820e+00  -1.8047126e+07
   6.6022007e-10  -2.9568870e-03   2.6925289e+00   2.1391110e+00  -1.7938062e+07
   6.6122041e-10  -2.9389941e-03   2.6909437e+00   2.1408303e+00  -1.7829653e+07
   6.6222074e-10  -2.9212094e-03   2.6893681e+00   2.1425399e+00  -1.7721896e+07
   6.6322107e-10  -2.9035322e-03   2.6878021e+00   2.1442398e+00  -1.7614786e+07
   6.6422141e-10  -2.8859617e-03   2.6862457e+00   2.1459301e+00  -1.7508319e+07
   6.6522174e-10  -2.8684975e-03   2.6846987e+00   2.1476109e+00  -1.7402493e+07
   6.6622207e-10  -2.8511388e-03   2.6831611e+00   2.1492821e+00  -1.7297302e+07
   6.6722241e-10  -2.8338850e-03   2.6816329e+00   2.1509439e+00  -1.7192744e+07
   6.6822274e-10  -2.8167356e-03   2.6801140e+00   2.1525963e+00  -1.7088815e+07
   6.6922307e-10  -2.7996897e-03   2.6786044e+00   2.1542394e+00  -1.6985510e+07
   6.7022341e-10  -2.7827469e-03   2.6771039e+00   2.1558731e+00  -1.6882827e+07
   6.7122374e-10  -2.7659065e-03   2.6756126e+00   2.1574975e+00  -1.6780761e+07
   6.7222407e-10  -2.7491679e-03   2.6741303e+00   2.1591127e+00  -1.6679310e+07
   6.7322441e-10  -2.7325305e-03   2.6726571e+00   2.1607188e+00  -1.6578468e+07
   6.7422474e-10  -2.7159937e-03   2.6711929e+00   2.1623157e+00  -1.6478234e+07
   6.7522508e-10  -2.6995568e-03   2.6697375e+00   2.1639036e+00  -1.6378602e+07
   6.7622541e-10  -2.6832193e-03   2.6682911e+00   2.1654824e+00  -1.6279570e+07
   6.7722574e-10  -2.6669806e-03   2.6668534e+00   2.1670523e+00  -1.6181134e+07
   6.7822608e-10  -2.6508401e-03   2.6654245e+00   2.1686132e+00  -1.6083290e+07
   6.7922641e-10  -2.6347971e-03   2.6640043e+00   2.1701652e+00  -1.5986036e+07
   6.8022674e-10  -2.6188511e-03   2.6625928e+00   2.1717084e+00  -1.5889367e+07
   6.8122708e-10  -2.6030016e-03   2.6611898e+00   2.1732428e+00  -1.5793280e+07
   6.8222741e-10  -2.5872479e-03   2.6597955e+00   2.1747685e+00  -1.5697771e+07
   6.8322774e-10  -2.5715895e-03   2.6584096e+00   2.1762854e+00  -1.5602838e+07
   6.8422808e-10  -2.5560257e-03   2.6570321e+00   2.1777937e+00  -1.5508476e+07
   6.8522841e-10  -2.5405560e-03   2.6556630e+00   2.1792934e+00  -1.5414683e+07
   6.8622874e-10  -2.5251800e-03   2.6543023e+00   2.1807845e+00  -1.5321455e+07
   6.8722908e-10  -2.5098968e-03   2.6529499e+00   2.1822670e+00  -1.5228789e+07
   6.8822941e-10  -2.4947062e-03   2.6516057e+00   2.1837411e+00  -1.5136681e+07
   6.8922974e-10  -2.4796073e-03   2.6502697e+00   2.1852068e+00  -1.5045127e+07
   6.9023008e-10  -2.4645998e-03   2.6489419e+00   2.1866641e+00  -1.4954126e+07
   6.9123041e-10  -2.4496831e-03   2.6476221e+00   2.1881130e+00  -1.4863673e+07
   6.9223074e-10  -2.4348566e-03   2.6463104e+00   2.1895537e+00  -1.4773765e+07
   6.9323108e-10  -2.4201197e-03   2.6450067e+00   2.1909860e+00  -1.4684400e+07
   6.9423141e-10  -2.4054720e-03   2.6437110e+00   2.1924102e+00  -1.4595573e+07
   6.9523174e-10  -2.3909129e-03   2.6424231e+00   2.1938262e+00  -1.4507281e+07
   6.9623208e-10  -2.3764419e-03   2.6411431e+00   2.1952341e+00  -1.4419522e+07
   6.9723241e-10  -2.3620584e-03   2.6398709e+00   2.1966339e+00  -1.4332292e+07
   6.9823274e-10  -2.3477618e-03   2.6386064e+00   2.1980257e+00  -1.4245589e+07
   6.9923308e-10  -2.3335518e-03   2.6373497e+00   2.1994094e+00  -1.4159408e+07
   7.0023341e-10  -2.3194277e-03   2.6361006e+00   2.2007852e+00  -1.4073747e+07
   7.0123374e-10  -2.3053891e-03   2.6348591e+00   2.2021531e+00  -1.3988602e+07
   7.0223408e-10  -2.2914354e-03   2.6336252e+00   2.2035132e+00  -1.3903972e+07
   7.0323441e-10  -2.2775661e-03   2.6323988e+00   2.2048654e+00  -1.3819852e+07
   7.0423474e-10  -2.2637807e-03   2.6311799e+00   2.2062098e+00  -1.3736239e+07
   7.0523508e-10  -2.2500787e-03   2.6299685e+00   2.2075465e+00  -1.3653131e+07
   7.0623541e-10  -2.2364596e-03   2.6287644e+00   2.2088755e+00  -1.3570525e+07
   7.0723575e-10  -2.2229229e-03   2.6275677e+00   2.2101968e+00  -1.3488417e+07
   7.0823608e-10  -2.2094681e-03   2.6263782e+00   2.2115105e+00  -1.3406805e+07
   7.0923641e-10  -2.1960947e-03   2.6251960e+00   2.2128166e+00  -1.3325685e+07
   7.1023675e-10  -2.1828022e-03   2.6240211e+00   2.2141152e+00  -1.3245055e+07
   7.1123708e-10  -2.1695902e-03   2.6228533e+00   2.2154063e+00  -1.3164912e+07
   7.1223741e-10  -2.1564581e-03   2.6216926e+00   2.2166900e+00  -1.3085253e+07
   7.1323775e-10  -2.1434054e-03   2.6205390e+00   2.2179662e+00  -1.3006075e+07
   7.1423808e-10  -2.1304317e-03   2.6193924e+00   2.2192351e+00  -1.2927375e+07
   7.1523841e-10  -2.1175365e-03   2.6182528e+00   2.2204966e+00  -1.2849150e+07
   7.1623875e-10  -2.1047193e-03   2.6171202e+00   2.2217508e+00  -1.2771397e+07
   7.1723908e-10  -2.0919797e-03   2.6159945e+00   2.2229978e+00  -1.2694114e+07
   7.1823941e-10  -2.0793172e-03   2.6148756e+00   2.2242376e+00  -1.2617298e+07
   7.1923975e-10  -2.0667313e-03   2.6137636e+00   2.2254702e+00  -1.2540947e+07
   7.2024008e-10  -2.0542216e-03   2.6126583e+00   2.2266956e+00  -1.2465056e+07
   7.2124041e-10  -2.0417875e-03   2.6115598e+00   2.2279140e+00  -1.2389624e+07
   7.2224075e-10  -2.0294287e-03   2.6104680e+00   2.2291253e+00  -1.2314647e+07
   7.2324108e-10  -2.0171447e-03   2.6093828e+00   2.2303296e+00  -1.2240124e+07
   7.2424141e-10  -2.0049351e-03   2.6083043e+00   2.2315269e+00  -1.2166051e+07
   7.2524175e-10  -1.9927993e-03   2.6072323e+00   2.2327172e+00  -1.2092425e+07
   7.2624208e-10  -1.9807369e-03   2.6061669e+00   2.2339007e+00  -1.2019245e+07
   7.2724241e-10  -1.9687476e-03   2.6051080e+00   2.2350773e+00  -1.1946506e+07
   7.2824275e-10  -1.9568308e-03   2.6040555e+00   2.2362470e+00  -1.1874208e+07
   7.2924308e-10  -1.9449861e-03   2.6030095e+00   2.2374100e+00  -1.1802346e+07
   7.3024341e-10  -1.9332131e-03   2.6019698e+00   2.2385662e+00  -1.1730919e+07
   7.3124375e-10  -1.9215113e-03   2.6009365e+00   2.2397157e+00  -1.1659924e+07
   7.3224408e-10  -1.9098804e-03   2.5999095e+00   2.2408585e+00  -1.1589358e+07
   7.3324441e-10  -1.8983199e-03   2.5988887e+00   2.2419947e+00  -1.1519218e+07
   7.3424475e-10  -1.8868293e-03   2.5978742e+00   2.2431242e+00  -1.1449503e+07
   7.3524508e-10  -1.8754083e-03   2.5968659e+00   2.2442472e+00  -1.1380209e+07
   7.3624542e-10  -1.8640564e-03   2.5958637e+00   2.2453637e+00  -1.1311334e+07
   7.3724575e-10  -1.8527732e-03   2.5948676e+00   2.2464737e+00  -1.1242876e+07
   7.3824608e-10  -1.8415582e-03   2.5938776e+00   2.2475772e+00  -1.1174832e+07
   7.3924642e-10  -1.8304112e-03   2.5928936e+00   2.2486742e+00  -1.1107199e+07
   7.4024675e-10  -1.8193316e-03   2.5919157e+00   2.2497649e+00  -1.1039975e+07
   7.4124708e-10  -1.8083191e-03   2.5909437e+00   2.2508492e+00  -1.0973158e+07
   7.4224742e-10  -1.7973732e-03   2.5899776e+00   2.2519273e+00  -1.0906745e+07
   7.4324775e-10  -1.7864936e-03   2.5890174e+00   2.2529990e+00  -1.0840734e+07
   7.4424808e-10  -1.7756798e-03   2.5880631e+00   2.2540645e+00  -1.0775123e+07
   7.4524842e-10  -1.7649315e-03   2.5871146e+00   2.2551237e+00  -1.0709908e+07
   7.4624875e-10  -1.7542483e-03   2.5861719e+00   2.2561768e+00  -1.0645088e+07
   7.4724908e-10  -1.7436296e-03   2.5852349e+00   2.2572237e+00  -1.0580660e+07
   7.4824942e-10  -1.7330753e-03   2.5843037e+00   2.2582646e+00  -1.0516621e+07
   7.4924975e-10  -1.7225849e-03   2.5833781e+00   2.2592993e+00  -1.0452971e+07
   7.5025008e-10  -1.7121579e-03   2.5824581e+00   2.2603280e+00  -1.0389705e+07
   7.5125042e-10  -1.7017941e-03   2.5815438e+00   2.2613507e+00  -1.0326822e+07
   7.5225075e-10  -1.6914929e-03   2.5806351e+00   2.2623674e+00  -1.0264320e+07
   7.5325108e-10  -1.6812542e-03   2.5797319e+00   2.2633782e+00  -1.0202196e+07
   7.5425142e-10  -1.6710774e-03   2.5788342e+00   2.2643831e+00  -1.0140449e+07
   7.5525175e-10  -1.6609622e-03   2.5779420e+00   2.2653820e+00  -1.0079074e+07
   7.5625208e-10  -1.6509082e-03   2.5770552e+00   2.2663752e+00  -1.0018072e+07
   7.5725242e-10  -1.6409151e-03   2.5761738e+00   2.2673625e+00  -9.9574385e+06
   7.5825275e-10  -1.6309824e-03   2.5752978e+00   2.2683441e+00  -9.8971721e+06
   7.5925308e-10  -1.6211099e-03   2.5744272e+00   2.2693199e+00  -9.8372706e+06
   7.6025342e-10  -1.6112972e-03   2.5735618e+00   2.2702900e+00  -9.7777317e+06
   7.6125375e-10  -1.6015438e-03   2.5727017e+00   2.2712544e+00  -9.7185533e+06
   7.6225408e-10  -1.5918495e-03   2.5718469e+00   2.2722132e+00  -9.6597332e+06
   7.6325442e-10  -1.5822138e-03   2.5709973e+00   2.2731663e+00  -9.6012691e+06
   7.6425475e-10  -1.5726365e-03   2.5701529e+00   2.2741139e+00  -9.5431591e+06
   7.6525509e-10  -1.5631172e-03   2.5693136e+00   2.2750559e+00  -9.4854009e+06
   7.6625542e-10  -1.5536554e-03   2.5684794e+00   2.2759924e+00  -9.4279924e+06
   7.6725575e-10  -1.5442510e-03   2.5676503e+00   2.2769234e+00  -9.3709315e+06
   7.6825609e-10  -1.5349034e-03   2.5668263e+00   2.2778489e+00  -9.3142162e+06
   7.6925642e-10  -1.5256125e-03   2.5660073e+00   2.2787690e+00  -9.2578443e+06
   7.7025675e-10  -1.5163778e-03   2.5651933e+00   2.2796837e+00  -9.2018138e+06
   7.7125709e-10  -1.5071989e-03   2.5643842e+00   2.2805930e+00  -9.1461226e+06
   7.7225742e-10  -1.4980757e-03   2.5635801e+00   2.2814970e+00  -9.0907687e+06
   7.7325775e-10  -1.4890076e-03   2.5627809e+00   2.2823957e+00  -9.0357500e+06
   7.7425809e-10  -1.4799945e-03   2.5619866e+00   2.2832891e+00  -8.9810646e+06
   7.7525842e-10  -1.4710359e-03   2.5611971e+00   2.2841773e+00  -8.9267103e+06
   7.7625875e-10  -1.4621315e-03   2.5604124e+00   2.2850603e+00  -8.8726853e+06
   7.7725909e-10  -1.4532810e-03   2.5596325e+00   2.2859380e+00  -8.8189875e+06
   7.7825942e-10  -1.4444841e-03   2.5588573e+00   2.2868106e+00  -8.7656150e+06
   7.7925975e-10  -1.4357404e-03   2.5580869e+00   2.2876781e+00  -8.7125657e+06
   7.8026009e-10  -1.4270497e-03   2.5573212e+00   2.2885404e+00  -8.6598378e+06
   7.8126042e-10  -1.4184115e-03   2.5565601e+00   2.2893977e+00  -8.6074293e+06
   7.8226075e-10  -1.4098257e-03   2.5558037e+00   2.2902500e+00  -8.5553383e+06
   7.8326109e-10  -1.4012918e-03   2.5550519e+00   2.2910972e+00  -8.5035628e+06
   7.8426142e-10  -1.3928096e-03   2.5543047e+00   2.2919395e+00  -8.4521009e+06
   7.8526175e-10  -1.3843787e-03   2.5535620e+00   2.2927768e+00  -8.4009509e+06
   7.8626209e-10  -1.3759988e-03   2.5528238e+00   2.2936091e+00  -8.3501107e+06
   7.8726242e-10  -1.3676697e-03   2.5520902e+00   2.2944366e+00  -8.2995785e+06
   7.8826275e-10  -1.3593910e-03   2.5513610e+00   2.2952592e+00  -8.2493524e+06
   7.8926309e-10  -1.3511624e-03   2.5506363e+00   2.2960769e+00  -8.1994307e+06
   7.9026342e-10  -1.3429835e-03   2.5499159e+00   2.2968898e+00  -8.1498114e+06
   7.9126375e-10  -1.3348542e-03   2.5492000e+00   2.2976980e+00  -8.1004927e+06
   7.9226409e-10  -1.3267741e-03   2.5484884e+00   2.2985013e+00  -8.0514729e+06
   7.9326442e-10  -1.3187429e-03   2.5477812e+00   2.2993000e+00  -8.0027500e+06
   7.9426475e-10  -1.3107603e-03   2.5470783e+00   2.3000939e+00  -7.9543224e+06
   7.9526509e-10  -1.3028261e-03   2.5463796e+00   2.3008831e+00  -7.9061882e+06
   7.9626542e-10  -1.2949398e-03   2.5456852e+00   2.3016677e+00  -7.8583456e+06
   7.9726576e-10  -1.2871013e-03   2.5449951e+00   2.3024477e+00  -7.8107930e+06
   7.9826609e-10  -1.2793102e-03   2.5443091e+00   2.3032231e+00  -7.7635284e+06
   7.9926642e-10  -1.2715663e-03   2.5436274e+00   2.3039938e+00  -7.7165503e+06
   8.0026676e-10  -1.2638693e-03   2.5429498e+00   2.3047601e+00  -7.6698568e+06
   8.0126709e-10  -1.2562188e-03   2.5422763e+00   2.3055218e+00  -7.6234463e+06
   8.0226742e-10  -1.2486146e-03   2.5416069e+00   2.3062790e+00  -7.5773170e+06
   8.0326776e-10  -1.2410565e-03   2.5409416e+00   2.3070318e+00  -7.5314672e+06
   8.0426809e-10  -1.2335441e-03   2.5402803e+00   2.3077801e+00  -7.4858952e+06
   8.0526842e-10  -1.2260772e-03   2.5396231e+00   2.3085239e+00  -7.4405994e+06
   8.0626876e-10  -1.2186554e-03   2.5389699e+00   2.3092634e+00  -7.3955781e+06
   8.0726909e-10  -1.2112786e-03   2.5383206e+00   2.3099985e+00  -7.3508296e+06
   8.0826942e-10  -1.2039464e-03   2.5376753e+00   2.3107293e+00  -7.3063523e+06
   8.0926976e-10  -1.1966586e-03   2.5370340e+00   2.3114558e+00  -7.2621445e+06
   8.1027009e-10  -1.1894150e-03   2.5363965e+00   2.3121779e+00  -7.2182046e+06
   8.1127042e-10  -1.1822151e-03   2.5357629e+00   2.3128958e+00  -7.1745310e+06
   8.1227076e-10  -1.1750588e-03   2.5351332e+00   2.3136095e+00  -7.1311221e+06
   8.1327109e-10  -1.1679459e-03   2.5345073e+00   2.3143189e+00  -7.0879762e+06
   8.1427142e-10  -1.1608759e-03   2.5338853e+00   2.3150241e+00  -7.0450917e+06
   8.1527176e-10  -1.1538488e-03   2.5332670e+00   2.3157252e+00  -7.0024672e+06
   8.1627209e-10  -1.1468642e-03   2.5326525e+00   2.3164221e+00  -6.9601009e+06
   8.1727242e-10  -1.1399219e-03   2.5320417e+00   2.3171149e+00  -6.9179914e+06
   8.1827276e-10  -1.1330216e-03   2.5314347e+00   2.3178035e+00  -6.8761371e+06
   8.1927309e-10  -1.1261630e-03   2.5308313e+00   2.3184881e+00  -6.8345364e+06
   8.2027342e-10  -1.1193459e-03   2.5302316e+00   2.3191687e+00  -6.7931879e+06
   8.2127376e-10  -1.1125701e-03   2.5296356e+00   2.3198452e+00  -6.7520899e+06
   8.2227409e-10  -1.1058353e-03   2.5290432e+00   2.3205177e+00  -6.7112409e+06
   8.2327442e-10  -1.0991413e-03   2.5284544e+00   2.3211863e+00  -6.6706396e+06
   8.2427476e-10  -1.0924878e-03   2.5278692e+00   2.3218508e+00  -6.6302842e+06
   8.2527509e-10  -1.0858745e-03   2.5272875e+00   2.3225115e+00  -6.5901734e+06
   8.2627543e-10  -1.0793013e-03   2.5267094e+00   2.3231682e+00  -6.5503057e+06
   8.2727576e-10  -1.0727678e-03   2.5261348e+00   2.3238210e+00  -6.5106796e+06
   8.2827609e-10  -1.0662739e-03   2.5255637e+00   2.3244700e+00  -6.4712937e+06
   8.2927643e-10  -1.0598193e-03   2.5249961e+00   2.3251151e+00  -6.4321464e+06
   8.3027676e-10  -1.0534037e-03   2.5244319e+00   2.3257564e+00  -6.3932363e+06
   8.3127709e-10  -1.0470269e-03   2.5238712e+00   2.3263939e+00  -6.3545621e+06
   8.3227743e-10  -1.0406888e-03   2.5233139e+00   2.3270276e+00  -6.3161222e+06
   8.3327776e-10  -1.0343890e-03   2.5227600e+00   2.3276576e+00  -6.2779152e+06
   8.3427809e-10  -1.0281273e-03   2.5222094e+00   2.3282838e+00  -6.2399398e+06
   8.3527843e-10  -1.0219035e-03   2.5216622e+00   2.3289063e+00  -6.2021945e+06
   8.3627876e-10  -1.0157174e-03   2.5211183e+00   2.3295251e+00  -6.1646779e+06
   8.3727909e-10  -1.0095687e-03   2.5205778e+00   2.3301402e+00  -6.1273886e+06
   8.3827943e-10  -1.0034572e-03   2.5200405e+00   2.3307517e+00  -6.0903254e+06
   8.3927976e-10  -9.9738267e-04   2.5195065e+00   2.3313596e+00  -6.0534867e+06
   8.4028009e-10  -9.9134492e-04   2.5189758e+00   2.3319638e+00  -6.0168712e+06
   8.4128043e-10  -9.8534370e-04   2.5184482e+00   2.3325645e+00  -5.9804776e+06
   8.4228076e-10  -9.7937879e-04   2.5179239e+00   2.3331616e+00  -5.9443046e+06
   8.4328109e-10  -9.7344997e-04   2.5174028e+00   2.3337551e+00  -5.9083507e+06
   8.4428143e-10  -9.6755703e-04   2.5168848e+00   2.3343451e+00  -5.8726147e+06
   8.4528176e-10  -9.6169975e-04   2.5163700e+00   2.3349316e+00  -5.8370952e+06
   8.4628209e-10  -9.5587791e-04   2.5158584e+00   2.3355147e+00  -5.8017909e+06
   8.4728243e-10  -9.5009129e-04   2.5153498e+00   2.3360943e+00  -5.7667006e+06
   8.4828276e-10  -9.4433969e-04   2.5148443e+00   2.3366704e+00  -5.7318229e+06
   8.4928309e-10  -9.3862288e-04   2.5143420e+00   2.3372431e+00  -5.6971565e+06
   8.5028343e-10  -9.3294067e-04   2.5138426e+00   2.3378124e+00  -5.6627001e+06
   8.5128376e-10  -9.2729284e-04   2.5133463e+00   2.3383783e+00  -5.6284525e+06
   8.5228409e-10  -9.2167918e-04   2.5128531e+00   2.3389409e+00  -5.5944124e+06
   8.5328443e-10  -9.1609948e-04   2.5123628e+00   2.3395001e+00  -5.5605786e+06
   8.5428476e-10  -9.1055355e-04   2.5118755e+00   2.3400560e+00  -5.5269497e+06
   8.5528510e-10  -9.0504116e-04   2.5113912e+00   2.3406085e+00  -5.4935246e+06
   8.5628543e-10  -8.9956214e-04   2.5109098e+00   2.3411578e+00  -5.4603020e+06
   8.5728576e-10  -8.9411626e-04   2.5104313e+00   2.3417039e+00  -5.4272806e+06
   8.5828610e-10  -8.8870332e-04   2.5099558e+00   2.3422466e+00  -5.3944594e+06
   8.5928643e-10  -8.8332314e-04   2.5094831e+00   2.3427862e+00  -5.3618369e+06
   8.6028676e-10  -8.7797551e-04   2.5090133e+00   2.3433225e+00  -5.3294121e+06
   8.6128710e-10  -8.7266024e-04   2.5085464e+00   2.3438557e+00  -5.2971837e+06
   8.6228743e-10  -8.6737712e-04   2.5080823e+00   2.3443857e+00  -5.2651505e+06
   8.6328776e-10  -8.6212596e-04   2.5076211e+00   2.3449125e+00  -5.2333115e+06
   8.6428810e-10  -8.5690657e-04   2.5071626e+00   2.3454362e+00  -5.2016652e+06
   8.6528843e-10  -8.5171876e-04   2.5067069e+00   2.3459567e+00  -5.1702107e+06
   8.6628876e-10  -8.4656234e-04   2.5062540e+00   2.3464742e+00  -5.1389467e+06
   8.6728910e-10  -8.4143711e-04   2.5058039e+00   2.3469886e+00  -5.1078721e+06
   8.6828943e-10  -8.3634289e-04   2.5053565e+00   2.3474999e+00  -5.0769857e+06
   8.6928976e-10  -8.3127949e-04   2.5049118e+00   2.3480082e+00  -5.0462864e+06
   8.7029010e-10  -8.2624672e-04   2.5044698e+00   2.3485135e+00  -5.0157731e+06
   8.7129043e-10  -8.2124439e-04   2.5040305e+00   2.3490157e+00  -4.9854446e+06
   8.7229076e-10  -8.1627233e-04   2.5035939e+00   2.3495150e+00  -4.9552997e+06
   8.7329110e-10  -8.1133035e-04   2.5031599e+00   2.3500113e+00  -4.9253375e+06
   8.7429143e-10  -8.0641827e-04   2.5027286e+00   2.3505046e+00  -4.8955567e+06
   8.7529176e-10  -8.0153590e-04   2.5022998e+00   2.3509950e+00  -4.8659563e+06
   8.7629210e-10  -7.9668306e-04   2.5018737e+00   2.3514824e+00  -4.8365351e+06
   8.7729243e-10  -7.9185959e-04   2.5014502e+00   2.3519670e+00  -4.8072922e+06
   8.7829276e-10  -7.8706529e-04   2.5010293e+00   2.3524487e+00  -4.7782263e+06
   8.7929310e-10  -7.8230000e-04   2.5006109e+00   2.3529275e+00  -4.7493365e+06
   8.8029343e-10  -7.7756353e-04   2.5001950e+00   2.3534034e+00  -4.7206216e+06
   8.8129376e-10  -7.7285571e-04   2.4997817e+00   2.3538765e+00  -4.6920806e+06
   8.8229410e-10  -7.6817638e-04   2.4993709e+00   2.3543468e+00  -4.6637125e+06
   8.8329443e-10  -7.6352535e-04   2.4989626e+00   2.3548143e+00  -4.6355161e+06
   8.8429476e-10  -7.5890245e-04   2.4985568e+00   2.3552790e+00  -4.6074905e+06
   8.8529510e-10  -7.5430752e-04   2.4981534e+00   2.3557409e+00  -4.5796345e+06
   8.8629543e-10  -7.4974039e-04   2.4977525e+00   2.3562001e+00  -4.5519473e+06
   8.8729577e-10  -7.4520088e-04   2.4973540e+00   2.3566565e+00  -4.5244277e+06
   8.8829610e-10  -7.4068883e-04   2.4969580e+00   2.3571102e+00  -4.4970747e+06
   8.8929643e-10  -7.3620408e-04   2.4965644e+00   2.3575613e+00  -4.4698873e+06
   8.9029677e-10  -7.3174645e-04   2.4961731e+00   2.3580096e+00  -4.4428646e+06
   8.9129710e-10  -7.2731579e-04   2.4957842e+00   2.3584552e+00  -4.4160054e+06
   8.9229743e-10  -7.2291193e-04   2.4953977e+00   2.3588982e+00  -4.3893089e+06
   8.9329777e-10  -7.1853471e-04   2.4950135e+00   2.3593385e+00  -4.3627740e+06
   8.9429810e-10  -7.1418396e-04   2.4946317e+00   2.3597762e+00  -4.3363997e+06
   8.9529843e-10  -7.0985953e-04   2.4942522e+00   2.3602113e+00  -4.3101851e+06
   8.9629877e-10  -7.0556126e-04   2.4938750e+00   2.3606438e+00  -4.2841292e+06
   8.9729910e-10  -7.0128899e-04   2.4935001e+00   2.3610737e+00  -4.2582311e+06
   8.9829943e-10  -6.9704256e-04   2.4931274e+00   2.3615011e+00  -4.2324897e+06
   8.9929977e-10  -6.9282182e-04   2.4927571e+00   2.3619259e+00  -4.2069041e+06
   9.0030010e-10  -6.8862660e-04   2.4923890e+00   2.3623482e+00  -4.1814734e+06
   9.0130043e-10  -6.8445676e-04   2.4920231e+00   2.3627679e+00  -4.1561966e+06
   9.0230077e-10  -6.8031215e-04   2.4916594e+00   2.3631851e+00  -4.1310729e+06
   9.0330110e-10  -6.7619260e-04   2.4912979e+00   2.3635999e+00  -4.1061012e+06
   9.0430143e-10  -6.7209797e-04   2.4909387e+00   2.3640121e+00  -4.0812806e+06
   9.0530177e-10  -6.6802810e-04   2.4905816e+00   2.3644219e+00  -4.0566103e+06
   9.0630210e-10  -6.6398285e-04   2.4902267e+00   2.3648293e+00  -4.0320893e+06
   9.0730243e-10  -6.5996207e-04   2.4898739e+00   2.3652342e+00  -4.0077167e+06
   9.0830277e-10  -6.5596561e-04   2.4895233e+00   2.3656367e+00  -3.9834916e+06
   9.0930310e-10  -6.5199333e-04   2.4891748e+00   2.3660368e+00  -3.9594131e+06
   9.1030343e-10  -6.4804506e-04   2.4888285e+00   2.3664345e+00  -3.9354803e+06
   9.1130377e-10  -6.4412068e-04   2.4884842e+00   2.3668299e+00  -3.9116923e+06
   9.1230410e-10  -6.4022004e-04   2.4881420e+00   2.3672228e+00  -3.8880483e+06
   9.1330443e-10  -6.3634298e-04   2.4878019e+00   2.3676134e+00  -3.8645474e+06
   9.1430477e-10  -6.3248938e-04   2.4874639e+00   2.3680017e+00  -3.8411887e+06
   9.1530510e-10  -6.2865908e-04   2.4871279e+00   2.3683877e+00  -3.8179713e+06
   9.1630544e-10  -6.2485195e-04   2.4867940e+00   2.3687713e+00  -3.7948944e+06
   9.1730577e-10  -6.2106785e-04   2.4864621e+00   2.3691527e+00  -3.7719571e+06
   9.1830610e-10  -6.1730663e-04   2.4861322e+00   2.3695318e+00  -3.7491587e+06
   9.1930644e-10  -6.1356817e-04   2.4858043e+00   2.3699086e+00  -3.7264981e+06
   9.2030677e-10  -6.0985231e-04   2.4854784e+00   2.3702832e+00  -3.7039747e+06
   9.2130710e-10  -6.0615893e-04   2.4851545e+00   2.3706555e+00  -3.6815875e+06
   9.2230744e-10  -6.0248788e-04   2.4848325e+00   2.3710256e+00  -3.6593357e+06
   9.2330777e-10  -5.9883904e-04   2.4845125e+00   2.3713935e+00  -3.6372186e+06
   9.2430810e-10  -5.9521227e-04   2.4841945e+00   2.3717591e+00  -3.6152353e+06
   9.2530844e-10  -5.9160743e-04   2.4838784e+00   2.3721226e+00  -3.5933850e+06
   9.2630877e-10  -5.8802439e-04   2.4835641e+00   2.3724840e+00  -3.5716668e+06
   9.2730910e-10  -5.8446303e-04   2.4832518e+00   2.3728431e+00  -3.5500800e+06
   9.2830944e-10  -5.8092320e-04   2.4829414e+00   2.3732001e+00  -3.5286238e+06
   9.2930977e-10  -5.7740478e-04   2.4826329e+00   2.3735550e+00  -3.5072974e+06
   9.3031010e-10  -5.7390765e-04   2.4823263e+00   2.3739078e+00  -3.4861000e+06
   9.3131044e-10  -5.7043166e-04   2.4820215e+00   2.3742584e+00  -3.4650307e+06
   9.3231077e-10  -5.6697669e-04   2.4817185e+00   2.3746069e+00  -3.4440890e+06
   9.3331110e-10  -5.6354262e-04   2.4814175e+00   2.3749534e+00  -3.4232738e+06
   9.3431144e-10  -5.6012932e-04   2.4811182e+00   2.3752978e+00  -3.4025846e+06
   9.3531177e-10  -5.5673667e-04   2.4808207e+00   2.3756401e+00  -3.3820205e+06
   9.3631210e-10  -5.5336453e-04   2.4805251e+00   2.3759804e+00  -3.3615807e+06
   9.3731244e-10  -5.5001278e-04   2.4802312e+00   2.3763186e+00  -3.3412646e+06
   9.3831277e-10  -5.4668131e-04   2.4799392e+00   2.3766548e+00  -3.3210713e+06
   9.3931310e-10  -5.4336999e-04   2.4796489e+00   2.3769890e+00  -3.3010001e+06
   9.4031344e-10  -5.4007869e-04   2.4793603e+00   2.3773212e+00  -3.2810503e+06
   9.4131377e-10  -5.3680730e-04   2.4790735e+00   2.3776514e+00  -3.2612212e+06
   9.4231410e-10  -5.3355569e-04   2.4787885e+00   2.3779796e+00  -3.2415119e+06
   9.4331444e-10  -5.3032375e-04   2.4785052e+00   2.3783059e+00  -3.2219218e+06
   9.4431477e-10  -5.2711135e-04   2.4782236e+00   2.3786302e+00  -3.2024502e+06
   9.4531511e-10  -5.2391838e-04   2.4779437e+00   2.3789526e+00  -3.1830963e+06
   9.4631544e-10  -5.2074472e-04   2.4776655e+00   2.3792730e+00  -3.1638594e+06
   9.4731577e-10  -5.1759026e-04   2.4773890e+00   2.3795915e+00  -3.1447388e+06
   9.4831611e-10  -5.1445487e-04   2.4771142e+00   2.3799081e+00  -3.1257338e+06
   9.4931644e-10  -5.1133845e-04   2.4768410e+00   2.3802228e+00  -3.1068438e+06
   9.5031677e-10  -5.0824087e-04   2.4765695e+00   2.3805356e+00  -3.0880679e+06
   9.5131711e-10  -5.0516203e-04   2.4762997e+00   2.3808466e+00  -3.0694055e+06
   9.5231744e-10  -5.0210181e-04   2.4760315e+00   2.3811557e+00  -3.0508559e+06
   9.5331777e-10  -4.9906009e-04   2.4757649e+00   2.3814629e+00  -3.0324185e+06
   9.5431811e-10  -4.9603678e-04   2.4754999e+00   2.3817683e+00  -3.0140925e+06
   9.5531844e-10  -4.9303174e-04   2.4752366e+00   2.3820719e+00  -2.9958773e+06
   9.5631877e-10  -4.9004488e-04   2.4749748e+00   2.3823736e+00  -2.9777722e+06
   9.5731911e-10  -4.8707608e-04   2.4747146e+00   2.3826736e+00  -2.9597765e+06
   9.5831944e-10  -4.8412524e-04   2.4744560e+00   2.3829717e+00  -2.9418896e+06
   9.5931977e-10  -4.8119225e-04   2.4741990e+00   2.3832680e+00  -2.9241109e+06
   9.6032011e-10  -4.7827699e-04   2.4739435e+00   2.3835626e+00  -2.9064395e+06
   9.6132044e-10  -4.7537936e-04   2.4736896e+00   2.3838554e+00  -2.8888750e+06
   9.6232077e-10  -4.7249926e-04   2.4734372e+00   2.3841465e+00  -2.8714166e+06
   9.6332111e-10  -4.6963658e-04   2.4731864e+00   2.3844358e+00  -2.8540638e+06
   9.6432144e-10  -4.6679121e-04   2.4729371e+00   2.3847234e+00  -2.8368158e+06
   9.6532177e-10  -4.6396304e-04   2.4726893e+00   2.3850092e+00  -2.8196720e+06
   9.6632211e-10  -4.6115199e-04   2.4724430e+00   2.3852933e+00  -2.8026319e+06
   9.6732244e-10  -4.5835793e-04   2.4721981e+00   2.3855758e+00  -2.7856947e+06
   9.6832277e-10  -4.5558077e-04   2.4719548e+00   2.3858565e+00  -2.7688599e+06
   9.6932311e-10  -4.5282041e-04   2.4717130e+00   2.3861356e+00  -2.7521267e+06
   9.7032344e-10  -4.5007674e-04   2.4714726e+00   2.3864129e+00  -2.7354947e+06
   9.7132377e-10  -4.4734966e-04   2.4712336e+00   2.3866887e+00  -2.7189632e+06
   9.7232411e-10  -4.4463908e-04   2.4709962e+00   2.3869627e+00  -2.7025316e+06
   9.7332444e-10  -4.4194489e-04   2.4707601e+00   2.3872351e+00  -2.6861993e+06
   9.7432477e-10  -4.3926700e-04   2.4705255e+00   2.3875059e+00  -2.6699656e+06
   9.7532511e-10  -4.3660530e-04   2.4702923e+00   2.3877751e+00  -2.6538301e+06
   9.7632544e-10  -4.3395970e-04   2.4700606e+00   2.3880426e+00  -2.6377920e+06
   9.7732578e-10  -4.3133010e-04   2.4698302e+00   2.3883086e+00  -2.6218508e+06
   9.7832611e-10  -4.2871641e-04   2.4696012e+00   2.3885729e+00  -2.6060059e+06
   9.7932644e-10  -4.2611852e-04   2.4693737e+00   2.3888357e+00  -2.5902568e+06
   9.8032678e-10  -4.2353634e-04   2.4691475e+00   2.3890968e+00  -2.5746027e+06
   9.8132711e-10  -4.2096978e-04   2.4689226e+00   2.3893564e+00  -2.5590433e+06
   9.8232744e-10  -4.1841875e-04   2.4686992e+00   2.3896145e+00  -2.5435778e+06
   9.8332778e-10  -4.1588314e-04   2.4684771e+00   2.3898710e+00  -2.5282058e+06
   9.8432811e-10  -4.1336287e-04   2.4682563e+00   2.3901260e+00  -2.5129266e+06
   9.8532844e-10  -4.1085784e-04   2.4680369e+00   2.3903794e+00  -2.4977397e+06
   9.8632878e-10  -4.0836796e-04   2.4678188e+00   2.3906313e+00  -2.4826446e+06
   9.8732911e-10  -4.0589314e-04   2.4676020e+00   2.3908817e+00  -2.4676406e+06
   9.8832944e-10  -4.0343329e-04   2.4673866e+00   2.3911306e+00  -2.4527273e+06
   9.8932978e-10  -4.0098832e-04   2.4671724e+00   2.3913780e+00  -2.4379040e+06
   9.9033011e-10  -3.9855813e-04   2.4669596e+00   2.3916239e+00  -2.4231702e+06
   9.9133044e-10  -3.9614265e-04   2.4667480e+00   2.3918684e+00  -2.4085255e+06
   9.9233078e-10  -3.9374177e-04   2.4665377e+00   2.3921113e+00  -2.3939692e+06
   9.9333111e-10  -3.9135541e-04   2.4663288e+00   2.3923529e+00  -2.3795008e+06
   9.9433144e-10  -3.8898349e-04   2.4661210e+00   2.3925929e+00  -2.3651198e+06
   9.9533178e-10  -3.8662592e-04   2.4659145e+00   2.3928315e+00  -2.3508256e+06
   9.9633211e-10  -3.8428260e-04   2.4657093e+00   2.3930687e+00  -2.3366178e+06
   9.9733244e-10  -3.8195346e-04   2.4655054e+00   2.3933045e+00  -2.3224957e+06
   9.9833278e-10  -3.7963840e-04   2.4653026e+00   2.3935388e+00  -2.3084590e+06
   9.9933311e-10  -3.7733735e-04   2.4651011e+00   2.3937718e+00  -2.2945070e+06
   1.0003334e-09  -3.7505021e-04   2.4649008e+00   2.3940033e+00  -2.2806393e+06
   1.0013338e-09  -3.7277691e-04   2.4647017e+00   2.3942335e+00  -2.2668553e+06
   1.0023341e-09  -3.7051736e-04   2.4645039e+00   2.3944622e+00  -2.2531545e+06
   1.0033344e-09  -3.6827148e-04   2.4643072e+00   2.3946896e+00  -2.2395364e+06
   1.0043348e-09  -3.6603918e-04   2.4641117e+00   2.3949156e+00  -2.2260006e+06
   1.0053351e-09  -3.6382038e-04   2.4639175e+00   2.3951403e+00  -2.2125466e+06
   1.0063354e-09  -3.6161501e-04   2.4637243e+00   2.3953636e+00  -2.1991737e+06
   1.0073358e-09  -3.5942297e-04   2.4635324e+00   2.3955856e+00  -2.1858816e+06
   1.0083361e-09  -3.5724419e-04   2.4633416e+00   2.3958062e+00  -2.1726698e+06
   1.0093364e-09  -3.5507860e-04   2.4631520e+00   2.3960256e+00  -2.1595377e+06
   1.0103368e-09  -3.5292610e-04   2.4629635e+00   2.3962436e+00  -2.1464849e+06
   1.0113371e-09  -3.5078662e-04   2.4627762e+00   2.3964602e+00  -2.1335109e+06
   1.0123374e-09  -3.4866008e-04   2.4625900e+00   2.3966756e+00  -2.1206153e+06
   1.0133378e-09  -3.4654641e-04   2.4624050e+00   2.3968897e+00  -2.1077975e+06
   1.0143381e-09  -3.4444552e-04   2.4622210e+00   2.3971025e+00  -2.0950570e+06
   1.0153384e-09  -3.4235734e-04   2.4620382e+00   2.3973140e+00  -2.0823935e+06
   1.0163388e-09  -3.4028179e-04   2.4618565e+00   2.3975243e+00  -2.0698065e+06
   1.0173391e-09  -3.3821880e-04   2.4616759e+00   2.3977333e+00  -2.0572954e+06
   1.0183394e-09  -3.3616829e-04   2.4614964e+00   2.3979410e+00  -2.0448599e+06
   1.0193398e-09  -3.3413018e-04   2.4613179e+00   2.3981475e+00  -2.0324994e+06
   1.0203401e-09  -3.3210440e-04   2.4611406e+00   2.3983527e+00  -2.0202136e+06
   1.0213404e-09  -3.3009087e-04   2.4609643e+00   2.3985568e+00  -2.0080019e+06
   1.0223408e-09  -3.2808953e-04   2.4607891e+00   2.3987595e+00  -1.9958639e+06
   1.0233411e-09  -3.2610029e-04   2.4606150e+00   2.3989611e+00  -1.9837992e+06
   1.0243414e-09  -3.2412308e-04   2.4604419e+00   2.3991614e+00  -1.9718073e+06
   1.0253418e-09  -3.2215784e-04   2.4602698e+00   2.3993606e+00  -1.9598878e+06
   1.0263421e-09  -3.2020449e-04   2.4600988e+00   2.3995585e+00  -1.9480402e+06
   1.0273424e-09  -3.1826295e-04   2.4599289e+00   2.3997553e+00  -1.9362642e+06
   1.0283428e-09  -3.1633316e-04   2.4597600e+00   2.3999509e+00  -1.9245592e+06
   1.0293431e-09  -3.1441504e-04   2.4595920e+00   2.4001453e+00  -1.9129249e+06
   1.0303434e-09  -3.1250852e-04   2.4594252e+00   2.4003385e+00  -1.9013608e+06
   1.0313438e-09  -3.1061354e-04   2.4592593e+00   2.4005305e+00  -1.8898665e+06
   1.0323441e-09  -3.0873003e-04   2.4590944e+00   2.4007214e+00  -1.8784416e+06
   1.0333444e-09  -3.0685791e-04   2.4589306e+00   2.4009112e+00  -1.8670857e+06
   1.0343448e-09  -3.0499711e-04   2.4587677e+00   2.4010998e+00  -1.8557982e+06
   1.0353451e-09  -3.0314758e-04   2.4586058e+00   2.4012873e+00  -1.8445789e+06
   1.0363454e-09  -3.0130923e-04   2.4584449e+00   2.4014737e+00  -1.8334273e+06
   1.0373458e-09  -2.9948200e-04   2.4582850e+00   2.4016589e+00  -1.8223431e+06
   1.0383461e-09  -2.9766583e-04   2.4581260e+00   2.4018430e+00  -1.8113257e+06
   1.0393464e-09  -2.9586065e-04   2.4579680e+00   2.4020260e+00  -1.8003748e+06
   1.0403468e-09  -2.9406639e-04   2.4578110e+00   2.4022079e+00  -1.7894900e+06
   1.0413471e-09  -2.9228299e-04   2.4576549e+00   2.4023887e+00  -1.7786708e+06
   1.0423474e-09  -2.9051037e-04   2.4574997e+00   2.4025685e+00  -1.7679170e+06
   1.0433478e-09  -2.8874848e-04   2.4573455e+00   2.4027471e+00  -1.7572281e+06
   1.0443481e-09  -2.8699726e-04   2.4571923e+00   2.4029247e+00  -1.7466037e+06
   1.0453484e-09  -2.8525662e-04   2.4570399e+00   2.4031012e+00  -1.7360434e+06
   1.0463488e-09  -2.8352652e-04   2.4568885e+00   2.4032766e+00  -1.7255468e+06
   1.0473491e-09  -2.8180689e-04   2.4567380e+00   2.4034510e+00  -1.7151135e+06
   1.0483494e-09  -2.8009766e-04   2.4565884e+00   2.4036243e+00  -1.7047433e+06
   1.0493498e-09  -2.7839877e-04   2.4564398e+00   2.4037966e+00  -1.6944356e+06
   1.0503501e-09  -2.7671017e-04   2.4562920e+00   2.4039679e+00  -1.6841901e+06
   1.0513505e-09  -2.7503178e-04   2.4561451e+00   2.4041381e+00  -1.6740064e+06
   1.0523508e-09  -2.7336354e-04   2.4559991e+00   2.4043073e+00  -1.6638842e+06
   1.0533511e-09  -2.7170540e-04   2.4558540e+00   2.4044755e+00  -1.6538230e+06
   1.0543515e-09  -2.7005730e-04   2.4557098e+00   2.4046426e+00  -1.6438226e+06
   1.0553518e-09  -2.6841917e-04   2.4555664e+00   2.4048088e+00  -1.6338825e+06
   1.0563521e-09  -2.6679095e-04   2.4554240e+00   2.4049739e+00  -1.6240024e+06
   1.0573525e-09  -2.6517258e-04   2.4552823e+00   2.4051381e+00  -1.6141820e+06
   1.0583528e-09  -2.6356401e-04   2.4551416e+00   2.4053013e+00  -1.6044207e+06
   1.0593531e-09  -2.6196517e-04   2.4550017e+00   2.4054635e+00  -1.5947184e+06
   1.0603535e-09  -2.6037600e-04   2.4548626e+00   2.4056247e+00  -1.5850746e+06
   1.0613538e-09  -2.5879645e-04   2.4547244e+00   2.4057849e+00  -1.5754890e+06
   1.0623541e-09  -2.5722646e-04   2.4545870e+00   2.4059442e+00  -1.5659613e+06
   1.0633545e-09  -2.5566597e-04   2.4544505e+00   2.4061025e+00  -1.5564910e+06
   1.0643548e-09  -2.5411493e-04   2.4543148e+00   2.4062599e+00  -1.5470779e+06
   1.0653551e-09  -2.5257327e-04   2.4541799e+00   2.4064163e+00  -1.5377216e+06
   1.0663555e-09  -2.5104094e-04   2.4540458e+00   2.4065718e+00  -1.5284217e+06
   1.0673558e-09  -2.4951789e-04   2.4539126e+00   2.4067263e+00  -1.5191780e+06
   1.0683561e-09  -2.4800405e-04   2.4537801e+00   2.4068799e+00  -1.5099900e+06
   1.0693565e-09  -2.4649938e-04   2.4536485e+00   2.4070326e+00  -1.5008575e+06
   1.0703568e-09  -2.4500381e-04   2.4535176e+00   2.4071844e+00  -1.4917800e+06
   1.0713571e-09  -2.4351729e-04   2.4533875e+00   2.4073352e+00  -1.4827574e+06
   1.0723575e-09  -2.4203977e-04   2.4532583e+00   2.4074851e+00  -1.4737891e+06
   1.0733578e-09  -2.4057119e-04   2.4531298e+00   2.4076342e+00  -1.4648750e+06
   1.0743581e-09  -2.3911150e-04   2.4530021e+00   2.4077823e+00  -1.4560147e+06
   1.0753585e-09  -2.3766064e-04   2.4528751e+00   2.4079295e+00  -1.4472078e+06
   1.0763588e-09  -2.3621857e-04   2.4527490e+00   2.4080759e+00  -1.4384541e+06
   1.0773591e-09  -2.3478522e-04   2.4526236e+00   2.4082214e+00  -1.4297532e+06
   1.0783595e-09  -2.3336055e-04   2.4524989e+00   2.4083660e+00  -1.4211048e+06
   1.0793598e-09  -2.3194451e-04   2.4523751e+00   2.4085097e+00  -1.4125086e+06
   1.0803601e-09  -2.3053703e-04   2.4522519e+00   2.4086526e+00  -1.4039642e+06
   1.0813605e-09  -2.2913807e-04   2.4521295e+00   2.4087946e+00  -1.3954714e+06
   1.0823608e-09  -2.2774759e-04   2.4520079e+00   2.4089357e+00  -1.3870298e+06
   1.0833611e-09  -2.2636551e-04   2.4518870e+00   2.4090760e+00  -1.3786392e+06
   1.0843615e-09  -2.2499181e-04   2.4517668e+00   2.4092154e+00  -1.3702992e+06
   1.0853618e-09  -2.2362642e-04   2.4516474e+00   2.4093540e+00  -1.3620095e+06
   1.0863621e-09  -2.2226929e-04   2.4515286e+00   2.4094918e+00  -1.3537698e+06
   1.0873625e-09  -2.2092038e-04   2.4514106e+00   2.4096287e+00  -1.3455798e+06
   1.0883628e-09  -2.1957964e-04   2.4512934e+00   2.4097648e+00  -1.3374393e+06
   1.0893631e-09  -2.1824701e-04   2.4511768e+00   2.4099001e+00  -1.3293478e+06
   1.0903635e-09  -2.1692245e-04   2.4510609e+00   2.4100346e+00  -1.3213052e+06
   1.0913638e-09  -2.1560590e-04   2.4509457e+00   2.4101683e+00  -1.3133112e+06
   1.0923641e-09  -2.1429733e-04   2.4508313e+00   2.4103011e+00  -1.3053653e+06
   1.0933645e-09  -2.1299668e-04   2.4507175e+00   2.4104332e+00  -1.2974674e+06
   1.0943648e-09  -2.1170390e-04   2.4506044e+00   2.4105645e+00  -1.2896171e+06
   1.0953651e-09  -2.1041895e-04   2.4504920e+00   2.4106949e+00  -1.2818143e+06
   1.0963655e-09  -2.0914178e-04   2.4503803e+00   2.4108246e+00  -1.2740584e+06
   1.0973658e-09  -2.0787234e-04   2.4502693e+00   2.4109535e+00  -1.2663494e+06
   1.0983661e-09  -2.0661059e-04   2.4501589e+00   2.4110816e+00  -1.2586869e+06
   1.0993665e-09  -2.0535647e-04   2.4500492e+00   2.4112090e+00  -1.2510707e+06
   1.1003668e-09  -2.0410995e-04   2.4499402e+00   2.4113356e+00  -1.2435004e+06
   1.1013671e-09  -2.0287097e-04   2.4498318e+00   2.4114614e+00  -1.2359757e+06
   1.1023675e-09  -2.0163950e-04   2.4497241e+00   2.4115864e+00  -1.2284965e+06
   1.1033678e-09  -2.0041548e-04   2.4496170e+00   2.4117107e+00  -1.2210624e+06
   1.1043681e-09  -1.9919888e-04   2.4495106e+00   2.4118343e+00  -1.2136731e+06
   1.1053685e-09  -1.9798964e-04   2.4494049e+00   2.4119571e+00  -1.2063285e+06
   1.1063688e-09  -1.9678772e-04   2.4492997e+00   2.4120792e+00  -1.1990281e+06
   1.1073691e-09  -1.9559308e-04   2.4491952e+00   2.4122005e+00  -1.1917718e+06
   1.1083695e-09  -1.9440568e-04   2.4490914e+00   2.4123211e+00  -1.1845593e+06
   1.1093698e-09  -1.9322546e-04   2.4489882e+00   2.4124410e+00  -1.1773903e+06
   1.1103701e-09  -1.9205239e-04   2.4488856e+00   2.4125601e+00  -1.1702646e+06
   1.1113705e-09  -1.9088642e-04   2.4487836e+00   2.4126785e+00  -1.1631819e+06
   1.1123708e-09  -1.8972752e-04   2.4486822e+00   2.4127963e+00  -1.1561419e+06
   1.1133711e-09  -1.8857563e-04   2.4485815e+00   2.4129133e+00  -1.1491443e+06
   1.1143715e-09  -1.8743071e-04   2.4484814e+00   2.4130296e+00  -1.1421890e+06
   1.1153718e-09  -1.8629274e-04   2.4483818e+00   2.4131452e+00  -1.1352757e+06
   1.1163721e-09  -1.8516165e-04   2.4482829e+00   2.4132601e+00  -1.1284041e+06
   1.1173725e-09  -1.8403741e-04   2.4481846e+00   2.4133743e+00  -1.1215740e+06
   1.1183728e-09  -1.8291998e-04   2.4480869e+00   2.4134878e+00  -1.1147850e+06
   1.1193731e-09  -1.8180932e-04   2.4479897e+00   2.4136006e+00  -1.1080371e+06
   1.1203735e-09  -1.8070538e-04   2.4478932e+00   2.4137127e+00  -1.1013298e+06
   1.1213738e-09  -1.7960813e-04   2.4477972e+00   2.4138242e+00  -1.0946631e+06
   1.1223741e-09  -1.7851752e-04   2.4477019e+00   2.4139350e+00  -1.0880365e+06
   1.1233745e-09  -1.7743352e-04   2.4476071e+00   2.4140451e+00  -1.0814500e+06
   1.1243748e-09  -1.7635609e-04   2.4475128e+00   2.4141546e+00  -1.0749032e+06
   1.1253751e-09  -1.7528518e-04   2.4474192e+00   2.4142634e+00  -1.0683959e+06
   1.1263755e-09  -1.7422075e-04   2.4473261e+00   2.4143716e+00  -1.0619278e+06
   1.1273758e-09  -1.7316278e-04   2.4472336e+00   2.4144791e+00  -1.0554988e+06
   1.1283761e-09  -1.7211121e-04   2.4471416e+00   2.4145859e+00  -1.0491086e+06
   1.1293765e-09  -1.7106601e-04   2.4470502e+00   2.4146921e+00  -1.0427570e+06
   1.1303768e-09  -1.7002714e-04   2.4469594e+00   2.4147977e+00  -1.0364437e+06
   1.1313771e-09  -1.6899457e-04   2.4468691e+00   2.4149026e+00  -1.0301685e+06
   1.1323775e-09  -1.6796825e-04   2.4467793e+00   2.4150069e+00  -1.0239312e+06
   1.1333778e-09  -1.6694814e-04   2.4466901e+00   2.4151105e+00  -1.0177315e+06
   1.1343781e-09  -1.6593422e-04   2.4466015e+00   2.4152136e+00  -1.0115692e+06
   1.1353785e-09  -1.6492643e-04   2.4465133e+00   2.4153160e+00  -1.0054441e+06
   1.1363788e-09  -1.6392476e-04   2.4464258e+00   2.4154178e+00  -9.9935602e+05
   1.1373791e-09  -1.6292915e-04   2.4463387e+00   2.4155189e+00  -9.9330464e+05
   1.1383795e-09  -1.6193957e-04   2.4462522e+00   2.4156195e+00  -9.8728979e+05
   1.1393798e-09  -1.6095598e-04   2.4461662e+00   2.4157195e+00  -9.8131125e+05
   1.1403801e-09  -1.5997836e-04   2.4460807e+00   2.4158188e+00  -9.7536878e+05
   1.1413805e-09  -1.5900666e-04   2.4459957e+00   2.4159176e+00  -9.6946219e+05
   1.1423808e-09  -1.5804084e-04   2.4459113e+00   2.4160157e+00  -9.6359124e+05
   1.1433811e-09  -1.5708087e-04   2.4458273e+00   2.4161133e+00  -9.5775573e+05
   1.1443815e-09  -1.5612673e-04   2.4457439e+00   2.4162103e+00  -9.5195544e+05
   1.1453818e-09  -1.5517836e-04   2.4456610e+00   2.4163066e+00  -9.4619016e+05
   1.1463821e-09  -1.5423573e-04   2.4455785e+00   2.4164024e+00  -9.4045968e+05
   1.1473825e-09  -1.5329882e-04   2.4454966e+00   2.4164977e+00  -9.3476379e+05
   1.1483828e-09  -1.5236759e-04   2.4454152e+00   2.4165923e+00  -9.2910228e+05
   1.1493831e-09  -1.5144200e-04   2.4453343e+00   2.4166864e+00  -9.2347494e+05
   1.1503835e-09  -1.5052201e-04   2.4452538e+00   2.4167799e+00  -9.1788157e+05
   1.1513838e-09  -1.4960760e-04   2.4451739e+00   2.4168729e+00  -9.1232197e+05
   1.1523841e-09  -1.4869873e-04   2.4450944e+00   2.4169652e+00  -9.0679592e+05
   1.1533845e-09  -1.4779537e-04   2.4450154e+00   2.4170571e+00  -9.0130323e+05
   1.1543848e-09  -1.4689748e-04   2.4449369e+00   2.4171483e+00  -8.9584370e+05
   1.1553851e-09  -1.4600503e-04   2.4448589e+00   2.4172391e+00  -8.9041713e+05
   1.1563855e-09  -1.4511799e-04   2.4447813e+00   2.4173292e+00  -8.8502332e+05
   1.1573858e-09  -1.4423633e-04   2.4447042e+00   2.4174189e+00  -8.7966207e+05
   1.1583861e-09  -1.4336001e-04   2.4446276e+00   2.4175079e+00  -8.7433318e+05
   1.1593865e-09  -1.4248900e-04   2.4445515e+00   2.4175965e+00  -8.6903646e+05
   1.1603868e-09  -1.4162326e-04   2.4444758e+00   2.4176845e+00  -8.6377172e+05
   1.1613871e-09  -1.4076278e-04   2.4444006e+00   2.4177720e+00  -8.5853877e+05
   1.1623875e-09  -1.3990751e-04   2.4443258e+00   2.4178589e+00  -8.5333741e+05
   1.1633878e-09  -1.3905742e-04   2.4442515e+00   2.4179454e+00  -8.4816745e+05
   1.1643881e-09  -1.3821248e-04   2.4441776e+00   2.4180313e+00  -8.4302870e+05
   1.1653885e-09  -1.3737266e-04   2.4441042e+00   2.4181166e+00  -8.3792098e+05
   1.1663888e-09  -1.3653794e-04   2.4440312e+00   2.4182015e+00  -8.3284410e+05
   1.1673891e-09  -1.3570827e-04   2.4439586e+00   2.4182859e+00  -8.2779787e+05
   1.1683895e-09  -1.3488363e-04   2.4438866e+00   2.4183697e+00  -8.2278211e+05
   1.1693898e-09  -1.3406399e-04   2.4438149e+00   2.4184530e+00  -8.1779664e+05
   1.1703901e-09  -1.3324932e-04   2.4437437e+00   2.4185359e+00  -8.1284126e+05
   1.1713905e-09  -1.3243958e-04   2.4436729e+00   2.4186182e+00  -8.0791581e+05
   1.1723908e-09  -1.3163476e-04   2.4436025e+00   2.4187000e+00  -8.0302010e+05
   1.1733911e-09  -1.3083481e-04   2.4435326e+00   2.4187814e+00  -7.9815395e+05
   1.1743915e-09  -1.3003971e-04   2.4434631e+00   2.4188622e+00  -7.9331719e+05
   1.1753918e-09  -1.2924943e-04   2.4433940e+00   2.4189426e+00  -7.8850963e+05
   1.1763921e-09  -1.2846394e-04   2.4433253e+00   2.4190224e+00  -7.8373111e+05
   1.1773925e-09  -1.2768321e-04   2.4432571e+00   2.4191018e+00  -7.7898144e+05
   1.1783928e-09  -1.2690722e-04   2.4431892e+00   2.4191807e+00  -7.7426045e+05
   1.1793931e-09  -1.2613592e-04   2.4431218e+00   2.4192592e+00  -7.6956797e+05
   1.1803935e-09  -1.2536931e-04   2.4430548e+00   2.4193371e+00  -7.6490383e+05
   1.1813938e-09  -1.2460734e-04   2.4429882e+00   2.4194146e+00  -7.6026786e+05
   1.1823941e-09  -1.2384999e-04   2.4429220e+00   2.4194916e+00  -7.5565989e+05
   1.1833945e-09  -1.2309723e-04   2.4428562e+00   2.4195682e+00  -7.5107975e+05
   1.1843948e-09  -1.2234904e-04   2.4427908e+00   2.4196443e+00  -7.4652727e+05
   1.1853951e-09  -1.2160538e-04   2.4427258e+00   2.4197199e+00  -7.4200228e+05
   1.1863955e-09  -1.2086623e-04   2.4426611e+00   2.4197951e+00  -7.3750462e+05
   1.1873958e-09  -1.2013156e-04   2.4425969e+00   2.4198698e+00  -7.3303413e+05
   1.1883961e-09  -1.1940135e-04   2.4425331e+00   2.4199440e+00  -7.2859064e+05
   1.1893965e-09  -1.1867556e-04   2.4424696e+00   2.4200179e+00  -7.2417399e+05
   1.1903968e-09  -1.1795418e-04   2.4424066e+00   2.4200912e+00  -7.1978402e+05
   1.1913971e-09  -1.1723717e-04   2.4423439e+00   2.4201642e+00  -7.1542056e+05
   1.1923975e-09  -1.1652450e-04   2.4422816e+00   2.4202366e+00  -7.1108346e+05
   1.1933978e-09  -1.1581616e-04   2.4422197e+00   2.4203087e+00  -7.0677256e+05
   1.1943981e-09  -1.1511211e-04   2.4421581e+00   2.4203803e+00  -7.0248770e+05
   1.1953985e-09  -1.1441233e-04   2.4420970e+00   2.4204515e+00  -6.9822873e+05
   1.1963988e-09  -1.1371679e-04   2.4420362e+00   2.4205222e+00  -6.9399548e+05
   1.1973991e-09  -1.1302548e-04   2.4419757e+00   2.4205925e+00  -6.8978781e+05
   1.1983995e-09  -1.1233835e-04   2.4419157e+00   2.4206624e+00  -6.8560555e+05
   1.1993998e-09  -1.1165539e-04   2.4418560e+00   2.4207319e+00  -6.8144856e+05
   1.2004001e-09  -1.1097657e-04   2.4417966e+00   2.4208009e+00  -6.7731669e+05
   1.2014005e-09  -1.1030187e-04   2.4417377e+00   2.4208695e+00  -6.7320978e+05
   1.2024008e-09  -1.0963126e-04   2.4416791e+00   2.4209378e+00  -6.6912768e+05
   1.2034011e-09  -1.0896472e-04   2.4416208e+00   2.4210056e+00  -6.6507024e+05
   1.2044015e-09  -1.0830222e-04   2.4415629e+00   2.4210729e+00  -6.6103732e+05
   1.2054018e-09  -1.0764374e-04   2.4415053e+00   2.4211399e+00  -6.5702877e+05
   1.2064021e-09  -1.0698925e-04   2.4414481e+00   2.4212065e+00  -6.5304443e+05
   1.2074025e-09  -1.0633873e-04   2.4413913e+00   2.4212727e+00  -6.4908417e+05
   1.2084028e-09  -1.0569216e-04   2.4413347e+00   2.4213385e+00  -6.4514784e+05
   1.2094031e-09  -1.0504950e-04   2.4412786e+00   2.4214038e+00  -6.4123530e+05
   1.2104035e-09  -1.0441075e-04   2.4412227e+00   2.4214688e+00  -6.3734640e+05
   1.2114038e-09  -1.0377587e-04   2.4411672e+00   2.4215334e+00  -6.3348099e+05
   1.2124041e-09  -1.0314484e-04   2.4411121e+00   2.4215976e+00  -6.2963895e+05
   1.2134045e-09  -1.0251764e-04   2.4410573e+00   2.4216614e+00  -6.2582012e+05
   1.2144048e-09  -1.0189424e-04   2.4410028e+00   2.4217248e+00  -6.2202437e+05
   1.2154051e-09  -1.0127463e-04   2.4409486e+00   2.4217878e+00  -6.1825156e+05
   1.2164055e-09  -1.0065877e-04   2.4408948e+00   2.4218505e+00  -6.1450156e+05
   1.2174058e-09  -1.0004665e-04   2.4408413e+00   2.4219128e+00  -6.1077421e+05
   1.2184061e-09  -9.9438241e-05   2.4407881e+00   2.4219747e+00  -6.0706939e+05
   1.2194065e-09  -9.8833524e-05   2.4407353e+00   2.4220362e+00  -6.0338697e+05
   1.2204068e-09  -9.8232475e-05   2.4406827e+00   2.4220973e+00  -5.9972679e+05
   1.2214071e-09  -9.7635072e-05   2.4406305e+00   2.4221581e+00  -5.9608875e+05
   1.2224075e-09  -9.7041294e-05   2.4405786e+00   2.4222185e+00  -5.9247269e+05
   1.2234078e-09  -9.6451118e-05   2.4405270e+00   2.4222786e+00  -5.8887849e+05
   1.2244081e-09  -9.5864522e-05   2.4404758e+00   2.4223383e+00  -5.8530601e+05
   1.2254085e-09  -9.5281486e-05   2.4404248e+00   2.4223976e+00  -5.8175513e+05
   1.2264088e-09  -9.4701986e-05   2.4403742e+00   2.4224565e+00  -5.7822571e+05
   1.2274091e-09  -9.4126003e-05   2.4403238e+00   2.4225151e+00  -5.7471763e+05
   1.2284095e-09  -9.3553514e-05   2.4402738e+00   2.4225734e+00  -5.7123076e+05
   1.2294098e-09  -9.2984499e-05   2.4402240e+00   2.4226313e+00  -5.6776496e+05
   1.2304101e-09  -9.2418936e-05   2.4401746e+00   2.4226888e+00  -5.6432012e+05
   1.2314105e-09  -9.1856805e-05   2.4401255e+00   2.4227460e+00  -5.6089610e+05
   1.2324108e-09  -9.1298084e-05   2.4400767e+00   2.4228029e+00  -5.5749278e+05
   1.2334111e-09  -9.0742754e-05   2.4400281e+00   2.4228594e+00  -5.5411004e+05
   1.2344115e-09  -9.0190794e-05   2.4399799e+00   2.4229155e+00  -5.5074775e+05
   1.2354118e-09  -8.9642183e-05   2.4399319e+00   2.4229714e+00  -5.4740579e+05
   1.2364121e-09  -8.9096900e-05   2.4398843e+00   2.4230269e+00  -5.4408403e+05
   1.2374125e-09  -8.8554927e-05   2.4398369e+00   2.4230820e+00  -5.4078236e+05
   1.2384128e-09  -8.8016243e-05   2.4397898e+00   2.4231368e+00  -5.3750066e+05
   1.2394131e-09  -8.7480827e-05   2.4397430e+00   2.4231913e+00  -5.3423879e+05
   1.2404135e-09  -8.6948661e-05   2.4396965e+00   2.4232455e+00  -5.3099665e+05
   1.2414138e-09  -8.6419725e-05   2.4396503e+00   2.4232993e+00  -5.2777412e+05
   1.2424141e-09  -8.5893998e-05   2.4396044e+00   2.4233528e+00  -5.2457107e+05
   1.2434145e-09  -8.5371462e-05   2.4395587e+00   2.4234060e+00  -5.2138739e+05
   1.2444148e-09  -8.4852097e-05   2.4395133e+00   2.4234588e+00  -5.1822297e+05
   1.2454151e-09  -8.4335885e-05   2.4394682e+00   2.4235113e+00  -5.1507768e+05
   1.2464155e-09  -8.3822805e-05   2.4394234e+00   2.4235635e+00  -5.1195141e+05
   1.2474158e-09  -8.3312840e-05   2.4393788e+00   2.4236154e+00  -5.0884405e+05
   1.2484161e-09  -8.2805969e-05   2.4393345e+00   2.4236670e+00  -5.0575549e+05
   1.2494165e-09  -8.2302175e-05   2.4392905e+00   2.4237183e+00  -5.0268560e+05
   1.2504168e-09  -8.1801439e-05   2.4392467e+00   2.4237693e+00  -4.9963428e+05
   1.2514171e-09  -8.1303743e-05   2.4392032e+00   2.4238199e+00  -4.9660142e+05
   1.2524175e-09  -8.0809067e-05   2.4391600e+00   2.4238702e+00  -4.9358690e+05
   1.2534178e-09  -8.0317394e-05   2.4391170e+00   2.4239203e+00  -4.9059062e+05
   1.2544181e-09  -7.9828706e-05   2.4390743e+00   2.4239700e+00  -4.8761246e+05
   1.2554185e-09  -7.9342984e-05   2.4390318e+00   2.4240195e+00  -4.8465232e+05
   1.2564188e-09  -7.8860210e-05   2.4389897e+00   2.4240686e+00  -4.8171008e+05
   1.2574191e-09  -7.8380367e-05   2.4389477e+00   2.4241174e+00  -4.7878564e+05
   1.2584195e-09  -7.7903437e-05   2.4389060e+00   2.4241660e+00  -4.7587889e+05
   1.2594198e-09  -7.7429403e-05   2.4388646e+00   2.4242142e+00  -4.7298972e+05
   1.2604201e-09  -7.6958246e-05   2.4388234e+00   2.4242622e+00  -4.7011804e+05
   1.2614205e-09  -7.6489949e-05   2.4387825e+00   2.4243098e+00  -4.6726373e+05
   1.2624208e-09  -7.6024495e-05   2.4387418e+00   2.4243572e+00  -4.6442669e+05
   1.2634211e-09  -7.5561868e-05   2.4387014e+00   2.4244043e+00  -4.6160681e+05
   1.2644215e-09  -7.5102049e-05   2.4386612e+00   2.4244511e+00  -4.5880399e+05
   1.2654218e-09  -7.4645021e-05   2.4386213e+00   2.4244976e+00  -4.5601813e+05
   1.2664221e-09  -7.4190769e-05   2.4385816e+00   2.4245438e+00  -4.5324913e+05
   1.2674225e-09  -7.3739274e-05   2.4385421e+00   2.4245898e+00  -4.5049689e+05
   1.2684228e-09  -7.3290521e-05   2.4385029e+00   2.4246355e+00  -4.4776129e+05
   1.2694231e-09  -7.2844493e-05   2.4384640e+00   2.4246809e+00  -4.4504225e+05
   1.2704235e-09  -7.2401172e-05   2.4384252e+00   2.4247260e+00  -4.4233967e+05
   1.2714238e-09  -7.1960544e-05   2.4383867e+00   2.4247708e+00  -4.3965344e+05
   1.2724241e-09  -7.1522591e-05   2.4383484e+00   2.4248154e+00  -4.3698346e+05
   1.2734245e-09  -7.1087297e-05   2.4383104e+00   2.4248597e+00  -4.3432965e+05
   1.2744248e-09  -7.0654647e-05   2.4382726e+00   2.4249038e+00  -4.3169189e+05
   1.2754251e-09  -7.0224624e-05   2.4382350e+00   2.4249475e+00  -4.2907010e+05
   1.2764255e-09  -6.9797212e-05   2.4381977e+00   2.4249910e+00  -4.2646417e+05
   1.2774258e-09  -6.9372396e-05   2.4381605e+00   2.4250343e+00  -4.2387402e+05
   1.2784261e-09  -6.8950159e-05   2.4381236e+00   2.4250773e+00  -4.2129955e+05
   1.2794265e-09  -6.8530487e-05   2.4380870e+00   2.4251200e+00  -4.1874065e+05
   1.2804268e-09  -6.8113363e-05   2.4380505e+00   2.4251624e+00  -4.1619725e+05
   1.2814271e-09  -6.7698773e-05   2.4380143e+00   2.4252046e+00  -4.1366924e+05
   1.2824275e-09  -6.7286700e-05   2.4379783e+00   2.4252466e+00  -4.1115654e+05
   1.2834278e-09  -6.6877131e-05   2.4379425e+00   2.4252883e+00  -4.0865904e+05
   1.2844281e-09  -6.6470048e-05   2.4379069e+00   2.4253297e+00  -4.0617666e+05
   1.2854285e-09  -6.6065438e-05   2.4378716e+00   2.4253709e+00  -4.0370931e+05
   1.2864288e-09  -6.5663285e-05   2.4378364e+00   2.4254118e+00  -4.0125690e+05
   1.2874291e-09  -6.5263575e-05   2.4378015e+00   2.4254525e+00  -3.9881933e+05
   1.2884295e-09  -6.4866293e-05   2.4377668e+00   2.4254930e+00  -3.9639652e+05
   1.2894298e-09  -6.4471424e-05   2.4377323e+00   2.4255332e+00  -3.9398838e+05
   1.2904301e-09  -6.4078953e-05   2.4376980e+00   2.4255731e+00  -3.9159482e+05
   1.2914305e-09  -6.3688866e-05   2.4376639e+00   2.4256128e+00  -3.8921576e+05
   1.2924308e-09  -6.3301149e-05   2.4376300e+00   2.4256523e+00  -3.8685109e+05
   1.2934311e-09  -6.2915787e-05   2.4375963e+00   2.4256915e+00  -3.8450075e+05
   1.2944315e-09  -6.2532766e-05   2.4375629e+00   2.4257305e+00  -3.8216463e+05
   1.2954318e-09  -6.2152071e-05   2.4375296e+00   2.4257693e+00  -3.7984266e+05
   1.2964321e-09  -6.1773689e-05   2.4374966e+00   2.4258078e+00  -3.7753476e+05
   1.2974325e-09  -6.1397605e-05   2.4374637e+00   2.4258461e+00  -3.7524082e+05
   1.2984328e-09  -6.1023807e-05   2.4374310e+00   2.4258841e+00  -3.7296078e+05
   1.2994331e-09  -6.0652279e-05   2.4373986e+00   2.4259220e+00  -3.7069455e+05
   1.3004335e-09  -6.0283008e-05   2.4373663e+00   2.4259596e+00  -3.6844204e+05
   1.3014338e-09  -5.9915980e-05   2.4373342e+00   2.4259969e+00  -3.6620317e+05
   1.3024341e-09  -5.9551183e-05   2.4373024e+00   2.4260341e+00  -3.6397786e+05
   1.3034345e-09  -5.9188601e-05   2.4372707e+00   2.4260710e+00  -3.6176603e+05
   1.3044348e-09  -5.8828223e-05   2.4372392e+00   2.4261077e+00  -3.5956760e+05
   1.3054351e-09  -5.8470034e-05   2.4372079e+00   2.4261441e+00  -3.5738248e+05
   1.3064355e-09  -5.8114021e-05   2.4371768e+00   2.4261804e+00  -3.5521060e+05
   1.3074358e-09  -5.7760172e-05   2.4371459e+00   2.4262164e+00  -3.5305187e+05
   1.3084361e-09  -5.7408472e-05   2.4371151e+00   2.4262522e+00  -3.5090621e+05
   1.3094365e-09  -5.7058909e-05   2.4370846e+00   2.4262878e+00  -3.4877356e+05
   1.3104368e-09  -5.6711471e-05   2.4370542e+00   2.4263232e+00  -3.4665382e+05
   1.3114371e-09  -5.6366143e-05   2.4370241e+00   2.4263583e+00  -3.4454693e+05
   1.3124375e-09  -5.6022914e-05   2.4369941e+00   2.4263933e+00  -3.4245280e+05
   1.3134378e-09  -5.5681771e-05   2.4369643e+00   2.4264280e+00  -3.4037135e+05
   1.3144381e-09  -5.5342700e-05   2.4369346e+00   2.4264625e+00  -3.3830251e+05
   1.3154385e-09  -5.5005690e-05   2.4369052e+00   2.4264968e+00  -3.3624621e+05
   1.3164388e-09  -5.4670728e-05   2.4368759e+00   2.4265310e+00  -3.3420237e+05
   1.3174391e-09  -5.4337801e-05   2.4368468e+00   2.4265649e+00  -3.3217091e+05
   1.3184395e-09  -5.4006898e-05   2.4368179e+00   2.4265985e+00  -3.3015176e+05
   1.3194398e-09  -5.3678005e-05   2.4367892e+00   2.4266320e+00  -3.2814484e+05
   1.3204401e-09  -5.3351112e-05   2.4367606e+00   2.4266653e+00  -3.2615008e+05
   1.3214405e-09  -5.3026204e-05   2.4367322e+00   2.4266984e+00  -3.2416741e+05
   1.3224408e-09  -5.2703272e-05   2.4367040e+00   2.4267313e+00  -3.2219675e+05
   1.3234411e-09  -5.2382302e-05   2.4366760e+00   2.4267640e+00  -3.2023804e+05
   1.3244415e-09  -5.2063283e-05   2.4366481e+00   2.4267964e+00  -3.1829119e+05
   1.3254418e-09  -5.1746203e-05   2.4366204e+00   2.4268287e+00  -3.1635615e+05
   1.3264421e-09  -5.1431050e-05   2.4365929e+00   2.4268608e+00  -3.1443282e+05
   1.3274425e-09  -5.1117812e-05   2.4365655e+00   2.4268927e+00  -3.1252116e+05
   1.3284428e-09  -5.0806479e-05   2.4365383e+00   2.4269244e+00  -3.1062108e+05
   1.3294431e-09  -5.0497038e-05   2.4365112e+00   2.4269559e+00  -3.0873252e+05
   1.3304435e-09  -5.0189477e-05   2.4364844e+00   2.4269872e+00  -3.0685540e+05
   1.3314438e-09  -4.9883786e-05   2.4364577e+00   2.4270184e+00  -3.0498966e+05
   1.3324441e-09  -4.9579953e-05   2.4364311e+00   2.4270493e+00  -3.0313522e+05
   1.3334445e-09  -4.9277967e-05   2.4364047e+00   2.4270801e+00  -3.0129203e+05
   1.3344448e-09  -4.8977817e-05   2.4363785e+00   2.4271106e+00  -2.9946001e+05
   1.3354451e-09  -4.8679492e-05   2.4363524e+00   2.4271410e+00  -2.9763910e+05
   1.3364455e-09  -4.8382979e-05   2.4363265e+00   2.4271712e+00  -2.9582922e+05
   1.3374458e-09  -4.8088270e-05   2.4363008e+00   2.4272012e+00  -2.9403032e+05
   1.3384461e-09  -4.7795352e-05   2.4362752e+00   2.4272310e+00  -2.9224232e+05
   1.3394465e-09  -4.7504214e-05   2.4362498e+00   2.4272607e+00  -2.9046515e+05
   1.3404468e-09  -4.7214847e-05   2.4362245e+00   2.4272901e+00  -2.8869877e+05
   1.3414471e-09  -4.6927238e-05   2.4361993e+00   2.4273194e+00  -2.8694309e+05
   1.3424475e-09  -4.6641379e-05   2.4361744e+00   2.4273485e+00  -2.8519805e+05
   1.3434478e-09  -4.6357257e-05   2.4361495e+00   2.4273775e+00  -2.8346360e+05
   1.3444481e-09  -4.6074862e-05   2.4361249e+00   2.4274062e+00  -2.8173966e+05
   1.3454485e-09  -4.5794185e-05   2.4361003e+00   2.4274348e+00  -2.8002617e+05
   1.3464488e-09  -4.5515214e-05   2.4360760e+00   2.4274632e+00  -2.7832308e+05
   1.3474491e-09  -4.5237939e-05   2.4360518e+00   2.4274914e+00  -2.7663031e+05
   1.3484495e-09  -4.4962350e-05   2.4360277e+00   2.4275195e+00  -2.7494780e+05
   1.3494498e-09  -4.4688436e-05   2.4360037e+00   2.4275474e+00  -2.7327550e+05
   1.3504502e-09  -4.4416188e-05   2.4359800e+00   2.4275751e+00  -2.7161333e+05
   1.3514505e-09  -4.4145596e-05   2.4359563e+00   2.4276027e+00  -2.6996125e+05
   1.3524508e-09  -4.3876648e-05   2.4359328e+00   2.4276301e+00  -2.6831919e+05
   1.3534512e-09  -4.3609337e-05   2.4359095e+00   2.4276573e+00  -2.6668708e+05
   1.3544515e-09  -4.3343650e-05   2.4358862e+00   2.4276844e+00  -2.6506487e+05
   1.3554518e-09  -4.3079579e-05   2.4358632e+00   2.4277112e+00  -2.6345250e+05
   1.3564522e-09  -4.2817114e-05   2.4358402e+00   2.4277380e+00  -2.6184991e+05
   1.3574525e-09  -4.2556246e-05   2.4358175e+00   2.4277645e+00  -2.6025704e+05
   1.3584528e-09  -4.2296963e-05   2.4357948e+00   2.4277909e+00  -2.5867383e+05
   1.3594532e-09  -4.2039257e-05   2.4357723e+00   2.4278172e+00  -2.5710022e+05
   1.3604535e-09  -4.1783119e-05   2.4357499e+00   2.4278433e+00  -2.5553615e+05
   1.3614538e-09  -4.1528538e-05   2.4357277e+00   2.4278692e+00  -2.5398158e+05
   1.3624542e-09  -4.1275505e-05   2.4357056e+00   2.4278950e+00  -2.5243643e+05
   1.3634545e-09  -4.1024011e-05   2.4356836e+00   2.4279206e+00  -2.5090066e+05
   1.3644548e-09  -4.0774047e-05   2.4356618e+00   2.4279460e+00  -2.4937420e+05
   1.3654552e-09  -4.0525603e-05   2.4356400e+00   2.4279713e+00  -2.4785700e+05
   1.3664555e-09  -4.0278670e-05   2.4356185e+00   2.4279965e+00  -2.4634901e+05
   1.3674558e-09  -4.0033239e-05   2.4355970e+00   2.4280215e+00  -2.4485016e+05
   1.3684562e-09  -3.9789300e-05   2.4355757e+00   2.4280463e+00  -2.4336041e+05
   1.3694565e-09  -3.9546846e-05   2.4355545e+00   2.4280710e+00  -2.4187969e+05
   1.3704568e-09  -3.9305866e-05   2.4355335e+00   2.4280956e+00  -2.4040796e+05
   1.3714572e-09  -3.9066351e-05   2.4355126e+00   2.4281200e+00  -2.3894516e+05
   1.3724575e-09  -3.8828294e-05   2.4354918e+00   2.4281442e+00  -2.3749123e+05
   1.3734578e-09  -3.8591684e-05   2.4354711e+00   2.4281683e+00  -2.3604613e+05
   1.3744582e-09  -3.8356514e-05   2.4354505e+00   2.4281922e+00  -2.3460979e+05
   1.3754585e-09  -3.8122774e-05   2.4354301e+00   2.4282161e+00  -2.3318217e+05
   1.3764588e-09  -3.7890456e-05   2.4354098e+00   2.4282397e+00  -2.3176321e+05
   1.3774592e-09  -3.7659552e-05   2.4353897e+00   2.4282632e+00  -2.3035287e+05
   1.3784595e-09  -3.7430052e-05   2.4353696e+00   2.4282866e+00  -2.2895108e+05
   1.3794598e-09  -3.7201948e-05   2.4353497e+00   2.4283098e+00  -2.2755779e+05
   1.3804602e-09  -3.6975231e-05   2.4353299e+00   2.4283329e+00  -2.2617297e+05
   1.3814605e-09  -3.6749894e-05   2.4353102e+00   2.4283559e+00  -2.2479654e+05
   1.3824608e-09  -3.6525928e-05   2.4352906e+00   2.4283787e+00  -2.2342847e+05
   1.3834612e-09  -3.6303324e-05   2.4352712e+00   2.4284014e+00  -2.2206870e+05
   1.3844615e-09  -3.6082074e-05   2.4352518e+00   2.4284239e+00  -2.2071719e+05
   1.3854618e-09  -3.5862171e-05   2.4352326e+00   2.4284463e+00  -2.1937388e+05
   1.3864622e-09  -3.5643605e-05   2.4352135e+00   2.4284686e+00  -2.1803872e+05
   1.3874625e-09  -3.5426369e-05   2.4351946e+00   2.4284907e+00  -2.1671166e+05
   1.3884628e-09  -3.5210455e-05   2.4351757e+00   2.4285127e+00  -2.1539266e+05
   1.3894632e-09  -3.4995854e-05   2.4351569e+00   2.4285345e+00  -2.1408167e+05
   1.3904635e-09  -3.4782559e-05   2.4351383e+00   2.4285563e+00  -2.1277863e+05
   1.3914638e-09  -3.4570562e-05   2.4351198e+00   2.4285778e+00  -2.1148350e+05
   1.3924642e-09  -3.4359855e-05   2.4351014e+00   2.4285993e+00  -2.1019624e+05
   1.3934645e-09  -3.4150430e-05   2.4350831e+00   2.4286206e+00  -2.0891679e+05
   1.3944648e-09  -3.3942279e-05   2.4350649e+00   2.4286418e+00  -2.0764511e+05
   1.3954652e-09  -3.3735394e-05   2.4350468e+00   2.4286629e+00  -2.0638114e+05
   1.3964655e-09  -3.3529769e-05   2.4350289e+00   2.4286839e+00  -2.0512485e+05
   1.3974658e-09  -3.3325395e-05   2.4350110e+00   2.4287047e+00  -2.0387619e+05
   1.3984662e-09  -3.3122264e-05   2.4349933e+00   2.4287254e+00  -2.0263511e+05
   1.3994665e-09  -3.2920369e-05   2.4349756e+00   2.4287459e+00  -2.0140156e+05
   1.4004668e-09  -3.2719703e-05   2.4349581e+00   2.4287664e+00  -2.0017550e+05
   1.4014672e-09  -3.2520258e-05   2.4349407e+00   2.4287867e+00  -1.9895689e+05
   1.4024675e-09  -3.2322027e-05   2.4349234e+00   2.4288069e+00  -1.9774567e+05
   1.4034678e-09  -3.2125002e-05   2.4349061e+00   2.4288269e+00  -1.9654181e+05
   1.4044682e-09  -3.1929176e-05   2.4348890e+00   2.4288469e+00  -1.9534526e+05
   1.4054685e-09  -3.1734542e-05   2.4348720e+00   2.4288667e+00  -1.9415598e+05
   1.4064688e-09  -3.1541092e-05   2.4348551e+00   2.4288864e+00  -1.9297392e+05
   1.4074692e-09  -3.1348820e-05   2.4348383e+00   2.4289060e+00  -1.9179903e+05
   1.4084695e-09  -3.1157717e-05   2.4348216e+00   2.4289255e+00  -1.9063128e+05
   1.4094698e-09  -3.0967778e-05   2.4348050e+00   2.4289448e+00  -1.8947062e+05
   1.4104702e-09  -3.0778995e-05   2.4347886e+00   2.4289640e+00  -1.8831701e+05
   1.4114705e-09  -3.0591361e-05   2.4347722e+00   2.4289831e+00  -1.8717041e+05
   1.4124708e-09  -3.0404868e-05   2.4347559e+00   2.4290021e+00  -1.8603077e+05
   1.4134712e-09  -3.0219511e-05   2.4347397e+00   2.4290210e+00  -1.8489805e+05
   1.4144715e-09  -3.0035282e-05   2.4347236e+00   2.4290398e+00  -1.8377221e+05
   1.4154718e-09  -2.9852174e-05   2.4347076e+00   2.4290584e+00  -1.8265321e+05
   1.4164722e-09  -2.9670181e-05   2.4346917e+00   2.4290770e+00  -1.8154101e+05
   1.4174725e-09  -2.9489296e-05   2.4346759e+00   2.4290954e+00  -1.8043556e+05
   1.4184728e-09  -2.9309511e-05   2.4346602e+00   2.4291137e+00  -1.7933682e+05
   1.4194732e-09  -2.9130821e-05   2.4346446e+00   2.4291319e+00  -1.7824476e+05
   1.4204735e-09  -2.8953219e-05   2.4346291e+00   2.4291500e+00  -1.7715934e+05
   1.4214738e-09  -2.8776697e-05   2.4346136e+00   2.4291680e+00  -1.7608050e+05
   1.4224742e-09  -2.8601251e-05   2.4345983e+00   2.4291859e+00  -1.7500822e+05
   1.4234745e-09  -2.8426872e-05   2.4345831e+00   2.4292036e+00  -1.7394246e+05
   1.4244748e-09  -2.8253554e-05   2.4345679e+00   2.4292213e+00  -1.7288316e+05
   1.4254752e-09  -2.8081292e-05   2.4345529e+00   2.4292388e+00  -1.7183031e+05
   1.4264755e-09  -2.7910078e-05   2.4345379e+00   2.4292563e+00  -1.7078385e+05
   1.4274758e-09  -2.7739907e-05   2.4345231e+00   2.4292736e+00  -1.6974374e+05
   1.4284762e-09  -2.7570772e-05   2.4345083e+00   2.4292908e+00  -1.6870996e+05
   1.4294765e-09  -2.7402666e-05   2.4344936e+00   2.4293080e+00  -1.6768246e+05
   1.4304768e-09  -2.7235584e-05   2.4344790e+00   2.4293250e+00  -1.6666120e+05
   1.4314772e-09  -2.7069519e-05   2.4344645e+00   2.4293419e+00  -1.6564614e+05
   1.4324775e-09  -2.6904464e-05   2.4344501e+00   2.4293587e+00  -1.6463726e+05
   1.4334778e-09  -2.6740415e-05   2.4344357e+00   2.4293754e+00  -1.6363450e+05
   1.4344782e-09  -2.6577365e-05   2.4344215e+00   2.4293920e+00  -1.6263784e+05
   1.4354785e-09  -2.6415307e-05   2.4344073e+00   2.4294085e+00  -1.6164723e+05
   1.4364788e-09  -2.6254236e-05   2.4343933e+00   2.4294249e+00  -1.6066264e+05
   1.4374792e-09  -2.6094146e-05   2.4343793e+00   2.4294413e+00  -1.5968403e+05
   1.4384795e-09  -2.5935030e-05   2.4343654e+00   2.4294575e+00  -1.5871138e+05
   1.4394798e-09  -2.5776883e-05   2.4343516e+00   2.4294736e+00  -1.5774463e+05
   1.4404802e-09  -2.5619699e-05   2.4343378e+00   2.4294896e+00  -1.5678375e+05
   1.4414805e-09  -2.5463472e-05   2.4343242e+00   2.4295055e+00  -1.5582872e+05
   1.4424808e-09  -2.5308196e-05   2.4343106e+00   2.4295213e+00  -1.5487949e+05
   1.4434812e-09  -2.5153866e-05   2.4342971e+00   2.4295370e+00  -1.5393603e+05
   1.4444815e-09  -2.5000476e-05   2.4342838e+00   2.4295527e+00  -1.5299831e+05
   1.4454818e-09  -2.4848019e-05   2.4342704e+00   2.4295682e+00  -1.5206628e+05
   1.4464822e-09  -2.4696491e-05   2.4342572e+00   2.4295836e+00  -1.5113992e+05
   1.4474825e-09  -2.4545886e-05   2.4342440e+00   2.4295990e+00  -1.5021918e+05
   1.4484828e-09  -2.4396197e-05   2.4342310e+00   2.4296142e+00  -1.4930405e+05
   1.4494832e-09  -2.4247421e-05   2.4342180e+00   2.4296294e+00  -1.4839448e+05
   1.4504835e-09  -2.4099550e-05   2.4342050e+00   2.4296444e+00  -1.4749043e+05
   1.4514838e-09  -2.3952580e-05   2.4341922e+00   2.4296594e+00  -1.4659188e+05
   1.4524842e-09  -2.3806504e-05   2.4341794e+00   2.4296743e+00  -1.4569880e+05
   1.4534845e-09  -2.3661319e-05   2.4341668e+00   2.4296891e+00  -1.4481114e+05
   1.4544848e-09  -2.3517017e-05   2.4341542e+00   2.4297038e+00  -1.4392887e+05
   1.4554852e-09  -2.3373594e-05   2.4341416e+00   2.4297184e+00  -1.4305198e+05
   1.4564855e-09  -2.3231045e-05   2.4341292e+00   2.4297329e+00  -1.4218041e+05
   1.4574858e-09  -2.3089364e-05   2.4341168e+00   2.4297473e+00  -1.4131414e+05
   1.4584862e-09  -2.2948546e-05   2.4341045e+00   2.4297617e+00  -1.4045314e+05
   1.4594865e-09  -2.2808585e-05   2.4340923e+00   2.4297760e+00  -1.3959737e+05
   1.4604868e-09  -2.2669477e-05   2.4340801e+00   2.4297901e+00  -1.3874680e+05
   1.4614872e-09  -2.2531216e-05   2.4340680e+00   2.4298042e+00  -1.3790141e+05
   1.4624875e-09  -2.2393797e-05   2.4340560e+00   2.4298182e+00  -1.3706115e+05
