   0.0000000e+00  -1.1546459e-01   6.3962957e+00   8.0138215e-04  -5.2257073e+08
   6.6688896e-13  -1.1511640e-01   6.3963221e+00   8.2339533e-04  -5.2164869e+08
   1.3337779e-12  -1.1476883e-01   6.3963485e+00   8.4597273e-04  -5.2072666e+08
   2.0006669e-12  -1.1442187e-01   6.3963751e+00   8.6912761e-04  -5.1980464e+08
   2.6675559e-12  -1.1407553e-01   6.3964016e+00   8.9287355e-04  -5.1888263e+08
   3.3344448e-12  -1.1372980e-01   6.3964282e+00   9.1722438e-04  -5.1796064e+08
   4.0013338e-12  -1.1338468e-01   6.3964549e+00   9.4219425e-04  -5.1703865e+08
   4.6682227e-12  -1.1304018e-01   6.3964816e+00   9.6779758e-04  -5.1611669e+08
   5.3351117e-12  -1.1269630e-01   6.3965083e+00   9.9404910e-04  -5.1519473e+08
   6.0020007e-12  -1.1235303e-01   6.3965351e+00   1.0209639e-03  -5.1427279e+08
   6.6688896e-12  -1.1201037e-01   6.3965619e+00   1.0485572e-03  -5.1335086e+08
   7.3357786e-12  -1.1166833e-01   6.3965887e+00   1.0768447e-03  -5.1242894e+08
   8.0026676e-12  -1.1132690e-01   6.3966155e+00   1.1058425e-03  -5.1150704e+08
   8.6695565e-12  -1.1098609e-01   6.3966423e+00   1.1355669e-03  -5.1058515e+08
   9.3364455e-12  -1.1064590e-01   6.3966691e+00   1.1660344e-03  -5.0966328e+08
   1.0003334e-11  -1.1030631e-01   6.3966958e+00   1.1972621e-03  -5.0874142e+08
   1.0670223e-11  -1.0996735e-01   6.3967226e+00   1.2292672e-03  -5.0781957e+08
   1.1337112e-11  -1.0962900e-01   6.3967493e+00   1.2620676e-03  -5.0689774e+08
   1.2004001e-11  -1.0929126e-01   6.3967759e+00   1.2956812e-03  -5.0597593e+08
   1.2670890e-11  -1.0895414e-01   6.3968025e+00   1.3301264e-03  -5.0505413e+08
   1.3337779e-11  -1.0861763e-01   6.3968291e+00   1.3654219e-03  -5.0413234e+08
   1.4004668e-11  -1.0828173e-01   6.3968555e+00   1.4015870e-03  -5.0321058e+08
   1.4671557e-11  -1.0794646e-01   6.3968819e+00   1.4386412e-03  -5.0228882e+08
   1.5338446e-11  -1.0761179e-01   6.3969082e+00   1.4766042e-03  -5.0136709e+08
   1.6005335e-11  -1.0727774e-01   6.3969344e+00   1.5154966e-03  -5.0044537e+08
   1.6672224e-11  -1.0694431e-01   6.3969604e+00   1.5553389e-03  -4.9952367e+08
   1.7339113e-11  -1.0661149e-01   6.3969864e+00   1.5961523e-03  -4.9860199e+08
   1.8006002e-11  -1.0627929e-01   6.3970122e+00   1.6379583e-03  -4.9768032e+08
   1.8672891e-11  -1.0594770e-01   6.3970378e+00   1.6807788e-03  -4.9675867e+08
   1.9339780e-11  -1.0561672e-01   6.3970633e+00   1.7246362e-03  -4.9583704e+08
   2.0006669e-11  -1.0528636e-01   6.3970886e+00   1.7695534e-03  -4.9491543e+08
   2.0673558e-11  -1.0495661e-01   6.3971137e+00   1.8155535e-03  -4.9399384e+08
   2.1340447e-11  -1.0462748e-01   6.3971386e+00   1.8626602e-03  -4.9307227e+08
   2.2007336e-11  -1.0429896e-01   6.3971633e+00   1.9108978e-03  -4.9215071e+08
   2.2674225e-11  -1.0397106e-01   6.3971878e+00   1.9602907e-03  -4.9122918e+08
   2.3341114e-11  -1.0364377e-01   6.3972120e+00   2.0108641e-03  -4.9030766e+08
   2.4008003e-11  -1.0331710e-01   6.3972360e+00   2.0626435e-03  -4.8938617e+08
   2.4674892e-11  -1.0299104e-01   6.3972597e+00   2.1156550e-03  -4.8846470e+08
   2.5341781e-11  -1.0266560e-01   6.3972831e+00   2.1699250e-03  -4.8754325e+08
   2.6008670e-11  -1.0234077e-01   6.3973062e+00   2.2254806e-03  -4.8662182e+08
   2.6675559e-11  -1.0201655e-01   6.3973290e+00   2.2823494e-03  -4.8570041e+08
   2.7342447e-11  -1.0169295e-01   6.3973514e+00   2.3405593e-03  -4.8477903e+08
   2.8009336e-11  -1.0136996e-01   6.3973735e+00   2.4001389e-03  -4.8385766e+08
   2.8676225e-11  -1.0104759e-01   6.3973952e+00   2.4611173e-03  -4.8293633e+08
   2.9343114e-11  -1.0072583e-01   6.3974166e+00   2.5235241e-03  -4.8201501e+08
   3.0010003e-11  -1.0040469e-01   6.3974375e+00   2.5873895e-03  -4.8109372e+08
   3.0676892e-11  -1.0008416e-01   6.3974580e+00   2.6527442e-03  -4.8017245e+08
   3.1343781e-11  -9.9764246e-02   6.3974780e+00   2.7196195e-03  -4.7925121e+08
   3.2010670e-11  -9.9444945e-02   6.3974976e+00   2.7880472e-03  -4.7832999e+08
   3.2677559e-11  -9.9126260e-02   6.3975168e+00   2.8580597e-03  -4.7740880e+08
   3.3344448e-11  -9.8808188e-02   6.3975354e+00   2.9296901e-03  -4.7648764e+08
   3.4011337e-11  -9.8490731e-02   6.3975535e+00   3.0029720e-03  -4.7556650e+08
   3.4678226e-11  -9.8173888e-02   6.3975710e+00   3.0779395e-03  -4.7464539e+08
   3.5345115e-11  -9.7857659e-02   6.3975880e+00   3.1546274e-03  -4.7372431e+08
   3.6012004e-11  -9.7542045e-02   6.3976044e+00   3.2330712e-03  -4.7280325e+08
   3.6678893e-11  -9.7227045e-02   6.3976202e+00   3.3133069e-03  -4.7188222e+08
   3.7345782e-11  -9.6912659e-02   6.3976353e+00   3.3953713e-03  -4.7096123e+08
   3.8012671e-11  -9.6598887e-02   6.3976498e+00   3.4793015e-03  -4.7004026e+08
   3.8679560e-11  -9.6285730e-02   6.3976636e+00   3.5651357e-03  -4.6911932e+08
   3.9346449e-11  -9.5973186e-02   6.3976767e+00   3.6529124e-03  -4.6819841e+08
   4.0013338e-11  -9.5661257e-02   6.3976891e+00   3.7426709e-03  -4.6727754e+08
   4.0680227e-11  -9.5349942e-02   6.3977007e+00   3.8344513e-03  -4.6635669e+08
   4.1347116e-11  -9.5039241e-02   6.3977115e+00   3.9282942e-03  -4.6543588e+08
   4.2014005e-11  -9.4729154e-02   6.3977215e+00   4.0242409e-03  -4.6451510e+08
   4.2680894e-11  -9.4419681e-02   6.3977307e+00   4.1223336e-03  -4.6359436e+08
   4.3347783e-11  -9.4110822e-02   6.3977391e+00   4.2226150e-03  -4.6267365e+08
   4.4014672e-11  -9.3802577e-02   6.3977465e+00   4.3251286e-03  -4.6175297e+08
   4.4681561e-11  -9.3494947e-02   6.3977530e+00   4.4299187e-03  -4.6083233e+08
   4.5348449e-11  -9.3187930e-02   6.3977586e+00   4.5370302e-03  -4.5991173e+08
   4.6015338e-11  -9.2881527e-02   6.3977631e+00   4.6465089e-03  -4.5899116e+08
   4.6682227e-11  -9.2575738e-02   6.3977667e+00   4.7584012e-03  -4.5807063e+08
   4.7349116e-11  -9.2270562e-02   6.3977692e+00   4.8727545e-03  -4.5715013e+08
   4.8016005e-11  -9.1966001e-02   6.3977707e+00   4.9896167e-03  -4.5622968e+08
   4.8682894e-11  -9.1662053e-02   6.3977710e+00   5.1090366e-03  -4.5530927e+08
   4.9349783e-11  -9.1358720e-02   6.3977702e+00   5.2310639e-03  -4.5438889e+08
   5.0016672e-11  -9.1056000e-02   6.3977682e+00   5.3557490e-03  -4.5346856e+08
   5.0683561e-11  -9.0753894e-02   6.3977651e+00   5.4831431e-03  -4.5254826e+08
   5.1350450e-11  -9.0452401e-02   6.3977606e+00   5.6132983e-03  -4.5162801e+08
   5.2017339e-11  -9.0151522e-02   6.3977549e+00   5.7462674e-03  -4.5070781e+08
   5.2684228e-11  -8.9851257e-02   6.3977479e+00   5.8821043e-03  -4.4978764e+08
   5.3351117e-11  -8.9551606e-02   6.3977395e+00   6.0208634e-03  -4.4886753e+08
   5.4018006e-11  -8.9252568e-02   6.3977298e+00   6.1626003e-03  -4.4794745e+08
   5.4684895e-11  -8.8954144e-02   6.3977186e+00   6.3073712e-03  -4.4702743e+08
   5.5351784e-11  -8.8656333e-02   6.3977059e+00   6.4552334e-03  -4.4610745e+08
   5.6018673e-11  -8.8359136e-02   6.3976918e+00   6.6062449e-03  -4.4518751e+08
   5.6685562e-11  -8.8062552e-02   6.3976760e+00   6.7604648e-03  -4.4426763e+08
   5.7352451e-11  -8.7766582e-02   6.3976587e+00   6.9179529e-03  -4.4334780e+08
   5.8019340e-11  -8.7471225e-02   6.3976398e+00   7.0787701e-03  -4.4242801e+08
   5.8686229e-11  -8.7176482e-02   6.3976192e+00   7.2429780e-03  -4.4150828e+08
   5.9353118e-11  -8.6882351e-02   6.3975968e+00   7.4106394e-03  -4.4058860e+08
   6.0020007e-11  -8.6588835e-02   6.3975727e+00   7.5818180e-03  -4.3966898e+08
   6.0686896e-11  -8.6295931e-02   6.3975468e+00   7.7565782e-03  -4.3874940e+08
   6.1353785e-11  -8.6003641e-02   6.3975191e+00   7.9349857e-03  -4.3782989e+08
   6.2020674e-11  -8.5711964e-02   6.3974894e+00   8.1171070e-03  -4.3691043e+08
   6.2687563e-11  -8.5420900e-02   6.3974578e+00   8.3030095e-03  -4.3599102e+08
   6.3354451e-11  -8.5130449e-02   6.3974242e+00   8.4927618e-03  -4.3507168e+08
   6.4021340e-11  -8.4840611e-02   6.3973886e+00   8.6864335e-03  -4.3415239e+08
   6.4688229e-11  -8.4551387e-02   6.3973509e+00   8.8840949e-03  -4.3323317e+08
   6.5355118e-11  -8.4262775e-02   6.3973110e+00   9.0858177e-03  -4.3231400e+08
   6.6022007e-11  -8.3974776e-02   6.3972689e+00   9.2916745e-03  -4.3139490e+08
   6.6688896e-11  -8.3687391e-02   6.3972246e+00   9.5017388e-03  -4.3047586e+08
   6.7355785e-11  -8.3400618e-02   6.3971779e+00   9.7160853e-03  -4.2955689e+08
   6.8022674e-11  -8.3114458e-02   6.3971289e+00   9.9347897e-03  -4.2863798e+08
   6.8689563e-11  -8.2828911e-02   6.3970775e+00   1.0157929e-02  -4.2771914e+08
   6.9356452e-11  -8.2543976e-02   6.3970237e+00   1.0385581e-02  -4.2680037e+08
   7.0023341e-11  -8.2259654e-02   6.3969673e+00   1.0617824e-02  -4.2588166e+08
   7.0690230e-11  -8.1975945e-02   6.3969083e+00   1.0854739e-02  -4.2496303e+08
   7.1357119e-11  -8.1692849e-02   6.3968467e+00   1.1096406e-02  -4.2404447e+08
   7.2024008e-11  -8.1410365e-02   6.3967824e+00   1.1342908e-02  -4.2312598e+08
   7.2690897e-11  -8.1128493e-02   6.3967153e+00   1.1594329e-02  -4.2220757e+08
   7.3357786e-11  -8.0847234e-02   6.3966454e+00   1.1850753e-02  -4.2128923e+08
   7.4024675e-11  -8.0566588e-02   6.3965727e+00   1.2112265e-02  -4.2037097e+08
   7.4691564e-11  -8.0286554e-02   6.3964970e+00   1.2378952e-02  -4.1945279e+08
   7.5358453e-11  -8.0007132e-02   6.3964182e+00   1.2650903e-02  -4.1853468e+08
   7.6025342e-11  -7.9728322e-02   6.3963364e+00   1.2928205e-02  -4.1761666e+08
   7.6692231e-11  -7.9450125e-02   6.3962515e+00   1.3210951e-02  -4.1669872e+08
   7.7359120e-11  -7.9172539e-02   6.3961633e+00   1.3499230e-02  -4.1578087e+08
   7.8026009e-11  -7.8895566e-02   6.3960719e+00   1.3793135e-02  -4.1486310e+08
   7.8692898e-11  -7.8619205e-02   6.3959772e+00   1.4092761e-02  -4.1394541e+08
   7.9359787e-11  -7.8343456e-02   6.3958790e+00   1.4398203e-02  -4.1302782e+08
   8.0026676e-11  -7.8068319e-02   6.3957773e+00   1.4709556e-02  -4.1211032e+08
   8.0693565e-11  -7.7793793e-02   6.3956721e+00   1.5026918e-02  -4.1119290e+08
   8.1360453e-11  -7.7519880e-02   6.3955632e+00   1.5350388e-02  -4.1027558e+08
   8.2027342e-11  -7.7246578e-02   6.3954507e+00   1.5680065e-02  -4.0935836e+08
   8.2694231e-11  -7.6973887e-02   6.3953344e+00   1.6016051e-02  -4.0844123e+08
   8.3361120e-11  -7.6701809e-02   6.3952142e+00   1.6358447e-02  -4.0752420e+08
   8.4028009e-11  -7.6430342e-02   6.3950901e+00   1.6707359e-02  -4.0660727e+08
   8.4694898e-11  -7.6159486e-02   6.3949619e+00   1.7062889e-02  -4.0569044e+08
   8.5361787e-11  -7.5889242e-02   6.3948297e+00   1.7425146e-02  -4.0477371e+08
   8.6028676e-11  -7.5619609e-02   6.3946934e+00   1.7794235e-02  -4.0385709e+08
   8.6695565e-11  -7.5350587e-02   6.3945527e+00   1.8170265e-02  -4.0294057e+08
   8.7362454e-11  -7.5082177e-02   6.3944078e+00   1.8553347e-02  -4.0202417e+08
   8.8029343e-11  -7.4814377e-02   6.3942584e+00   1.8943591e-02  -4.0110787e+08
   8.8696232e-11  -7.4547189e-02   6.3941045e+00   1.9341110e-02  -4.0019168e+08
   8.9363121e-11  -7.4280612e-02   6.3939461e+00   1.9746018e-02  -3.9927561e+08
   9.0030010e-11  -7.4014645e-02   6.3937830e+00   2.0158430e-02  -3.9835966e+08
   9.0696899e-11  -7.3749290e-02   6.3936151e+00   2.0578462e-02  -3.9744382e+08
   9.1363788e-11  -7.3484545e-02   6.3934424e+00   2.1006231e-02  -3.9652810e+08
   9.2030677e-11  -7.3220411e-02   6.3932647e+00   2.1441858e-02  -3.9561251e+08
   9.2697566e-11  -7.2956887e-02   6.3930820e+00   2.1885461e-02  -3.9469704e+08
   9.3364455e-11  -7.2693974e-02   6.3928942e+00   2.2337163e-02  -3.9378169e+08
   9.4031344e-11  -7.2431671e-02   6.3927012e+00   2.2797086e-02  -3.9286647e+08
   9.4698233e-11  -7.2169979e-02   6.3925029e+00   2.3265354e-02  -3.9195139e+08
   9.5365122e-11  -7.1908896e-02   6.3922992e+00   2.3742094e-02  -3.9103643e+08
   9.6032011e-11  -7.1648424e-02   6.3920900e+00   2.4227432e-02  -3.9012161e+08
   9.6698900e-11  -7.1388562e-02   6.3918752e+00   2.4721495e-02  -3.8920693e+08
   9.7365789e-11  -7.1129310e-02   6.3916547e+00   2.5224415e-02  -3.8829238e+08
   9.8032678e-11  -7.0870668e-02   6.3914284e+00   2.5736320e-02  -3.8737798e+08
   9.8699567e-11  -7.0612635e-02   6.3911962e+00   2.6257344e-02  -3.8646372e+08
   9.9366455e-11  -7.0355213e-02   6.3909580e+00   2.6787620e-02  -3.8554960e+08
   1.0003334e-10  -7.0098400e-02   6.3907138e+00   2.7327283e-02  -3.8463563e+08
   1.0070023e-10  -6.9842196e-02   6.3904633e+00   2.7876468e-02  -3.8372182e+08
   1.0136712e-10  -6.9586601e-02   6.3902065e+00   2.8435314e-02  -3.8280816e+08
   1.0203401e-10  -6.9331616e-02   6.3899433e+00   2.9003959e-02  -3.8189465e+08
   1.0270090e-10  -6.9077241e-02   6.3896736e+00   2.9582543e-02  -3.8098130e+08
   1.0336779e-10  -6.8823474e-02   6.3893973e+00   3.0171207e-02  -3.8006811e+08
   1.0403468e-10  -6.8570316e-02   6.3891142e+00   3.0770095e-02  -3.7915508e+08
   1.0470157e-10  -6.8317767e-02   6.3888242e+00   3.1379350e-02  -3.7824222e+08
   1.0536846e-10  -6.8065826e-02   6.3885274e+00   3.1999117e-02  -3.7732953e+08
   1.0603535e-10  -6.7814495e-02   6.3882234e+00   3.2629544e-02  -3.7641701e+08
   1.0670223e-10  -6.7563772e-02   6.3879122e+00   3.3270778e-02  -3.7550466e+08
   1.0736912e-10  -6.7313657e-02   6.3875938e+00   3.3922969e-02  -3.7459249e+08
   1.0803601e-10  -6.7064150e-02   6.3872679e+00   3.4586267e-02  -3.7368050e+08
   1.0870290e-10  -6.6815252e-02   6.3869344e+00   3.5260824e-02  -3.7276869e+08
   1.0936979e-10  -6.6566962e-02   6.3865934e+00   3.5946794e-02  -3.7185706e+08
   1.1003668e-10  -6.6319279e-02   6.3862445e+00   3.6644330e-02  -3.7094562e+08
   1.1070357e-10  -6.6072205e-02   6.3858877e+00   3.7353589e-02  -3.7003438e+08
   1.1137046e-10  -6.5825738e-02   6.3855230e+00   3.8074727e-02  -3.6912333e+08
   1.1203735e-10  -6.5579878e-02   6.3851500e+00   3.8807903e-02  -3.6821247e+08
   1.1270423e-10  -6.5334626e-02   6.3847688e+00   3.9553276e-02  -3.6730181e+08
   1.1337112e-10  -6.5089981e-02   6.3843793e+00   4.0311008e-02  -3.6639136e+08
   1.1403801e-10  -6.4845943e-02   6.3839812e+00   4.1081259e-02  -3.6548111e+08
   1.1470490e-10  -6.4602513e-02   6.3835744e+00   4.1864195e-02  -3.6457107e+08
   1.1537179e-10  -6.4359689e-02   6.3831589e+00   4.2659978e-02  -3.6366124e+08
   1.1603868e-10  -6.4117472e-02   6.3827344e+00   4.3468775e-02  -3.6275163e+08
   1.1670557e-10  -6.3875861e-02   6.3823010e+00   4.4290753e-02  -3.6184224e+08
   1.1737246e-10  -6.3634857e-02   6.3818583e+00   4.5126079e-02  -3.6093307e+08
   1.1803935e-10  -6.3394459e-02   6.3814064e+00   4.5974924e-02  -3.6002412e+08
   1.1870624e-10  -6.3154667e-02   6.3809450e+00   4.6837457e-02  -3.5911540e+08
   1.1937312e-10  -6.2915481e-02   6.3804741e+00   4.7713850e-02  -3.5820692e+08
   1.2004001e-10  -6.2676901e-02   6.3799934e+00   4.8604277e-02  -3.5729867e+08
   1.2070690e-10  -6.2438926e-02   6.3795029e+00   4.9508910e-02  -3.5639066e+08
   1.2137379e-10  -6.2201557e-02   6.3790025e+00   5.0427926e-02  -3.5548289e+08
   1.2204068e-10  -6.1964793e-02   6.3784919e+00   5.1361500e-02  -3.5457537e+08
   1.2270757e-10  -6.1728635e-02   6.3779710e+00   5.2309809e-02  -3.5366810e+08
   1.2337446e-10  -6.1493081e-02   6.3774398e+00   5.3273032e-02  -3.5276108e+08
   1.2404135e-10  -6.1258133e-02   6.3768980e+00   5.4251349e-02  -3.5185432e+08
   1.2470824e-10  -6.1023788e-02   6.3763455e+00   5.5244939e-02  -3.5094782e+08
   1.2537513e-10  -6.0790049e-02   6.3757822e+00   5.6253984e-02  -3.5004158e+08
   1.2604201e-10  -6.0556913e-02   6.3752079e+00   5.7278667e-02  -3.4913561e+08
   1.2670890e-10  -6.0324382e-02   6.3746225e+00   5.8319171e-02  -3.4822992e+08
   1.2737579e-10  -6.0092455e-02   6.3740258e+00   5.9375680e-02  -3.4732450e+08
   1.2804268e-10  -5.9861131e-02   6.3734177e+00   6.0448381e-02  -3.4641936e+08
   1.2870957e-10  -5.9630411e-02   6.3727981e+00   6.1537459e-02  -3.4551451e+08
   1.2937646e-10  -5.9400294e-02   6.3721668e+00   6.2643102e-02  -3.4460994e+08
   1.3004335e-10  -5.9170781e-02   6.3715235e+00   6.3765497e-02  -3.4370567e+08
   1.3071024e-10  -5.8941870e-02   6.3708683e+00   6.4904834e-02  -3.4280169e+08
   1.3137713e-10  -5.8713562e-02   6.3702009e+00   6.6061304e-02  -3.4189802e+08
   1.3204401e-10  -5.8485857e-02   6.3695212e+00   6.7235095e-02  -3.4099465e+08
   1.3271090e-10  -5.8258754e-02   6.3688291e+00   6.8426401e-02  -3.4009159e+08
   1.3337779e-10  -5.8032253e-02   6.3681243e+00   6.9635413e-02  -3.3918884e+08
   1.3404468e-10  -5.7806354e-02   6.3674067e+00   7.0862324e-02  -3.3828641e+08
   1.3471157e-10  -5.7581057e-02   6.3666762e+00   7.2107329e-02  -3.3738430e+08
   1.3537846e-10  -5.7356362e-02   6.3659326e+00   7.3370622e-02  -3.3648252e+08
   1.3604535e-10  -5.7132267e-02   6.3651758e+00   7.4652397e-02  -3.3558107e+08
   1.3671224e-10  -5.6908774e-02   6.3644056e+00   7.5952852e-02  -3.3467996e+08
   1.3737913e-10  -5.6685882e-02   6.3636218e+00   7.7272181e-02  -3.3377919e+08
   1.3804602e-10  -5.6463590e-02   6.3628242e+00   7.8610584e-02  -3.3287876e+08
   1.3871290e-10  -5.6241899e-02   6.3620129e+00   7.9968256e-02  -3.3197868e+08
   1.3937979e-10  -5.6020808e-02   6.3611874e+00   8.1345396e-02  -3.3107895e+08
   1.4004668e-10  -5.5800316e-02   6.3603478e+00   8.2742204e-02  -3.3017959e+08
   1.4071357e-10  -5.5580425e-02   6.3594938e+00   8.4158878e-02  -3.2928059e+08
   1.4138046e-10  -5.5361132e-02   6.3586253e+00   8.5595618e-02  -3.2838195e+08
   1.4204735e-10  -5.5142439e-02   6.3577421e+00   8.7052624e-02  -3.2748370e+08
   1.4271424e-10  -5.4924345e-02   6.3568441e+00   8.8530097e-02  -3.2658581e+08
   1.4338113e-10  -5.4706850e-02   6.3559310e+00   9.0028237e-02  -3.2568832e+08
   1.4404802e-10  -5.4489953e-02   6.3550028e+00   9.1547246e-02  -3.2479121e+08
   1.4471490e-10  -5.4273654e-02   6.3540593e+00   9.3087324e-02  -3.2389449e+08
   1.4538179e-10  -5.4057953e-02   6.3531002e+00   9.4648675e-02  -3.2299818e+08
   1.4604868e-10  -5.3842849e-02   6.3521255e+00   9.6231499e-02  -3.2210227e+08
   1.4671557e-10  -5.3628343e-02   6.3511350e+00   9.7835999e-02  -3.2120676e+08
   1.4738246e-10  -5.3414435e-02   6.3501284e+00   9.9462377e-02  -3.2031168e+08
   1.4804935e-10  -5.3201122e-02   6.3491057e+00   1.0111084e-01  -3.1941701e+08
   1.4871624e-10  -5.2988407e-02   6.3480667e+00   1.0278158e-01  -3.1852276e+08
   1.4938313e-10  -5.2776287e-02   6.3470112e+00   1.0447481e-01  -3.1762895e+08
   1.5005002e-10  -5.2564764e-02   6.3459391e+00   1.0619072e-01  -3.1673557e+08
   1.5071691e-10  -5.2353836e-02   6.3448501e+00   1.0792953e-01  -3.1584264e+08
   1.5138379e-10  -5.2143504e-02   6.3437441e+00   1.0969143e-01  -3.1495015e+08
   1.5205068e-10  -5.1933766e-02   6.3426210e+00   1.1147662e-01  -3.1405811e+08
   1.5271757e-10  -5.1724624e-02   6.3414806e+00   1.1328531e-01  -3.1316653e+08
   1.5338446e-10  -5.1516075e-02   6.3403227e+00   1.1511771e-01  -3.1227542e+08
   1.5405135e-10  -5.1308121e-02   6.3391471e+00   1.1697400e-01  -3.1138477e+08
   1.5471824e-10  -5.1100761e-02   6.3379537e+00   1.1885439e-01  -3.1049460e+08
   1.5538513e-10  -5.0893994e-02   6.3367424e+00   1.2075909e-01  -3.0960491e+08
   1.5605202e-10  -5.0687821e-02   6.3355128e+00   1.2268830e-01  -3.0871571e+08
   1.5671891e-10  -5.0482240e-02   6.3342650e+00   1.2464221e-01  -3.0782700e+08
   1.5738580e-10  -5.0277252e-02   6.3329987e+00   1.2662102e-01  -3.0693879e+08
   1.5805268e-10  -5.0072856e-02   6.3317138e+00   1.2862494e-01  -3.0605108e+08
   1.5871957e-10  -4.9869052e-02   6.3304100e+00   1.3065416e-01  -3.0516389e+08
   1.5938646e-10  -4.9665839e-02   6.3290873e+00   1.3270889e-01  -3.0427721e+08
   1.6005335e-10  -4.9463217e-02   6.3277454e+00   1.3478931e-01  -3.0339105e+08
   1.6072024e-10  -4.9261187e-02   6.3263843e+00   1.3689563e-01  -3.0250542e+08
   1.6138713e-10  -4.9059746e-02   6.3250036e+00   1.3902804e-01  -3.0162033e+08
   1.6205402e-10  -4.8858896e-02   6.3236034e+00   1.4118674e-01  -3.0073578e+08
   1.6272091e-10  -4.8658635e-02   6.3221833e+00   1.4337192e-01  -2.9985178e+08
   1.6338780e-10  -4.8458964e-02   6.3207433e+00   1.4558378e-01  -2.9896833e+08
   1.6405468e-10  -4.8259882e-02   6.3192832e+00   1.4782252e-01  -2.9808544e+08
   1.6472157e-10  -4.8061389e-02   6.3178028e+00   1.5008831e-01  -2.9720312e+08
   1.6538846e-10  -4.7863483e-02   6.3163020e+00   1.5238135e-01  -2.9632137e+08
   1.6605535e-10  -4.7666166e-02   6.3147805e+00   1.5470184e-01  -2.9544020e+08
   1.6672224e-10  -4.7469436e-02   6.3132384e+00   1.5704996e-01  -2.9455962e+08
   1.6738913e-10  -4.7273293e-02   6.3116753e+00   1.5942590e-01  -2.9367963e+08
   1.6805602e-10  -4.7077737e-02   6.3100911e+00   1.6182985e-01  -2.9280024e+08
   1.6872291e-10  -4.6882766e-02   6.3084857e+00   1.6426199e-01  -2.9192146e+08
   1.6938980e-10  -4.6688382e-02   6.3068590e+00   1.6672250e-01  -2.9104329e+08
   1.7005669e-10  -4.6494584e-02   6.3052107e+00   1.6921158e-01  -2.9016574e+08
   1.7072357e-10  -4.6301370e-02   6.3035407e+00   1.7172939e-01  -2.8928881e+08
   1.7139046e-10  -4.6108741e-02   6.3018489e+00   1.7427612e-01  -2.8841252e+08
   1.7205735e-10  -4.5916696e-02   6.3001350e+00   1.7685195e-01  -2.8753687e+08
   1.7272424e-10  -4.5725235e-02   6.2983991e+00   1.7945706e-01  -2.8666187e+08
   1.7339113e-10  -4.5534357e-02   6.2966408e+00   1.8209161e-01  -2.8578752e+08
   1.7405802e-10  -4.5344062e-02   6.2948601e+00   1.8475579e-01  -2.8491383e+08
   1.7472491e-10  -4.5154349e-02   6.2930568e+00   1.8744977e-01  -2.8404081e+08
   1.7539180e-10  -4.4965219e-02   6.2912307e+00   1.9017371e-01  -2.8316846e+08
   1.7605869e-10  -4.4776670e-02   6.2893818e+00   1.9292779e-01  -2.8229680e+08
   1.7672558e-10  -4.4588702e-02   6.2875099e+00   1.9571216e-01  -2.8142582e+08
   1.7739246e-10  -4.4401314e-02   6.2856148e+00   1.9852701e-01  -2.8055555e+08
   1.7805935e-10  -4.4214507e-02   6.2836963e+00   2.0137248e-01  -2.7968597e+08
   1.7872624e-10  -4.4028280e-02   6.2817545e+00   2.0424874e-01  -2.7881711e+08
   1.7939313e-10  -4.3842631e-02   6.2797890e+00   2.0715594e-01  -2.7794896e+08
   1.8006002e-10  -4.3657562e-02   6.2777998e+00   2.1009426e-01  -2.7708154e+08
   1.8072691e-10  -4.3473070e-02   6.2757868e+00   2.1306383e-01  -2.7621485e+08
   1.8139380e-10  -4.3289157e-02   6.2737498e+00   2.1606481e-01  -2.7534891e+08
   1.8206069e-10  -4.3105820e-02   6.2716887e+00   2.1909735e-01  -2.7448371e+08
   1.8272758e-10  -4.2923061e-02   6.2696033e+00   2.2216160e-01  -2.7361926e+08
   1.8339446e-10  -4.2740877e-02   6.2674935e+00   2.2525771e-01  -2.7275558e+08
   1.8406135e-10  -4.2559269e-02   6.2653592e+00   2.2838581e-01  -2.7189267e+08
   1.8472824e-10  -4.2378237e-02   6.2632003e+00   2.3154605e-01  -2.7103053e+08
   1.8539513e-10  -4.2197779e-02   6.2610166e+00   2.3473857e-01  -2.7016918e+08
   1.8606202e-10  -4.2017896e-02   6.2588081e+00   2.3796350e-01  -2.6930862e+08
   1.8672891e-10  -4.1838586e-02   6.2565746e+00   2.4122097e-01  -2.6844887e+08
   1.8739580e-10  -4.1659849e-02   6.2543160e+00   2.4451111e-01  -2.6758992e+08
   1.8806269e-10  -4.1481684e-02   6.2520321e+00   2.4783406e-01  -2.6673179e+08
   1.8872958e-10  -4.1304092e-02   6.2497229e+00   2.5118994e-01  -2.6587448e+08
   1.8939647e-10  -4.1127071e-02   6.2473883e+00   2.5457886e-01  -2.6501800e+08
   1.9006335e-10  -4.0950621e-02   6.2450281e+00   2.5800095e-01  -2.6416236e+08
   1.9073024e-10  -4.0774741e-02   6.2426422e+00   2.6145632e-01  -2.6330756e+08
   1.9139713e-10  -4.0599431e-02   6.2402306e+00   2.6494510e-01  -2.6245363e+08
   1.9206402e-10  -4.0424690e-02   6.2377931e+00   2.6846738e-01  -2.6160055e+08
   1.9273091e-10  -4.0250518e-02   6.2353296e+00   2.7202328e-01  -2.6074834e+08
   1.9339780e-10  -4.0076914e-02   6.2328401e+00   2.7561289e-01  -2.5989702e+08
   1.9406469e-10  -3.9903878e-02   6.2303244e+00   2.7923633e-01  -2.5904657e+08
   1.9473158e-10  -3.9731408e-02   6.2277824e+00   2.8289369e-01  -2.5819702e+08
   1.9539847e-10  -3.9559504e-02   6.2252141e+00   2.8658506e-01  -2.5734838e+08
   1.9606536e-10  -3.9388166e-02   6.2226194e+00   2.9031054e-01  -2.5650064e+08
   1.9673224e-10  -3.9217393e-02   6.2199981e+00   2.9407021e-01  -2.5565382e+08
   1.9739913e-10  -3.9047185e-02   6.2173503e+00   2.9786416e-01  -2.5480793e+08
   1.9806602e-10  -3.8877540e-02   6.2146757e+00   3.0169248e-01  -2.5396297e+08
   1.9873291e-10  -3.8708459e-02   6.2119744e+00   3.0555523e-01  -2.5311895e+08
   1.9939980e-10  -3.8539940e-02   6.2092463e+00   3.0945250e-01  -2.5227589e+08
   2.0006669e-10  -3.8371982e-02   6.2064913e+00   3.1338436e-01  -2.5143378e+08
   2.0073358e-10  -3.8204587e-02   6.2037093e+00   3.1735087e-01  -2.5059263e+08
   2.0140047e-10  -3.8037751e-02   6.2009002e+00   3.2135210e-01  -2.4975247e+08
   2.0206736e-10  -3.7871476e-02   6.1980640e+00   3.2538811e-01  -2.4891328e+08
   2.0273424e-10  -3.7705760e-02   6.1952007e+00   3.2945895e-01  -2.4807508e+08
   2.0340113e-10  -3.7540603e-02   6.1923101e+00   3.3356469e-01  -2.4723789e+08
   2.0406802e-10  -3.7376004e-02   6.1893923e+00   3.3770537e-01  -2.4640170e+08
   2.0473491e-10  -3.7211962e-02   6.1864471e+00   3.4188103e-01  -2.4556652e+08
   2.0540180e-10  -3.7048476e-02   6.1834745e+00   3.4609172e-01  -2.4473237e+08
   2.0606869e-10  -3.6885547e-02   6.1804745e+00   3.5033748e-01  -2.4389925e+08
   2.0673558e-10  -3.6723172e-02   6.1774470e+00   3.5461835e-01  -2.4306717e+08
   2.0740247e-10  -3.6561353e-02   6.1743920e+00   3.5893435e-01  -2.4223614e+08
   2.0806936e-10  -3.6400087e-02   6.1713094e+00   3.6328551e-01  -2.4140616e+08
   2.0873625e-10  -3.6239374e-02   6.1681993e+00   3.6767185e-01  -2.4057725e+08
   2.0940313e-10  -3.6079214e-02   6.1650615e+00   3.7209340e-01  -2.3974941e+08
   2.1007002e-10  -3.5919605e-02   6.1618961e+00   3.7655016e-01  -2.3892265e+08
   2.1073691e-10  -3.5760547e-02   6.1587029e+00   3.8104216e-01  -2.3809698e+08
   2.1140380e-10  -3.5602040e-02   6.1554821e+00   3.8556940e-01  -2.3727241e+08
   2.1207069e-10  -3.5444082e-02   6.1522336e+00   3.9013187e-01  -2.3644894e+08
   2.1273758e-10  -3.5286673e-02   6.1489573e+00   3.9472959e-01  -2.3562659e+08
   2.1340447e-10  -3.5129812e-02   6.1456533e+00   3.9936255e-01  -2.3480536e+08
   2.1407136e-10  -3.4973498e-02   6.1423215e+00   4.0403073e-01  -2.3398526e+08
   2.1473825e-10  -3.4817731e-02   6.1389619e+00   4.0873412e-01  -2.3316629e+08
   2.1540514e-10  -3.4662509e-02   6.1355745e+00   4.1347272e-01  -2.3234848e+08
   2.1607202e-10  -3.4507833e-02   6.1321594e+00   4.1824649e-01  -2.3153182e+08
   2.1673891e-10  -3.4353700e-02   6.1287165e+00   4.2305541e-01  -2.3071632e+08
   2.1740580e-10  -3.4200112e-02   6.1252459e+00   4.2789945e-01  -2.2990199e+08
   2.1807269e-10  -3.4047065e-02   6.1217475e+00   4.3277859e-01  -2.2908885e+08
   2.1873958e-10  -3.3894561e-02   6.1182213e+00   4.3769277e-01  -2.2827689e+08
   2.1940647e-10  -3.3742598e-02   6.1146674e+00   4.4264196e-01  -2.2746613e+08
   2.2007336e-10  -3.3591175e-02   6.1110858e+00   4.4762612e-01  -2.2665657e+08
   2.2074025e-10  -3.3440291e-02   6.1074766e+00   4.5264519e-01  -2.2584822e+08
   2.2140714e-10  -3.3289946e-02   6.1038396e+00   4.5769911e-01  -2.2504110e+08
   2.2207402e-10  -3.3140139e-02   6.1001751e+00   4.6278784e-01  -2.2423520e+08
   2.2274091e-10  -3.2990869e-02   6.0964829e+00   4.6791130e-01  -2.2343054e+08
   2.2340780e-10  -3.2842135e-02   6.0927632e+00   4.7306943e-01  -2.2262713e+08
   2.2407469e-10  -3.2693936e-02   6.0890159e+00   4.7826216e-01  -2.2182497e+08
   2.2474158e-10  -3.2546272e-02   6.0852412e+00   4.8348942e-01  -2.2102407e+08
   2.2540847e-10  -3.2399142e-02   6.0814390e+00   4.8875111e-01  -2.2022444e+08
   2.2607536e-10  -3.2252544e-02   6.0776095e+00   4.9404716e-01  -2.1942609e+08
   2.2674225e-10  -3.2106479e-02   6.0737526e+00   4.9937749e-01  -2.1862902e+08
   2.2740914e-10  -3.1960944e-02   6.0698685e+00   5.0474199e-01  -2.1783325e+08
   2.2807603e-10  -3.1815940e-02   6.0659571e+00   5.1014057e-01  -2.1703878e+08
   2.2874291e-10  -3.1671465e-02   6.0620186e+00   5.1557313e-01  -2.1624562e+08
   2.2940980e-10  -3.1527518e-02   6.0580530e+00   5.2103956e-01  -2.1545378e+08
   2.3007669e-10  -3.1384100e-02   6.0540604e+00   5.2653977e-01  -2.1466326e+08
   2.3074358e-10  -3.1241207e-02   6.0500408e+00   5.3207362e-01  -2.1387408e+08
   2.3141047e-10  -3.1098841e-02   6.0459944e+00   5.3764101e-01  -2.1308623e+08
   2.3207736e-10  -3.0957000e-02   6.0419212e+00   5.4324181e-01  -2.1229974e+08
   2.3274425e-10  -3.0815682e-02   6.0378213e+00   5.4887589e-01  -2.1151461e+08
   2.3341114e-10  -3.0674888e-02   6.0336947e+00   5.5454313e-01  -2.1073084e+08
   2.3407803e-10  -3.0534616e-02   6.0295417e+00   5.6024340e-01  -2.0994844e+08
   2.3474491e-10  -3.0394865e-02   6.0253622e+00   5.6597655e-01  -2.0916743e+08
   2.3541180e-10  -3.0255635e-02   6.0211563e+00   5.7174244e-01  -2.0838780e+08
   2.3607869e-10  -3.0116924e-02   6.0169242e+00   5.7754092e-01  -2.0760957e+08
   2.3674558e-10  -2.9978732e-02   6.0126660e+00   5.8337185e-01  -2.0683274e+08
   2.3741247e-10  -2.9841057e-02   6.0083818e+00   5.8923507e-01  -2.0605733e+08
   2.3807936e-10  -2.9703898e-02   6.0040716e+00   5.9513042e-01  -2.0528333e+08
   2.3874625e-10  -2.9567256e-02   5.9997356e+00   6.0105774e-01  -2.0451076e+08
   2.3941314e-10  -2.9431128e-02   5.9953740e+00   6.0701686e-01  -2.0373963e+08
   2.4008003e-10  -2.9295514e-02   5.9909867e+00   6.1300762e-01  -2.0296994e+08
   2.4074692e-10  -2.9160412e-02   5.9865740e+00   6.1902983e-01  -2.0220170e+08
   2.4141380e-10  -2.9025823e-02   5.9821360e+00   6.2508333e-01  -2.0143491e+08
   2.4208069e-10  -2.8891744e-02   5.9776728e+00   6.3116792e-01  -2.0066959e+08
   2.4274758e-10  -2.8758175e-02   5.9731845e+00   6.3728343e-01  -1.9990574e+08
   2.4341447e-10  -2.8625115e-02   5.9686713e+00   6.4342966e-01  -1.9914337e+08
   2.4408136e-10  -2.8492563e-02   5.9641333e+00   6.4960642e-01  -1.9838249e+08
   2.4474825e-10  -2.8360518e-02   5.9595706e+00   6.5581352e-01  -1.9762310e+08
   2.4541514e-10  -2.8228979e-02   5.9549834e+00   6.6205075e-01  -1.9686522e+08
   2.4608203e-10  -2.8097944e-02   5.9503719e+00   6.6831790e-01  -1.9610884e+08
   2.4674892e-10  -2.7967414e-02   5.9457361e+00   6.7461478e-01  -1.9535397e+08
   2.4741581e-10  -2.7837386e-02   5.9410763e+00   6.8094117e-01  -1.9460063e+08
   2.4808269e-10  -2.7707860e-02   5.9363925e+00   6.8729686e-01  -1.9384882e+08
   2.4874958e-10  -2.7578836e-02   5.9316851e+00   6.9368162e-01  -1.9309854e+08
   2.4941647e-10  -2.7450310e-02   5.9269540e+00   7.0009524e-01  -1.9234981e+08
   2.5008336e-10  -2.7322284e-02   5.9221995e+00   7.0653749e-01  -1.9160263e+08
   2.5075025e-10  -2.7194755e-02   5.9174217e+00   7.1300814e-01  -1.9085701e+08
   2.5141714e-10  -2.7067724e-02   5.9126209e+00   7.1950697e-01  -1.9011295e+08
   2.5208403e-10  -2.6941187e-02   5.9077971e+00   7.2603373e-01  -1.8937046e+08
   2.5275092e-10  -2.6815146e-02   5.9029506e+00   7.3258819e-01  -1.8862954e+08
   2.5341781e-10  -2.6689598e-02   5.8980816e+00   7.3917010e-01  -1.8789022e+08
   2.5408469e-10  -2.6564542e-02   5.8931901e+00   7.4577923e-01  -1.8715248e+08
   2.5475158e-10  -2.6439978e-02   5.8882765e+00   7.5241532e-01  -1.8641634e+08
   2.5541847e-10  -2.6315904e-02   5.8833408e+00   7.5907813e-01  -1.8568181e+08
   2.5608536e-10  -2.6192319e-02   5.8783833e+00   7.6576740e-01  -1.8494888e+08
   2.5675225e-10  -2.6069223e-02   5.8734041e+00   7.7248287e-01  -1.8421758e+08
   2.5741914e-10  -2.5946614e-02   5.8684035e+00   7.7922430e-01  -1.8348789e+08
   2.5808603e-10  -2.5824491e-02   5.8633817e+00   7.8599140e-01  -1.8275984e+08
   2.5875292e-10  -2.5702852e-02   5.8583388e+00   7.9278392e-01  -1.8203342e+08
   2.5941981e-10  -2.5581698e-02   5.8532750e+00   7.9960160e-01  -1.8130864e+08
   2.6008670e-10  -2.5461027e-02   5.8481906e+00   8.0644416e-01  -1.8058551e+08
   2.6075358e-10  -2.5340837e-02   5.8430858e+00   8.1331132e-01  -1.7986404e+08
   2.6142047e-10  -2.5221127e-02   5.8379606e+00   8.2020282e-01  -1.7914422e+08
   2.6208736e-10  -2.5101897e-02   5.8328155e+00   8.2711838e-01  -1.7842607e+08
   2.6275425e-10  -2.4983146e-02   5.8276505e+00   8.3405771e-01  -1.7770960e+08
   2.6342114e-10  -2.4864872e-02   5.8224659e+00   8.4102054e-01  -1.7699480e+08
   2.6408803e-10  -2.4747073e-02   5.8172619e+00   8.4800657e-01  -1.7628168e+08
   2.6475492e-10  -2.4629750e-02   5.8120387e+00   8.5501553e-01  -1.7557025e+08
   2.6542181e-10  -2.4512901e-02   5.8067966e+00   8.6204711e-01  -1.7486052e+08
   2.6608870e-10  -2.4396524e-02   5.8015357e+00   8.6910104e-01  -1.7415249e+08
   2.6675559e-10  -2.4280619e-02   5.7962563e+00   8.7617701e-01  -1.7344617e+08
   2.6742247e-10  -2.4165184e-02   5.7909585e+00   8.8327474e-01  -1.7274155e+08
   2.6808936e-10  -2.4050219e-02   5.7856427e+00   8.9039392e-01  -1.7203866e+08
   2.6875625e-10  -2.3935722e-02   5.7803091e+00   8.9753425e-01  -1.7133748e+08
   2.6942314e-10  -2.3821691e-02   5.7749578e+00   9.0469543e-01  -1.7063804e+08
   2.7009003e-10  -2.3708127e-02   5.7695891e+00   9.1187716e-01  -1.6994032e+08
   2.7075692e-10  -2.3595027e-02   5.7642033e+00   9.1907914e-01  -1.6924435e+08
   2.7142381e-10  -2.3482391e-02   5.7588005e+00   9.2630106e-01  -1.6855011e+08
   2.7209070e-10  -2.3370218e-02   5.7533811e+00   9.3354260e-01  -1.6785763e+08
   2.7275759e-10  -2.3258505e-02   5.7479452e+00   9.4080346e-01  -1.6716690e+08
   2.7342447e-10  -2.3147252e-02   5.7424931e+00   9.4808333e-01  -1.6647792e+08
   2.7409136e-10  -2.3036459e-02   5.7370250e+00   9.5538190e-01  -1.6579071e+08
   2.7475825e-10  -2.2926123e-02   5.7315411e+00   9.6269885e-01  -1.6510526e+08
   2.7542514e-10  -2.2816243e-02   5.7260418e+00   9.7003386e-01  -1.6442159e+08
   2.7609203e-10  -2.2706819e-02   5.7205272e+00   9.7738662e-01  -1.6373969e+08
   2.7675892e-10  -2.2597849e-02   5.7149976e+00   9.8475682e-01  -1.6305957e+08
   2.7742581e-10  -2.2489332e-02   5.7094532e+00   9.9214412e-01  -1.6238124e+08
   2.7809270e-10  -2.2381267e-02   5.7038943e+00   9.9954822e-01  -1.6170470e+08
   2.7875959e-10  -2.2273652e-02   5.6983211e+00   1.0069688e+00  -1.6102996e+08
   2.7942648e-10  -2.2166486e-02   5.6927339e+00   1.0144055e+00  -1.6035701e+08
   2.8009336e-10  -2.2059769e-02   5.6871329e+00   1.0218580e+00  -1.5968586e+08
   2.8076025e-10  -2.1953499e-02   5.6815184e+00   1.0293261e+00  -1.5901652e+08
   2.8142714e-10  -2.1847674e-02   5.6758906e+00   1.0368093e+00  -1.5834899e+08
   2.8209403e-10  -2.1742294e-02   5.6702498e+00   1.0443074e+00  -1.5768328e+08
   2.8276092e-10  -2.1637357e-02   5.6645962e+00   1.0518200e+00  -1.5701938e+08
   2.8342781e-10  -2.1532863e-02   5.6589300e+00   1.0593468e+00  -1.5635731e+08
   2.8409470e-10  -2.1428809e-02   5.6532516e+00   1.0668874e+00  -1.5569706e+08
   2.8476159e-10  -2.1325195e-02   5.6475612e+00   1.0744416e+00  -1.5503864e+08
   2.8542848e-10  -2.1222019e-02   5.6418590e+00   1.0820090e+00  -1.5438205e+08
   2.8609537e-10  -2.1119281e-02   5.6361453e+00   1.0895894e+00  -1.5372731e+08
   2.8676225e-10  -2.1016979e-02   5.6304203e+00   1.0971822e+00  -1.5307440e+08
   2.8742914e-10  -2.0915111e-02   5.6246843e+00   1.1047873e+00  -1.5242333e+08
   2.8809603e-10  -2.0813677e-02   5.6189376e+00   1.1124043e+00  -1.5177412e+08
   2.8876292e-10  -2.0712676e-02   5.6131804e+00   1.1200329e+00  -1.5112675e+08
   2.8942981e-10  -2.0612105e-02   5.6074129e+00   1.1276727e+00  -1.5048123e+08
   2.9009670e-10  -2.0511964e-02   5.6016355e+00   1.1353234e+00  -1.4983758e+08
   2.9076359e-10  -2.0412252e-02   5.5958484e+00   1.1429847e+00  -1.4919578e+08
   2.9143048e-10  -2.0312967e-02   5.5900517e+00   1.1506563e+00  -1.4855584e+08
   2.9209737e-10  -2.0214109e-02   5.5842459e+00   1.1583378e+00  -1.4791777e+08
   2.9276425e-10  -2.0115675e-02   5.5784311e+00   1.1660289e+00  -1.4728157e+08
   2.9343114e-10  -2.0017665e-02   5.5726076e+00   1.1737292e+00  -1.4664723e+08
   2.9409803e-10  -1.9920077e-02   5.5667757e+00   1.1814385e+00  -1.4601477e+08
   2.9476492e-10  -1.9822910e-02   5.5609356e+00   1.1891564e+00  -1.4538419e+08
   2.9543181e-10  -1.9726164e-02   5.5550875e+00   1.1968825e+00  -1.4475548e+08
   2.9609870e-10  -1.9629836e-02   5.5492318e+00   1.2046167e+00  -1.4412866e+08
   2.9676559e-10  -1.9533925e-02   5.5433687e+00   1.2123584e+00  -1.4350371e+08
   2.9743248e-10  -1.9438430e-02   5.5374983e+00   1.2201075e+00  -1.4288066e+08
   2.9809937e-10  -1.9343351e-02   5.5316211e+00   1.2278635e+00  -1.4225949e+08
   2.9876626e-10  -1.9248685e-02   5.5257372e+00   1.2356262e+00  -1.4164021e+08
   2.9943314e-10  -1.9154431e-02   5.5198470e+00   1.2433952e+00  -1.4102282e+08
   3.0010003e-10  -1.9060588e-02   5.5139505e+00   1.2511702e+00  -1.4040732e+08
   3.0076692e-10  -1.8967155e-02   5.5080482e+00   1.2589509e+00  -1.3979373e+08
   3.0143381e-10  -1.8874131e-02   5.5021403e+00   1.2667370e+00  -1.3918202e+08
   3.0210070e-10  -1.8781514e-02   5.4962269e+00   1.2745281e+00  -1.3857222e+08
   3.0276759e-10  -1.8689303e-02   5.4903084e+00   1.2823239e+00  -1.3796432e+08
   3.0343448e-10  -1.8597497e-02   5.4843851e+00   1.2901242e+00  -1.3735832e+08
   3.0410137e-10  -1.8506094e-02   5.4784570e+00   1.2979285e+00  -1.3675422e+08
   3.0476826e-10  -1.8415093e-02   5.4725246e+00   1.3057365e+00  -1.3615203e+08
   3.0543515e-10  -1.8324494e-02   5.4665881e+00   1.3135481e+00  -1.3555174e+08
   3.0610203e-10  -1.8234294e-02   5.4606477e+00   1.3213627e+00  -1.3495337e+08
   3.0676892e-10  -1.8144492e-02   5.4547036e+00   1.3291802e+00  -1.3435690e+08
   3.0743581e-10  -1.8055088e-02   5.4487561e+00   1.3370002e+00  -1.3376234e+08
   3.0810270e-10  -1.7966079e-02   5.4428055e+00   1.3448224e+00  -1.3316970e+08
   3.0876959e-10  -1.7877465e-02   5.4368520e+00   1.3526465e+00  -1.3257896e+08
   3.0943648e-10  -1.7789245e-02   5.4308958e+00   1.3604721e+00  -1.3199014e+08
   3.1010337e-10  -1.7701416e-02   5.4249371e+00   1.3682991e+00  -1.3140324e+08
   3.1077026e-10  -1.7613978e-02   5.4189763e+00   1.3761270e+00  -1.3081825e+08
   3.1143715e-10  -1.7526930e-02   5.4130136e+00   1.3839556e+00  -1.3023517e+08
   3.1210403e-10  -1.7440270e-02   5.4070492e+00   1.3917845e+00  -1.2965401e+08
   3.1277092e-10  -1.7353996e-02   5.4010833e+00   1.3996135e+00  -1.2907477e+08
   3.1343781e-10  -1.7268109e-02   5.3951161e+00   1.4074423e+00  -1.2849745e+08
   3.1410470e-10  -1.7182606e-02   5.3891480e+00   1.4152706e+00  -1.2792204e+08
   3.1477159e-10  -1.7097485e-02   5.3831791e+00   1.4230980e+00  -1.2734855e+08
   3.1543848e-10  -1.7012747e-02   5.3772098e+00   1.4309243e+00  -1.2677698e+08
   3.1610537e-10  -1.6928389e-02   5.3712401e+00   1.4387492e+00  -1.2620733e+08
   3.1677226e-10  -1.6844410e-02   5.3652703e+00   1.4465724e+00  -1.2563960e+08
   3.1743915e-10  -1.6760810e-02   5.3593008e+00   1.4543936e+00  -1.2507379e+08
   3.1810604e-10  -1.6677586e-02   5.3533316e+00   1.4622125e+00  -1.2450989e+08
   3.1877292e-10  -1.6594737e-02   5.3473631e+00   1.4700288e+00  -1.2394792e+08
   3.1943981e-10  -1.6512263e-02   5.3413954e+00   1.4778423e+00  -1.2338786e+08
   3.2010670e-10  -1.6430161e-02   5.3354288e+00   1.4856527e+00  -1.2282973e+08
   3.2077359e-10  -1.6348431e-02   5.3294635e+00   1.4934597e+00  -1.2227351e+08
   3.2144048e-10  -1.6267072e-02   5.3234997e+00   1.5012630e+00  -1.2171921e+08
   3.2210737e-10  -1.6186081e-02   5.3175377e+00   1.5090623e+00  -1.2116683e+08
   3.2277426e-10  -1.6105458e-02   5.3115776e+00   1.5168574e+00  -1.2061636e+08
   3.2344115e-10  -1.6025201e-02   5.3056197e+00   1.5246480e+00  -1.2006782e+08
   3.2410804e-10  -1.5945310e-02   5.2996642e+00   1.5324338e+00  -1.1952119e+08
   3.2477492e-10  -1.5865782e-02   5.2937113e+00   1.5402146e+00  -1.1897647e+08
   3.2544181e-10  -1.5786618e-02   5.2877613e+00   1.5479900e+00  -1.1843367e+08
   3.2610870e-10  -1.5707814e-02   5.2818142e+00   1.5557599e+00  -1.1789278e+08
   3.2677559e-10  -1.5629371e-02   5.2758704e+00   1.5635240e+00  -1.1735381e+08
   3.2744248e-10  -1.5551286e-02   5.2699301e+00   1.5712820e+00  -1.1681675e+08
   3.2810937e-10  -1.5473559e-02   5.2639934e+00   1.5790336e+00  -1.1628160e+08
   3.2877626e-10  -1.5396188e-02   5.2580606e+00   1.5867787e+00  -1.1574837e+08
   3.2944315e-10  -1.5319172e-02   5.2521318e+00   1.5945168e+00  -1.1521704e+08
   3.3011004e-10  -1.5242510e-02   5.2462073e+00   1.6022479e+00  -1.1468762e+08
   3.3077693e-10  -1.5166200e-02   5.2402873e+00   1.6099716e+00  -1.1416011e+08
   3.3144381e-10  -1.5090242e-02   5.2343719e+00   1.6176878e+00  -1.1363450e+08
   3.3211070e-10  -1.5014633e-02   5.2284614e+00   1.6253961e+00  -1.1311080e+08
   3.3277759e-10  -1.4939373e-02   5.2225559e+00   1.6330963e+00  -1.1258900e+08
   3.3344448e-10  -1.4864460e-02   5.2166557e+00   1.6407882e+00  -1.1206910e+08
   3.3411137e-10  -1.4789893e-02   5.2107609e+00   1.6484715e+00  -1.1155111e+08
   3.3477826e-10  -1.4715671e-02   5.2048717e+00   1.6561461e+00  -1.1103501e+08
   3.3544515e-10  -1.4641793e-02   5.1989884e+00   1.6638116e+00  -1.1052081e+08
   3.3611204e-10  -1.4568257e-02   5.1931110e+00   1.6714679e+00  -1.1000850e+08
   3.3677893e-10  -1.4495062e-02   5.1872399e+00   1.6791147e+00  -1.0949809e+08
   3.3744582e-10  -1.4422207e-02   5.1813751e+00   1.6867518e+00  -1.0898957e+08
   3.3811270e-10  -1.4349690e-02   5.1755168e+00   1.6943790e+00  -1.0848294e+08
   3.3877959e-10  -1.4277510e-02   5.1696653e+00   1.7019960e+00  -1.0797820e+08
   3.3944648e-10  -1.4205667e-02   5.1638206e+00   1.7096027e+00  -1.0747535e+08
   3.4011337e-10  -1.4134158e-02   5.1579831e+00   1.7171988e+00  -1.0697438e+08
   3.4078026e-10  -1.4062983e-02   5.1521527e+00   1.7247841e+00  -1.0647529e+08
   3.4144715e-10  -1.3992139e-02   5.1463298e+00   1.7323585e+00  -1.0597808e+08
   3.4211404e-10  -1.3921627e-02   5.1405145e+00   1.7399216e+00  -1.0548275e+08
   3.4278093e-10  -1.3851445e-02   5.1347070e+00   1.7474733e+00  -1.0498930e+08
   3.4344782e-10  -1.3781591e-02   5.1289073e+00   1.7550133e+00  -1.0449771e+08
   3.4411470e-10  -1.3712064e-02   5.1231158e+00   1.7625416e+00  -1.0400800e+08
   3.4478159e-10  -1.3642863e-02   5.1173325e+00   1.7700579e+00  -1.0352016e+08
   3.4544848e-10  -1.3573987e-02   5.1115576e+00   1.7775619e+00  -1.0303419e+08
   3.4611537e-10  -1.3505434e-02   5.1057912e+00   1.7850536e+00  -1.0255008e+08
   3.4678226e-10  -1.3437203e-02   5.1000336e+00   1.7925326e+00  -1.0206783e+08
   3.4744915e-10  -1.3369294e-02   5.0942849e+00   1.7999989e+00  -1.0158744e+08
   3.4811604e-10  -1.3301704e-02   5.0885452e+00   1.8074522e+00  -1.0110890e+08
   3.4878293e-10  -1.3234433e-02   5.0828146e+00   1.8148923e+00  -1.0063222e+08
   3.4944982e-10  -1.3167479e-02   5.0770934e+00   1.8223191e+00  -1.0015739e+08
   3.5011671e-10  -1.3100841e-02   5.0713817e+00   1.8297324e+00  -9.9684409e+07
   3.5078359e-10  -1.3034518e-02   5.0656796e+00   1.8371320e+00  -9.9213272e+07
   3.5145048e-10  -1.2968509e-02   5.0599872e+00   1.8445177e+00  -9.8743977e+07
   3.5211737e-10  -1.2902811e-02   5.0543047e+00   1.8518894e+00  -9.8276521e+07
   3.5278426e-10  -1.2837425e-02   5.0486323e+00   1.8592469e+00  -9.7810903e+07
   3.5345115e-10  -1.2772349e-02   5.0429701e+00   1.8665901e+00  -9.7347117e+07
   3.5411804e-10  -1.2707582e-02   5.0373182e+00   1.8739187e+00  -9.6885163e+07
   3.5478493e-10  -1.2643122e-02   5.0316767e+00   1.8812326e+00  -9.6425035e+07
   3.5545182e-10  -1.2578968e-02   5.0260459e+00   1.8885316e+00  -9.5966732e+07
   3.5611871e-10  -1.2515120e-02   5.0204257e+00   1.8958156e+00  -9.5510251e+07
   3.5678560e-10  -1.2451575e-02   5.0148164e+00   1.9030845e+00  -9.5055587e+07
   3.5745248e-10  -1.2388332e-02   5.0092180e+00   1.9103380e+00  -9.4602738e+07
   3.5811937e-10  -1.2325392e-02   5.0036308e+00   1.9175761e+00  -9.4151700e+07
   3.5878626e-10  -1.2262751e-02   4.9980547e+00   1.9247985e+00  -9.3702470e+07
   3.5945315e-10  -1.2200409e-02   4.9924900e+00   1.9320052e+00  -9.3255046e+07
   3.6012004e-10  -1.2138365e-02   4.9869367e+00   1.9391959e+00  -9.2809422e+07
   3.6078693e-10  -1.2076618e-02   4.9813951e+00   1.9463707e+00  -9.2365597e+07
   3.6145382e-10  -1.2015166e-02   4.9758651e+00   1.9535292e+00  -9.1923566e+07
   3.6212071e-10  -1.1954009e-02   4.9703469e+00   1.9606714e+00  -9.1483326e+07
   3.6278760e-10  -1.1893144e-02   4.9648406e+00   1.9677971e+00  -9.1044873e+07
   3.6345448e-10  -1.1832571e-02   4.9593463e+00   1.9749063e+00  -9.0608205e+07
   3.6412137e-10  -1.1772289e-02   4.9538642e+00   1.9819988e+00  -9.0173316e+07
   3.6478826e-10  -1.1712296e-02   4.9483943e+00   1.9890744e+00  -8.9740204e+07
   3.6545515e-10  -1.1652591e-02   4.9429368e+00   1.9961330e+00  -8.9308865e+07
   3.6612204e-10  -1.1593174e-02   4.9374917e+00   2.0031745e+00  -8.8879295e+07
   3.6678893e-10  -1.1534042e-02   4.9320591e+00   2.0101988e+00  -8.8451490e+07
   3.6745582e-10  -1.1475195e-02   4.9266392e+00   2.0172058e+00  -8.8025447e+07
   3.6812271e-10  -1.1416632e-02   4.9212321e+00   2.0241954e+00  -8.7601162e+07
   3.6878960e-10  -1.1358351e-02   4.9158378e+00   2.0311674e+00  -8.7178631e+07
   3.6945649e-10  -1.1300351e-02   4.9104564e+00   2.0381217e+00  -8.6757850e+07
   3.7012337e-10  -1.1242632e-02   4.9050880e+00   2.0450582e+00  -8.6338815e+07
   3.7079026e-10  -1.1185191e-02   4.8997328e+00   2.0519769e+00  -8.5921522e+07
   3.7145715e-10  -1.1128028e-02   4.8943908e+00   2.0588776e+00  -8.5505967e+07
   3.7212404e-10  -1.1071141e-02   4.8890620e+00   2.0657601e+00  -8.5092146e+07
   3.7279093e-10  -1.1014530e-02   4.8837467e+00   2.0726245e+00  -8.4680056e+07
   3.7345782e-10  -1.0958193e-02   4.8784448e+00   2.0794706e+00  -8.4269691e+07
   3.7412471e-10  -1.0902129e-02   4.8731564e+00   2.0862983e+00  -8.3861049e+07
   3.7479160e-10  -1.0846337e-02   4.8678817e+00   2.0931075e+00  -8.3454124e+07
   3.7545849e-10  -1.0790816e-02   4.8626207e+00   2.0998981e+00  -8.3048914e+07
   3.7612538e-10  -1.0735565e-02   4.8573735e+00   2.1066701e+00  -8.2645412e+07
   3.7679226e-10  -1.0680582e-02   4.8521401e+00   2.1134233e+00  -8.2243616e+07
   3.7745915e-10  -1.0625866e-02   4.8469207e+00   2.1201577e+00  -8.1843522e+07
   3.7812604e-10  -1.0571417e-02   4.8417152e+00   2.1268732e+00  -8.1445124e+07
   3.7879293e-10  -1.0517233e-02   4.8365239e+00   2.1335696e+00  -8.1048418e+07
   3.7945982e-10  -1.0463313e-02   4.8313467e+00   2.1402470e+00  -8.0653401e+07
   3.8012671e-10  -1.0409656e-02   4.8261837e+00   2.1469052e+00  -8.0260068e+07
   3.8079360e-10  -1.0356260e-02   4.8210350e+00   2.1535442e+00  -7.9868415e+07
   3.8146049e-10  -1.0303125e-02   4.8159006e+00   2.1601639e+00  -7.9478437e+07
   3.8212738e-10  -1.0250250e-02   4.8107807e+00   2.1667642e+00  -7.9090129e+07
   3.8279426e-10  -1.0197633e-02   4.8056752e+00   2.1733450e+00  -7.8703488e+07
   3.8346115e-10  -1.0145274e-02   4.8005842e+00   2.1799063e+00  -7.8318509e+07
   3.8412804e-10  -1.0093170e-02   4.7955079e+00   2.1864480e+00  -7.7935188e+07
   3.8479493e-10  -1.0041322e-02   4.7904462e+00   2.1929701e+00  -7.7553520e+07
   3.8546182e-10  -9.9897277e-03   4.7853991e+00   2.1994724e+00  -7.7173500e+07
   3.8612871e-10  -9.9383863e-03   4.7803669e+00   2.2059550e+00  -7.6795124e+07
   3.8679560e-10  -9.8872966e-03   4.7753494e+00   2.2124178e+00  -7.6418388e+07
   3.8746249e-10  -9.8364577e-03   4.7703468e+00   2.2188606e+00  -7.6043287e+07
   3.8812938e-10  -9.7858684e-03   4.7653591e+00   2.2252835e+00  -7.5669816e+07
   3.8879627e-10  -9.7355276e-03   4.7603864e+00   2.2316864e+00  -7.5297971e+07
   3.8946315e-10  -9.6854343e-03   4.7554287e+00   2.2380693e+00  -7.4927748e+07
   3.9013004e-10  -9.6355874e-03   4.7504860e+00   2.2444321e+00  -7.4559140e+07
   3.9079693e-10  -9.5859857e-03   4.7455585e+00   2.2507747e+00  -7.4192145e+07
   3.9146382e-10  -9.5366282e-03   4.7406460e+00   2.2570971e+00  -7.3826757e+07
   3.9213071e-10  -9.4875139e-03   4.7357488e+00   2.2633992e+00  -7.3462972e+07
   3.9279760e-10  -9.4386417e-03   4.7308667e+00   2.2696811e+00  -7.3100784e+07
   3.9346449e-10  -9.3900105e-03   4.7259999e+00   2.2759427e+00  -7.2740190e+07
   3.9413138e-10  -9.3416192e-03   4.7211485e+00   2.2821839e+00  -7.2381184e+07
   3.9479827e-10  -9.2934669e-03   4.7163123e+00   2.2884047e+00  -7.2023762e+07
   3.9546516e-10  -9.2455523e-03   4.7114915e+00   2.2946050e+00  -7.1667920e+07
   3.9613204e-10  -9.1978746e-03   4.7066861e+00   2.3007849e+00  -7.1313651e+07
   3.9679893e-10  -9.1504326e-03   4.7018962e+00   2.3069443e+00  -7.0960952e+07
   3.9746582e-10  -9.1032253e-03   4.6971217e+00   2.3130831e+00  -7.0609817e+07
   3.9813271e-10  -9.0562517e-03   4.6923627e+00   2.3192014e+00  -7.0260243e+07
   3.9879960e-10  -9.0095107e-03   4.6876193e+00   2.3252990e+00  -6.9912223e+07
   3.9946649e-10  -8.9630013e-03   4.6828913e+00   2.3313760e+00  -6.9565754e+07
   4.0013338e-10  -8.9167224e-03   4.6781790e+00   2.3374324e+00  -6.9220830e+07
   4.0080027e-10  -8.8706730e-03   4.6734822e+00   2.3434681e+00  -6.8877447e+07
   4.0146716e-10  -8.8248521e-03   4.6688011e+00   2.3494831e+00  -6.8535600e+07
   4.0213404e-10  -8.7792587e-03   4.6641357e+00   2.3554774e+00  -6.8195284e+07
   4.0280093e-10  -8.7338918e-03   4.6594859e+00   2.3614509e+00  -6.7856493e+07
   4.0346782e-10  -8.6887503e-03   4.6548518e+00   2.3674037e+00  -6.7519224e+07
   4.0413471e-10  -8.6438332e-03   4.6502334e+00   2.3733357e+00  -6.7183471e+07
   4.0480160e-10  -8.5991395e-03   4.6456307e+00   2.3792469e+00  -6.6849230e+07
   4.0546849e-10  -8.5546683e-03   4.6410438e+00   2.3851374e+00  -6.6516495e+07
   4.0613538e-10  -8.5104184e-03   4.6364726e+00   2.3910069e+00  -6.6185262e+07
   4.0680227e-10  -8.4663890e-03   4.6319172e+00   2.3968557e+00  -6.5855525e+07
   4.0746916e-10  -8.4225789e-03   4.6273776e+00   2.4026836e+00  -6.5527280e+07
   4.0813605e-10  -8.3789873e-03   4.6228538e+00   2.4084907e+00  -6.5200522e+07
   4.0880293e-10  -8.3356131e-03   4.6183458e+00   2.4142769e+00  -6.4875245e+07
   4.0946982e-10  -8.2924553e-03   4.6138536e+00   2.4200422e+00  -6.4551446e+07
   4.1013671e-10  -8.2495130e-03   4.6093773e+00   2.4257867e+00  -6.4229119e+07
   4.1080360e-10  -8.2067852e-03   4.6049168e+00   2.4315103e+00  -6.3908258e+07
   4.1147049e-10  -8.1642708e-03   4.6004721e+00   2.4372130e+00  -6.3588860e+07
   4.1213738e-10  -8.1219690e-03   4.5960434e+00   2.4428949e+00  -6.3270919e+07
   4.1280427e-10  -8.0798788e-03   4.5916304e+00   2.4485559e+00  -6.2954430e+07
   4.1347116e-10  -8.0379991e-03   4.5872334e+00   2.4541959e+00  -6.2639388e+07
   4.1413805e-10  -7.9963291e-03   4.5828522e+00   2.4598152e+00  -6.2325788e+07
   4.1480493e-10  -7.9548677e-03   4.5784869e+00   2.4654135e+00  -6.2013626e+07
   4.1547182e-10  -7.9136140e-03   4.5741374e+00   2.4709910e+00  -6.1702896e+07
   4.1613871e-10  -7.8725671e-03   4.5698038e+00   2.4765476e+00  -6.1393593e+07
   4.1680560e-10  -7.8317260e-03   4.5654862e+00   2.4820834e+00  -6.1085712e+07
   4.1747249e-10  -7.7910897e-03   4.5611843e+00   2.4875983e+00  -6.0779249e+07
   4.1813938e-10  -7.7506574e-03   4.5568984e+00   2.4930923e+00  -6.0474198e+07
   4.1880627e-10  -7.7104280e-03   4.5526283e+00   2.4985656e+00  -6.0170554e+07
   4.1947316e-10  -7.6704007e-03   4.5483741e+00   2.5040180e+00  -5.9868312e+07
   4.2014005e-10  -7.6305745e-03   4.5441358e+00   2.5094496e+00  -5.9567468e+07
   4.2080694e-10  -7.5909484e-03   4.5399133e+00   2.5148605e+00  -5.9268016e+07
   4.2147382e-10  -7.5515216e-03   4.5357066e+00   2.5202505e+00  -5.8969952e+07
   4.2214071e-10  -7.5122931e-03   4.5315159e+00   2.5256198e+00  -5.8673270e+07
   4.2280760e-10  -7.4732620e-03   4.5273409e+00   2.5309683e+00  -5.8377965e+07
   4.2347449e-10  -7.4344275e-03   4.5231818e+00   2.5362961e+00  -5.8084032e+07
   4.2414138e-10  -7.3957884e-03   4.5190385e+00   2.5416032e+00  -5.7791467e+07
   4.2480827e-10  -7.3573441e-03   4.5149110e+00   2.5468895e+00  -5.7500264e+07
   4.2547516e-10  -7.3190935e-03   4.5107993e+00   2.5521552e+00  -5.7210419e+07
   4.2614205e-10  -7.2810357e-03   4.5067034e+00   2.5574003e+00  -5.6921926e+07
   4.2680894e-10  -7.2431699e-03   4.5026233e+00   2.5626247e+00  -5.6634780e+07
   4.2747583e-10  -7.2054951e-03   4.4985589e+00   2.5678285e+00  -5.6348977e+07
   4.2814271e-10  -7.1680106e-03   4.4945103e+00   2.5730117e+00  -5.6064511e+07
   4.2880960e-10  -7.1307152e-03   4.4904774e+00   2.5781743e+00  -5.5781378e+07
   4.2947649e-10  -7.0936083e-03   4.4864602e+00   2.5833164e+00  -5.5499572e+07
   4.3014338e-10  -7.0566889e-03   4.4824588e+00   2.5884380e+00  -5.5219088e+07
   4.3081027e-10  -7.0199560e-03   4.4784730e+00   2.5935391e+00  -5.4939922e+07
   4.3147716e-10  -6.9834090e-03   4.4745029e+00   2.5986197e+00  -5.4662069e+07
   4.3214405e-10  -6.9470468e-03   4.4705485e+00   2.6036799e+00  -5.4385523e+07
   4.3281094e-10  -6.9108686e-03   4.4666097e+00   2.6087197e+00  -5.4110280e+07
   4.3347783e-10  -6.8748735e-03   4.4626865e+00   2.6137391e+00  -5.3836334e+07
   4.3414471e-10  -6.8390607e-03   4.4587790e+00   2.6187382e+00  -5.3563681e+07
   4.3481160e-10  -6.8034293e-03   4.4548870e+00   2.6237169e+00  -5.3292316e+07
   4.3547849e-10  -6.7679784e-03   4.4510105e+00   2.6286754e+00  -5.3022234e+07
   4.3614538e-10  -6.7327073e-03   4.4471496e+00   2.6336136e+00  -5.2753429e+07
   4.3681227e-10  -6.6976149e-03   4.4433042e+00   2.6385316e+00  -5.2485897e+07
   4.3747916e-10  -6.6627006e-03   4.4394743e+00   2.6434294e+00  -5.2219634e+07
   4.3814605e-10  -6.6279635e-03   4.4356599e+00   2.6483071e+00  -5.1954633e+07
   4.3881294e-10  -6.5934026e-03   4.4318609e+00   2.6531646e+00  -5.1690891e+07
   4.3947983e-10  -6.5590173e-03   4.4280773e+00   2.6580021e+00  -5.1428401e+07
   4.4014672e-10  -6.5248065e-03   4.4243092e+00   2.6628195e+00  -5.1167160e+07
   4.4081360e-10  -6.4907696e-03   4.4205564e+00   2.6676169e+00  -5.0907163e+07
   4.4148049e-10  -6.4569057e-03   4.4168190e+00   2.6723943e+00  -5.0648404e+07
   4.4214738e-10  -6.4232139e-03   4.4130968e+00   2.6771518e+00  -5.0390878e+07
   4.4281427e-10  -6.3896935e-03   4.4093900e+00   2.6818895e+00  -5.0134581e+07
   4.4348116e-10  -6.3563435e-03   4.4056985e+00   2.6866072e+00  -4.9879509e+07
   4.4414805e-10  -6.3231633e-03   4.4020221e+00   2.6913052e+00  -4.9625655e+07
   4.4481494e-10  -6.2901520e-03   4.3983610e+00   2.6959834e+00  -4.9373015e+07
   4.4548183e-10  -6.2573088e-03   4.3947151e+00   2.7006418e+00  -4.9121584e+07
   4.4614872e-10  -6.2246328e-03   4.3910843e+00   2.7052806e+00  -4.8871358e+07
   4.4681561e-10  -6.1921234e-03   4.3874687e+00   2.7098997e+00  -4.8622332e+07
   4.4748249e-10  -6.1597796e-03   4.3838682e+00   2.7144992e+00  -4.8374500e+07
   4.4814938e-10  -6.1276007e-03   4.3802827e+00   2.7190791e+00  -4.8127858e+07
   4.4881627e-10  -6.0955859e-03   4.3767122e+00   2.7236395e+00  -4.7882401e+07
   4.4948316e-10  -6.0637343e-03   4.3731568e+00   2.7281805e+00  -4.7638125e+07
   4.5015005e-10  -6.0320454e-03   4.3696163e+00   2.7327020e+00  -4.7395024e+07
   4.5081694e-10  -6.0005181e-03   4.3660908e+00   2.7372041e+00  -4.7153094e+07
   4.5148383e-10  -5.9691518e-03   4.3625802e+00   2.7416869e+00  -4.6912329e+07
   4.5215072e-10  -5.9379457e-03   4.3590845e+00   2.7461504e+00  -4.6672726e+07
   4.5281761e-10  -5.9068990e-03   4.3556036e+00   2.7505946e+00  -4.6434279e+07
   4.5348449e-10  -5.8760110e-03   4.3521375e+00   2.7550196e+00  -4.6196984e+07
   4.5415138e-10  -5.8452808e-03   4.3486862e+00   2.7594255e+00  -4.5960835e+07
   4.5481827e-10  -5.8147077e-03   4.3452496e+00   2.7638123e+00  -4.5725829e+07
   4.5548516e-10  -5.7842910e-03   4.3418277e+00   2.7681800e+00  -4.5491960e+07
   4.5615205e-10  -5.7540298e-03   4.3384205e+00   2.7725287e+00  -4.5259224e+07
   4.5681894e-10  -5.7239235e-03   4.3350280e+00   2.7768585e+00  -4.5027616e+07
   4.5748583e-10  -5.6939713e-03   4.3316500e+00   2.7811693e+00  -4.4797131e+07
   4.5815272e-10  -5.6641725e-03   4.3282867e+00   2.7854613e+00  -4.4567765e+07
   4.5881961e-10  -5.6345262e-03   4.3249378e+00   2.7897344e+00  -4.4339512e+07
   4.5948650e-10  -5.6050318e-03   4.3216035e+00   2.7939888e+00  -4.4112369e+07
   4.6015338e-10  -5.5756885e-03   4.3182836e+00   2.7982245e+00  -4.3886330e+07
   4.6082027e-10  -5.5464956e-03   4.3149781e+00   2.8024415e+00  -4.3661392e+07
   4.6148716e-10  -5.5174523e-03   4.3116870e+00   2.8066399e+00  -4.3437548e+07
   4.6215405e-10  -5.4885579e-03   4.3084103e+00   2.8108198e+00  -4.3214795e+07
   4.6282094e-10  -5.4598118e-03   4.3051478e+00   2.8149811e+00  -4.2993129e+07
   4.6348783e-10  -5.4312131e-03   4.3018997e+00   2.8191240e+00  -4.2772543e+07
   4.6415472e-10  -5.4027612e-03   4.2986658e+00   2.8232484e+00  -4.2553035e+07
   4.6482161e-10  -5.3744553e-03   4.2954460e+00   2.8273546e+00  -4.2334598e+07
   4.6548850e-10  -5.3462947e-03   4.2922405e+00   2.8314424e+00  -4.2117230e+07
   4.6615539e-10  -5.3182788e-03   4.2890490e+00   2.8355120e+00  -4.1900924e+07
   4.6682227e-10  -5.2904067e-03   4.2858716e+00   2.8395633e+00  -4.1685677e+07
   4.6748916e-10  -5.2626778e-03   4.2827083e+00   2.8435966e+00  -4.1471485e+07
   4.6815605e-10  -5.2350915e-03   4.2795590e+00   2.8476118e+00  -4.1258341e+07
   4.6882294e-10  -5.2076469e-03   4.2764236e+00   2.8516089e+00  -4.1046243e+07
   4.6948983e-10  -5.1803435e-03   4.2733021e+00   2.8555880e+00  -4.0835185e+07
   4.7015672e-10  -5.1531804e-03   4.2701945e+00   2.8595493e+00  -4.0625163e+07
   4.7082361e-10  -5.1261571e-03   4.2671008e+00   2.8634926e+00  -4.0416172e+07
   4.7149050e-10  -5.0992728e-03   4.2640209e+00   2.8674182e+00  -4.0208209e+07
   4.7215739e-10  -5.0725269e-03   4.2609547e+00   2.8713260e+00  -4.0001268e+07
   4.7282427e-10  -5.0459187e-03   4.2579022e+00   2.8752160e+00  -3.9795345e+07
   4.7349116e-10  -5.0194474e-03   4.2548634e+00   2.8790885e+00  -3.9590436e+07
   4.7415805e-10  -4.9931124e-03   4.2518383e+00   2.8829433e+00  -3.9386536e+07
   4.7482494e-10  -4.9669131e-03   4.2488267e+00   2.8867806e+00  -3.9183641e+07
   4.7549183e-10  -4.9408488e-03   4.2458287e+00   2.8906005e+00  -3.8981746e+07
   4.7615872e-10  -4.9149188e-03   4.2428442e+00   2.8944029e+00  -3.8780848e+07
   4.7682561e-10  -4.8891225e-03   4.2398732e+00   2.8981879e+00  -3.8580941e+07
   4.7749250e-10  -4.8634591e-03   4.2369156e+00   2.9019557e+00  -3.8382021e+07
   4.7815939e-10  -4.8379281e-03   4.2339714e+00   2.9057062e+00  -3.8184085e+07
   4.7882628e-10  -4.8125288e-03   4.2310405e+00   2.9094394e+00  -3.7987127e+07
   4.7949316e-10  -4.7872604e-03   4.2281230e+00   2.9131556e+00  -3.7791143e+07
   4.8016005e-10  -4.7621225e-03   4.2252187e+00   2.9168546e+00  -3.7596130e+07
   4.8082694e-10  -4.7371143e-03   4.2223276e+00   2.9205367e+00  -3.7402082e+07
   4.8149383e-10  -4.7122352e-03   4.2194496e+00   2.9242017e+00  -3.7208995e+07
   4.8216072e-10  -4.6874845e-03   4.2165848e+00   2.9278499e+00  -3.7016866e+07
   4.8282761e-10  -4.6628617e-03   4.2137331e+00   2.9314812e+00  -3.6825689e+07
   4.8349450e-10  -4.6383660e-03   4.2108945e+00   2.9350957e+00  -3.6635461e+07
   4.8416139e-10  -4.6139969e-03   4.2080688e+00   2.9386935e+00  -3.6446178e+07
   4.8482828e-10  -4.5897537e-03   4.2052561e+00   2.9422745e+00  -3.6257834e+07
   4.8549517e-10  -4.5656358e-03   4.2024563e+00   2.9458390e+00  -3.6070427e+07
   4.8616205e-10  -4.5416426e-03   4.1996694e+00   2.9493869e+00  -3.5883952e+07
   4.8682894e-10  -4.5177735e-03   4.1968953e+00   2.9529183e+00  -3.5698404e+07
   4.8749583e-10  -4.4940277e-03   4.1941340e+00   2.9564332e+00  -3.5513779e+07
   4.8816272e-10  -4.4704048e-03   4.1913854e+00   2.9599318e+00  -3.5330074e+07
   4.8882961e-10  -4.4469041e-03   4.1886495e+00   2.9634140e+00  -3.5147283e+07
   4.8949650e-10  -4.4235250e-03   4.1859263e+00   2.9668799e+00  -3.4965404e+07
   4.9016339e-10  -4.4002669e-03   4.1832157e+00   2.9703296e+00  -3.4784432e+07
   4.9083028e-10  -4.3771292e-03   4.1805177e+00   2.9737632e+00  -3.4604362e+07
   4.9149717e-10  -4.3541113e-03   4.1778321e+00   2.9771807e+00  -3.4425191e+07
   4.9216405e-10  -4.3312126e-03   4.1751591e+00   2.9805821e+00  -3.4246915e+07
   4.9283094e-10  -4.3084325e-03   4.1724985e+00   2.9839675e+00  -3.4069529e+07
   4.9349783e-10  -4.2857703e-03   4.1698502e+00   2.9873370e+00  -3.3893030e+07
   4.9416472e-10  -4.2632256e-03   4.1672144e+00   2.9906907e+00  -3.3717413e+07
   4.9483161e-10  -4.2407978e-03   4.1645908e+00   2.9940285e+00  -3.3542675e+07
   4.9549850e-10  -4.2184861e-03   4.1619795e+00   2.9973506e+00  -3.3368811e+07
   4.9616539e-10  -4.1962901e-03   4.1593804e+00   3.0006570e+00  -3.3195817e+07
   4.9683228e-10  -4.1742093e-03   4.1567934e+00   3.0039478e+00  -3.3023690e+07
   4.9749917e-10  -4.1522429e-03   4.1542186e+00   3.0072230e+00  -3.2852425e+07
   4.9816606e-10  -4.1303904e-03   4.1516559e+00   3.0104827e+00  -3.2682019e+07
   4.9883294e-10  -4.1086513e-03   4.1491052e+00   3.0137269e+00  -3.2512467e+07
   4.9949983e-10  -4.0870250e-03   4.1465665e+00   3.0169557e+00  -3.2343766e+07
   5.0016672e-10  -4.0655109e-03   4.1440397e+00   3.0201692e+00  -3.2175912e+07
   5.0083361e-10  -4.0441085e-03   4.1415248e+00   3.0233674e+00  -3.2008900e+07
   5.0150050e-10  -4.0228172e-03   4.1390218e+00   3.0265503e+00  -3.1842728e+07
   5.0216739e-10  -4.0016364e-03   4.1365307e+00   3.0297182e+00  -3.1677390e+07
   5.0283428e-10  -3.9805657e-03   4.1340513e+00   3.0328709e+00  -3.1512884e+07
   5.0350117e-10  -3.9596043e-03   4.1315836e+00   3.0360085e+00  -3.1349205e+07
   5.0416806e-10  -3.9387519e-03   4.1291276e+00   3.0391312e+00  -3.1186349e+07
   5.0483494e-10  -3.9180077e-03   4.1266832e+00   3.0422389e+00  -3.1024314e+07
   5.0550183e-10  -3.8973714e-03   4.1242504e+00   3.0453318e+00  -3.0863094e+07
   5.0616872e-10  -3.8768423e-03   4.1218292e+00   3.0484098e+00  -3.0702686e+07
   5.0683561e-10  -3.8564199e-03   4.1194195e+00   3.0514731e+00  -3.0543086e+07
   5.0750250e-10  -3.8361037e-03   4.1170212e+00   3.0545217e+00  -3.0384292e+07
   5.0816939e-10  -3.8158932e-03   4.1146344e+00   3.0575556e+00  -3.0226297e+07
   5.0883628e-10  -3.7957877e-03   4.1122589e+00   3.0605750e+00  -3.0069100e+07
   5.0950317e-10  -3.7757868e-03   4.1098948e+00   3.0635798e+00  -2.9912697e+07
   5.1017006e-10  -3.7558899e-03   4.1075419e+00   3.0665702e+00  -2.9757082e+07
   5.1083695e-10  -3.7360966e-03   4.1052003e+00   3.0695462e+00  -2.9602254e+07
   5.1150383e-10  -3.7164063e-03   4.1028699e+00   3.0725078e+00  -2.9448208e+07
   5.1217072e-10  -3.6968184e-03   4.1005506e+00   3.0754551e+00  -2.9294941e+07
   5.1283761e-10  -3.6773325e-03   4.0982425e+00   3.0783882e+00  -2.9142448e+07
   5.1350450e-10  -3.6579480e-03   4.0959454e+00   3.0813071e+00  -2.8990727e+07
   5.1417139e-10  -3.6386645e-03   4.0936593e+00   3.0842118e+00  -2.8839774e+07
   5.1483828e-10  -3.6194814e-03   4.0913842e+00   3.0871026e+00  -2.8689584e+07
   5.1550517e-10  -3.6003981e-03   4.0891201e+00   3.0899793e+00  -2.8540155e+07
   5.1617206e-10  -3.5814143e-03   4.0868668e+00   3.0928420e+00  -2.8391483e+07
   5.1683895e-10  -3.5625294e-03   4.0846244e+00   3.0956909e+00  -2.8243564e+07
   5.1750584e-10  -3.5437429e-03   4.0823928e+00   3.0985259e+00  -2.8096394e+07
   5.1817272e-10  -3.5250543e-03   4.0801719e+00   3.1013472e+00  -2.7949971e+07
   5.1883961e-10  -3.5064631e-03   4.0779618e+00   3.1041547e+00  -2.7804291e+07
   5.1950650e-10  -3.4879688e-03   4.0757623e+00   3.1069486e+00  -2.7659349e+07
   5.2017339e-10  -3.4695709e-03   4.0735735e+00   3.1097288e+00  -2.7515144e+07
   5.2084028e-10  -3.4512690e-03   4.0713952e+00   3.1124955e+00  -2.7371670e+07
   5.2150717e-10  -3.4330624e-03   4.0692275e+00   3.1152487e+00  -2.7228925e+07
   5.2217406e-10  -3.4149509e-03   4.0670703e+00   3.1179885e+00  -2.7086905e+07
   5.2284095e-10  -3.3969338e-03   4.0649235e+00   3.1207149e+00  -2.6945607e+07
   5.2350784e-10  -3.3790107e-03   4.0627872e+00   3.1234280e+00  -2.6805027e+07
   5.2417472e-10  -3.3611811e-03   4.0606612e+00   3.1261277e+00  -2.6665162e+07
   5.2484161e-10  -3.3434446e-03   4.0585456e+00   3.1288143e+00  -2.6526008e+07
   5.2550850e-10  -3.3258006e-03   4.0564402e+00   3.1314877e+00  -2.6387563e+07
   5.2617539e-10  -3.3082487e-03   4.0543451e+00   3.1341481e+00  -2.6249822e+07
   5.2684228e-10  -3.2907885e-03   4.0522602e+00   3.1367953e+00  -2.6112782e+07
   5.2750917e-10  -3.2734194e-03   4.0501854e+00   3.1394296e+00  -2.5976440e+07
   5.2817606e-10  -3.2561410e-03   4.0481208e+00   3.1420509e+00  -2.5840793e+07
   5.2884295e-10  -3.2389529e-03   4.0460662e+00   3.1446594e+00  -2.5705837e+07
   5.2950984e-10  -3.2218545e-03   4.0440217e+00   3.1472550e+00  -2.5571569e+07
   5.3017673e-10  -3.2048454e-03   4.0419871e+00   3.1498379e+00  -2.5437986e+07
   5.3084361e-10  -3.1879252e-03   4.0399625e+00   3.1524080e+00  -2.5305084e+07
   5.3151050e-10  -3.1710934e-03   4.0379478e+00   3.1549655e+00  -2.5172860e+07
   5.3217739e-10  -3.1543495e-03   4.0359430e+00   3.1575104e+00  -2.5041311e+07
   5.3284428e-10  -3.1376932e-03   4.0339479e+00   3.1600427e+00  -2.4910434e+07
   5.3351117e-10  -3.1211239e-03   4.0319627e+00   3.1625625e+00  -2.4780224e+07
   5.3417806e-10  -3.1046413e-03   4.0299872e+00   3.1650699e+00  -2.4650680e+07
   5.3484495e-10  -3.0882448e-03   4.0280214e+00   3.1675649e+00  -2.4521798e+07
   5.3551184e-10  -3.0719340e-03   4.0260652e+00   3.1700476e+00  -2.4393574e+07
   5.3617873e-10  -3.0557085e-03   4.0241186e+00   3.1725179e+00  -2.4266006e+07
   5.3684562e-10  -3.0395679e-03   4.0221817e+00   3.1749761e+00  -2.4139091e+07
   5.3751250e-10  -3.0235118e-03   4.0202542e+00   3.1774221e+00  -2.4012824e+07
   5.3817939e-10  -3.0075396e-03   4.0183363e+00   3.1798559e+00  -2.3887203e+07
   5.3884628e-10  -2.9916509e-03   4.0164277e+00   3.1822777e+00  -2.3762226e+07
   5.3951317e-10  -2.9758455e-03   4.0145286e+00   3.1846875e+00  -2.3637888e+07
   5.4018006e-10  -2.9601227e-03   4.0126389e+00   3.1870853e+00  -2.3514187e+07
   5.4084695e-10  -2.9444822e-03   4.0107585e+00   3.1894712e+00  -2.3391119e+07
   5.4151384e-10  -2.9289235e-03   4.0088873e+00   3.1918452e+00  -2.3268682e+07
   5.4218073e-10  -2.9134464e-03   4.0070255e+00   3.1942074e+00  -2.3146872e+07
   5.4284762e-10  -2.8980502e-03   4.0051728e+00   3.1965579e+00  -2.3025686e+07
   5.4351450e-10  -2.8827347e-03   4.0033292e+00   3.1988967e+00  -2.2905122e+07
   5.4418139e-10  -2.8674993e-03   4.0014948e+00   3.2012238e+00  -2.2785177e+07
   5.4484828e-10  -2.8523437e-03   3.9996695e+00   3.2035394e+00  -2.2665846e+07
   5.4551517e-10  -2.8372676e-03   3.9978532e+00   3.2058434e+00  -2.2547128e+07
   5.4618206e-10  -2.8222703e-03   3.9960460e+00   3.2081359e+00  -2.2429019e+07
   5.4684895e-10  -2.8073517e-03   3.9942477e+00   3.2104170e+00  -2.2311516e+07
   5.4751584e-10  -2.7925112e-03   3.9924583e+00   3.2126866e+00  -2.2194617e+07
   5.4818273e-10  -2.7777485e-03   3.9906778e+00   3.2149450e+00  -2.2078318e+07
   5.4884962e-10  -2.7630631e-03   3.9889061e+00   3.2171920e+00  -2.1962617e+07
   5.4951651e-10  -2.7484547e-03   3.9871433e+00   3.2194278e+00  -2.1847510e+07
   5.5018339e-10  -2.7339229e-03   3.9853892e+00   3.2216525e+00  -2.1732995e+07
   5.5085028e-10  -2.7194672e-03   3.9836438e+00   3.2238660e+00  -2.1619068e+07
   5.5151717e-10  -2.7050874e-03   3.9819072e+00   3.2260684e+00  -2.1505727e+07
   5.5218406e-10  -2.6907829e-03   3.9801791e+00   3.2282598e+00  -2.1392970e+07
   5.5285095e-10  -2.6765534e-03   3.9784597e+00   3.2304402e+00  -2.1280792e+07
   5.5351784e-10  -2.6623985e-03   3.9767489e+00   3.2326096e+00  -2.1169191e+07
   5.5418473e-10  -2.6483179e-03   3.9750466e+00   3.2347682e+00  -2.1058165e+07
   5.5485162e-10  -2.6343111e-03   3.9733528e+00   3.2369160e+00  -2.0947711e+07
   5.5551851e-10  -2.6203778e-03   3.9716674e+00   3.2390529e+00  -2.0837825e+07
   5.5618540e-10  -2.6065176e-03   3.9699905e+00   3.2411792e+00  -2.0728505e+07
   5.5685228e-10  -2.5927302e-03   3.9683219e+00   3.2432947e+00  -2.0619749e+07
   5.5751917e-10  -2.5790150e-03   3.9666617e+00   3.2453996e+00  -2.0511552e+07
   5.5818606e-10  -2.5653718e-03   3.9650098e+00   3.2474939e+00  -2.0403914e+07
   5.5885295e-10  -2.5518003e-03   3.9633662e+00   3.2495777e+00  -2.0296830e+07
   5.5951984e-10  -2.5382999e-03   3.9617308e+00   3.2516510e+00  -2.0190298e+07
   5.6018673e-10  -2.5248705e-03   3.9601035e+00   3.2537138e+00  -2.0084316e+07
   5.6085362e-10  -2.5115115e-03   3.9584845e+00   3.2557663e+00  -1.9978880e+07
   5.6152051e-10  -2.4982226e-03   3.9568735e+00   3.2578084e+00  -1.9873988e+07
   5.6218740e-10  -2.4850036e-03   3.9552707e+00   3.2598402e+00  -1.9769638e+07
   5.6285428e-10  -2.4718539e-03   3.9536758e+00   3.2618617e+00  -1.9665826e+07
   5.6352117e-10  -2.4587733e-03   3.9520890e+00   3.2638731e+00  -1.9562550e+07
   5.6418806e-10  -2.4457614e-03   3.9505102e+00   3.2658743e+00  -1.9459808e+07
   5.6485495e-10  -2.4328178e-03   3.9489393e+00   3.2678654e+00  -1.9357596e+07
   5.6552184e-10  -2.4199422e-03   3.9473762e+00   3.2698464e+00  -1.9255912e+07
   5.6618873e-10  -2.4071343e-03   3.9458211e+00   3.2718174e+00  -1.9154753e+07
   5.6685562e-10  -2.3943936e-03   3.9442738e+00   3.2737784e+00  -1.9054117e+07
   5.6752251e-10  -2.3817199e-03   3.9427342e+00   3.2757296e+00  -1.8954001e+07
   5.6818940e-10  -2.3691128e-03   3.9412024e+00   3.2776708e+00  -1.8854403e+07
   5.6885629e-10  -2.3565719e-03   3.9396783e+00   3.2796022e+00  -1.8755320e+07
   5.6952317e-10  -2.3440970e-03   3.9381619e+00   3.2815239e+00  -1.8656749e+07
   5.7019006e-10  -2.3316876e-03   3.9366532e+00   3.2834358e+00  -1.8558688e+07
   5.7085695e-10  -2.3193434e-03   3.9351521e+00   3.2853380e+00  -1.8461134e+07
   5.7152384e-10  -2.3070641e-03   3.9336585e+00   3.2872305e+00  -1.8364086e+07
   5.7219073e-10  -2.2948494e-03   3.9321725e+00   3.2891135e+00  -1.8267539e+07
   5.7285762e-10  -2.2826989e-03   3.9306939e+00   3.2909869e+00  -1.8171492e+07
   5.7352451e-10  -2.2706123e-03   3.9292229e+00   3.2928508e+00  -1.8075943e+07
   5.7419140e-10  -2.2585893e-03   3.9277593e+00   3.2947052e+00  -1.7980888e+07
   5.7485829e-10  -2.2466294e-03   3.9263030e+00   3.2965502e+00  -1.7886326e+07
   5.7552518e-10  -2.2347325e-03   3.9248542e+00   3.2983859e+00  -1.7792254e+07
   5.7619206e-10  -2.2228982e-03   3.9234127e+00   3.3002122e+00  -1.7698669e+07
   5.7685895e-10  -2.2111261e-03   3.9219784e+00   3.3020292e+00  -1.7605569e+07
   5.7752584e-10  -2.1994159e-03   3.9205515e+00   3.3038369e+00  -1.7512951e+07
   5.7819273e-10  -2.1877673e-03   3.9191317e+00   3.3056355e+00  -1.7420814e+07
   5.7885962e-10  -2.1761800e-03   3.9177192e+00   3.3074249e+00  -1.7329154e+07
   5.7952651e-10  -2.1646537e-03   3.9163138e+00   3.3092052e+00  -1.7237970e+07
   5.8019340e-10  -2.1531881e-03   3.9149155e+00   3.3109765e+00  -1.7147258e+07
   5.8086029e-10  -2.1417828e-03   3.9135243e+00   3.3127387e+00  -1.7057017e+07
   5.8152718e-10  -2.1304375e-03   3.9121402e+00   3.3144919e+00  -1.6967245e+07
   5.8219406e-10  -2.1191519e-03   3.9107631e+00   3.3162362e+00  -1.6877938e+07
   5.8286095e-10  -2.1079257e-03   3.9093931e+00   3.3179716e+00  -1.6789095e+07
   5.8352784e-10  -2.0967586e-03   3.9080299e+00   3.3196981e+00  -1.6700713e+07
   5.8419473e-10  -2.0856503e-03   3.9066737e+00   3.3214159e+00  -1.6612790e+07
   5.8486162e-10  -2.0746005e-03   3.9053244e+00   3.3231248e+00  -1.6525323e+07
   5.8552851e-10  -2.0636089e-03   3.9039819e+00   3.3248251e+00  -1.6438311e+07
   5.8619540e-10  -2.0526752e-03   3.9026463e+00   3.3265166e+00  -1.6351751e+07
   5.8686229e-10  -2.0417990e-03   3.9013175e+00   3.3281995e+00  -1.6265640e+07
   5.8752918e-10  -2.0309801e-03   3.8999954e+00   3.3298738e+00  -1.6179977e+07
   5.8819607e-10  -2.0202182e-03   3.8986801e+00   3.3315395e+00  -1.6094759e+07
   5.8886295e-10  -2.0095130e-03   3.8973714e+00   3.3331968e+00  -1.6009984e+07
   5.8952984e-10  -1.9988641e-03   3.8960694e+00   3.3348455e+00  -1.5925650e+07
   5.9019673e-10  -1.9882714e-03   3.8947741e+00   3.3364858e+00  -1.5841754e+07
   5.9086362e-10  -1.9777344e-03   3.8934854e+00   3.3381177e+00  -1.5758294e+07
   5.9153051e-10  -1.9672530e-03   3.8922032e+00   3.3397413e+00  -1.5675269e+07
   5.9219740e-10  -1.9568268e-03   3.8909276e+00   3.3413565e+00  -1.5592675e+07
   5.9286429e-10  -1.9464556e-03   3.8896585e+00   3.3429634e+00  -1.5510512e+07
   5.9353118e-10  -1.9361390e-03   3.8883958e+00   3.3445622e+00  -1.5428775e+07
   5.9419807e-10  -1.9258767e-03   3.8871396e+00   3.3461527e+00  -1.5347464e+07
   5.9486495e-10  -1.9156686e-03   3.8858899e+00   3.3477351e+00  -1.5266577e+07
   5.9553184e-10  -1.9055142e-03   3.8846465e+00   3.3493093e+00  -1.5186110e+07
   5.9619873e-10  -1.8954134e-03   3.8834094e+00   3.3508755e+00  -1.5106062e+07
   5.9686562e-10  -1.8853658e-03   3.8821787e+00   3.3524336e+00  -1.5026431e+07
   5.9753251e-10  -1.8753712e-03   3.8809543e+00   3.3539838e+00  -1.4947215e+07
   5.9819940e-10  -1.8654293e-03   3.8797361e+00   3.3555260e+00  -1.4868412e+07
   5.9886629e-10  -1.8555398e-03   3.8785242e+00   3.3570602e+00  -1.4790018e+07
   5.9953318e-10  -1.8457024e-03   3.8773185e+00   3.3585866e+00  -1.4712034e+07
   6.0020007e-10  -1.8359169e-03   3.8761189e+00   3.3601051e+00  -1.4634456e+07
   6.0086696e-10  -1.8261830e-03   3.8749255e+00   3.3616159e+00  -1.4557282e+07
   6.0153384e-10  -1.8165005e-03   3.8737382e+00   3.3631188e+00  -1.4480510e+07
   6.0220073e-10  -1.8068690e-03   3.8725570e+00   3.3646141e+00  -1.4404139e+07
   6.0286762e-10  -1.7972883e-03   3.8713818e+00   3.3661016e+00  -1.4328165e+07
   6.0353451e-10  -1.7877581e-03   3.8702127e+00   3.3675815e+00  -1.4252588e+07
   6.0420140e-10  -1.7782783e-03   3.8690495e+00   3.3690538e+00  -1.4177405e+07
   6.0486829e-10  -1.7688484e-03   3.8678923e+00   3.3705185e+00  -1.4102614e+07
   6.0553518e-10  -1.7594683e-03   3.8667411e+00   3.3719756e+00  -1.4028214e+07
   6.0620207e-10  -1.7501376e-03   3.8655957e+00   3.3734253e+00  -1.3954201e+07
   6.0686896e-10  -1.7408562e-03   3.8644563e+00   3.3748674e+00  -1.3880575e+07
   6.0753585e-10  -1.7316238e-03   3.8633227e+00   3.3763022e+00  -1.3807333e+07
   6.0820273e-10  -1.7224401e-03   3.8621949e+00   3.3777296e+00  -1.3734473e+07
   6.0886962e-10  -1.7133048e-03   3.8610729e+00   3.3791495e+00  -1.3661994e+07
   6.0953651e-10  -1.7042178e-03   3.8599566e+00   3.3805622e+00  -1.3589893e+07
   6.1020340e-10  -1.6951787e-03   3.8588461e+00   3.3819676e+00  -1.3518168e+07
   6.1087029e-10  -1.6861873e-03   3.8577414e+00   3.3833657e+00  -1.3446818e+07
   6.1153718e-10  -1.6772434e-03   3.8566422e+00   3.3847567e+00  -1.3375840e+07
   6.1220407e-10  -1.6683467e-03   3.8555488e+00   3.3861404e+00  -1.3305234e+07
   6.1287096e-10  -1.6594969e-03   3.8544610e+00   3.3875170e+00  -1.3234996e+07
   6.1353785e-10  -1.6506939e-03   3.8533787e+00   3.3888865e+00  -1.3165125e+07
   6.1420473e-10  -1.6419374e-03   3.8523021e+00   3.3902489e+00  -1.3095619e+07
   6.1487162e-10  -1.6332270e-03   3.8512309e+00   3.3916043e+00  -1.3026476e+07
   6.1553851e-10  -1.6245627e-03   3.8501653e+00   3.3929527e+00  -1.2957695e+07
   6.1620540e-10  -1.6159441e-03   3.8491052e+00   3.3942941e+00  -1.2889273e+07
   6.1687229e-10  -1.6073711e-03   3.8480506e+00   3.3956286e+00  -1.2821209e+07
   6.1753918e-10  -1.5988433e-03   3.8470013e+00   3.3969562e+00  -1.2753501e+07
   6.1820607e-10  -1.5903605e-03   3.8459575e+00   3.3982769e+00  -1.2686147e+07
   6.1887296e-10  -1.5819226e-03   3.8449191e+00   3.3995908e+00  -1.2619145e+07
   6.1953985e-10  -1.5735292e-03   3.8438860e+00   3.4008979e+00  -1.2552493e+07
   6.2020674e-10  -1.5651801e-03   3.8428583e+00   3.4021982e+00  -1.2486191e+07
   6.2087362e-10  -1.5568752e-03   3.8418358e+00   3.4034918e+00  -1.2420234e+07
   6.2154051e-10  -1.5486141e-03   3.8408186e+00   3.4047787e+00  -1.2354623e+07
   6.2220740e-10  -1.5403967e-03   3.8398067e+00   3.4060589e+00  -1.2289356e+07
   6.2287429e-10  -1.5322226e-03   3.8388000e+00   3.4073325e+00  -1.2224430e+07
   6.2354118e-10  -1.5240918e-03   3.8377985e+00   3.4085995e+00  -1.2159843e+07
   6.2420807e-10  -1.5160039e-03   3.8368022e+00   3.4098600e+00  -1.2095595e+07
   6.2487496e-10  -1.5079588e-03   3.8358110e+00   3.4111139e+00  -1.2031683e+07
   6.2554185e-10  -1.4999561e-03   3.8348249e+00   3.4123613e+00  -1.1968106e+07
   6.2620874e-10  -1.4919958e-03   3.8338440e+00   3.4136022e+00  -1.1904861e+07
   6.2687563e-10  -1.4840775e-03   3.8328681e+00   3.4148368e+00  -1.1841948e+07
   6.2754251e-10  -1.4762011e-03   3.8318972e+00   3.4160649e+00  -1.1779364e+07
   6.2820940e-10  -1.4683662e-03   3.8309314e+00   3.4172866e+00  -1.1717108e+07
   6.2887629e-10  -1.4605728e-03   3.8299705e+00   3.4185020e+00  -1.1655178e+07
   6.2954318e-10  -1.4528206e-03   3.8290147e+00   3.4197111e+00  -1.1593573e+07
   6.3021007e-10  -1.4451094e-03   3.8280637e+00   3.4209140e+00  -1.1532290e+07
   6.3087696e-10  -1.4374390e-03   3.8271177e+00   3.4221105e+00  -1.1471328e+07
   6.3154385e-10  -1.4298090e-03   3.8261766e+00   3.4233009e+00  -1.1410686e+07
   6.3221074e-10  -1.4222195e-03   3.8252404e+00   3.4244851e+00  -1.1350362e+07
   6.3287763e-10  -1.4146700e-03   3.8243090e+00   3.4256631e+00  -1.1290354e+07
   6.3354451e-10  -1.4071605e-03   3.8233824e+00   3.4268351e+00  -1.1230660e+07
   6.3421140e-10  -1.3996906e-03   3.8224607e+00   3.4280009e+00  -1.1171279e+07
   6.3487829e-10  -1.3922603e-03   3.8215437e+00   3.4291607e+00  -1.1112210e+07
   6.3554518e-10  -1.3848692e-03   3.8206314e+00   3.4303144e+00  -1.1053450e+07
   6.3621207e-10  -1.3775173e-03   3.8197239e+00   3.4314622e+00  -1.0994999e+07
   6.3687896e-10  -1.3702042e-03   3.8188211e+00   3.4326040e+00  -1.0936854e+07
   6.3754585e-10  -1.3629298e-03   3.8179230e+00   3.4337398e+00  -1.0879014e+07
   6.3821274e-10  -1.3556938e-03   3.8170295e+00   3.4348698e+00  -1.0821477e+07
   6.3887963e-10  -1.3484962e-03   3.8161407e+00   3.4359939e+00  -1.0764242e+07
   6.3954652e-10  -1.3413366e-03   3.8152564e+00   3.4371121e+00  -1.0707307e+07
   6.4021340e-10  -1.3342148e-03   3.8143768e+00   3.4382245e+00  -1.0650672e+07
   6.4088029e-10  -1.3271308e-03   3.8135017e+00   3.4393311e+00  -1.0594333e+07
   6.4154718e-10  -1.3200842e-03   3.8126312e+00   3.4404320e+00  -1.0538290e+07
   6.4221407e-10  -1.3130749e-03   3.8117652e+00   3.4415271e+00  -1.0482541e+07
   6.4288096e-10  -1.3061027e-03   3.8109036e+00   3.4426165e+00  -1.0427085e+07
   6.4354785e-10  -1.2991673e-03   3.8100466e+00   3.4437003e+00  -1.0371920e+07
   6.4421474e-10  -1.2922687e-03   3.8091940e+00   3.4447784e+00  -1.0317044e+07
   6.4488163e-10  -1.2854065e-03   3.8083458e+00   3.4458509e+00  -1.0262457e+07
   6.4554852e-10  -1.2785807e-03   3.8075021e+00   3.4469178e+00  -1.0208156e+07
   6.4621541e-10  -1.2717910e-03   3.8066627e+00   3.4479791e+00  -1.0154140e+07
   6.4688229e-10  -1.2650372e-03   3.8058277e+00   3.4490350e+00  -1.0100408e+07
   6.4754918e-10  -1.2583191e-03   3.8049970e+00   3.4500853e+00  -1.0046959e+07
   6.4821607e-10  -1.2516366e-03   3.8041707e+00   3.4511301e+00  -9.9937896e+06
   6.4888296e-10  -1.2449895e-03   3.8033486e+00   3.4521695e+00  -9.9408998e+06
   6.4954985e-10  -1.2383775e-03   3.8025308e+00   3.4532035e+00  -9.8882879e+06
   6.5021674e-10  -1.2318006e-03   3.8017173e+00   3.4542321e+00  -9.8359524e+06
   6.5088363e-10  -1.2252584e-03   3.8009080e+00   3.4552553e+00  -9.7838919e+06
   6.5155052e-10  -1.2187509e-03   3.8001029e+00   3.4562732e+00  -9.7321050e+06
   6.5221741e-10  -1.2122778e-03   3.7993020e+00   3.4572858e+00  -9.6805902e+06
   6.5288429e-10  -1.2058390e-03   3.7985053e+00   3.4582931e+00  -9.6293462e+06
   6.5355118e-10  -1.1994343e-03   3.7977127e+00   3.4592951e+00  -9.5783714e+06
   6.5421807e-10  -1.1930634e-03   3.7969242e+00   3.4602919e+00  -9.5276647e+06
   6.5488496e-10  -1.1867263e-03   3.7961399e+00   3.4612835e+00  -9.4772245e+06
   6.5555185e-10  -1.1804228e-03   3.7953596e+00   3.4622699e+00  -9.4270494e+06
   6.5621874e-10  -1.1741526e-03   3.7945834e+00   3.4632512e+00  -9.3771382e+06
   6.5688563e-10  -1.1679156e-03   3.7938113e+00   3.4642274e+00  -9.3274894e+06
   6.5755252e-10  -1.1617117e-03   3.7930431e+00   3.4651984e+00  -9.2781017e+06
   6.5821941e-10  -1.1555406e-03   3.7922790e+00   3.4661644e+00  -9.2289738e+06
   6.5888630e-10  -1.1494022e-03   3.7915188e+00   3.4671253e+00  -9.1801042e+06
   6.5955318e-10  -1.1432962e-03   3.7907626e+00   3.4680812e+00  -9.1314916e+06
   6.6022007e-10  -1.1372227e-03   3.7900104e+00   3.4690322e+00  -9.0831348e+06
   6.6088696e-10  -1.1311812e-03   3.7892621e+00   3.4699781e+00  -9.0350323e+06
   6.6155385e-10  -1.1251718e-03   3.7885176e+00   3.4709191e+00  -8.9871829e+06
   6.6222074e-10  -1.1191942e-03   3.7877771e+00   3.4718552e+00  -8.9395853e+06
   6.6288763e-10  -1.1132483e-03   3.7870404e+00   3.4727864e+00  -8.8922381e+06
   6.6355452e-10  -1.1073338e-03   3.7863076e+00   3.4737127e+00  -8.8451401e+06
   6.6422141e-10  -1.1014507e-03   3.7855786e+00   3.4746342e+00  -8.7982899e+06
   6.6488830e-10  -1.0955987e-03   3.7848534e+00   3.4755509e+00  -8.7516863e+06
   6.6555519e-10  -1.0897778e-03   3.7841319e+00   3.4764627e+00  -8.7053280e+06
   6.6622207e-10  -1.0839876e-03   3.7834143e+00   3.4773698e+00  -8.6592137e+06
   6.6688896e-10  -1.0782282e-03   3.7827004e+00   3.4782722e+00  -8.6133421e+06
   6.6755585e-10  -1.0724992e-03   3.7819902e+00   3.4791698e+00  -8.5677121e+06
   6.6822274e-10  -1.0668007e-03   3.7812837e+00   3.4800628e+00  -8.5223222e+06
   6.6888963e-10  -1.0611322e-03   3.7805809e+00   3.4809510e+00  -8.4771714e+06
   6.6955652e-10  -1.0554939e-03   3.7798818e+00   3.4818346e+00  -8.4322583e+06
   6.7022341e-10  -1.0498854e-03   3.7791863e+00   3.4827136e+00  -8.3875817e+06
   6.7089030e-10  -1.0443066e-03   3.7784945e+00   3.4835880e+00  -8.3431404e+06
   6.7155719e-10  -1.0387574e-03   3.7778063e+00   3.4844578e+00  -8.2989332e+06
   6.7222407e-10  -1.0332376e-03   3.7771216e+00   3.4853231e+00  -8.2549588e+06
   6.7289096e-10  -1.0277470e-03   3.7764406e+00   3.4861838e+00  -8.2112160e+06
   6.7355785e-10  -1.0222855e-03   3.7757631e+00   3.4870400e+00  -8.1677036e+06
   6.7422474e-10  -1.0168530e-03   3.7750892e+00   3.4878917e+00  -8.1244205e+06
   6.7489163e-10  -1.0114492e-03   3.7744188e+00   3.4887390e+00  -8.0813654e+06
   6.7555852e-10  -1.0060741e-03   3.7737518e+00   3.4895818e+00  -8.0385372e+06
   6.7622541e-10  -1.0007275e-03   3.7730884e+00   3.4904202e+00  -7.9959346e+06
   6.7689230e-10  -9.9540923e-04   3.7724284e+00   3.4912542e+00  -7.9535566e+06
   6.7755919e-10  -9.9011913e-04   3.7717719e+00   3.4920839e+00  -7.9114018e+06
   6.7822608e-10  -9.8485708e-04   3.7711189e+00   3.4929092e+00  -7.8694692e+06
   6.7889296e-10  -9.7962291e-04   3.7704692e+00   3.4937301e+00  -7.8277576e+06
   6.7955985e-10  -9.7441649e-04   3.7698230e+00   3.4945468e+00  -7.7862659e+06
   6.8022674e-10  -9.6923766e-04   3.7691801e+00   3.4953592e+00  -7.7449929e+06
   6.8089363e-10  -9.6408629e-04   3.7685406e+00   3.4961673e+00  -7.7039375e+06
   6.8156052e-10  -9.5896223e-04   3.7679044e+00   3.4969712e+00  -7.6630985e+06
   6.8222741e-10  -9.5386532e-04   3.7672716e+00   3.4977709e+00  -7.6224748e+06
   6.8289430e-10  -9.4879544e-04   3.7666421e+00   3.4985663e+00  -7.5820653e+06
   6.8356119e-10  -9.4375244e-04   3.7660158e+00   3.4993576e+00  -7.5418689e+06
   6.8422808e-10  -9.3873617e-04   3.7653929e+00   3.5001448e+00  -7.5018844e+06
   6.8489496e-10  -9.3374650e-04   3.7647732e+00   3.5009278e+00  -7.4621108e+06
   6.8556185e-10  -9.2878328e-04   3.7641568e+00   3.5017067e+00  -7.4225469e+06
   6.8622874e-10  -9.2384638e-04   3.7635436e+00   3.5024815e+00  -7.3831918e+06
   6.8689563e-10  -9.1893565e-04   3.7629336e+00   3.5032523e+00  -7.3440441e+06
   6.8756252e-10  -9.1405097e-04   3.7623268e+00   3.5040190e+00  -7.3051030e+06
   6.8822941e-10  -9.0919218e-04   3.7617231e+00   3.5047817e+00  -7.2663673e+06
   6.8889630e-10  -9.0435916e-04   3.7611227e+00   3.5055404e+00  -7.2278360e+06
   6.8956319e-10  -8.9955177e-04   3.7605254e+00   3.5062951e+00  -7.1895079e+06
   6.9023008e-10  -8.9476987e-04   3.7599312e+00   3.5070458e+00  -7.1513820e+06
   6.9089697e-10  -8.9001332e-04   3.7593401e+00   3.5077926e+00  -7.1134574e+06
   6.9156385e-10  -8.8528201e-04   3.7587522e+00   3.5085355e+00  -7.0757328e+06
   6.9223074e-10  -8.8057578e-04   3.7581673e+00   3.5092744e+00  -7.0382073e+06
   6.9289763e-10  -8.7589452e-04   3.7575855e+00   3.5100095e+00  -7.0008798e+06
   6.9356452e-10  -8.7123808e-04   3.7570067e+00   3.5107407e+00  -6.9637493e+06
   6.9423141e-10  -8.6660634e-04   3.7564310e+00   3.5114681e+00  -6.9268148e+06
   6.9489830e-10  -8.6199917e-04   3.7558583e+00   3.5121917e+00  -6.8900752e+06
   6.9556519e-10  -8.5741643e-04   3.7552886e+00   3.5129114e+00  -6.8535295e+06
   6.9623208e-10  -8.5285800e-04   3.7547218e+00   3.5136274e+00  -6.8171768e+06
   6.9689897e-10  -8.4832375e-04   3.7541581e+00   3.5143396e+00  -6.7810159e+06
   6.9756586e-10  -8.4381355e-04   3.7535973e+00   3.5150481e+00  -6.7450460e+06
   6.9823274e-10  -8.3932728e-04   3.7530395e+00   3.5157528e+00  -6.7092660e+06
   6.9889963e-10  -8.3486480e-04   3.7524846e+00   3.5164539e+00  -6.6736748e+06
   6.9956652e-10  -8.3042600e-04   3.7519325e+00   3.5171512e+00  -6.6382716e+06
   7.0023341e-10  -8.2601075e-04   3.7513834e+00   3.5178449e+00  -6.6030554e+06
   7.0090030e-10  -8.2161892e-04   3.7508372e+00   3.5185350e+00  -6.5680251e+06
   7.0156719e-10  -8.1725038e-04   3.7502939e+00   3.5192214e+00  -6.5331797e+06
   7.0223408e-10  -8.1290503e-04   3.7497534e+00   3.5199042e+00  -6.4985185e+06
   7.0290097e-10  -8.0858273e-04   3.7492157e+00   3.5205834e+00  -6.4640402e+06
   7.0356786e-10  -8.0428336e-04   3.7486809e+00   3.5212590e+00  -6.4297441e+06
   7.0423474e-10  -8.0000681e-04   3.7481488e+00   3.5219311e+00  -6.3956291e+06
   7.0490163e-10  -7.9575294e-04   3.7476196e+00   3.5225996e+00  -6.3616944e+06
   7.0556852e-10  -7.9152165e-04   3.7470931e+00   3.5232647e+00  -6.3279389e+06
   7.0623541e-10  -7.8731280e-04   3.7465694e+00   3.5239262e+00  -6.2943617e+06
   7.0690230e-10  -7.8312629e-04   3.7460485e+00   3.5245842e+00  -6.2609619e+06
   7.0756919e-10  -7.7896200e-04   3.7455303e+00   3.5252388e+00  -6.2277385e+06
   7.0823608e-10  -7.7481980e-04   3.7450148e+00   3.5258900e+00  -6.1946907e+06
   7.0890297e-10  -7.7069959e-04   3.7445020e+00   3.5265377e+00  -6.1618175e+06
   7.0956986e-10  -7.6660124e-04   3.7439920e+00   3.5271820e+00  -6.1291181e+06
   7.1023675e-10  -7.6252464e-04   3.7434846e+00   3.5278229e+00  -6.0965914e+06
   7.1090363e-10  -7.5846967e-04   3.7429799e+00   3.5284604e+00  -6.0642366e+06
   7.1157052e-10  -7.5443623e-04   3.7424778e+00   3.5290946e+00  -6.0320528e+06
   7.1223741e-10  -7.5042419e-04   3.7419783e+00   3.5297254e+00  -6.0000391e+06
   7.1290430e-10  -7.4643344e-04   3.7414815e+00   3.5303530e+00  -5.9681945e+06
   7.1357119e-10  -7.4246387e-04   3.7409873e+00   3.5309772e+00  -5.9365183e+06
   7.1423808e-10  -7.3851538e-04   3.7404957e+00   3.5315981e+00  -5.9050096e+06
   7.1490497e-10  -7.3458784e-04   3.7400067e+00   3.5322158e+00  -5.8736674e+06
   7.1557186e-10  -7.3068115e-04   3.7395203e+00   3.5328302e+00  -5.8424908e+06
   7.1623875e-10  -7.2679519e-04   3.7390364e+00   3.5334413e+00  -5.8114791e+06
   7.1690564e-10  -7.2292986e-04   3.7385551e+00   3.5340493e+00  -5.7806314e+06
   7.1757252e-10  -7.1908505e-04   3.7380763e+00   3.5346540e+00  -5.7499467e+06
   7.1823941e-10  -7.1526065e-04   3.7376000e+00   3.5352556e+00  -5.7194243e+06
   7.1890630e-10  -7.1145654e-04   3.7371262e+00   3.5358540e+00  -5.6890632e+06
   7.1957319e-10  -7.0767264e-04   3.7366549e+00   3.5364492e+00  -5.6588627e+06
   7.2024008e-10  -7.0390882e-04   3.7361861e+00   3.5370413e+00  -5.6288219e+06
   7.2090697e-10  -7.0016498e-04   3.7357198e+00   3.5376303e+00  -5.5989400e+06
   7.2157386e-10  -6.9644101e-04   3.7352559e+00   3.5382161e+00  -5.5692160e+06
   7.2224075e-10  -6.9273682e-04   3.7347944e+00   3.5387989e+00  -5.5396493e+06
   7.2290764e-10  -6.8905229e-04   3.7343354e+00   3.5393786e+00  -5.5102390e+06
   7.2357452e-10  -6.8538733e-04   3.7338788e+00   3.5399553e+00  -5.4809842e+06
   7.2424141e-10  -6.8174182e-04   3.7334246e+00   3.5405289e+00  -5.4518841e+06
   7.2490830e-10  -6.7811567e-04   3.7329728e+00   3.5410995e+00  -5.4229380e+06
   7.2557519e-10  -6.7450877e-04   3.7325234e+00   3.5416671e+00  -5.3941450e+06
   7.2624208e-10  -6.7092102e-04   3.7320764e+00   3.5422317e+00  -5.3655043e+06
   7.2690897e-10  -6.6735232e-04   3.7316317e+00   3.5427933e+00  -5.3370151e+06
   7.2757586e-10  -6.6380257e-04   3.7311893e+00   3.5433519e+00  -5.3086766e+06
   7.2824275e-10  -6.6027167e-04   3.7307493e+00   3.5439076e+00  -5.2804881e+06
   7.2890964e-10  -6.5675951e-04   3.7303116e+00   3.5444604e+00  -5.2524487e+06
   7.2957653e-10  -6.5326601e-04   3.7298761e+00   3.5450103e+00  -5.2245576e+06
   7.3024341e-10  -6.4979106e-04   3.7294430e+00   3.5455572e+00  -5.1968142e+06
   7.3091030e-10  -6.4633456e-04   3.7290122e+00   3.5461013e+00  -5.1692175e+06
   7.3157719e-10  -6.4289642e-04   3.7285836e+00   3.5466425e+00  -5.1417669e+06
   7.3224408e-10  -6.3947653e-04   3.7281573e+00   3.5471808e+00  -5.1144615e+06
   7.3291097e-10  -6.3607481e-04   3.7277333e+00   3.5477163e+00  -5.0873006e+06
   7.3357786e-10  -6.3269115e-04   3.7273115e+00   3.5482490e+00  -5.0602835e+06
   7.3424475e-10  -6.2932546e-04   3.7268919e+00   3.5487789e+00  -5.0334094e+06
   7.3491164e-10  -6.2597765e-04   3.7264745e+00   3.5493059e+00  -5.0066775e+06
   7.3557853e-10  -6.2264762e-04   3.7260593e+00   3.5498302e+00  -4.9800871e+06
   7.3624542e-10  -6.1933527e-04   3.7256463e+00   3.5503518e+00  -4.9536374e+06
   7.3691230e-10  -6.1604051e-04   3.7252355e+00   3.5508705e+00  -4.9273277e+06
   7.3757919e-10  -6.1276326e-04   3.7248268e+00   3.5513866e+00  -4.9011573e+06
   7.3824608e-10  -6.0950341e-04   3.7244203e+00   3.5518999e+00  -4.8751255e+06
   7.3891297e-10  -6.0626087e-04   3.7240160e+00   3.5524105e+00  -4.8492314e+06
   7.3957986e-10  -6.0303556e-04   3.7236137e+00   3.5529184e+00  -4.8234745e+06
   7.4024675e-10  -5.9982738e-04   3.7232136e+00   3.5534236e+00  -4.7978539e+06
   7.4091364e-10  -5.9663624e-04   3.7228156e+00   3.5539261e+00  -4.7723689e+06
   7.4158053e-10  -5.9346205e-04   3.7224197e+00   3.5544260e+00  -4.7470189e+06
   7.4224742e-10  -5.9030472e-04   3.7220259e+00   3.5549233e+00  -4.7218031e+06
   7.4291430e-10  -5.8716417e-04   3.7216342e+00   3.5554179e+00  -4.6967208e+06
   7.4358119e-10  -5.8404029e-04   3.7212445e+00   3.5559100e+00  -4.6717714e+06
   7.4424808e-10  -5.8093302e-04   3.7208569e+00   3.5563994e+00  -4.6469540e+06
   7.4491497e-10  -5.7784224e-04   3.7204714e+00   3.5568862e+00  -4.6222681e+06
   7.4558186e-10  -5.7476789e-04   3.7200878e+00   3.5573705e+00  -4.5977129e+06
   7.4624875e-10  -5.7170987e-04   3.7197063e+00   3.5578522e+00  -4.5732878e+06
   7.4691564e-10  -5.6866809e-04   3.7193268e+00   3.5583314e+00  -4.5489920e+06
   7.4758253e-10  -5.6564248e-04   3.7189493e+00   3.5588080e+00  -4.5248249e+06
   7.4824942e-10  -5.6263294e-04   3.7185738e+00   3.5592821e+00  -4.5007858e+06
   7.4891631e-10  -5.5963939e-04   3.7182003e+00   3.5597537e+00  -4.4768740e+06
   7.4958319e-10  -5.5666174e-04   3.7178288e+00   3.5602228e+00  -4.4530889e+06
   7.5025008e-10  -5.5369991e-04   3.7174592e+00   3.5606895e+00  -4.4294298e+06
   7.5091697e-10  -5.5075382e-04   3.7170916e+00   3.5611536e+00  -4.4058959e+06
   7.5158386e-10  -5.4782338e-04   3.7167259e+00   3.5616154e+00  -4.3824868e+06
   7.5225075e-10  -5.4490851e-04   3.7163621e+00   3.5620746e+00  -4.3592017e+06
   7.5291764e-10  -5.4200913e-04   3.7160003e+00   3.5625315e+00  -4.3360399e+06
   7.5358453e-10  -5.3912516e-04   3.7156403e+00   3.5629859e+00  -4.3130008e+06
   7.5425142e-10  -5.3625650e-04   3.7152823e+00   3.5634380e+00  -4.2900838e+06
   7.5491831e-10  -5.3340310e-04   3.7149262e+00   3.5638876e+00  -4.2672883e+06
   7.5558520e-10  -5.3056485e-04   3.7145719e+00   3.5643349e+00  -4.2446135e+06
   7.5625208e-10  -5.2774168e-04   3.7142195e+00   3.5647798e+00  -4.2220588e+06
   7.5691897e-10  -5.2493352e-04   3.7138690e+00   3.5652223e+00  -4.1996237e+06
   7.5758586e-10  -5.2214028e-04   3.7135203e+00   3.5656625e+00  -4.1773074e+06
   7.5825275e-10  -5.1936188e-04   3.7131735e+00   3.5661004e+00  -4.1551094e+06
   7.5891964e-10  -5.1659824e-04   3.7128285e+00   3.5665360e+00  -4.1330290e+06
   7.5958653e-10  -5.1384930e-04   3.7124853e+00   3.5669693e+00  -4.1110657e+06
   7.6025342e-10  -5.1111496e-04   3.7121439e+00   3.5674002e+00  -4.0892187e+06
   7.6092031e-10  -5.0839515e-04   3.7118043e+00   3.5678289e+00  -4.0674875e+06
   7.6158720e-10  -5.0568979e-04   3.7114666e+00   3.5682554e+00  -4.0458715e+06
   7.6225408e-10  -5.0299881e-04   3.7111306e+00   3.5686795e+00  -4.0243700e+06
   7.6292097e-10  -5.0032214e-04   3.7107964e+00   3.5691015e+00  -4.0029826e+06
   7.6358786e-10  -4.9765969e-04   3.7104639e+00   3.5695212e+00  -3.9817084e+06
   7.6425475e-10  -4.9501139e-04   3.7101332e+00   3.5699387e+00  -3.9605471e+06
   7.6492164e-10  -4.9237716e-04   3.7098043e+00   3.5703539e+00  -3.9394979e+06
   7.6558853e-10  -4.8975693e-04   3.7094771e+00   3.5707670e+00  -3.9185603e+06
   7.6625542e-10  -4.8715063e-04   3.7091516e+00   3.5711779e+00  -3.8977336e+06
   7.6692231e-10  -4.8455819e-04   3.7088279e+00   3.5715866e+00  -3.8770174e+06
   7.6758920e-10  -4.8197952e-04   3.7085058e+00   3.5719932e+00  -3.8564110e+06
   7.6825609e-10  -4.7941455e-04   3.7081855e+00   3.5723976e+00  -3.8359139e+06
   7.6892297e-10  -4.7686322e-04   3.7078668e+00   3.5727998e+00  -3.8155254e+06
   7.6958986e-10  -4.7432545e-04   3.7075499e+00   3.5732000e+00  -3.7952450e+06
   7.7025675e-10  -4.7180117e-04   3.7072346e+00   3.5735980e+00  -3.7750721e+06
   7.7092364e-10  -4.6929031e-04   3.7069209e+00   3.5739939e+00  -3.7550062e+06
   7.7159053e-10  -4.6679280e-04   3.7066090e+00   3.5743877e+00  -3.7350467e+06
   7.7225742e-10  -4.6430855e-04   3.7062987e+00   3.5747795e+00  -3.7151930e+06
   7.7292431e-10  -4.6183752e-04   3.7059900e+00   3.5751691e+00  -3.6954446e+06
   7.7359120e-10  -4.5937962e-04   3.7056829e+00   3.5755567e+00  -3.6758009e+06
   7.7425809e-10  -4.5693478e-04   3.7053775e+00   3.5759423e+00  -3.6562614e+06
   7.7492497e-10  -4.5450294e-04   3.7050737e+00   3.5763258e+00  -3.6368254e+06
   7.7559186e-10  -4.5208403e-04   3.7047715e+00   3.5767072e+00  -3.6174926e+06
   7.7625875e-10  -4.4967798e-04   3.7044709e+00   3.5770867e+00  -3.5982623e+06
   7.7692564e-10  -4.4728472e-04   3.7041719e+00   3.5774642e+00  -3.5791339e+06
   7.7759253e-10  -4.4490418e-04   3.7038745e+00   3.5778396e+00  -3.5601070e+06
   7.7825942e-10  -4.4253629e-04   3.7035786e+00   3.5782131e+00  -3.5411811e+06
   7.7892631e-10  -4.4018099e-04   3.7032843e+00   3.5785846e+00  -3.5223555e+06
   7.7959320e-10  -4.3783822e-04   3.7029916e+00   3.5789541e+00  -3.5036297e+06
   7.8026009e-10  -4.3550790e-04   3.7027004e+00   3.5793216e+00  -3.4850033e+06
   7.8092698e-10  -4.3318997e-04   3.7024108e+00   3.5796873e+00  -3.4664756e+06
   7.8159386e-10  -4.3088436e-04   3.7021227e+00   3.5800509e+00  -3.4480463e+06
   7.8226075e-10  -4.2859101e-04   3.7018361e+00   3.5804127e+00  -3.4297147e+06
   7.8292764e-10  -4.2630985e-04   3.7015510e+00   3.5807725e+00  -3.4114803e+06
   7.8359453e-10  -4.2404082e-04   3.7012674e+00   3.5811305e+00  -3.3933427e+06
   7.8426142e-10  -4.2178385e-04   3.7009854e+00   3.5814865e+00  -3.3753012e+06
   7.8492831e-10  -4.1953889e-04   3.7007048e+00   3.5818407e+00  -3.3573555e+06
   7.8559520e-10  -4.1730586e-04   3.7004257e+00   3.5821929e+00  -3.3395050e+06
   7.8626209e-10  -4.1508470e-04   3.7001481e+00   3.5825433e+00  -3.3217492e+06
   7.8692898e-10  -4.1287535e-04   3.6998720e+00   3.5828919e+00  -3.3040876e+06
   7.8759587e-10  -4.1067775e-04   3.6995973e+00   3.5832386e+00  -3.2865197e+06
   7.8826275e-10  -4.0849184e-04   3.6993241e+00   3.5835835e+00  -3.2690450e+06
   7.8892964e-10  -4.0631754e-04   3.6990523e+00   3.5839265e+00  -3.2516630e+06
   7.8959653e-10  -4.0415481e-04   3.6987819e+00   3.5842678e+00  -3.2343732e+06
   7.9026342e-10  -4.0200358e-04   3.6985130e+00   3.5846072e+00  -3.2171752e+06
   7.9093031e-10  -3.9986378e-04   3.6982455e+00   3.5849448e+00  -3.2000684e+06
   7.9159720e-10  -3.9773537e-04   3.6979795e+00   3.5852806e+00  -3.1830525e+06
   7.9226409e-10  -3.9561827e-04   3.6977148e+00   3.5856147e+00  -3.1661267e+06
   7.9293098e-10  -3.9351243e-04   3.6974515e+00   3.5859470e+00  -3.1492909e+06
   7.9359787e-10  -3.9141779e-04   3.6971897e+00   3.5862775e+00  -3.1325443e+06
   7.9426475e-10  -3.8933429e-04   3.6969292e+00   3.5866063e+00  -3.1158866e+06
   7.9493164e-10  -3.8726186e-04   3.6966701e+00   3.5869333e+00  -3.0993173e+06
   7.9559853e-10  -3.8520046e-04   3.6964124e+00   3.5872586e+00  -3.0828360e+06
   7.9626542e-10  -3.8315002e-04   3.6961560e+00   3.5875822e+00  -3.0664421e+06
   7.9693231e-10  -3.8111048e-04   3.6959010e+00   3.5879041e+00  -3.0501352e+06
   7.9759920e-10  -3.7908179e-04   3.6956473e+00   3.5882242e+00  -3.0339149e+06
   7.9826609e-10  -3.7706388e-04   3.6953950e+00   3.5885427e+00  -3.0177807e+06
   7.9893298e-10  -3.7505671e-04   3.6951440e+00   3.5888594e+00  -3.0017320e+06
   7.9959987e-10  -3.7306021e-04   3.6948944e+00   3.5891745e+00  -2.9857686e+06
   8.0026676e-10  -3.7107433e-04   3.6946461e+00   3.5894880e+00  -2.9698899e+06
   8.0093364e-10  -3.6909901e-04   3.6943990e+00   3.5897997e+00  -2.9540955e+06
   8.0160053e-10  -3.6713420e-04   3.6941533e+00   3.5901098e+00  -2.9383849e+06
   8.0226742e-10  -3.6517984e-04   3.6939089e+00   3.5904183e+00  -2.9227577e+06
   8.0293431e-10  -3.6323586e-04   3.6936658e+00   3.5907251e+00  -2.9072135e+06
   8.0360120e-10  -3.6130223e-04   3.6934240e+00   3.5910303e+00  -2.8917517e+06
   8.0426809e-10  -3.5937889e-04   3.6931835e+00   3.5913339e+00  -2.8763721e+06
   8.0493498e-10  -3.5746577e-04   3.6929442e+00   3.5916359e+00  -2.8610741e+06
   8.0560187e-10  -3.5556282e-04   3.6927062e+00   3.5919363e+00  -2.8458573e+06
   8.0626876e-10  -3.5367000e-04   3.6924695e+00   3.5922351e+00  -2.8307212e+06
   8.0693565e-10  -3.5178725e-04   3.6922340e+00   3.5925323e+00  -2.8156656e+06
   8.0760253e-10  -3.4991450e-04   3.6919997e+00   3.5928279e+00  -2.8006898e+06
   8.0826942e-10  -3.4805172e-04   3.6917667e+00   3.5931219e+00  -2.7857936e+06
   8.0893631e-10  -3.4619885e-04   3.6915350e+00   3.5934144e+00  -2.7709765e+06
   8.0960320e-10  -3.4435583e-04   3.6913044e+00   3.5937054e+00  -2.7562380e+06
   8.1027009e-10  -3.4252262e-04   3.6910751e+00   3.5939948e+00  -2.7415778e+06
   8.1093698e-10  -3.4069915e-04   3.6908470e+00   3.5942827e+00  -2.7269954e+06
   8.1160387e-10  -3.3888539e-04   3.6906202e+00   3.5945690e+00  -2.7124904e+06
   8.1227076e-10  -3.3708127e-04   3.6903945e+00   3.5948538e+00  -2.6980625e+06
   8.1293765e-10  -3.3528675e-04   3.6901700e+00   3.5951372e+00  -2.6837112e+06
   8.1360453e-10  -3.3350177e-04   3.6899467e+00   3.5954190e+00  -2.6694360e+06
   8.1427142e-10  -3.3172629e-04   3.6897246e+00   3.5956993e+00  -2.6552367e+06
   8.1493831e-10  -3.2996026e-04   3.6895036e+00   3.5959781e+00  -2.6411128e+06
   8.1560520e-10  -3.2820361e-04   3.6892839e+00   3.5962555e+00  -2.6270639e+06
   8.1627209e-10  -3.2645631e-04   3.6890652e+00   3.5965314e+00  -2.6130895e+06
   8.1693898e-10  -3.2471831e-04   3.6888478e+00   3.5968058e+00  -2.5991894e+06
   8.1760587e-10  -3.2298955e-04   3.6886315e+00   3.5970787e+00  -2.5853631e+06
   8.1827276e-10  -3.2126999e-04   3.6884164e+00   3.5973502e+00  -2.5716102e+06
   8.1893965e-10  -3.1955957e-04   3.6882024e+00   3.5976203e+00  -2.5579304e+06
   8.1960654e-10  -3.1785825e-04   3.6879895e+00   3.5978890e+00  -2.5443232e+06
   8.2027342e-10  -3.1616599e-04   3.6877777e+00   3.5981562e+00  -2.5307883e+06
   8.2094031e-10  -3.1448272e-04   3.6875671e+00   3.5984220e+00  -2.5173253e+06
   8.2160720e-10  -3.1280841e-04   3.6873576e+00   3.5986864e+00  -2.5039337e+06
   8.2227409e-10  -3.1114301e-04   3.6871492e+00   3.5989494e+00  -2.4906133e+06
   8.2294098e-10  -3.0948647e-04   3.6869419e+00   3.5992110e+00  -2.4773636e+06
   8.2360787e-10  -3.0783874e-04   3.6867357e+00   3.5994712e+00  -2.4641844e+06
   8.2427476e-10  -3.0619977e-04   3.6865307e+00   3.5997300e+00  -2.4510751e+06
   8.2494165e-10  -3.0456953e-04   3.6863266e+00   3.5999874e+00  -2.4380354e+06
   8.2560854e-10  -3.0294796e-04   3.6861237e+00   3.6002435e+00  -2.4250650e+06
   8.2627543e-10  -3.0133501e-04   3.6859219e+00   3.6004983e+00  -2.4121635e+06
   8.2694231e-10  -2.9973065e-04   3.6857211e+00   3.6007516e+00  -2.3993305e+06
   8.2760920e-10  -2.9813482e-04   3.6855214e+00   3.6010037e+00  -2.3865657e+06
   8.2827609e-10  -2.9654748e-04   3.6853227e+00   3.6012544e+00  -2.3738687e+06
   8.2894298e-10  -2.9496858e-04   3.6851251e+00   3.6015037e+00  -2.3612392e+06
   8.2960987e-10  -2.9339809e-04   3.6849285e+00   3.6017518e+00  -2.3486767e+06
   8.3027676e-10  -2.9183595e-04   3.6847330e+00   3.6019985e+00  -2.3361810e+06
   8.3094365e-10  -2.9028212e-04   3.6845386e+00   3.6022439e+00  -2.3237516e+06
   8.3161054e-10  -2.8873656e-04   3.6843451e+00   3.6024880e+00  -2.3113883e+06
   8.3227743e-10  -2.8719923e-04   3.6841527e+00   3.6027308e+00  -2.2990907e+06
   8.3294431e-10  -2.8567007e-04   3.6839613e+00   3.6029724e+00  -2.2868584e+06
   8.3361120e-10  -2.8414905e-04   3.6837709e+00   3.6032126e+00  -2.2746911e+06
   8.3427809e-10  -2.8263612e-04   3.6835815e+00   3.6034516e+00  -2.2625884e+06
   8.3494498e-10  -2.8113124e-04   3.6833932e+00   3.6036893e+00  -2.2505500e+06
   8.3561187e-10  -2.7963437e-04   3.6832058e+00   3.6039257e+00  -2.2385756e+06
   8.3627876e-10  -2.7814546e-04   3.6830194e+00   3.6041609e+00  -2.2266648e+06
   8.3694565e-10  -2.7666447e-04   3.6828340e+00   3.6043949e+00  -2.2148173e+06
   8.3761254e-10  -2.7519136e-04   3.6826496e+00   3.6046276e+00  -2.2030327e+06
   8.3827943e-10  -2.7372610e-04   3.6824662e+00   3.6048590e+00  -2.1913108e+06
   8.3894632e-10  -2.7226863e-04   3.6822837e+00   3.6050892e+00  -2.1796511e+06
   8.3961320e-10  -2.7081891e-04   3.6821023e+00   3.6053183e+00  -2.1680534e+06
   8.4028009e-10  -2.6937691e-04   3.6819217e+00   3.6055461e+00  -2.1565173e+06
   8.4094698e-10  -2.6794258e-04   3.6817422e+00   3.6057726e+00  -2.1450425e+06
   8.4161387e-10  -2.6651588e-04   3.6815636e+00   3.6059980e+00  -2.1336287e+06
   8.4228076e-10  -2.6509677e-04   3.6813859e+00   3.6062222e+00  -2.1222755e+06
   8.4294765e-10  -2.6368522e-04   3.6812092e+00   3.6064452e+00  -2.1109827e+06
   8.4361454e-10  -2.6228117e-04   3.6810334e+00   3.6066670e+00  -2.0997498e+06
   8.4428143e-10  -2.6088460e-04   3.6808585e+00   3.6068877e+00  -2.0885767e+06
   8.4494832e-10  -2.5949546e-04   3.6806846e+00   3.6071071e+00  -2.0774629e+06
   8.4561521e-10  -2.5811371e-04   3.6805116e+00   3.6073254e+00  -2.0664082e+06
   8.4628209e-10  -2.5673931e-04   3.6803395e+00   3.6075426e+00  -2.0554122e+06
   8.4694898e-10  -2.5537223e-04   3.6801684e+00   3.6077586e+00  -2.0444747e+06
   8.4761587e-10  -2.5401242e-04   3.6799981e+00   3.6079734e+00  -2.0335953e+06
   8.4828276e-10  -2.5265985e-04   3.6798287e+00   3.6081871e+00  -2.0227737e+06
   8.4894965e-10  -2.5131448e-04   3.6796603e+00   3.6083997e+00  -2.0120097e+06
   8.4961654e-10  -2.4997626e-04   3.6794927e+00   3.6086111e+00  -2.0013028e+06
   8.5028343e-10  -2.4864517e-04   3.6793260e+00   3.6088214e+00  -1.9906528e+06
   8.5095032e-10  -2.4732116e-04   3.6791603e+00   3.6090306e+00  -1.9800595e+06
   8.5161721e-10  -2.4600419e-04   3.6789953e+00   3.6092387e+00  -1.9695224e+06
   8.5228409e-10  -2.4469423e-04   3.6788313e+00   3.6094457e+00  -1.9590414e+06
   8.5295098e-10  -2.4339125e-04   3.6786681e+00   3.6096516e+00  -1.9486160e+06
   8.5361787e-10  -2.4209520e-04   3.6785058e+00   3.6098564e+00  -1.9382461e+06
   8.5428476e-10  -2.4080604e-04   3.6783444e+00   3.6100601e+00  -1.9279313e+06
   8.5495165e-10  -2.3952375e-04   3.6781838e+00   3.6102627e+00  -1.9176713e+06
   8.5561854e-10  -2.3824828e-04   3.6780241e+00   3.6104642e+00  -1.9074658e+06
   8.5628543e-10  -2.3697960e-04   3.6778652e+00   3.6106647e+00  -1.8973146e+06
   8.5695232e-10  -2.3571767e-04   3.6777072e+00   3.6108641e+00  -1.8872173e+06
   8.5761921e-10  -2.3446246e-04   3.6775500e+00   3.6110625e+00  -1.8771738e+06
   8.5828610e-10  -2.3321392e-04   3.6773936e+00   3.6112598e+00  -1.8671836e+06
   8.5895298e-10  -2.3197203e-04   3.6772381e+00   3.6114560e+00  -1.8572465e+06
   8.5961987e-10  -2.3073675e-04   3.6770834e+00   3.6116512e+00  -1.8473622e+06
   8.6028676e-10  -2.2950805e-04   3.6769295e+00   3.6118454e+00  -1.8375305e+06
   8.6095365e-10  -2.2828588e-04   3.6767764e+00   3.6120385e+00  -1.8277510e+06
   8.6162054e-10  -2.2707022e-04   3.6766242e+00   3.6122306e+00  -1.8180235e+06
   8.6228743e-10  -2.2586103e-04   3.6764727e+00   3.6124217e+00  -1.8083477e+06
   8.6295432e-10  -2.2465827e-04   3.6763221e+00   3.6126118e+00  -1.7987234e+06
   8.6362121e-10  -2.2346192e-04   3.6761722e+00   3.6128009e+00  -1.7891502e+06
   8.6428810e-10  -2.2227193e-04   3.6760232e+00   3.6129889e+00  -1.7796280e+06
   8.6495498e-10  -2.2108827e-04   3.6758749e+00   3.6131760e+00  -1.7701563e+06
   8.6562187e-10  -2.1991092e-04   3.6757274e+00   3.6133621e+00  -1.7607350e+06
   8.6628876e-10  -2.1873983e-04   3.6755808e+00   3.6135472e+00  -1.7513638e+06
   8.6695565e-10  -2.1757498e-04   3.6754348e+00   3.6137313e+00  -1.7420424e+06
   8.6762254e-10  -2.1641632e-04   3.6752897e+00   3.6139144e+00  -1.7327706e+06
   8.6828943e-10  -2.1526383e-04   3.6751453e+00   3.6140965e+00  -1.7235480e+06
   8.6895632e-10  -2.1411748e-04   3.6750017e+00   3.6142777e+00  -1.7143745e+06
   8.6962321e-10  -2.1297722e-04   3.6748589e+00   3.6144579e+00  -1.7052498e+06
   8.7029010e-10  -2.1184304e-04   3.6747168e+00   3.6146372e+00  -1.6961735e+06
   8.7095699e-10  -2.1071489e-04   3.6745755e+00   3.6148155e+00  -1.6871456e+06
   8.7162387e-10  -2.0959275e-04   3.6744349e+00   3.6149929e+00  -1.6781656e+06
   8.7229076e-10  -2.0847658e-04   3.6742951e+00   3.6151693e+00  -1.6692334e+06
   8.7295765e-10  -2.0736635e-04   3.6741560e+00   3.6153448e+00  -1.6603487e+06
   8.7362454e-10  -2.0626203e-04   3.6740177e+00   3.6155193e+00  -1.6515112e+06
   8.7429143e-10  -2.0516359e-04   3.6738801e+00   3.6156929e+00  -1.6427207e+06
   8.7495832e-10  -2.0407099e-04   3.6737432e+00   3.6158656e+00  -1.6339769e+06
   8.7562521e-10  -2.0298421e-04   3.6736071e+00   3.6160374e+00  -1.6252796e+06
   8.7629210e-10  -2.0190322e-04   3.6734716e+00   3.6162083e+00  -1.6166286e+06
   8.7695899e-10  -2.0082798e-04   3.6733369e+00   3.6163782e+00  -1.6080236e+06
   8.7762588e-10  -1.9975846e-04   3.6732029e+00   3.6165473e+00  -1.5994643e+06
   8.7829276e-10  -1.9869464e-04   3.6730696e+00   3.6167155e+00  -1.5909506e+06
   8.7895965e-10  -1.9763647e-04   3.6729371e+00   3.6168827e+00  -1.5824821e+06
   8.7962654e-10  -1.9658394e-04   3.6728052e+00   3.6170491e+00  -1.5740587e+06
   8.8029343e-10  -1.9553702e-04   3.6726740e+00   3.6172146e+00  -1.5656800e+06
   8.8096032e-10  -1.9449566e-04   3.6725436e+00   3.6173792e+00  -1.5573459e+06
   8.8162721e-10  -1.9345985e-04   3.6724138e+00   3.6175429e+00  -1.5490561e+06
   8.8229410e-10  -1.9242955e-04   3.6722847e+00   3.6177058e+00  -1.5408104e+06
   8.8296099e-10  -1.9140474e-04   3.6721563e+00   3.6178678e+00  -1.5326086e+06
   8.8362788e-10  -1.9038538e-04   3.6720286e+00   3.6180290e+00  -1.5244503e+06
   8.8429476e-10  -1.8937145e-04   3.6719015e+00   3.6181892e+00  -1.5163355e+06
   8.8496165e-10  -1.8836292e-04   3.6717752e+00   3.6183487e+00  -1.5082638e+06
   8.8562854e-10  -1.8735975e-04   3.6716495e+00   3.6185073e+00  -1.5002350e+06
   8.8629543e-10  -1.8636193e-04   3.6715244e+00   3.6186650e+00  -1.4922490e+06
   8.8696232e-10  -1.8536941e-04   3.6714001e+00   3.6188219e+00  -1.4843054e+06
   8.8762921e-10  -1.8438218e-04   3.6712764e+00   3.6189780e+00  -1.4764040e+06
   8.8829610e-10  -1.8340020e-04   3.6711533e+00   3.6191332e+00  -1.4685447e+06
   8.8896299e-10  -1.8242346e-04   3.6710309e+00   3.6192876e+00  -1.4607271e+06
   8.8962988e-10  -1.8145191e-04   3.6709092e+00   3.6194412e+00  -1.4529512e+06
   8.9029677e-10  -1.8048553e-04   3.6707881e+00   3.6195940e+00  -1.4452166e+06
   8.9096365e-10  -1.7952430e-04   3.6706676e+00   3.6197460e+00  -1.4375231e+06
   8.9163054e-10  -1.7856818e-04   3.6705478e+00   3.6198972e+00  -1.4298706e+06
   8.9229743e-10  -1.7761716e-04   3.6704286e+00   3.6200475e+00  -1.4222587e+06
   8.9296432e-10  -1.7667120e-04   3.6703101e+00   3.6201971e+00  -1.4146874e+06
   8.9363121e-10  -1.7573027e-04   3.6701922e+00   3.6203458e+00  -1.4071563e+06
   8.9429810e-10  -1.7479435e-04   3.6700749e+00   3.6204938e+00  -1.3996653e+06
   8.9496499e-10  -1.7386342e-04   3.6699582e+00   3.6206410e+00  -1.3922141e+06
   8.9563188e-10  -1.7293744e-04   3.6698422e+00   3.6207874e+00  -1.3848025e+06
   8.9629877e-10  -1.7201639e-04   3.6697268e+00   3.6209330e+00  -1.3774304e+06
   8.9696566e-10  -1.7110024e-04   3.6696120e+00   3.6210779e+00  -1.3700974e+06
   8.9763254e-10  -1.7018897e-04   3.6694978e+00   3.6212220e+00  -1.3628035e+06
   8.9829943e-10  -1.6928255e-04   3.6693842e+00   3.6213653e+00  -1.3555484e+06
   8.9896632e-10  -1.6838096e-04   3.6692712e+00   3.6215078e+00  -1.3483319e+06
   8.9963321e-10  -1.6748417e-04   3.6691588e+00   3.6216496e+00  -1.3411537e+06
   9.0030010e-10  -1.6659215e-04   3.6690470e+00   3.6217907e+00  -1.3340138e+06
   9.0096699e-10  -1.6570488e-04   3.6689358e+00   3.6219309e+00  -1.3269118e+06
   9.0163388e-10  -1.6482233e-04   3.6688252e+00   3.6220705e+00  -1.3198476e+06
   9.0230077e-10  -1.6394449e-04   3.6687151e+00   3.6222093e+00  -1.3128209e+06
   9.0296766e-10  -1.6307131e-04   3.6686057e+00   3.6223474e+00  -1.3058317e+06
   9.0363454e-10  -1.6220279e-04   3.6684968e+00   3.6224847e+00  -1.2988796e+06
   9.0430143e-10  -1.6133889e-04   3.6683886e+00   3.6226213e+00  -1.2919645e+06
   9.0496832e-10  -1.6047958e-04   3.6682809e+00   3.6227572e+00  -1.2850862e+06
   9.0563521e-10  -1.5962486e-04   3.6681737e+00   3.6228923e+00  -1.2782445e+06
   9.0630210e-10  -1.5877468e-04   3.6680672e+00   3.6230268e+00  -1.2714392e+06
   9.0696899e-10  -1.5792903e-04   3.6679612e+00   3.6231605e+00  -1.2646701e+06
   9.0763588e-10  -1.5708788e-04   3.6678558e+00   3.6232935e+00  -1.2579369e+06
   9.0830277e-10  -1.5625121e-04   3.6677509e+00   3.6234258e+00  -1.2512397e+06
   9.0896966e-10  -1.5541900e-04   3.6676466e+00   3.6235574e+00  -1.2445780e+06
   9.0963655e-10  -1.5459121e-04   3.6675428e+00   3.6236883e+00  -1.2379518e+06
   9.1030343e-10  -1.5376784e-04   3.6674396e+00   3.6238185e+00  -1.2313608e+06
   9.1097032e-10  -1.5294884e-04   3.6673370e+00   3.6239480e+00  -1.2248049e+06
   9.1163721e-10  -1.5213421e-04   3.6672348e+00   3.6240768e+00  -1.2182839e+06
   9.1230410e-10  -1.5132391e-04   3.6671333e+00   3.6242050e+00  -1.2117975e+06
   9.1297099e-10  -1.5051793e-04   3.6670322e+00   3.6243324e+00  -1.2053457e+06
   9.1363788e-10  -1.4971624e-04   3.6669318e+00   3.6244592e+00  -1.1989282e+06
   9.1430477e-10  -1.4891882e-04   3.6668318e+00   3.6245853e+00  -1.1925448e+06
   9.1497166e-10  -1.4812564e-04   3.6667324e+00   3.6247107e+00  -1.1861954e+06
   9.1563855e-10  -1.4733669e-04   3.6666335e+00   3.6248355e+00  -1.1798798e+06
   9.1630544e-10  -1.4655194e-04   3.6665351e+00   3.6249596e+00  -1.1735978e+06
   9.1697232e-10  -1.4577136e-04   3.6664372e+00   3.6250830e+00  -1.1673492e+06
   9.1763921e-10  -1.4499494e-04   3.6663399e+00   3.6252058e+00  -1.1611338e+06
   9.1830610e-10  -1.4422266e-04   3.6662431e+00   3.6253280e+00  -1.1549515e+06
   9.1897299e-10  -1.4345449e-04   3.6661468e+00   3.6254494e+00  -1.1488021e+06
   9.1963988e-10  -1.4269040e-04   3.6660510e+00   3.6255703e+00  -1.1426855e+06
   9.2030677e-10  -1.4193039e-04   3.6659557e+00   3.6256905e+00  -1.1366013e+06
   9.2097366e-10  -1.4117442e-04   3.6658610e+00   3.6258100e+00  -1.1305496e+06
   9.2164055e-10  -1.4042248e-04   3.6657667e+00   3.6259290e+00  -1.1245300e+06
   9.2230744e-10  -1.3967454e-04   3.6656729e+00   3.6260472e+00  -1.1185425e+06
   9.2297432e-10  -1.3893058e-04   3.6655797e+00   3.6261649e+00  -1.1125868e+06
   9.2364121e-10  -1.3819059e-04   3.6654869e+00   3.6262819e+00  -1.1066628e+06
   9.2430810e-10  -1.3745453e-04   3.6653946e+00   3.6263983e+00  -1.1007704e+06
   9.2497499e-10  -1.3672240e-04   3.6653028e+00   3.6265141e+00  -1.0949093e+06
   9.2564188e-10  -1.3599416e-04   3.6652115e+00   3.6266293e+00  -1.0890793e+06
   9.2630877e-10  -1.3526980e-04   3.6651207e+00   3.6267439e+00  -1.0832804e+06
   9.2697566e-10  -1.3454930e-04   3.6650304e+00   3.6268578e+00  -1.0775124e+06
   9.2764255e-10  -1.3383263e-04   3.6649406e+00   3.6269712e+00  -1.0717750e+06
   9.2830944e-10  -1.3311978e-04   3.6648512e+00   3.6270839e+00  -1.0660682e+06
   9.2897633e-10  -1.3241072e-04   3.6647623e+00   3.6271961e+00  -1.0603917e+06
   9.2964321e-10  -1.3170544e-04   3.6646739e+00   3.6273076e+00  -1.0547455e+06
   9.3031010e-10  -1.3100392e-04   3.6645859e+00   3.6274186e+00  -1.0491293e+06
   9.3097699e-10  -1.3030613e-04   3.6644984e+00   3.6275289e+00  -1.0435429e+06
   9.3164388e-10  -1.2961206e-04   3.6644114e+00   3.6276387e+00  -1.0379863e+06
   9.3231077e-10  -1.2892168e-04   3.6643248e+00   3.6277479e+00  -1.0324593e+06
   9.3297766e-10  -1.2823498e-04   3.6642387e+00   3.6278565e+00  -1.0269617e+06
   9.3364455e-10  -1.2755193e-04   3.6641531e+00   3.6279646e+00  -1.0214933e+06
   9.3431144e-10  -1.2687253e-04   3.6640679e+00   3.6280720e+00  -1.0160540e+06
   9.3497833e-10  -1.2619674e-04   3.6639832e+00   3.6281789e+00  -1.0106437e+06
   9.3564522e-10  -1.2552455e-04   3.6638989e+00   3.6282852e+00  -1.0052622e+06
   9.3631210e-10  -1.2485593e-04   3.6638151e+00   3.6283910e+00  -9.9990929e+05
   9.3697899e-10  -1.2419088e-04   3.6637317e+00   3.6284962e+00  -9.9458488e+05
   9.3764588e-10  -1.2352937e-04   3.6636487e+00   3.6286008e+00  -9.8928881e+05
   9.3831277e-10  -1.2287138e-04   3.6635662e+00   3.6287049e+00  -9.8402092e+05
   9.3897966e-10  -1.2221690e-04   3.6634842e+00   3.6288084e+00  -9.7878106e+05
   9.3964655e-10  -1.2156590e-04   3.6634026e+00   3.6289114e+00  -9.7356909e+05
   9.4031344e-10  -1.2091837e-04   3.6633214e+00   3.6290138e+00  -9.6838485e+05
   9.4098033e-10  -1.2027428e-04   3.6632406e+00   3.6291157e+00  -9.6322820e+05
   9.4164722e-10  -1.1963363e-04   3.6631603e+00   3.6292170e+00  -9.5809900e+05
   9.4231410e-10  -1.1899638e-04   3.6630804e+00   3.6293178e+00  -9.5299709e+05
   9.4298099e-10  -1.1836253e-04   3.6630009e+00   3.6294181e+00  -9.4792234e+05
   9.4364788e-10  -1.1773206e-04   3.6629218e+00   3.6295178e+00  -9.4287459e+05
   9.4431477e-10  -1.1710494e-04   3.6628432e+00   3.6296170e+00  -9.3785370e+05
   9.4498166e-10  -1.1648116e-04   3.6627650e+00   3.6297157e+00  -9.3285954e+05
   9.4564855e-10  -1.1586071e-04   3.6626872e+00   3.6298138e+00  -9.2789196e+05
   9.4631544e-10  -1.1524356e-04   3.6626098e+00   3.6299115e+00  -9.2295081e+05
   9.4698233e-10  -1.1462969e-04   3.6625328e+00   3.6300086e+00  -9.1803596e+05
   9.4764922e-10  -1.1401909e-04   3.6624562e+00   3.6301051e+00  -9.1314727e+05
   9.4831611e-10  -1.1341175e-04   3.6623801e+00   3.6302012e+00  -9.0828459e+05
   9.4898299e-10  -1.1280764e-04   3.6623043e+00   3.6302968e+00  -9.0344780e+05
   9.4964988e-10  -1.1220674e-04   3.6622290e+00   3.6303918e+00  -8.9863674e+05
   9.5031677e-10  -1.1160905e-04   3.6621540e+00   3.6304864e+00  -8.9385130e+05
   9.5098366e-10  -1.1101454e-04   3.6620795e+00   3.6305804e+00  -8.8909132e+05
   9.5165055e-10  -1.1042319e-04   3.6620053e+00   3.6306740e+00  -8.8435668e+05
   9.5231744e-10  -1.0983500e-04   3.6619315e+00   3.6307670e+00  -8.7964723e+05
   9.5298433e-10  -1.0924993e-04   3.6618582e+00   3.6308596e+00  -8.7496285e+05
   9.5365122e-10  -1.0866798e-04   3.6617852e+00   3.6309516e+00  -8.7030341e+05
   9.5431811e-10  -1.0808913e-04   3.6617126e+00   3.6310432e+00  -8.6566876e+05
   9.5498499e-10  -1.0751337e-04   3.6616404e+00   3.6311343e+00  -8.6105878e+05
   9.5565188e-10  -1.0694067e-04   3.6615686e+00   3.6312249e+00  -8.5647333e+05
   9.5631877e-10  -1.0637102e-04   3.6614971e+00   3.6313150e+00  -8.5191230e+05
   9.5698566e-10  -1.0580440e-04   3.6614261e+00   3.6314046e+00  -8.4737554e+05
   9.5765255e-10  -1.0524080e-04   3.6613554e+00   3.6314938e+00  -8.4286292e+05
   9.5831944e-10  -1.0468020e-04   3.6612851e+00   3.6315825e+00  -8.3837433e+05
   9.5898633e-10  -1.0412259e-04   3.6612152e+00   3.6316707e+00  -8.3390962e+05
   9.5965322e-10  -1.0356795e-04   3.6611456e+00   3.6317585e+00  -8.2946868e+05
   9.6032011e-10  -1.0301626e-04   3.6610764e+00   3.6318457e+00  -8.2505138e+05
   9.6098700e-10  -1.0246750e-04   3.6610076e+00   3.6319325e+00  -8.2065759e+05
   9.6165388e-10  -1.0192168e-04   3.6609391e+00   3.6320189e+00  -8.1628719e+05
   9.6232077e-10  -1.0137875e-04   3.6608711e+00   3.6321048e+00  -8.1194005e+05
   9.6298766e-10  -1.0083872e-04   3.6608033e+00   3.6321902e+00  -8.0761604e+05
   9.6365455e-10  -1.0030157e-04   3.6607360e+00   3.6322752e+00  -8.0331506e+05
   9.6432144e-10  -9.9767272e-05   3.6606689e+00   3.6323597e+00  -7.9903696e+05
   9.6498833e-10  -9.9235823e-05   3.6606023e+00   3.6324438e+00  -7.9478164e+05
   9.6565522e-10  -9.8707205e-05   3.6605360e+00   3.6325274e+00  -7.9054898e+05
   9.6632211e-10  -9.8181401e-05   3.6604700e+00   3.6326106e+00  -7.8633884e+05
   9.6698900e-10  -9.7658398e-05   3.6604045e+00   3.6326934e+00  -7.8215111e+05
   9.6765589e-10  -9.7138180e-05   3.6603392e+00   3.6327757e+00  -7.7798567e+05
   9.6832277e-10  -9.6620732e-05   3.6602743e+00   3.6328575e+00  -7.7384240e+05
   9.6898966e-10  -9.6106040e-05   3.6602098e+00   3.6329390e+00  -7.6972119e+05
   9.6965655e-10  -9.5594090e-05   3.6601455e+00   3.6330200e+00  -7.6562192e+05
   9.7032344e-10  -9.5084865e-05   3.6600817e+00   3.6331005e+00  -7.6154447e+05
   9.7099033e-10  -9.4578353e-05   3.6600182e+00   3.6331807e+00  -7.5748872e+05
   9.7165722e-10  -9.4074538e-05   3.6599550e+00   3.6332604e+00  -7.5345457e+05
   9.7232411e-10  -9.3573407e-05   3.6598921e+00   3.6333397e+00  -7.4944188e+05
   9.7299100e-10  -9.3074944e-05   3.6598296e+00   3.6334185e+00  -7.4545056e+05
   9.7365789e-10  -9.2579136e-05   3.6597674e+00   3.6334970e+00  -7.4148048e+05
   9.7432477e-10  -9.2085969e-05   3.6597055e+00   3.6335750e+00  -7.3753154e+05
   9.7499166e-10  -9.1595428e-05   3.6596440e+00   3.6336526e+00  -7.3360362e+05
