   0.0000000e+00  -1.3159467e-01   6.2963137e+00   2.2484681e-04  -5.1985934e+08
   1.0003334e-12  -1.3107536e-01   6.2943529e+00   2.3404609e-04  -5.1845057e+08
   2.0006669e-12  -1.3055746e-01   6.2923587e+00   2.4359370e-04  -5.1704160e+08
   3.0010003e-12  -1.3004097e-01   6.2903306e+00   2.5350159e-04  -5.1563244e+08
   4.0013338e-12  -1.2952589e-01   6.2882682e+00   2.6378208e-04  -5.1422308e+08
   5.0016672e-12  -1.2901222e-01   6.2861711e+00   2.7444782e-04  -5.1281354e+08
   6.0020007e-12  -1.2849995e-01   6.2840389e+00   2.8551185e-04  -5.1140382e+08
   7.0023341e-12  -1.2798910e-01   6.2818711e+00   2.9698761e-04  -5.0999391e+08
   8.0026676e-12  -1.2747966e-01   6.2796673e+00   3.0888890e-04  -5.0858383e+08
   9.0030010e-12  -1.2697163e-01   6.2774271e+00   3.2122995e-04  -5.0717357e+08
   1.0003334e-11  -1.2646502e-01   6.2751500e+00   3.3402538e-04  -5.0576315e+08
   1.1003668e-11  -1.2595981e-01   6.2728356e+00   3.4729025e-04  -5.0435255e+08
   1.2004001e-11  -1.2545601e-01   6.2704834e+00   3.6104001e-04  -5.0294180e+08
   1.3004335e-11  -1.2495363e-01   6.2680931e+00   3.7529059e-04  -5.0153089e+08
   1.4004668e-11  -1.2445265e-01   6.2656641e+00   3.9005835e-04  -5.0011982e+08
   1.5005002e-11  -1.2395309e-01   6.2631961e+00   4.0536010e-04  -4.9870861e+08
   1.6005335e-11  -1.2345494e-01   6.2606886e+00   4.2121313e-04  -4.9729726e+08
   1.7005669e-11  -1.2295821e-01   6.2581411e+00   4.3763519e-04  -4.9588576e+08
   1.8006002e-11  -1.2246288e-01   6.2555532e+00   4.5464454e-04  -4.9447414e+08
   1.9006335e-11  -1.2196897e-01   6.2529245e+00   4.7225992e-04  -4.9306239e+08
   2.0006669e-11  -1.2147647e-01   6.2502545e+00   4.9050057e-04  -4.9165051e+08
   2.1007002e-11  -1.2098538e-01   6.2475428e+00   5.0938627e-04  -4.9023852e+08
   2.2007336e-11  -1.2049570e-01   6.2447889e+00   5.2893731e-04  -4.8882642e+08
   2.3007669e-11  -1.2000744e-01   6.2419924e+00   5.4917452e-04  -4.8741422e+08
   2.4008003e-11  -1.1952059e-01   6.2391529e+00   5.7011928e-04  -4.8600192e+08
   2.5008336e-11  -1.1903515e-01   6.2362698e+00   5.9179352e-04  -4.8458953e+08
   2.6008670e-11  -1.1855113e-01   6.2333429e+00   6.1421976e-04  -4.8317706e+08
   2.7009003e-11  -1.1806851e-01   6.2303715e+00   6.3742107e-04  -4.8176452e+08
   2.8009336e-11  -1.1758732e-01   6.2273553e+00   6.6142114e-04  -4.8035190e+08
   2.9009670e-11  -1.1710753e-01   6.2242939e+00   6.8624423e-04  -4.7893922e+08
   3.0010003e-11  -1.1662916e-01   6.2211867e+00   7.1191523e-04  -4.7752649e+08
   3.1010337e-11  -1.1615220e-01   6.2180334e+00   7.3845965e-04  -4.7611372e+08
   3.2010670e-11  -1.1567665e-01   6.2148335e+00   7.6590363e-04  -4.7470091e+08
   3.3011004e-11  -1.1520252e-01   6.2115866e+00   7.9427395e-04  -4.7328807e+08
   3.4011337e-11  -1.1472980e-01   6.2082923e+00   8.2359805e-04  -4.7187521e+08
   3.5011671e-11  -1.1425850e-01   6.2049501e+00   8.5390402e-04  -4.7046234e+08
   3.6012004e-11  -1.1378860e-01   6.2015595e+00   8.8522065e-04  -4.6904947e+08
   3.7012337e-11  -1.1332013e-01   6.1981202e+00   9.1757738e-04  -4.6763661e+08
   3.8012671e-11  -1.1285306e-01   6.1946318e+00   9.5100439e-04  -4.6622377e+08
   3.9013004e-11  -1.1238741e-01   6.1910937e+00   9.8553252e-04  -4.6481095e+08
   4.0013338e-11  -1.1192317e-01   6.1875056e+00   1.0211934e-03  -4.6339818e+08
   4.1013671e-11  -1.1146034e-01   6.1838671e+00   1.0580192e-03  -4.6198545e+08
   4.2014005e-11  -1.1099893e-01   6.1801777e+00   1.0960432e-03  -4.6057278e+08
   4.3014338e-11  -1.1053893e-01   6.1764370e+00   1.1352989e-03  -4.5916018e+08
   4.4014672e-11  -1.1008035e-01   6.1726447e+00   1.1758211e-03  -4.5774767e+08
   4.5015005e-11  -1.0962317e-01   6.1688002e+00   1.2176450e-03  -4.5633525e+08
   4.6015338e-11  -1.0916741e-01   6.1649033e+00   1.2608068e-03  -4.5492293e+08
   4.7015672e-11  -1.0871307e-01   6.1609535e+00   1.3053432e-03  -4.5351073e+08
   4.8016005e-11  -1.0826013e-01   6.1569504e+00   1.3512921e-03  -4.5209866e+08
   4.9016339e-11  -1.0780861e-01   6.1528936e+00   1.3986918e-03  -4.5068673e+08
   5.0016672e-11  -1.0735850e-01   6.1487827e+00   1.4475817e-03  -4.4927496e+08
   5.1017006e-11  -1.0690980e-01   6.1446174e+00   1.4980020e-03  -4.4786336e+08
   5.2017339e-11  -1.0646252e-01   6.1403972e+00   1.5499935e-03  -4.4645193e+08
   5.3017673e-11  -1.0601664e-01   6.1361218e+00   1.6035982e-03  -4.4504071e+08
   5.4018006e-11  -1.0557218e-01   6.1317908e+00   1.6588587e-03  -4.4362969e+08
   5.5018339e-11  -1.0512913e-01   6.1274039e+00   1.7158184e-03  -4.4221889e+08
   5.6018673e-11  -1.0468749e-01   6.1229606e+00   1.7745219e-03  -4.4080834e+08
   5.7019006e-11  -1.0424726e-01   6.1184607e+00   1.8350144e-03  -4.3939804e+08
   5.8019340e-11  -1.0380844e-01   6.1139037e+00   1.8973420e-03  -4.3798800e+08
   5.9019673e-11  -1.0337103e-01   6.1092894e+00   1.9615518e-03  -4.3657825e+08
   6.0020007e-11  -1.0293504e-01   6.1046174e+00   2.0276918e-03  -4.3516880e+08
   6.1020340e-11  -1.0250045e-01   6.0998874e+00   2.0958108e-03  -4.3375966e+08
   6.2020674e-11  -1.0206727e-01   6.0950990e+00   2.1659586e-03  -4.3235085e+08
   6.3021007e-11  -1.0163550e-01   6.0902519e+00   2.2381859e-03  -4.3094239e+08
   6.4021340e-11  -1.0120514e-01   6.0853458e+00   2.3125443e-03  -4.2953430e+08
   6.5021674e-11  -1.0077619e-01   6.0803804e+00   2.3890864e-03  -4.2812658e+08
   6.6022007e-11  -1.0034864e-01   6.0753554e+00   2.4678657e-03  -4.2671927e+08
   6.7022341e-11  -9.9922505e-02   6.0702705e+00   2.5489366e-03  -4.2531237e+08
   6.8022674e-11  -9.9497776e-02   6.0651254e+00   2.6323546e-03  -4.2390591e+08
   6.9023008e-11  -9.9074453e-02   6.0599198e+00   2.7181758e-03  -4.2249990e+08
   7.0023341e-11  -9.8652536e-02   6.0546535e+00   2.8064578e-03  -4.2109436e+08
   7.1023675e-11  -9.8232025e-02   6.0493263e+00   2.8972586e-03  -4.1968931e+08
   7.2024008e-11  -9.7812919e-02   6.0439377e+00   2.9906375e-03  -4.1828477e+08
   7.3024341e-11  -9.7395218e-02   6.0384877e+00   3.0866548e-03  -4.1688075e+08
   7.4024675e-11  -9.6978921e-02   6.0329759e+00   3.1853715e-03  -4.1547729e+08
   7.5025008e-11  -9.6564027e-02   6.0274021e+00   3.2868498e-03  -4.1407439e+08
   7.6025342e-11  -9.6150537e-02   6.0217662e+00   3.3911527e-03  -4.1267208e+08
   7.7025675e-11  -9.5738449e-02   6.0160678e+00   3.4983444e-03  -4.1127038e+08
   7.8026009e-11  -9.5327763e-02   6.0103068e+00   3.6084898e-03  -4.0986931e+08
   7.9026342e-11  -9.4918478e-02   6.0044831e+00   3.7216550e-03  -4.0846889e+08
   8.0026676e-11  -9.4510594e-02   5.9985963e+00   3.8379070e-03  -4.0706914e+08
   8.1027009e-11  -9.4104109e-02   5.9926463e+00   3.9573136e-03  -4.0567008e+08
   8.2027342e-11  -9.3699024e-02   5.9866330e+00   4.0799439e-03  -4.0427174e+08
   8.3027676e-11  -9.3295337e-02   5.9805562e+00   4.2058676e-03  -4.0287413e+08
   8.4028009e-11  -9.2893048e-02   5.9744157e+00   4.3351557e-03  -4.0147728e+08
   8.5028343e-11  -9.2492155e-02   5.9682114e+00   4.4678800e-03  -4.0008122e+08
   8.6028676e-11  -9.2092659e-02   5.9619432e+00   4.6041131e-03  -3.9868595e+08
   8.7029010e-11  -9.1694558e-02   5.9556110e+00   4.7439289e-03  -3.9729152e+08
   8.8029343e-11  -9.1297851e-02   5.9492146e+00   4.8874019e-03  -3.9589794e+08
   8.9029677e-11  -9.0902538e-02   5.9427539e+00   5.0346079e-03  -3.9450523e+08
   9.0030010e-11  -9.0508617e-02   5.9362289e+00   5.1856233e-03  -3.9311342e+08
   9.1030343e-11  -9.0116089e-02   5.9296395e+00   5.3405255e-03  -3.9172253e+08
   9.2030677e-11  -8.9724951e-02   5.9229856e+00   5.4993930e-03  -3.9033259e+08
   9.3031010e-11  -8.9335203e-02   5.9162671e+00   5.6623051e-03  -3.8894362e+08
   9.4031344e-11  -8.8946844e-02   5.9094841e+00   5.8293419e-03  -3.8755565e+08
   9.5031677e-11  -8.8559872e-02   5.9026364e+00   6.0005846e-03  -3.8616869e+08
   9.6032011e-11  -8.8174288e-02   5.8957240e+00   6.1761152e-03  -3.8478279e+08
   9.7032344e-11  -8.7790089e-02   5.8887470e+00   6.3560164e-03  -3.8339796e+08
   9.8032678e-11  -8.7407275e-02   5.8817053e+00   6.5403720e-03  -3.8201422e+08
   9.9033011e-11  -8.7025845e-02   5.8745989e+00   6.7292666e-03  -3.8063161e+08
   1.0003334e-10  -8.6645797e-02   5.8674279e+00   6.9227855e-03  -3.7925014e+08
   1.0103368e-10  -8.6267130e-02   5.8601923e+00   7.1210151e-03  -3.7786986e+08
   1.0203401e-10  -8.5889843e-02   5.8528922e+00   7.3240422e-03  -3.7649077e+08
   1.0303434e-10  -8.5513935e-02   5.8455275e+00   7.5319548e-03  -3.7511292e+08
   1.0403468e-10  -8.5139405e-02   5.8380983e+00   7.7448415e-03  -3.7373632e+08
   1.0503501e-10  -8.4766251e-02   5.8306048e+00   7.9627917e-03  -3.7236100e+08
   1.0603535e-10  -8.4394472e-02   5.8230470e+00   8.1858954e-03  -3.7098700e+08
   1.0703568e-10  -8.4024067e-02   5.8154250e+00   8.4142436e-03  -3.6961433e+08
   1.0803601e-10  -8.3655034e-02   5.8077390e+00   8.6479278e-03  -3.6824303e+08
   1.0903635e-10  -8.3287373e-02   5.7999890e+00   8.8870402e-03  -3.6687312e+08
   1.1003668e-10  -8.2921080e-02   5.7921752e+00   9.1316739e-03  -3.6550463e+08
   1.1103701e-10  -8.2556156e-02   5.7842977e+00   9.3819224e-03  -3.6413759e+08
   1.1203735e-10  -8.2192599e-02   5.7763568e+00   9.6378800e-03  -3.6277203e+08
   1.1303768e-10  -8.1830406e-02   5.7683525e+00   9.8996415e-03  -3.6140797e+08
   1.1403801e-10  -8.1469578e-02   5.7602851e+00   1.0167302e-02  -3.6004545e+08
   1.1503835e-10  -8.1110111e-02   5.7521547e+00   1.0440959e-02  -3.5868449e+08
   1.1603868e-10  -8.0752005e-02   5.7439616e+00   1.0720707e-02  -3.5732512e+08
   1.1703901e-10  -8.0395258e-02   5.7357059e+00   1.1006644e-02  -3.5596738e+08
   1.1803935e-10  -8.0039869e-02   5.7273880e+00   1.1298868e-02  -3.5461128e+08
   1.1903968e-10  -7.9685834e-02   5.7190080e+00   1.1597477e-02  -3.5325686e+08
   1.2004001e-10  -7.9333154e-02   5.7105662e+00   1.1902569e-02  -3.5190415e+08
   1.2104035e-10  -7.8981826e-02   5.7020629e+00   1.2214243e-02  -3.5055318e+08
   1.2204068e-10  -7.8631848e-02   5.6934984e+00   1.2532598e-02  -3.4920397e+08
   1.2304101e-10  -7.8283219e-02   5.6848729e+00   1.2857735e-02  -3.4785655e+08
   1.2404135e-10  -7.7935937e-02   5.6761867e+00   1.3189753e-02  -3.4651096e+08
   1.2504168e-10  -7.7590000e-02   5.6674401e+00   1.3528754e-02  -3.4516723e+08
   1.2604201e-10  -7.7245406e-02   5.6586336e+00   1.3874836e-02  -3.4382538e+08
   1.2704235e-10  -7.6902154e-02   5.6497673e+00   1.4228102e-02  -3.4248544e+08
   1.2804268e-10  -7.6560240e-02   5.6408417e+00   1.4588652e-02  -3.4114745e+08
   1.2904301e-10  -7.6219664e-02   5.6318572e+00   1.4956588e-02  -3.3981143e+08
   1.3004335e-10  -7.5880423e-02   5.6228140e+00   1.5332012e-02  -3.3847741e+08
   1.3104368e-10  -7.5542516e-02   5.6137125e+00   1.5715025e-02  -3.3714543e+08
   1.3204401e-10  -7.5205940e-02   5.6045533e+00   1.6105729e-02  -3.3581550e+08
   1.3304435e-10  -7.4870693e-02   5.5953365e+00   1.6504226e-02  -3.3448767e+08
   1.3404468e-10  -7.4536773e-02   5.5860628e+00   1.6910618e-02  -3.3316196e+08
   1.3504502e-10  -7.4204179e-02   5.5767324e+00   1.7325006e-02  -3.3183840e+08
   1.3604535e-10  -7.3872907e-02   5.5673459e+00   1.7747494e-02  -3.3051702e+08
   1.3704568e-10  -7.3542955e-02   5.5579036e+00   1.8178182e-02  -3.2919785e+08
   1.3804602e-10  -7.3214322e-02   5.5484060e+00   1.8617172e-02  -3.2788092e+08
   1.3904635e-10  -7.2887005e-02   5.5388536e+00   1.9064567e-02  -3.2656625e+08
   1.4004668e-10  -7.2561002e-02   5.5292469e+00   1.9520467e-02  -3.2525389e+08
   1.4104702e-10  -7.2236311e-02   5.5195863e+00   1.9984974e-02  -3.2394386e+08
   1.4204735e-10  -7.1912928e-02   5.5098724e+00   2.0458190e-02  -3.2263618e+08
   1.4304768e-10  -7.1590853e-02   5.5001056e+00   2.0940215e-02  -3.2133089e+08
   1.4404802e-10  -7.1270082e-02   5.4902865e+00   2.1431149e-02  -3.2002802e+08
   1.4504835e-10  -7.0950613e-02   5.4804155e+00   2.1931094e-02  -3.1872759e+08
   1.4604868e-10  -7.0632443e-02   5.4704932e+00   2.2440149e-02  -3.1742963e+08
   1.4704902e-10  -7.0315570e-02   5.4605202e+00   2.2958414e-02  -3.1613418e+08
   1.4804935e-10  -6.9999992e-02   5.4504970e+00   2.3485988e-02  -3.1484126e+08
   1.4904968e-10  -6.9685706e-02   5.4404241e+00   2.4022969e-02  -3.1355090e+08
   1.5005002e-10  -6.9372709e-02   5.4303022e+00   2.4569457e-02  -3.1226313e+08
   1.5105035e-10  -6.9060999e-02   5.4201317e+00   2.5125548e-02  -3.1097797e+08
   1.5205068e-10  -6.8750573e-02   5.4099133e+00   2.5691339e-02  -3.0969546e+08
   1.5305102e-10  -6.8441429e-02   5.3996476e+00   2.6266928e-02  -3.0841563e+08
   1.5405135e-10  -6.8133563e-02   5.3893352e+00   2.6852411e-02  -3.0713849e+08
   1.5505168e-10  -6.7826974e-02   5.3789766e+00   2.7447882e-02  -3.0586409e+08
   1.5605202e-10  -6.7521658e-02   5.3685725e+00   2.8053436e-02  -3.0459244e+08
   1.5705235e-10  -6.7217612e-02   5.3581235e+00   2.8669168e-02  -3.0332357e+08
   1.5805268e-10  -6.6914834e-02   5.3476302e+00   2.9295170e-02  -3.0205752e+08
   1.5905302e-10  -6.6613321e-02   5.3370933e+00   2.9931534e-02  -3.0079430e+08
   1.6005335e-10  -6.6313071e-02   5.3265134e+00   3.0578352e-02  -2.9953395e+08
   1.6105368e-10  -6.6014079e-02   5.3158911e+00   3.1235716e-02  -2.9827650e+08
   1.6205402e-10  -6.5716344e-02   5.3052271e+00   3.1903713e-02  -2.9702195e+08
   1.6305435e-10  -6.5419862e-02   5.2945221e+00   3.2582435e-02  -2.9577036e+08
   1.6405468e-10  -6.5124630e-02   5.2837767e+00   3.3271967e-02  -2.9452173e+08
   1.6505502e-10  -6.4830646e-02   5.2729916e+00   3.3972398e-02  -2.9327610e+08
   1.6605535e-10  -6.4537906e-02   5.2621675e+00   3.4683812e-02  -2.9203349e+08
   1.6705569e-10  -6.4246408e-02   5.2513050e+00   3.5406296e-02  -2.9079393e+08
   1.6805602e-10  -6.3956148e-02   5.2404048e+00   3.6139932e-02  -2.8955744e+08
   1.6905635e-10  -6.3667124e-02   5.2294677e+00   3.6884804e-02  -2.8832404e+08
   1.7005669e-10  -6.3379331e-02   5.2184943e+00   3.7640992e-02  -2.8709377e+08
   1.7105702e-10  -6.3092767e-02   5.2074852e+00   3.8408578e-02  -2.8586664e+08
   1.7205735e-10  -6.2807430e-02   5.1964413e+00   3.9187639e-02  -2.8464267e+08
   1.7305769e-10  -6.2523314e-02   5.1853632e+00   3.9978255e-02  -2.8342190e+08
   1.7405802e-10  -6.2240419e-02   5.1742517e+00   4.0780502e-02  -2.8220435e+08
   1.7505835e-10  -6.1958739e-02   5.1631074e+00   4.1594455e-02  -2.8099003e+08
   1.7605869e-10  -6.1678273e-02   5.1519310e+00   4.2420189e-02  -2.7977898e+08
   1.7705902e-10  -6.1399016e-02   5.1407233e+00   4.3257775e-02  -2.7857121e+08
   1.7805935e-10  -6.1120966e-02   5.1294850e+00   4.4107286e-02  -2.7736674e+08
   1.7905969e-10  -6.0844119e-02   5.1182168e+00   4.4968792e-02  -2.7616560e+08
   1.8006002e-10  -6.0568471e-02   5.1069195e+00   4.5842360e-02  -2.7496782e+08
   1.8106035e-10  -6.0294020e-02   5.0955937e+00   4.6728058e-02  -2.7377340e+08
   1.8206069e-10  -6.0020762e-02   5.0842403e+00   4.7625953e-02  -2.7258237e+08
   1.8306102e-10  -5.9748694e-02   5.0728598e+00   4.8536107e-02  -2.7139475e+08
   1.8406135e-10  -5.9477811e-02   5.0614532e+00   4.9458584e-02  -2.7021057e+08
   1.8506169e-10  -5.9208112e-02   5.0500210e+00   5.0393446e-02  -2.6902983e+08
   1.8606202e-10  -5.8939591e-02   5.0385641e+00   5.1340750e-02  -2.6785257e+08
   1.8706235e-10  -5.8672247e-02   5.0270832e+00   5.2300557e-02  -2.6667880e+08
   1.8806269e-10  -5.8406075e-02   5.0155789e+00   5.3272922e-02  -2.6550854e+08
   1.8906302e-10  -5.8141071e-02   5.0040521e+00   5.4257899e-02  -2.6434180e+08
   1.9006335e-10  -5.7877233e-02   4.9925035e+00   5.5255543e-02  -2.6317861e+08
   1.9106369e-10  -5.7614557e-02   4.9809338e+00   5.6265905e-02  -2.6201898e+08
   1.9206402e-10  -5.7353038e-02   4.9693437e+00   5.7289035e-02  -2.6086294e+08
   1.9306435e-10  -5.7092675e-02   4.9577341e+00   5.8324982e-02  -2.5971049e+08
   1.9406469e-10  -5.6833462e-02   4.9461055e+00   5.9373791e-02  -2.5856165e+08
   1.9506502e-10  -5.6575396e-02   4.9344589e+00   6.0435508e-02  -2.5741645e+08
   1.9606536e-10  -5.6318474e-02   4.9227948e+00   6.1510176e-02  -2.5627489e+08
   1.9706569e-10  -5.6062692e-02   4.9111140e+00   6.2597836e-02  -2.5513700e+08
   1.9806602e-10  -5.5808047e-02   4.8994173e+00   6.3698529e-02  -2.5400278e+08
   1.9906636e-10  -5.5554534e-02   4.8877054e+00   6.4812292e-02  -2.5287226e+08
   2.0006669e-10  -5.5302150e-02   4.8759790e+00   6.5939162e-02  -2.5174544e+08
   2.0106702e-10  -5.5050891e-02   4.8642388e+00   6.7079172e-02  -2.5062234e+08
   2.0206736e-10  -5.4800754e-02   4.8524856e+00   6.8232356e-02  -2.4950298e+08
   2.0306769e-10  -5.4551734e-02   4.8407201e+00   6.9398745e-02  -2.4838736e+08
   2.0406802e-10  -5.4303829e-02   4.8289430e+00   7.0578368e-02  -2.4727551e+08
   2.0506836e-10  -5.4057034e-02   4.8171550e+00   7.1771251e-02  -2.4616743e+08
   2.0606869e-10  -5.3811345e-02   4.8053568e+00   7.2977421e-02  -2.4506313e+08
   2.0706902e-10  -5.3566759e-02   4.7935492e+00   7.4196901e-02  -2.4396263e+08
   2.0806936e-10  -5.3323271e-02   4.7817328e+00   7.5429714e-02  -2.4286594e+08
   2.0906969e-10  -5.3080879e-02   4.7699084e+00   7.6675878e-02  -2.4177307e+08
   2.1007002e-10  -5.2839578e-02   4.7580766e+00   7.7935413e-02  -2.4068403e+08
   2.1107036e-10  -5.2599365e-02   4.7462382e+00   7.9208334e-02  -2.3959883e+08
   2.1207069e-10  -5.2360235e-02   4.7343938e+00   8.0494657e-02  -2.3851748e+08
   2.1307102e-10  -5.2122184e-02   4.7225441e+00   8.1794393e-02  -2.3743999e+08
   2.1407136e-10  -5.1885210e-02   4.7106899e+00   8.3107555e-02  -2.3636637e+08
   2.1507169e-10  -5.1649307e-02   4.6988318e+00   8.4434151e-02  -2.3529663e+08
   2.1607202e-10  -5.1414473e-02   4.6869704e+00   8.5774187e-02  -2.3423078e+08
   2.1707236e-10  -5.1180702e-02   4.6751065e+00   8.7127671e-02  -2.3316881e+08
   2.1807269e-10  -5.0947992e-02   4.6632408e+00   8.8494604e-02  -2.3211076e+08
   2.1907302e-10  -5.0716339e-02   4.6513738e+00   8.9874990e-02  -2.3105661e+08
   2.2007336e-10  -5.0485737e-02   4.6395062e+00   9.1268828e-02  -2.3000637e+08
   2.2107369e-10  -5.0256185e-02   4.6276388e+00   9.2676115e-02  -2.2896006e+08
   2.2207402e-10  -5.0027676e-02   4.6157720e+00   9.4096849e-02  -2.2791768e+08
   2.2307436e-10  -4.9800209e-02   4.6039067e+00   9.5531024e-02  -2.2687923e+08
   2.2407469e-10  -4.9573778e-02   4.5920434e+00   9.6978633e-02  -2.2584473e+08
   2.2507503e-10  -4.9348380e-02   4.5801828e+00   9.8439666e-02  -2.2481416e+08
   2.2607536e-10  -4.9124011e-02   4.5683255e+00   9.9914113e-02  -2.2378755e+08
   2.2707569e-10  -4.8900667e-02   4.5564721e+00   1.0140196e-01  -2.2276489e+08
   2.2807603e-10  -4.8678344e-02   4.5446232e+00   1.0290320e-01  -2.2174619e+08
   2.2907636e-10  -4.8457038e-02   4.5327795e+00   1.0441780e-01  -2.2073145e+08
   2.3007669e-10  -4.8236745e-02   4.5209415e+00   1.0594576e-01  -2.1972068e+08
   2.3107703e-10  -4.8017461e-02   4.5091098e+00   1.0748705e-01  -2.1871387e+08
   2.3207736e-10  -4.7799181e-02   4.4972852e+00   1.0904165e-01  -2.1771104e+08
   2.3307769e-10  -4.7581903e-02   4.4854680e+00   1.1060955e-01  -2.1671218e+08
   2.3407803e-10  -4.7365623e-02   4.4736590e+00   1.1219070e-01  -2.1571729e+08
   2.3507836e-10  -4.7150335e-02   4.4618587e+00   1.1378509e-01  -2.1472638e+08
   2.3607869e-10  -4.6936036e-02   4.4500676e+00   1.1539270e-01  -2.1373944e+08
   2.3707903e-10  -4.6722723e-02   4.4382864e+00   1.1701348e-01  -2.1275649e+08
   2.3807936e-10  -4.6510391e-02   4.4265155e+00   1.1864741e-01  -2.1177751e+08
   2.3907969e-10  -4.6299036e-02   4.4147556e+00   1.2029445e-01  -2.1080251e+08
   2.4008003e-10  -4.6088655e-02   4.4030072e+00   1.2195458e-01  -2.0983149e+08
   2.4108036e-10  -4.5879242e-02   4.3912708e+00   1.2362775e-01  -2.0886445e+08
   2.4208069e-10  -4.5670795e-02   4.3795470e+00   1.2531392e-01  -2.0790139e+08
   2.4308103e-10  -4.5463310e-02   4.3678363e+00   1.2701306e-01  -2.0694230e+08
   2.4408136e-10  -4.5256781e-02   4.3561391e+00   1.2872513e-01  -2.0598719e+08
   2.4508169e-10  -4.5051206e-02   4.3444561e+00   1.3045008e-01  -2.0503605e+08
   2.4608203e-10  -4.4846581e-02   4.3327878e+00   1.3218787e-01  -2.0408889e+08
   2.4708236e-10  -4.4642901e-02   4.3211345e+00   1.3393845e-01  -2.0314569e+08
   2.4808269e-10  -4.4440162e-02   4.3094969e+00   1.3570178e-01  -2.0220646e+08
   2.4908303e-10  -4.4238361e-02   4.2978754e+00   1.3747781e-01  -2.0127120e+08
   2.5008336e-10  -4.4037493e-02   4.2862705e+00   1.3926649e-01  -2.0033989e+08
   2.5108369e-10  -4.3837555e-02   4.2746826e+00   1.4106776e-01  -1.9941254e+08
   2.5208403e-10  -4.3638543e-02   4.2631123e+00   1.4288157e-01  -1.9848915e+08
   2.5308436e-10  -4.3440452e-02   4.2515599e+00   1.4470788e-01  -1.9756971e+08
   2.5408469e-10  -4.3243279e-02   4.2400261e+00   1.4654661e-01  -1.9665421e+08
   2.5508503e-10  -4.3047020e-02   4.2285111e+00   1.4839773e-01  -1.9574265e+08
   2.5608536e-10  -4.2851670e-02   4.2170154e+00   1.5026116e-01  -1.9483503e+08
   2.5708570e-10  -4.2657227e-02   4.2055395e+00   1.5213685e-01  -1.9393134e+08
   2.5808603e-10  -4.2463685e-02   4.1940838e+00   1.5402474e-01  -1.9303158e+08
   2.5908636e-10  -4.2271042e-02   4.1826487e+00   1.5592477e-01  -1.9213574e+08
   2.6008670e-10  -4.2079292e-02   4.1712347e+00   1.5783687e-01  -1.9124381e+08
   2.6108703e-10  -4.1888433e-02   4.1598421e+00   1.5976097e-01  -1.9035579e+08
   2.6208736e-10  -4.1698460e-02   4.1484713e+00   1.6169702e-01  -1.8947167e+08
   2.6308770e-10  -4.1509370e-02   4.1371228e+00   1.6364494e-01  -1.8859145e+08
   2.6408803e-10  -4.1321158e-02   4.1257968e+00   1.6560467e-01  -1.8771511e+08
   2.6508836e-10  -4.1133820e-02   4.1144939e+00   1.6757613e-01  -1.8684266e+08
   2.6608870e-10  -4.0947354e-02   4.1032144e+00   1.6955926e-01  -1.8597408e+08
   2.6708903e-10  -4.0761754e-02   4.0919585e+00   1.7155399e-01  -1.8510937e+08
   2.6808936e-10  -4.0577018e-02   4.0807268e+00   1.7356024e-01  -1.8424852e+08
   2.6908970e-10  -4.0393140e-02   4.0695196e+00   1.7557794e-01  -1.8339153e+08
   2.7009003e-10  -4.0210118e-02   4.0583371e+00   1.7760701e-01  -1.8253837e+08
   2.7109036e-10  -4.0027947e-02   4.0471798e+00   1.7964737e-01  -1.8168905e+08
   2.7209070e-10  -3.9846624e-02   4.0360479e+00   1.8169896e-01  -1.8084356e+08
   2.7309103e-10  -3.9666145e-02   4.0249419e+00   1.8376169e-01  -1.8000189e+08
   2.7409136e-10  -3.9486505e-02   4.0138620e+00   1.8583549e-01  -1.7916403e+08
   2.7509170e-10  -3.9307702e-02   4.0028085e+00   1.8792027e-01  -1.7832996e+08
   2.7609203e-10  -3.9129732e-02   3.9917818e+00   1.9001596e-01  -1.7749969e+08
   2.7709236e-10  -3.8952590e-02   3.9807821e+00   1.9212246e-01  -1.7667320e+08
   2.7809270e-10  -3.8776272e-02   3.9698098e+00   1.9423971e-01  -1.7585049e+08
   2.7909303e-10  -3.8600776e-02   3.9588651e+00   1.9636762e-01  -1.7503153e+08
   2.8009336e-10  -3.8426097e-02   3.9479484e+00   1.9850609e-01  -1.7421633e+08
   2.8109370e-10  -3.8252232e-02   3.9370598e+00   2.0065506e-01  -1.7340487e+08
   2.8209403e-10  -3.8079176e-02   3.9261997e+00   2.0281443e-01  -1.7259715e+08
   2.8309436e-10  -3.7906927e-02   3.9153684e+00   2.0498411e-01  -1.7179315e+08
   2.8409470e-10  -3.7735480e-02   3.9045660e+00   2.0716402e-01  -1.7099286e+08
   2.8509503e-10  -3.7564832e-02   3.8937929e+00   2.0935408e-01  -1.7019627e+08
   2.8609537e-10  -3.7394978e-02   3.8830493e+00   2.1155419e-01  -1.6940337e+08
   2.8709570e-10  -3.7225916e-02   3.8723355e+00   2.1376426e-01  -1.6861415e+08
   2.8809603e-10  -3.7057642e-02   3.8616516e+00   2.1598420e-01  -1.6782859e+08
   2.8909637e-10  -3.6890151e-02   3.8509979e+00   2.1821393e-01  -1.6704670e+08
   2.9009670e-10  -3.6723441e-02   3.8403746e+00   2.2045335e-01  -1.6626845e+08
   2.9109703e-10  -3.6557507e-02   3.8297820e+00   2.2270237e-01  -1.6549383e+08
   2.9209737e-10  -3.6392346e-02   3.8192203e+00   2.2496090e-01  -1.6472284e+08
   2.9309770e-10  -3.6227955e-02   3.8086896e+00   2.2722884e-01  -1.6395546e+08
   2.9409803e-10  -3.6064330e-02   3.7981902e+00   2.2950611e-01  -1.6319168e+08
   2.9509837e-10  -3.5901467e-02   3.7877222e+00   2.3179261e-01  -1.6243149e+08
   2.9609870e-10  -3.5739362e-02   3.7772859e+00   2.3408824e-01  -1.6167487e+08
   2.9709903e-10  -3.5578013e-02   3.7668814e+00   2.3639290e-01  -1.6092181e+08
   2.9809937e-10  -3.5417415e-02   3.7565090e+00   2.3870652e-01  -1.6017231e+08
   2.9909970e-10  -3.5257564e-02   3.7461688e+00   2.4102898e-01  -1.5942634e+08
   3.0010003e-10  -3.5098459e-02   3.7358609e+00   2.4336019e-01  -1.5868390e+08
   3.0110037e-10  -3.4940094e-02   3.7255855e+00   2.4570007e-01  -1.5794497e+08
   3.0210070e-10  -3.4782467e-02   3.7153429e+00   2.4804850e-01  -1.5720955e+08
   3.0310103e-10  -3.4625573e-02   3.7051330e+00   2.5040539e-01  -1.5647761e+08
   3.0410137e-10  -3.4469410e-02   3.6949562e+00   2.5277065e-01  -1.5574915e+08
   3.0510170e-10  -3.4313974e-02   3.6848125e+00   2.5514417e-01  -1.5502415e+08
   3.0610203e-10  -3.4159261e-02   3.6747020e+00   2.5752586e-01  -1.5430260e+08
   3.0710237e-10  -3.4005269e-02   3.6646250e+00   2.5991563e-01  -1.5358449e+08
   3.0810270e-10  -3.3851993e-02   3.6545815e+00   2.6231336e-01  -1.5286980e+08
   3.0910303e-10  -3.3699430e-02   3.6445716e+00   2.6471897e-01  -1.5215853e+08
   3.1010337e-10  -3.3547577e-02   3.6345956e+00   2.6713236e-01  -1.5145065e+08
   3.1110370e-10  -3.3396430e-02   3.6246534e+00   2.6955342e-01  -1.5074616e+08
   3.1210403e-10  -3.3245987e-02   3.6147452e+00   2.7198205e-01  -1.5004503e+08
   3.1310437e-10  -3.3096243e-02   3.6048712e+00   2.7441816e-01  -1.4934727e+08
   3.1410470e-10  -3.2947195e-02   3.5950313e+00   2.7686165e-01  -1.4865285e+08
   3.1510504e-10  -3.2798840e-02   3.5852258e+00   2.7931241e-01  -1.4796176e+08
   3.1610537e-10  -3.2651175e-02   3.5754547e+00   2.8177035e-01  -1.4727399e+08
   3.1710570e-10  -3.2504197e-02   3.5657180e+00   2.8423536e-01  -1.4658952e+08
   3.1810604e-10  -3.2357901e-02   3.5560160e+00   2.8670735e-01  -1.4590834e+08
   3.1910637e-10  -3.2212285e-02   3.5463486e+00   2.8918622e-01  -1.4523044e+08
   3.2010670e-10  -3.2067345e-02   3.5367159e+00   2.9167186e-01  -1.4455581e+08
   3.2110704e-10  -3.1923079e-02   3.5271180e+00   2.9416418e-01  -1.4388442e+08
   3.2210737e-10  -3.1779483e-02   3.5175550e+00   2.9666307e-01  -1.4321627e+08
   3.2310770e-10  -3.1636553e-02   3.5080270e+00   2.9916843e-01  -1.4255134e+08
   3.2410804e-10  -3.1494287e-02   3.4985339e+00   3.0168017e-01  -1.4188962e+08
   3.2510837e-10  -3.1352681e-02   3.4890759e+00   3.0419818e-01  -1.4123110e+08
   3.2610870e-10  -3.1211733e-02   3.4796530e+00   3.0672237e-01  -1.4057575e+08
   3.2710904e-10  -3.1071438e-02   3.4702652e+00   3.0925263e-01  -1.3992358e+08
   3.2810937e-10  -3.0931794e-02   3.4609126e+00   3.1178886e-01  -1.3927456e+08
   3.2910970e-10  -3.0792798e-02   3.4515953e+00   3.1433096e-01  -1.3862867e+08
   3.3011004e-10  -3.0654446e-02   3.4423133e+00   3.1687883e-01  -1.3798591e+08
   3.3111037e-10  -3.0516736e-02   3.4330665e+00   3.1943238e-01  -1.3734627e+08
   3.3211070e-10  -3.0379664e-02   3.4238552e+00   3.2199150e-01  -1.3670972e+08
   3.3311104e-10  -3.0243227e-02   3.4146792e+00   3.2455609e-01  -1.3607626e+08
   3.3411137e-10  -3.0107422e-02   3.4055385e+00   3.2712606e-01  -1.3544587e+08
   3.3511170e-10  -2.9972246e-02   3.3964333e+00   3.2970130e-01  -1.3481853e+08
   3.3611204e-10  -2.9837697e-02   3.3873636e+00   3.3228171e-01  -1.3419424e+08
   3.3711237e-10  -2.9703770e-02   3.3783293e+00   3.3486720e-01  -1.3357297e+08
   3.3811270e-10  -2.9570463e-02   3.3693304e+00   3.3745766e-01  -1.3295472e+08
   3.3911304e-10  -2.9437773e-02   3.3603670e+00   3.4005301e-01  -1.3233947e+08
   3.4011337e-10  -2.9305697e-02   3.3514391e+00   3.4265313e-01  -1.3172721e+08
   3.4111370e-10  -2.9174232e-02   3.3425467e+00   3.4525793e-01  -1.3111792e+08
   3.4211404e-10  -2.9043375e-02   3.3336898e+00   3.4786732e-01  -1.3051160e+08
   3.4311437e-10  -2.8913123e-02   3.3248683e+00   3.5048119e-01  -1.2990821e+08
   3.4411470e-10  -2.8783474e-02   3.3160823e+00   3.5309945e-01  -1.2930776e+08
   3.4511504e-10  -2.8654423e-02   3.3073317e+00   3.5572200e-01  -1.2871023e+08
   3.4611537e-10  -2.8525969e-02   3.2986166e+00   3.5834875e-01  -1.2811560e+08
   3.4711571e-10  -2.8398108e-02   3.2899370e+00   3.6097959e-01  -1.2752387e+08
   3.4811604e-10  -2.8270837e-02   3.2812927e+00   3.6361443e-01  -1.2693501e+08
   3.4911637e-10  -2.8144154e-02   3.2726839e+00   3.6625318e-01  -1.2634901e+08
   3.5011671e-10  -2.8018056e-02   3.2641104e+00   3.6889573e-01  -1.2576586e+08
   3.5111704e-10  -2.7892540e-02   3.2555722e+00   3.7154200e-01  -1.2518555e+08
   3.5211737e-10  -2.7767602e-02   3.2470694e+00   3.7419188e-01  -1.2460806e+08
   3.5311771e-10  -2.7643241e-02   3.2386019e+00   3.7684529e-01  -1.2403338e+08
   3.5411804e-10  -2.7519454e-02   3.2301697e+00   3.7950213e-01  -1.2346149e+08
   3.5511837e-10  -2.7396237e-02   3.2217726e+00   3.8216230e-01  -1.2289239e+08
   3.5611871e-10  -2.7273588e-02   3.2134108e+00   3.8482572e-01  -1.2232605e+08
   3.5711904e-10  -2.7151504e-02   3.2050841e+00   3.8749228e-01  -1.2176247e+08
   3.5811937e-10  -2.7029983e-02   3.1967925e+00   3.9016189e-01  -1.2120163e+08
   3.5911971e-10  -2.6909021e-02   3.1885360e+00   3.9283447e-01  -1.2064351e+08
   3.6012004e-10  -2.6788616e-02   3.1803145e+00   3.9550992e-01  -1.2008811e+08
   3.6112037e-10  -2.6668766e-02   3.1721280e+00   3.9818814e-01  -1.1953541e+08
   3.6212071e-10  -2.6549467e-02   3.1639765e+00   4.0086906e-01  -1.1898540e+08
   3.6312104e-10  -2.6430717e-02   3.1558598e+00   4.0355256e-01  -1.1843806e+08
   3.6412137e-10  -2.6312513e-02   3.1477779e+00   4.0623858e-01  -1.1789339e+08
   3.6512171e-10  -2.6194852e-02   3.1397308e+00   4.0892701e-01  -1.1735136e+08
   3.6612204e-10  -2.6077732e-02   3.1317184e+00   4.1161776e-01  -1.1681196e+08
   3.6712237e-10  -2.5961151e-02   3.1237406e+00   4.1431075e-01  -1.1627519e+08
   3.6812271e-10  -2.5845105e-02   3.1157975e+00   4.1700589e-01  -1.1574102e+08
   3.6912304e-10  -2.5729592e-02   3.1078889e+00   4.1970308e-01  -1.1520945e+08
   3.7012337e-10  -2.5614610e-02   3.1000147e+00   4.2240225e-01  -1.1468046e+08
   3.7112371e-10  -2.5500156e-02   3.0921750e+00   4.2510330e-01  -1.1415404e+08
   3.7212404e-10  -2.5386227e-02   3.0843695e+00   4.2780615e-01  -1.1363018e+08
   3.7312437e-10  -2.5272820e-02   3.0765984e+00   4.3051071e-01  -1.1310886e+08
   3.7412471e-10  -2.5159934e-02   3.0688614e+00   4.3321690e-01  -1.1259006e+08
   3.7512504e-10  -2.5047566e-02   3.0611586e+00   4.3592462e-01  -1.1207379e+08
   3.7612538e-10  -2.4935712e-02   3.0534899e+00   4.3863379e-01  -1.1156002e+08
   3.7712571e-10  -2.4824372e-02   3.0458551e+00   4.4134434e-01  -1.1104875e+08
   3.7812604e-10  -2.4713541e-02   3.0382542e+00   4.4405617e-01  -1.1053995e+08
   3.7912638e-10  -2.4603219e-02   3.0306871e+00   4.4676920e-01  -1.1003362e+08
   3.8012671e-10  -2.4493401e-02   3.0231538e+00   4.4948335e-01  -1.0952974e+08
   3.8112704e-10  -2.4384087e-02   3.0156542e+00   4.5219854e-01  -1.0902831e+08
   3.8212738e-10  -2.4275272e-02   3.0081881e+00   4.5491468e-01  -1.0852930e+08
   3.8312771e-10  -2.4166956e-02   3.0007555e+00   4.5763169e-01  -1.0803271e+08
   3.8412804e-10  -2.4059135e-02   2.9933564e+00   4.6034950e-01  -1.0753853e+08
   3.8512838e-10  -2.3951808e-02   2.9859906e+00   4.6306801e-01  -1.0704673e+08
   3.8612871e-10  -2.3844971e-02   2.9786581e+00   4.6578716e-01  -1.0655732e+08
   3.8712904e-10  -2.3738622e-02   2.9713587e+00   4.6850686e-01  -1.0607027e+08
   3.8812938e-10  -2.3632760e-02   2.9640924e+00   4.7122703e-01  -1.0558558e+08
   3.8912971e-10  -2.3527381e-02   2.9568590e+00   4.7394759e-01  -1.0510323e+08
   3.9013004e-10  -2.3422484e-02   2.9496586e+00   4.7666847e-01  -1.0462322e+08
   3.9113038e-10  -2.3318065e-02   2.9424910e+00   4.7938959e-01  -1.0414552e+08
   3.9213071e-10  -2.3214124e-02   2.9353561e+00   4.8211088e-01  -1.0367013e+08
   3.9313104e-10  -2.3110656e-02   2.9282538e+00   4.8483225e-01  -1.0319703e+08
   3.9413138e-10  -2.3007661e-02   2.9211840e+00   4.8755363e-01  -1.0272622e+08
   3.9513171e-10  -2.2905136e-02   2.9141467e+00   4.9027494e-01  -1.0225768e+08
   3.9613204e-10  -2.2803078e-02   2.9071417e+00   4.9299612e-01  -1.0179139e+08
   3.9713238e-10  -2.2701485e-02   2.9001689e+00   4.9571708e-01  -1.0132736e+08
   3.9813271e-10  -2.2600356e-02   2.8932283e+00   4.9843776e-01  -1.0086556e+08
   3.9913304e-10  -2.2499687e-02   2.8863197e+00   5.0115807e-01  -1.0040599e+08
   4.0013338e-10  -2.2399477e-02   2.8794431e+00   5.0387796e-01  -9.9948630e+07
   4.0113371e-10  -2.2299724e-02   2.8725983e+00   5.0659734e-01  -9.9493471e+07
   4.0213404e-10  -2.2200424e-02   2.8657853e+00   5.0931614e-01  -9.9040503e+07
   4.0313438e-10  -2.2101577e-02   2.8590039e+00   5.1203430e-01  -9.8589714e+07
   4.0413471e-10  -2.2003179e-02   2.8522541e+00   5.1475174e-01  -9.8141091e+07
   4.0513505e-10  -2.1905229e-02   2.8455356e+00   5.1746840e-01  -9.7694626e+07
   4.0613538e-10  -2.1807725e-02   2.8388486e+00   5.2018420e-01  -9.7250304e+07
   4.0713571e-10  -2.1710664e-02   2.8321927e+00   5.2289908e-01  -9.6808117e+07
   4.0813605e-10  -2.1614044e-02   2.8255680e+00   5.2561297e-01  -9.6368052e+07
   4.0913638e-10  -2.1517864e-02   2.8189743e+00   5.2832580e-01  -9.5930099e+07
   4.1013671e-10  -2.1422120e-02   2.8124116e+00   5.3103750e-01  -9.5494247e+07
   4.1113705e-10  -2.1326812e-02   2.8058796e+00   5.3374802e-01  -9.5060484e+07
   4.1213738e-10  -2.1231936e-02   2.7993784e+00   5.3645727e-01  -9.4628799e+07
   4.1313771e-10  -2.1137491e-02   2.7929077e+00   5.3916521e-01  -9.4199183e+07
   4.1413805e-10  -2.1043475e-02   2.7864676e+00   5.4187175e-01  -9.3771623e+07
   4.1513838e-10  -2.0949886e-02   2.7800578e+00   5.4457685e-01  -9.3346110e+07
   4.1613871e-10  -2.0856721e-02   2.7736784e+00   5.4728043e-01  -9.2922633e+07
   4.1713905e-10  -2.0763978e-02   2.7673291e+00   5.4998243e-01  -9.2501181e+07
   4.1813938e-10  -2.0671657e-02   2.7610098e+00   5.5268279e-01  -9.2081743e+07
   4.1913971e-10  -2.0579754e-02   2.7547205e+00   5.5538146e-01  -9.1664309e+07
   4.2014005e-10  -2.0488267e-02   2.7484611e+00   5.5807836e-01  -9.1248868e+07
   4.2114038e-10  -2.0397195e-02   2.7422314e+00   5.6077343e-01  -9.0835411e+07
   4.2214071e-10  -2.0306536e-02   2.7360313e+00   5.6346663e-01  -9.0423927e+07
   4.2314105e-10  -2.0216287e-02   2.7298607e+00   5.6615788e-01  -9.0014404e+07
   4.2414138e-10  -2.0126447e-02   2.7237195e+00   5.6884713e-01  -8.9606835e+07
   4.2514171e-10  -2.0037014e-02   2.7176076e+00   5.7153431e-01  -8.9201207e+07
   4.2614205e-10  -1.9947985e-02   2.7115249e+00   5.7421938e-01  -8.8797511e+07
   4.2714238e-10  -1.9859359e-02   2.7054713e+00   5.7690228e-01  -8.8395736e+07
   4.2814271e-10  -1.9771135e-02   2.6994466e+00   5.7958294e-01  -8.7995874e+07
   4.2914305e-10  -1.9683309e-02   2.6934508e+00   5.8226132e-01  -8.7597913e+07
   4.3014338e-10  -1.9595880e-02   2.6874837e+00   5.8493735e-01  -8.7201845e+07
   4.3114371e-10  -1.9508847e-02   2.6815452e+00   5.8761098e-01  -8.6807658e+07
   4.3214405e-10  -1.9422207e-02   2.6756353e+00   5.9028216e-01  -8.6415344e+07
   4.3314438e-10  -1.9335959e-02   2.6697537e+00   5.9295083e-01  -8.6024892e+07
   4.3414471e-10  -1.9250100e-02   2.6639004e+00   5.9561694e-01  -8.5636292e+07
   4.3514505e-10  -1.9164629e-02   2.6580753e+00   5.9828043e-01  -8.5249536e+07
   4.3614538e-10  -1.9079544e-02   2.6522783e+00   6.0094126e-01  -8.4864614e+07
   4.3714572e-10  -1.8994843e-02   2.6465092e+00   6.0359937e-01  -8.4481515e+07
   4.3814605e-10  -1.8910525e-02   2.6407680e+00   6.0625471e-01  -8.4100231e+07
   4.3914638e-10  -1.8826587e-02   2.6350544e+00   6.0890723e-01  -8.3720752e+07
   4.4014672e-10  -1.8743027e-02   2.6293685e+00   6.1155689e-01  -8.3343068e+07
   4.4114705e-10  -1.8659845e-02   2.6237100e+00   6.1420362e-01  -8.2967171e+07
   4.4214738e-10  -1.8577038e-02   2.6180790e+00   6.1684738e-01  -8.2593051e+07
   4.4314772e-10  -1.8494604e-02   2.6124752e+00   6.1948812e-01  -8.2220699e+07
   4.4414805e-10  -1.8412541e-02   2.6068986e+00   6.2212580e-01  -8.1850105e+07
   4.4514838e-10  -1.8330849e-02   2.6013490e+00   6.2476037e-01  -8.1481261e+07
   4.4614872e-10  -1.8249524e-02   2.5958264e+00   6.2739177e-01  -8.1114158e+07
   4.4714905e-10  -1.8168566e-02   2.5903305e+00   6.3001997e-01  -8.0748785e+07
   4.4814938e-10  -1.8087973e-02   2.5848614e+00   6.3264492e-01  -8.0385135e+07
   4.4914972e-10  -1.8007742e-02   2.5794188e+00   6.3526656e-01  -8.0023199e+07
   4.5015005e-10  -1.7927873e-02   2.5740028e+00   6.3788487e-01  -7.9662967e+07
   4.5115038e-10  -1.7848363e-02   2.5686131e+00   6.4049978e-01  -7.9304431e+07
   4.5215072e-10  -1.7769211e-02   2.5632496e+00   6.4311127e-01  -7.8947582e+07
   4.5315105e-10  -1.7690415e-02   2.5579123e+00   6.4571928e-01  -7.8592412e+07
   4.5415138e-10  -1.7611974e-02   2.5526011e+00   6.4832377e-01  -7.8238911e+07
   4.5515172e-10  -1.7533885e-02   2.5473157e+00   6.5092470e-01  -7.7887071e+07
   4.5615205e-10  -1.7456148e-02   2.5420561e+00   6.5352203e-01  -7.7536883e+07
   4.5715238e-10  -1.7378760e-02   2.5368223e+00   6.5611572e-01  -7.7188340e+07
   4.5815272e-10  -1.7301719e-02   2.5316140e+00   6.5870572e-01  -7.6841431e+07
   4.5915305e-10  -1.7225025e-02   2.5264312e+00   6.6129200e-01  -7.6496150e+07
   4.6015338e-10  -1.7148676e-02   2.5212737e+00   6.6387451e-01  -7.6152487e+07
   4.6115372e-10  -1.7072669e-02   2.5161415e+00   6.6645322e-01  -7.5810435e+07
   4.6215405e-10  -1.6997004e-02   2.5110344e+00   6.6902809e-01  -7.5469985e+07
   4.6315438e-10  -1.6921679e-02   2.5059523e+00   6.7159908e-01  -7.5131128e+07
   4.6415472e-10  -1.6846692e-02   2.5008951e+00   6.7416614e-01  -7.4793857e+07
   4.6515505e-10  -1.6772041e-02   2.4958628e+00   6.7672925e-01  -7.4458163e+07
   4.6615539e-10  -1.6697726e-02   2.4908551e+00   6.7928837e-01  -7.4124039e+07
   4.6715572e-10  -1.6623744e-02   2.4858720e+00   6.8184346e-01  -7.3791476e+07
   4.6815605e-10  -1.6550093e-02   2.4809133e+00   6.8439448e-01  -7.3460466e+07
   4.6915639e-10  -1.6476773e-02   2.4759791e+00   6.8694140e-01  -7.3131002e+07
   4.7015672e-10  -1.6403782e-02   2.4710690e+00   6.8948419e-01  -7.2803074e+07
   4.7115705e-10  -1.6331119e-02   2.4661831e+00   6.9202280e-01  -7.2476677e+07
   4.7215739e-10  -1.6258781e-02   2.4613212e+00   6.9455721e-01  -7.2151801e+07
   4.7315772e-10  -1.6186767e-02   2.4564833e+00   6.9708738e-01  -7.1828439e+07
   4.7415805e-10  -1.6115076e-02   2.4516691e+00   6.9961328e-01  -7.1506583e+07
   4.7515839e-10  -1.6043706e-02   2.4468787e+00   7.0213488e-01  -7.1186226e+07
   4.7615872e-10  -1.5972656e-02   2.4421118e+00   7.0465214e-01  -7.0867360e+07
   4.7715905e-10  -1.5901924e-02   2.4373684e+00   7.0716503e-01  -7.0549977e+07
   4.7815939e-10  -1.5831508e-02   2.4326484e+00   7.0967352e-01  -7.0234069e+07
   4.7915972e-10  -1.5761408e-02   2.4279517e+00   7.1217758e-01  -6.9919630e+07
   4.8016005e-10  -1.5691622e-02   2.4232781e+00   7.1467718e-01  -6.9606652e+07
   4.8116039e-10  -1.5622149e-02   2.4186275e+00   7.1717229e-01  -6.9295126e+07
   4.8216072e-10  -1.5552986e-02   2.4140000e+00   7.1966287e-01  -6.8985047e+07
   4.8316105e-10  -1.5484132e-02   2.4093952e+00   7.2214891e-01  -6.8676407e+07
   4.8416139e-10  -1.5415587e-02   2.4048132e+00   7.2463037e-01  -6.8369197e+07
   4.8516172e-10  -1.5347348e-02   2.4002538e+00   7.2710722e-01  -6.8063412e+07
   4.8616205e-10  -1.5279414e-02   2.3957169e+00   7.2957944e-01  -6.7759044e+07
   4.8716239e-10  -1.5211785e-02   2.3912024e+00   7.3204699e-01  -6.7456085e+07
   4.8816272e-10  -1.5144457e-02   2.3867103e+00   7.3450986e-01  -6.7154529e+07
   4.8916305e-10  -1.5077431e-02   2.3822403e+00   7.3696801e-01  -6.6854368e+07
   4.9016339e-10  -1.5010704e-02   2.3777924e+00   7.3942142e-01  -6.6555596e+07
   4.9116372e-10  -1.4944275e-02   2.3733666e+00   7.4187006e-01  -6.6258205e+07
   4.9216405e-10  -1.4878143e-02   2.3689626e+00   7.4431391e-01  -6.5962188e+07
   4.9316439e-10  -1.4812306e-02   2.3645804e+00   7.4675295e-01  -6.5667539e+07
   4.9416472e-10  -1.4746764e-02   2.3602199e+00   7.4918714e-01  -6.5374251e+07
   4.9516506e-10  -1.4681514e-02   2.3558809e+00   7.5161646e-01  -6.5082316e+07
   4.9616539e-10  -1.4616555e-02   2.3515634e+00   7.5404089e-01  -6.4791729e+07
   4.9716572e-10  -1.4551887e-02   2.3472674e+00   7.5646041e-01  -6.4502481e+07
   4.9816606e-10  -1.4487507e-02   2.3429925e+00   7.5887500e-01  -6.4214567e+07
   4.9916639e-10  -1.4423415e-02   2.3387389e+00   7.6128462e-01  -6.3927980e+07
   5.0016672e-10  -1.4359609e-02   2.3345063e+00   7.6368927e-01  -6.3642713e+07
   5.0116706e-10  -1.4296087e-02   2.3302947e+00   7.6608891e-01  -6.3358760e+07
   5.0216739e-10  -1.4232849e-02   2.3261039e+00   7.6848353e-01  -6.3076114e+07
   5.0316772e-10  -1.4169892e-02   2.3219339e+00   7.7087310e-01  -6.2794768e+07
   5.0416806e-10  -1.4107217e-02   2.3177846e+00   7.7325761e-01  -6.2514716e+07
   5.0516839e-10  -1.4044821e-02   2.3136558e+00   7.7563704e-01  -6.2235951e+07
   5.0616872e-10  -1.3982703e-02   2.3095475e+00   7.7801135e-01  -6.1958468e+07
   5.0716906e-10  -1.3920863e-02   2.3054596e+00   7.8038055e-01  -6.1682259e+07
   5.0816939e-10  -1.3859297e-02   2.3013919e+00   7.8274460e-01  -6.1407319e+07
   5.0916972e-10  -1.3798007e-02   2.2973444e+00   7.8510348e-01  -6.1133640e+07
   5.1017006e-10  -1.3736989e-02   2.2933170e+00   7.8745719e-01  -6.0861218e+07
   5.1117039e-10  -1.3676243e-02   2.2893095e+00   7.8980569e-01  -6.0590044e+07
   5.1217072e-10  -1.3615768e-02   2.2853220e+00   7.9214898e-01  -6.0320115e+07
   5.1317106e-10  -1.3555563e-02   2.2813542e+00   7.9448704e-01  -6.0051422e+07
   5.1417139e-10  -1.3495625e-02   2.2774060e+00   7.9681985e-01  -5.9783960e+07
   5.1517172e-10  -1.3435955e-02   2.2734775e+00   7.9914738e-01  -5.9517723e+07
   5.1617206e-10  -1.3376550e-02   2.2695685e+00   8.0146964e-01  -5.9252705e+07
   5.1717239e-10  -1.3317410e-02   2.2656788e+00   8.0378659e-01  -5.8988900e+07
   5.1817272e-10  -1.3258533e-02   2.2618084e+00   8.0609823e-01  -5.8726302e+07
   5.1917306e-10  -1.3199918e-02   2.2579573e+00   8.0840454e-01  -5.8464904e+07
   5.2017339e-10  -1.3141564e-02   2.2541252e+00   8.1070550e-01  -5.8204702e+07
   5.2117372e-10  -1.3083469e-02   2.2503122e+00   8.1300110e-01  -5.7945688e+07
   5.2217406e-10  -1.3025633e-02   2.2465181e+00   8.1529133e-01  -5.7687858e+07
   5.2317439e-10  -1.2968055e-02   2.2427428e+00   8.1757617e-01  -5.7431205e+07
   5.2417472e-10  -1.2910732e-02   2.2389863e+00   8.1985561e-01  -5.7175724e+07
   5.2517506e-10  -1.2853665e-02   2.2352484e+00   8.2212964e-01  -5.6921408e+07
   5.2617539e-10  -1.2796851e-02   2.2315290e+00   8.2439823e-01  -5.6668253e+07
   5.2717573e-10  -1.2740290e-02   2.2278281e+00   8.2666139e-01  -5.6416252e+07
   5.2817606e-10  -1.2683981e-02   2.2241456e+00   8.2891909e-01  -5.6165400e+07
   5.2917639e-10  -1.2627922e-02   2.2204813e+00   8.3117133e-01  -5.5915691e+07
   5.3017673e-10  -1.2572112e-02   2.2168353e+00   8.3341810e-01  -5.5667119e+07
   5.3117706e-10  -1.2516550e-02   2.2132073e+00   8.3565937e-01  -5.5419679e+07
   5.3217739e-10  -1.2461236e-02   2.2095973e+00   8.3789515e-01  -5.5173366e+07
   5.3317773e-10  -1.2406167e-02   2.2060052e+00   8.4012541e-01  -5.4928173e+07
   5.3417806e-10  -1.2351342e-02   2.2024310e+00   8.4235016e-01  -5.4684097e+07
   5.3517839e-10  -1.2296762e-02   2.1988745e+00   8.4456937e-01  -5.4441130e+07
   5.3617873e-10  -1.2242424e-02   2.1953357e+00   8.4678305e-01  -5.4199267e+07
   5.3717906e-10  -1.2188327e-02   2.1918144e+00   8.4899117e-01  -5.3958504e+07
   5.3817939e-10  -1.2134470e-02   2.1883105e+00   8.5119374e-01  -5.3718835e+07
   5.3917973e-10  -1.2080853e-02   2.1848241e+00   8.5339074e-01  -5.3480254e+07
   5.4018006e-10  -1.2027474e-02   2.1813550e+00   8.5558216e-01  -5.3242757e+07
   5.4118039e-10  -1.1974332e-02   2.1779030e+00   8.5776799e-01  -5.3006337e+07
   5.4218073e-10  -1.1921426e-02   2.1744682e+00   8.5994824e-01  -5.2770991e+07
   5.4318106e-10  -1.1868754e-02   2.1710505e+00   8.6212288e-01  -5.2536712e+07
   5.4418139e-10  -1.1816317e-02   2.1676496e+00   8.6429191e-01  -5.2303495e+07
   5.4518173e-10  -1.1764112e-02   2.1642657e+00   8.6645532e-01  -5.2071335e+07
   5.4618206e-10  -1.1712139e-02   2.1608985e+00   8.6861311e-01  -5.1840228e+07
   5.4718239e-10  -1.1660397e-02   2.1575481e+00   8.7076527e-01  -5.1610168e+07
   5.4818273e-10  -1.1608884e-02   2.1542142e+00   8.7291179e-01  -5.1381150e+07
   5.4918306e-10  -1.1557600e-02   2.1508969e+00   8.7505267e-01  -5.1153168e+07
   5.5018339e-10  -1.1506544e-02   2.1475960e+00   8.7718790e-01  -5.0926219e+07
   5.5118373e-10  -1.1455714e-02   2.1443115e+00   8.7931748e-01  -5.0700297e+07
   5.5218406e-10  -1.1405109e-02   2.1410433e+00   8.8144139e-01  -5.0475396e+07
   5.5318439e-10  -1.1354729e-02   2.1377912e+00   8.8355964e-01  -5.0251513e+07
   5.5418473e-10  -1.1304572e-02   2.1345553e+00   8.8567221e-01  -5.0028642e+07
   5.5518506e-10  -1.1254638e-02   2.1313354e+00   8.8777911e-01  -4.9806779e+07
   5.5618540e-10  -1.1204925e-02   2.1281315e+00   8.8988033e-01  -4.9585918e+07
   5.5718573e-10  -1.1155433e-02   2.1249435e+00   8.9197586e-01  -4.9366055e+07
   5.5818606e-10  -1.1106160e-02   2.1217712e+00   8.9406571e-01  -4.9147184e+07
   5.5918640e-10  -1.1057106e-02   2.1186147e+00   8.9614986e-01  -4.8929302e+07
   5.6018673e-10  -1.1008269e-02   2.1154738e+00   8.9822831e-01  -4.8712403e+07
   5.6118706e-10  -1.0959648e-02   2.1123484e+00   9.0030107e-01  -4.8496484e+07
   5.6218740e-10  -1.0911243e-02   2.1092386e+00   9.0236812e-01  -4.8281538e+07
   5.6318773e-10  -1.0863053e-02   2.1061441e+00   9.0442946e-01  -4.8067561e+07
   5.6418806e-10  -1.0815076e-02   2.1030649e+00   9.0648510e-01  -4.7854550e+07
   5.6518840e-10  -1.0767311e-02   2.1000010e+00   9.0853502e-01  -4.7642498e+07
   5.6618873e-10  -1.0719759e-02   2.0969523e+00   9.1057923e-01  -4.7431402e+07
   5.6718906e-10  -1.0672417e-02   2.0939186e+00   9.1261772e-01  -4.7221257e+07
   5.6818940e-10  -1.0625284e-02   2.0909000e+00   9.1465050e-01  -4.7012059e+07
   5.6918973e-10  -1.0578361e-02   2.0878963e+00   9.1667756e-01  -4.6803803e+07
   5.7019006e-10  -1.0531645e-02   2.0849074e+00   9.1869889e-01  -4.6596484e+07
   5.7119040e-10  -1.0485137e-02   2.0819333e+00   9.2071451e-01  -4.6390098e+07
   5.7219073e-10  -1.0438834e-02   2.0789740e+00   9.2272440e-01  -4.6184641e+07
   5.7319106e-10  -1.0392736e-02   2.0760292e+00   9.2472857e-01  -4.5980108e+07
   5.7419140e-10  -1.0346843e-02   2.0730991e+00   9.2672701e-01  -4.5776496e+07
   5.7519173e-10  -1.0301153e-02   2.0701834e+00   9.2871973e-01  -4.5573798e+07
   5.7619206e-10  -1.0255665e-02   2.0672821e+00   9.3070672e-01  -4.5372012e+07
   5.7719240e-10  -1.0210378e-02   2.0643952e+00   9.3268799e-01  -4.5171132e+07
   5.7819273e-10  -1.0165292e-02   2.0615225e+00   9.3466353e-01  -4.4971155e+07
   5.7919306e-10  -1.0120406e-02   2.0586640e+00   9.3663335e-01  -4.4772077e+07
   5.8019340e-10  -1.0075718e-02   2.0558197e+00   9.3859744e-01  -4.4573892e+07
   5.8119373e-10  -1.0031228e-02   2.0529894e+00   9.4055581e-01  -4.4376598e+07
   5.8219406e-10  -9.9869349e-03   2.0501730e+00   9.4250846e-01  -4.4180189e+07
   5.8319440e-10  -9.9428379e-03   2.0473706e+00   9.4445539e-01  -4.3984661e+07
   5.8419473e-10  -9.8989360e-03   2.0445820e+00   9.4639660e-01  -4.3790011e+07
   5.8519507e-10  -9.8552284e-03   2.0418072e+00   9.4833209e-01  -4.3596234e+07
   5.8619540e-10  -9.8117143e-03   2.0390460e+00   9.5026186e-01  -4.3403325e+07
   5.8719573e-10  -9.7683926e-03   2.0362985e+00   9.5218591e-01  -4.3211282e+07
   5.8819607e-10  -9.7252627e-03   2.0335646e+00   9.5410426e-01  -4.3020100e+07
   5.8919640e-10  -9.6823235e-03   2.0308441e+00   9.5601689e-01  -4.2829775e+07
   5.9019673e-10  -9.6395743e-03   2.0281370e+00   9.5792382e-01  -4.2640302e+07
   5.9119707e-10  -9.5970143e-03   2.0254433e+00   9.5982503e-01  -4.2451679e+07
   5.9219740e-10  -9.5546424e-03   2.0227629e+00   9.6172055e-01  -4.2263900e+07
   5.9319773e-10  -9.5124580e-03   2.0200956e+00   9.6361036e-01  -4.2076962e+07
   5.9419807e-10  -9.4704602e-03   2.0174415e+00   9.6549448e-01  -4.1890861e+07
   5.9519840e-10  -9.4286482e-03   2.0148005e+00   9.6737290e-01  -4.1705593e+07
   5.9619873e-10  -9.3870210e-03   2.0121725e+00   9.6924563e-01  -4.1521154e+07
   5.9719907e-10  -9.3455780e-03   2.0095575e+00   9.7111268e-01  -4.1337541e+07
   5.9819940e-10  -9.3043182e-03   2.0069553e+00   9.7297404e-01  -4.1154749e+07
   5.9919973e-10  -9.2632408e-03   2.0043659e+00   9.7482972e-01  -4.0972774e+07
   6.0020007e-10  -9.2223451e-03   2.0017893e+00   9.7667972e-01  -4.0791613e+07
   6.0120040e-10  -9.1816302e-03   1.9992253e+00   9.7852405e-01  -4.0611262e+07
   6.0220073e-10  -9.1410953e-03   1.9966740e+00   9.8036271e-01  -4.0431718e+07
   6.0320107e-10  -9.1007396e-03   1.9941352e+00   9.8219571e-01  -4.0252976e+07
   6.0420140e-10  -9.0605622e-03   1.9916089e+00   9.8402305e-01  -4.0075032e+07
   6.0520173e-10  -9.0205625e-03   1.9890951e+00   9.8584474e-01  -3.9897884e+07
   6.0620207e-10  -8.9807397e-03   1.9865935e+00   9.8766078e-01  -3.9721526e+07
   6.0720240e-10  -8.9410928e-03   1.9841043e+00   9.8947117e-01  -3.9545957e+07
   6.0820273e-10  -8.9016212e-03   1.9816273e+00   9.9127592e-01  -3.9371171e+07
   6.0920307e-10  -8.8623240e-03   1.9791625e+00   9.9307503e-01  -3.9197166e+07
   6.1020340e-10  -8.8232005e-03   1.9767098e+00   9.9486852e-01  -3.9023937e+07
   6.1120373e-10  -8.7842499e-03   1.9742692e+00   9.9665639e-01  -3.8851481e+07
   6.1220407e-10  -8.7454714e-03   1.9718405e+00   9.9843863e-01  -3.8679795e+07
   6.1320440e-10  -8.7068643e-03   1.9694237e+00   1.0002153e+00  -3.8508875e+07
   6.1420473e-10  -8.6684278e-03   1.9670188e+00   1.0019863e+00  -3.8338717e+07
   6.1520507e-10  -8.6301611e-03   1.9646257e+00   1.0037517e+00  -3.8169318e+07
   6.1620540e-10  -8.5920635e-03   1.9622444e+00   1.0055115e+00  -3.8000674e+07
   6.1720574e-10  -8.5541342e-03   1.9598747e+00   1.0072658e+00  -3.7832783e+07
   6.1820607e-10  -8.5163725e-03   1.9575166e+00   1.0090145e+00  -3.7665639e+07
   6.1920640e-10  -8.4787776e-03   1.9551701e+00   1.0107575e+00  -3.7499241e+07
   6.2020674e-10  -8.4413488e-03   1.9528351e+00   1.0124951e+00  -3.7333583e+07
   6.2120707e-10  -8.4040853e-03   1.9505116e+00   1.0142270e+00  -3.7168664e+07
   6.2220740e-10  -8.3669865e-03   1.9481994e+00   1.0159534e+00  -3.7004480e+07
   6.2320774e-10  -8.3300515e-03   1.9458986e+00   1.0176743e+00  -3.6841027e+07
   6.2420807e-10  -8.2932796e-03   1.9436090e+00   1.0193896e+00  -3.6678302e+07
   6.2520840e-10  -8.2566702e-03   1.9413307e+00   1.0210993e+00  -3.6516301e+07
   6.2620874e-10  -8.2202225e-03   1.9390635e+00   1.0228036e+00  -3.6355022e+07
   6.2720907e-10  -8.1839357e-03   1.9368073e+00   1.0245023e+00  -3.6194460e+07
   6.2820940e-10  -8.1478092e-03   1.9345623e+00   1.0261955e+00  -3.6034613e+07
   6.2920974e-10  -8.1118423e-03   1.9323282e+00   1.0278832e+00  -3.5875477e+07
   6.3021007e-10  -8.0760341e-03   1.9301050e+00   1.0295654e+00  -3.5717050e+07
   6.3121040e-10  -8.0403842e-03   1.9278927e+00   1.0312422e+00  -3.5559327e+07
   6.3221074e-10  -8.0048916e-03   1.9256912e+00   1.0329134e+00  -3.5402305e+07
   6.3321107e-10  -7.9695557e-03   1.9235005e+00   1.0345792e+00  -3.5245982e+07
   6.3421140e-10  -7.9343759e-03   1.9213205e+00   1.0362395e+00  -3.5090354e+07
   6.3521174e-10  -7.8993514e-03   1.9191511e+00   1.0378943e+00  -3.4935418e+07
   6.3621207e-10  -7.8644816e-03   1.9169924e+00   1.0395437e+00  -3.4781171e+07
   6.3721240e-10  -7.8297657e-03   1.9148441e+00   1.0411877e+00  -3.4627609e+07
   6.3821274e-10  -7.7952031e-03   1.9127064e+00   1.0428262e+00  -3.4474730e+07
   6.3921307e-10  -7.7607931e-03   1.9105791e+00   1.0444593e+00  -3.4322530e+07
   6.4021340e-10  -7.7265349e-03   1.9084622e+00   1.0460870e+00  -3.4171007e+07
   6.4121374e-10  -7.6924281e-03   1.9063556e+00   1.0477092e+00  -3.4020156e+07
   6.4221407e-10  -7.6584718e-03   1.9042592e+00   1.0493261e+00  -3.3869976e+07
   6.4321440e-10  -7.6246653e-03   1.9021731e+00   1.0509376e+00  -3.3720463e+07
   6.4421474e-10  -7.5910081e-03   1.9000972e+00   1.0525437e+00  -3.3571613e+07
   6.4521507e-10  -7.5574995e-03   1.8980314e+00   1.0541444e+00  -3.3423425e+07
   6.4621541e-10  -7.5241388e-03   1.8959756e+00   1.0557398e+00  -3.3275894e+07
   6.4721574e-10  -7.4909254e-03   1.8939299e+00   1.0573298e+00  -3.3129019e+07
   6.4821607e-10  -7.4578585e-03   1.8918941e+00   1.0589145e+00  -3.2982795e+07
   6.4921641e-10  -7.4249376e-03   1.8898683e+00   1.0604938e+00  -3.2837220e+07
   6.5021674e-10  -7.3921620e-03   1.8878523e+00   1.0620679e+00  -3.2692291e+07
   6.5121707e-10  -7.3595310e-03   1.8858461e+00   1.0636366e+00  -3.2548006e+07
   6.5221741e-10  -7.3270441e-03   1.8838497e+00   1.0652000e+00  -3.2404360e+07
   6.5321774e-10  -7.2947005e-03   1.8818629e+00   1.0667581e+00  -3.2261352e+07
   6.5421807e-10  -7.2624997e-03   1.8798859e+00   1.0683109e+00  -3.2118977e+07
   6.5521841e-10  -7.2304409e-03   1.8779185e+00   1.0698584e+00  -3.1977235e+07
   6.5621874e-10  -7.1985237e-03   1.8759606e+00   1.0714007e+00  -3.1836121e+07
   6.5721907e-10  -7.1667473e-03   1.8740122e+00   1.0729377e+00  -3.1695632e+07
   6.5821941e-10  -7.1351111e-03   1.8720733e+00   1.0744694e+00  -3.1555767e+07
   6.5921974e-10  -7.1036145e-03   1.8701439e+00   1.0759960e+00  -3.1416522e+07
   6.6022007e-10  -7.0722569e-03   1.8682237e+00   1.0775173e+00  -3.1277893e+07
   6.6122041e-10  -7.0410377e-03   1.8663130e+00   1.0790333e+00  -3.1139880e+07
   6.6222074e-10  -7.0099562e-03   1.8644115e+00   1.0805442e+00  -3.1002477e+07
   6.6322107e-10  -6.9790119e-03   1.8625192e+00   1.0820499e+00  -3.0865684e+07
   6.6422141e-10  -6.9482041e-03   1.8606361e+00   1.0835504e+00  -3.0729497e+07
   6.6522174e-10  -6.9175322e-03   1.8587621e+00   1.0850457e+00  -3.0593913e+07
   6.6622207e-10  -6.8869957e-03   1.8568972e+00   1.0865358e+00  -3.0458930e+07
   6.6722241e-10  -6.8565939e-03   1.8550414e+00   1.0880208e+00  -3.0324545e+07
   6.6822274e-10  -6.8263262e-03   1.8531945e+00   1.0895007e+00  -3.0190755e+07
   6.6922307e-10  -6.7961921e-03   1.8513567e+00   1.0909754e+00  -3.0057557e+07
   6.7022341e-10  -6.7661909e-03   1.8495277e+00   1.0924450e+00  -2.9924950e+07
   6.7122374e-10  -6.7363220e-03   1.8477075e+00   1.0939095e+00  -2.9792929e+07
   6.7222407e-10  -6.7065850e-03   1.8458962e+00   1.0953689e+00  -2.9661493e+07
   6.7322441e-10  -6.6769791e-03   1.8440937e+00   1.0968232e+00  -2.9530639e+07
   6.7422474e-10  -6.6475038e-03   1.8422998e+00   1.0982724e+00  -2.9400364e+07
   6.7522508e-10  -6.6181586e-03   1.8405147e+00   1.0997165e+00  -2.9270666e+07
   6.7622541e-10  -6.5889428e-03   1.8387382e+00   1.1011556e+00  -2.9141542e+07
   6.7722574e-10  -6.5598559e-03   1.8369703e+00   1.1025896e+00  -2.9012989e+07
   6.7822608e-10  -6.5308973e-03   1.8352109e+00   1.1040186e+00  -2.8885005e+07
   6.7922641e-10  -6.5020665e-03   1.8334600e+00   1.1054426e+00  -2.8757587e+07
   6.8022674e-10  -6.4733628e-03   1.8317176e+00   1.1068616e+00  -2.8630733e+07
   6.8122708e-10  -6.4447857e-03   1.8299836e+00   1.1082755e+00  -2.8504441e+07
   6.8222741e-10  -6.4163347e-03   1.8282580e+00   1.1096845e+00  -2.8378707e+07
   6.8322774e-10  -6.3880092e-03   1.8265407e+00   1.1110885e+00  -2.8253529e+07
   6.8422808e-10  -6.3598087e-03   1.8248317e+00   1.1124875e+00  -2.8128905e+07
   6.8522841e-10  -6.3317325e-03   1.8231310e+00   1.1138815e+00  -2.8004832e+07
   6.8622874e-10  -6.3037802e-03   1.8214385e+00   1.1152707e+00  -2.7881307e+07
   6.8722908e-10  -6.2759511e-03   1.8197541e+00   1.1166548e+00  -2.7758329e+07
   6.8822941e-10  -6.2482448e-03   1.8180778e+00   1.1180341e+00  -2.7635895e+07
   6.8922974e-10  -6.2206607e-03   1.8164097e+00   1.1194084e+00  -2.7514002e+07
   6.9023008e-10  -6.1931983e-03   1.8147496e+00   1.1207779e+00  -2.7392648e+07
   6.9123041e-10  -6.1658570e-03   1.8130974e+00   1.1221424e+00  -2.7271830e+07
   6.9223074e-10  -6.1386363e-03   1.8114533e+00   1.1235021e+00  -2.7151546e+07
   6.9323108e-10  -6.1115356e-03   1.8098170e+00   1.1248569e+00  -2.7031794e+07
   6.9423141e-10  -6.0845545e-03   1.8081887e+00   1.1262069e+00  -2.6912572e+07
   6.9523174e-10  -6.0576924e-03   1.8065682e+00   1.1275520e+00  -2.6793876e+07
   6.9623208e-10  -6.0309487e-03   1.8049554e+00   1.1288923e+00  -2.6675705e+07
   6.9723241e-10  -6.0043230e-03   1.8033505e+00   1.1302278e+00  -2.6558056e+07
   6.9823274e-10  -5.9778148e-03   1.8017532e+00   1.1315584e+00  -2.6440926e+07
   6.9923308e-10  -5.9514234e-03   1.8001637e+00   1.1328843e+00  -2.6324315e+07
   7.0023341e-10  -5.9251484e-03   1.7985818e+00   1.1342054e+00  -2.6208218e+07
   7.0123374e-10  -5.8989893e-03   1.7970075e+00   1.1355217e+00  -2.6092634e+07
   7.0223408e-10  -5.8729456e-03   1.7954407e+00   1.1368332e+00  -2.5977561e+07
   7.0323441e-10  -5.8470167e-03   1.7938815e+00   1.1381400e+00  -2.5862996e+07
   7.0423474e-10  -5.8212022e-03   1.7923298e+00   1.1394421e+00  -2.5748938e+07
   7.0523508e-10  -5.7955015e-03   1.7907855e+00   1.1407395e+00  -2.5635382e+07
   7.0623541e-10  -5.7699142e-03   1.7892487e+00   1.1420321e+00  -2.5522329e+07
   7.0723575e-10  -5.7444397e-03   1.7877192e+00   1.1433200e+00  -2.5409775e+07
   7.0823608e-10  -5.7190775e-03   1.7861971e+00   1.1446033e+00  -2.5297717e+07
   7.0923641e-10  -5.6938272e-03   1.7846823e+00   1.1458819e+00  -2.5186155e+07
   7.1023675e-10  -5.6686883e-03   1.7831747e+00   1.1471558e+00  -2.5075085e+07
   7.1123708e-10  -5.6436602e-03   1.7816744e+00   1.1484250e+00  -2.4964505e+07
   7.1223741e-10  -5.6187425e-03   1.7801812e+00   1.1496896e+00  -2.4854414e+07
   7.1323775e-10  -5.5939346e-03   1.7786952e+00   1.1509496e+00  -2.4744809e+07
   7.1423808e-10  -5.5692362e-03   1.7772164e+00   1.1522050e+00  -2.4635687e+07
   7.1523841e-10  -5.5446467e-03   1.7757446e+00   1.1534558e+00  -2.4527047e+07
   7.1623875e-10  -5.5201656e-03   1.7742799e+00   1.1547020e+00  -2.4418887e+07
   7.1723908e-10  -5.4957925e-03   1.7728222e+00   1.1559436e+00  -2.4311204e+07
   7.1823941e-10  -5.4715268e-03   1.7713714e+00   1.1571806e+00  -2.4203997e+07
   7.1923975e-10  -5.4473682e-03   1.7699277e+00   1.1584131e+00  -2.4097262e+07
   7.2024008e-10  -5.4233161e-03   1.7684908e+00   1.1596410e+00  -2.3990999e+07
   7.2124041e-10  -5.3993700e-03   1.7670608e+00   1.1608644e+00  -2.3885204e+07
   7.2224075e-10  -5.3755296e-03   1.7656376e+00   1.1620833e+00  -2.3779876e+07
   7.2324108e-10  -5.3517943e-03   1.7642212e+00   1.1632977e+00  -2.3675013e+07
   7.2424141e-10  -5.3281636e-03   1.7628117e+00   1.1645076e+00  -2.3570613e+07
   7.2524175e-10  -5.3046372e-03   1.7614088e+00   1.1657130e+00  -2.3466673e+07
   7.2624208e-10  -5.2812145e-03   1.7600127e+00   1.1669140e+00  -2.3363192e+07
   7.2724241e-10  -5.2578951e-03   1.7586232e+00   1.1681105e+00  -2.3260168e+07
   7.2824275e-10  -5.2346785e-03   1.7572403e+00   1.1693025e+00  -2.3157598e+07
   7.2924308e-10  -5.2115643e-03   1.7558641e+00   1.1704901e+00  -2.3055480e+07
   7.3024341e-10  -5.1885520e-03   1.7544944e+00   1.1716733e+00  -2.2953813e+07
   7.3124375e-10  -5.1656412e-03   1.7531313e+00   1.1728521e+00  -2.2852594e+07
   7.3224408e-10  -5.1428315e-03   1.7517747e+00   1.1740265e+00  -2.2751822e+07
   7.3324441e-10  -5.1201223e-03   1.7504245e+00   1.1751965e+00  -2.2651494e+07
   7.3424475e-10  -5.0975132e-03   1.7490808e+00   1.1763622e+00  -2.2551608e+07
   7.3524508e-10  -5.0750039e-03   1.7477435e+00   1.1775235e+00  -2.2452164e+07
   7.3624542e-10  -5.0525938e-03   1.7464126e+00   1.1786804e+00  -2.2353157e+07
   7.3724575e-10  -5.0302825e-03   1.7450880e+00   1.1798330e+00  -2.2254588e+07
   7.3824608e-10  -5.0080696e-03   1.7437697e+00   1.1809813e+00  -2.2156453e+07
   7.3924642e-10  -4.9859547e-03   1.7424577e+00   1.1821253e+00  -2.2058750e+07
   7.4024675e-10  -4.9639373e-03   1.7411519e+00   1.1832650e+00  -2.1961479e+07
   7.4124708e-10  -4.9420170e-03   1.7398524e+00   1.1844004e+00  -2.1864636e+07
   7.4224742e-10  -4.9201933e-03   1.7385590e+00   1.1855315e+00  -2.1768221e+07
   7.4324775e-10  -4.8984659e-03   1.7372719e+00   1.1866584e+00  -2.1672230e+07
   7.4424808e-10  -4.8768343e-03   1.7359908e+00   1.1877810e+00  -2.1576663e+07
   7.4524842e-10  -4.8552980e-03   1.7347158e+00   1.1888994e+00  -2.1481517e+07
   7.4624875e-10  -4.8338568e-03   1.7334469e+00   1.1900135e+00  -2.1386790e+07
   7.4724908e-10  -4.8125101e-03   1.7321840e+00   1.1911235e+00  -2.1292482e+07
   7.4824942e-10  -4.7912575e-03   1.7309271e+00   1.1922293e+00  -2.1198588e+07
   7.4924975e-10  -4.7700986e-03   1.7296762e+00   1.1933308e+00  -2.1105109e+07
   7.5025008e-10  -4.7490331e-03   1.7284313e+00   1.1944283e+00  -2.1012042e+07
   7.5125042e-10  -4.7280604e-03   1.7271922e+00   1.1955215e+00  -2.0919385e+07
   7.5225075e-10  -4.7071802e-03   1.7259591e+00   1.1966106e+00  -2.0827136e+07
   7.5325108e-10  -4.6863921e-03   1.7247318e+00   1.1976956e+00  -2.0735294e+07
   7.5425142e-10  -4.6656957e-03   1.7235103e+00   1.1987764e+00  -2.0643857e+07
   7.5525175e-10  -4.6450905e-03   1.7222946e+00   1.1998531e+00  -2.0552823e+07
   7.5625208e-10  -4.6245762e-03   1.7210847e+00   1.2009258e+00  -2.0462190e+07
   7.5725242e-10  -4.6041523e-03   1.7198805e+00   1.2019943e+00  -2.0371956e+07
   7.5825275e-10  -4.5838186e-03   1.7186820e+00   1.2030588e+00  -2.0282120e+07
   7.5925308e-10  -4.5635744e-03   1.7174892e+00   1.2041192e+00  -2.0192680e+07
   7.6025342e-10  -4.5434196e-03   1.7163021e+00   1.2051756e+00  -2.0103634e+07
   7.6125375e-10  -4.5233536e-03   1.7151206e+00   1.2062279e+00  -2.0014981e+07
   7.6225408e-10  -4.5033762e-03   1.7139447e+00   1.2072762e+00  -1.9926718e+07
   7.6325442e-10  -4.4834868e-03   1.7127744e+00   1.2083205e+00  -1.9838844e+07
   7.6425475e-10  -4.4636851e-03   1.7116096e+00   1.2093608e+00  -1.9751358e+07
   7.6525509e-10  -4.4439708e-03   1.7104503e+00   1.2103971e+00  -1.9664257e+07
   7.6625542e-10  -4.4243434e-03   1.7092965e+00   1.2114295e+00  -1.9577539e+07
   7.6725575e-10  -4.4048025e-03   1.7081482e+00   1.2124579e+00  -1.9491204e+07
   7.6825609e-10  -4.3853479e-03   1.7070053e+00   1.2134823e+00  -1.9405249e+07
   7.6925642e-10  -4.3659790e-03   1.7058678e+00   1.2145028e+00  -1.9319673e+07
   7.7025675e-10  -4.3466955e-03   1.7047357e+00   1.2155193e+00  -1.9234474e+07
   7.7125709e-10  -4.3274971e-03   1.7036089e+00   1.2165320e+00  -1.9149650e+07
   7.7225742e-10  -4.3083833e-03   1.7024875e+00   1.2175407e+00  -1.9065200e+07
   7.7325775e-10  -4.2893538e-03   1.7013714e+00   1.2185456e+00  -1.8981122e+07
   7.7425809e-10  -4.2704083e-03   1.7002605e+00   1.2195466e+00  -1.8897414e+07
   7.7525842e-10  -4.2515463e-03   1.6991549e+00   1.2205437e+00  -1.8814075e+07
   7.7625875e-10  -4.2327675e-03   1.6980545e+00   1.2215370e+00  -1.8731104e+07
   7.7725909e-10  -4.2140715e-03   1.6969593e+00   1.2225264e+00  -1.8648498e+07
   7.7825942e-10  -4.1954579e-03   1.6958693e+00   1.2235120e+00  -1.8566255e+07
   7.7925975e-10  -4.1769265e-03   1.6947844e+00   1.2244938e+00  -1.8484375e+07
   7.8026009e-10  -4.1584767e-03   1.6937047e+00   1.2254717e+00  -1.8402856e+07
   7.8126042e-10  -4.1401084e-03   1.6926300e+00   1.2264459e+00  -1.8321696e+07
   7.8226075e-10  -4.1218210e-03   1.6915604e+00   1.2274163e+00  -1.8240893e+07
   7.8326109e-10  -4.1036143e-03   1.6904959e+00   1.2283830e+00  -1.8160446e+07
   7.8426142e-10  -4.0854879e-03   1.6894363e+00   1.2293458e+00  -1.8080354e+07
   7.8526175e-10  -4.0674414e-03   1.6883818e+00   1.2303050e+00  -1.8000614e+07
   7.8626209e-10  -4.0494745e-03   1.6873322e+00   1.2312604e+00  -1.7921226e+07
   7.8726242e-10  -4.0315869e-03   1.6862876e+00   1.2322121e+00  -1.7842187e+07
   7.8826275e-10  -4.0137782e-03   1.6852479e+00   1.2331601e+00  -1.7763497e+07
   7.8926309e-10  -3.9960480e-03   1.6842131e+00   1.2341044e+00  -1.7685153e+07
   7.9026342e-10  -3.9783959e-03   1.6831832e+00   1.2350450e+00  -1.7607154e+07
   7.9126375e-10  -3.9608218e-03   1.6821581e+00   1.2359819e+00  -1.7529499e+07
   7.9226409e-10  -3.9433251e-03   1.6811379e+00   1.2369152e+00  -1.7452185e+07
   7.9326442e-10  -3.9259057e-03   1.6801224e+00   1.2378448e+00  -1.7375212e+07
   7.9426475e-10  -3.9085630e-03   1.6791117e+00   1.2387708e+00  -1.7298579e+07
   7.9526509e-10  -3.8912969e-03   1.6781058e+00   1.2396932e+00  -1.7222282e+07
   7.9626542e-10  -3.8741069e-03   1.6771046e+00   1.2406119e+00  -1.7146322e+07
   7.9726576e-10  -3.8569927e-03   1.6761081e+00   1.2415271e+00  -1.7070696e+07
   7.9826609e-10  -3.8399540e-03   1.6751163e+00   1.2424387e+00  -1.6995404e+07
   7.9926642e-10  -3.8229904e-03   1.6741292e+00   1.2433467e+00  -1.6920443e+07
   8.0026676e-10  -3.8061017e-03   1.6731467e+00   1.2442511e+00  -1.6845812e+07
   8.0126709e-10  -3.7892875e-03   1.6721688e+00   1.2451520e+00  -1.6771509e+07
   8.0226742e-10  -3.7725474e-03   1.6711955e+00   1.2460493e+00  -1.6697534e+07
   8.0326776e-10  -3.7558812e-03   1.6702268e+00   1.2469431e+00  -1.6623885e+07
   8.0426809e-10  -3.7392884e-03   1.6692626e+00   1.2478334e+00  -1.6550560e+07
   8.0526842e-10  -3.7227689e-03   1.6683029e+00   1.2487202e+00  -1.6477558e+07
   8.0626876e-10  -3.7063222e-03   1.6673478e+00   1.2496035e+00  -1.6404878e+07
   8.0726909e-10  -3.6899481e-03   1.6663971e+00   1.2504833e+00  -1.6332517e+07
   8.0826942e-10  -3.6736462e-03   1.6654509e+00   1.2513596e+00  -1.6260475e+07
   8.0926976e-10  -3.6574162e-03   1.6645091e+00   1.2522325e+00  -1.6188751e+07
   8.1027009e-10  -3.6412578e-03   1.6635718e+00   1.2531020e+00  -1.6117342e+07
   8.1127042e-10  -3.6251707e-03   1.6626388e+00   1.2539680e+00  -1.6046248e+07
   8.1227076e-10  -3.6091545e-03   1.6617102e+00   1.2548305e+00  -1.5975467e+07
   8.1327109e-10  -3.5932090e-03   1.6607860e+00   1.2556897e+00  -1.5904998e+07
   8.1427142e-10  -3.5773338e-03   1.6598661e+00   1.2565455e+00  -1.5834839e+07
   8.1527176e-10  -3.5615286e-03   1.6589505e+00   1.2573978e+00  -1.5764988e+07
   8.1627209e-10  -3.5457932e-03   1.6580392e+00   1.2582468e+00  -1.5695446e+07
   8.1727242e-10  -3.5301272e-03   1.6571322e+00   1.2590925e+00  -1.5626210e+07
   8.1827276e-10  -3.5145303e-03   1.6562294e+00   1.2599348e+00  -1.5557278e+07
   8.1927309e-10  -3.4990022e-03   1.6553308e+00   1.2607737e+00  -1.5488650e+07
   8.2027342e-10  -3.4835425e-03   1.6544364e+00   1.2616093e+00  -1.5420325e+07
   8.2127376e-10  -3.4681511e-03   1.6535462e+00   1.2624416e+00  -1.5352300e+07
   8.2227409e-10  -3.4528276e-03   1.6526602e+00   1.2632706e+00  -1.5284575e+07
   8.2327442e-10  -3.4375717e-03   1.6517784e+00   1.2640962e+00  -1.5217148e+07
   8.2427476e-10  -3.4223831e-03   1.6509006e+00   1.2649186e+00  -1.5150018e+07
   8.2527509e-10  -3.4072614e-03   1.6500270e+00   1.2657377e+00  -1.5083183e+07
   8.2627543e-10  -3.3922065e-03   1.6491574e+00   1.2665536e+00  -1.5016643e+07
   8.2727576e-10  -3.3772181e-03   1.6482919e+00   1.2673662e+00  -1.4950396e+07
   8.2827609e-10  -3.3622957e-03   1.6474304e+00   1.2681756e+00  -1.4884440e+07
   8.2927643e-10  -3.3474392e-03   1.6465730e+00   1.2689817e+00  -1.4818776e+07
   8.3027676e-10  -3.3326482e-03   1.6457196e+00   1.2697846e+00  -1.4753400e+07
   8.3127709e-10  -3.3179224e-03   1.6448701e+00   1.2705843e+00  -1.4688312e+07
   8.3227743e-10  -3.3032616e-03   1.6440246e+00   1.2713808e+00  -1.4623510e+07
   8.3327776e-10  -3.2886656e-03   1.6431831e+00   1.2721741e+00  -1.4558994e+07
   8.3427809e-10  -3.2741339e-03   1.6423455e+00   1.2729643e+00  -1.4494763e+07
   8.3527843e-10  -3.2596663e-03   1.6415118e+00   1.2737513e+00  -1.4430814e+07
   8.3627876e-10  -3.2452625e-03   1.6406820e+00   1.2745351e+00  -1.4367146e+07
   8.3727909e-10  -3.2309223e-03   1.6398561e+00   1.2753158e+00  -1.4303759e+07
   8.3827943e-10  -3.2166454e-03   1.6390340e+00   1.2760934e+00  -1.4240651e+07
   8.3927976e-10  -3.2024314e-03   1.6382157e+00   1.2768678e+00  -1.4177821e+07
   8.4028009e-10  -3.1882802e-03   1.6374013e+00   1.2776392e+00  -1.4115268e+07
   8.4128043e-10  -3.1741914e-03   1.6365906e+00   1.2784074e+00  -1.4052990e+07
   8.4228076e-10  -3.1601647e-03   1.6357838e+00   1.2791726e+00  -1.3990986e+07
   8.4328109e-10  -3.1462000e-03   1.6349806e+00   1.2799347e+00  -1.3929255e+07
   8.4428143e-10  -3.1322968e-03   1.6341813e+00   1.2806937e+00  -1.3867797e+07
   8.4528176e-10  -3.1184551e-03   1.6333856e+00   1.2814496e+00  -1.3806608e+07
   8.4628209e-10  -3.1046743e-03   1.6325937e+00   1.2822026e+00  -1.3745690e+07
   8.4728243e-10  -3.0909544e-03   1.6318054e+00   1.2829525e+00  -1.3685039e+07
   8.4828276e-10  -3.0772950e-03   1.6310208e+00   1.2836993e+00  -1.3624656e+07
   8.4928309e-10  -3.0636959e-03   1.6302399e+00   1.2844432e+00  -1.3564538e+07
   8.5028343e-10  -3.0501568e-03   1.6294626e+00   1.2851840e+00  -1.3504686e+07
   8.5128376e-10  -3.0366775e-03   1.6286889e+00   1.2859219e+00  -1.3445097e+07
   8.5228409e-10  -3.0232576e-03   1.6279188e+00   1.2866568e+00  -1.3385770e+07
   8.5328443e-10  -3.0098969e-03   1.6271523e+00   1.2873887e+00  -1.3326704e+07
   8.5428476e-10  -2.9965952e-03   1.6263894e+00   1.2881177e+00  -1.3267899e+07
   8.5528510e-10  -2.9833522e-03   1.6256300e+00   1.2888437e+00  -1.3209353e+07
   8.5628543e-10  -2.9701676e-03   1.6248741e+00   1.2895668e+00  -1.3151064e+07
   8.5728576e-10  -2.9570412e-03   1.6241217e+00   1.2902870e+00  -1.3093032e+07
   8.5828610e-10  -2.9439727e-03   1.6233729e+00   1.2910042e+00  -1.3035256e+07
   8.5928643e-10  -2.9309619e-03   1.6226275e+00   1.2917186e+00  -1.2977734e+07
   8.6028676e-10  -2.9180085e-03   1.6218856e+00   1.2924300e+00  -1.2920465e+07
   8.6128710e-10  -2.9051123e-03   1.6211471e+00   1.2931386e+00  -1.2863449e+07
   8.6228743e-10  -2.8922730e-03   1.6204120e+00   1.2938443e+00  -1.2806684e+07
   8.6328776e-10  -2.8794903e-03   1.6196804e+00   1.2945472e+00  -1.2750168e+07
   8.6428810e-10  -2.8667640e-03   1.6189521e+00   1.2952471e+00  -1.2693902e+07
   8.6528843e-10  -2.8540939e-03   1.6182273e+00   1.2959443e+00  -1.2637883e+07
   8.6628876e-10  -2.8414798e-03   1.6175058e+00   1.2966386e+00  -1.2582111e+07
   8.6728910e-10  -2.8289213e-03   1.6167876e+00   1.2973301e+00  -1.2526585e+07
   8.6828943e-10  -2.8164182e-03   1.6160728e+00   1.2980188e+00  -1.2471303e+07
   8.6928976e-10  -2.8039702e-03   1.6153613e+00   1.2987047e+00  -1.2416265e+07
   8.7029010e-10  -2.7915773e-03   1.6146531e+00   1.2993877e+00  -1.2361469e+07
   8.7129043e-10  -2.7792390e-03   1.6139481e+00   1.3000681e+00  -1.2306915e+07
   8.7229076e-10  -2.7669552e-03   1.6132465e+00   1.3007456e+00  -1.2252600e+07
   8.7329110e-10  -2.7547255e-03   1.6125481e+00   1.3014204e+00  -1.2198525e+07
   8.7429143e-10  -2.7425499e-03   1.6118529e+00   1.3020924e+00  -1.2144688e+07
   8.7529176e-10  -2.7304280e-03   1.6111609e+00   1.3027617e+00  -1.2091088e+07
   8.7629210e-10  -2.7183596e-03   1.6104722e+00   1.3034283e+00  -1.2037725e+07
   8.7729243e-10  -2.7063444e-03   1.6097866e+00   1.3040921e+00  -1.1984596e+07
   8.7829276e-10  -2.6943823e-03   1.6091042e+00   1.3047533e+00  -1.1931701e+07
   8.7929310e-10  -2.6824730e-03   1.6084250e+00   1.3054117e+00  -1.1879039e+07
   8.8029343e-10  -2.6706162e-03   1.6077489e+00   1.3060674e+00  -1.1826610e+07
   8.8129376e-10  -2.6588118e-03   1.6070759e+00   1.3067205e+00  -1.1774411e+07
   8.8229410e-10  -2.6470595e-03   1.6064061e+00   1.3073709e+00  -1.1722442e+07
   8.8329443e-10  -2.6353590e-03   1.6057393e+00   1.3080186e+00  -1.1670702e+07
   8.8429476e-10  -2.6237102e-03   1.6050757e+00   1.3086637e+00  -1.1619189e+07
   8.8529510e-10  -2.6121128e-03   1.6044151e+00   1.3093062e+00  -1.1567904e+07
   8.8629543e-10  -2.6005666e-03   1.6037575e+00   1.3099460e+00  -1.1516845e+07
   8.8729577e-10  -2.5890714e-03   1.6031030e+00   1.3105832e+00  -1.1466010e+07
   8.8829610e-10  -2.5776269e-03   1.6024516e+00   1.3112178e+00  -1.1415400e+07
   8.8929643e-10  -2.5662329e-03   1.6018031e+00   1.3118498e+00  -1.1365012e+07
   8.9029677e-10  -2.5548892e-03   1.6011576e+00   1.3124792e+00  -1.1314846e+07
   8.9129710e-10  -2.5435956e-03   1.6005151e+00   1.3131060e+00  -1.1264901e+07
   8.9229743e-10  -2.5323518e-03   1.5998756e+00   1.3137302e+00  -1.1215177e+07
   8.9329777e-10  -2.5211577e-03   1.5992390e+00   1.3143519e+00  -1.1165671e+07
   8.9429810e-10  -2.5100130e-03   1.5986054e+00   1.3149710e+00  -1.1116383e+07
   8.9529843e-10  -2.4989174e-03   1.5979747e+00   1.3155876e+00  -1.1067313e+07
   8.9629877e-10  -2.4878709e-03   1.5973469e+00   1.3162017e+00  -1.1018458e+07
   8.9729910e-10  -2.4768731e-03   1.5967220e+00   1.3168132e+00  -1.0969819e+07
   8.9829943e-10  -2.4659239e-03   1.5961000e+00   1.3174222e+00  -1.0921394e+07
   8.9929977e-10  -2.4550230e-03   1.5954808e+00   1.3180287e+00  -1.0873183e+07
   9.0030010e-10  -2.4441702e-03   1.5948645e+00   1.3186327e+00  -1.0825183e+07
   9.0130043e-10  -2.4333653e-03   1.5942511e+00   1.3192343e+00  -1.0777395e+07
   9.0230077e-10  -2.4226081e-03   1.5936405e+00   1.3198333e+00  -1.0729818e+07
   9.0330110e-10  -2.4118984e-03   1.5930327e+00   1.3204299e+00  -1.0682450e+07
   9.0430143e-10  -2.4012360e-03   1.5924277e+00   1.3210240e+00  -1.0635291e+07
   9.0530177e-10  -2.3906207e-03   1.5918255e+00   1.3216157e+00  -1.0588340e+07
   9.0630210e-10  -2.3800522e-03   1.5912260e+00   1.3222049e+00  -1.0541596e+07
   9.0730243e-10  -2.3695304e-03   1.5906293e+00   1.3227917e+00  -1.0495057e+07
   9.0830277e-10  -2.3590550e-03   1.5900354e+00   1.3233761e+00  -1.0448724e+07
   9.0930310e-10  -2.3486259e-03   1.5894442e+00   1.3239581e+00  -1.0402594e+07
   9.1030343e-10  -2.3382428e-03   1.5888558e+00   1.3245376e+00  -1.0356668e+07
   9.1130377e-10  -2.3279056e-03   1.5882700e+00   1.3251148e+00  -1.0310945e+07
   9.1230410e-10  -2.3176140e-03   1.5876869e+00   1.3256896e+00  -1.0265422e+07
   9.1330443e-10  -2.3073679e-03   1.5871065e+00   1.3262620e+00  -1.0220100e+07
   9.1430477e-10  -2.2971669e-03   1.5865288e+00   1.3268320e+00  -1.0174978e+07
   9.1530510e-10  -2.2870110e-03   1.5859538e+00   1.3273997e+00  -1.0130055e+07
   9.1630544e-10  -2.2769000e-03   1.5853814e+00   1.3279651e+00  -1.0085330e+07
   9.1730577e-10  -2.2668336e-03   1.5848116e+00   1.3285281e+00  -1.0040801e+07
   9.1830610e-10  -2.2568116e-03   1.5842445e+00   1.3290887e+00  -9.9964691e+06
   9.1930644e-10  -2.2468339e-03   1.5836799e+00   1.3296471e+00  -9.9523323e+06
   9.2030677e-10  -2.2369003e-03   1.5831180e+00   1.3302031e+00  -9.9083899e+06
   9.2130710e-10  -2.2270105e-03   1.5825586e+00   1.3307568e+00  -9.8646412e+06
   9.2230744e-10  -2.2171643e-03   1.5820018e+00   1.3313083e+00  -9.8210852e+06
   9.2330777e-10  -2.2073617e-03   1.5814476e+00   1.3318574e+00  -9.7777212e+06
   9.2430810e-10  -2.1976023e-03   1.5808959e+00   1.3324043e+00  -9.7345482e+06
   9.2530844e-10  -2.1878860e-03   1.5803468e+00   1.3329489e+00  -9.6915654e+06
   9.2630877e-10  -2.1782127e-03   1.5798001e+00   1.3334912e+00  -9.6487721e+06
   9.2730910e-10  -2.1685820e-03   1.5792560e+00   1.3340313e+00  -9.6061673e+06
   9.2830944e-10  -2.1589939e-03   1.5787144e+00   1.3345691e+00  -9.5637502e+06
   9.2930977e-10  -2.1494481e-03   1.5781753e+00   1.3351047e+00  -9.5215201e+06
   9.3031010e-10  -2.1399444e-03   1.5776386e+00   1.3356381e+00  -9.4794760e+06
   9.3131044e-10  -2.1304827e-03   1.5771045e+00   1.3361693e+00  -9.4376172e+06
   9.3231077e-10  -2.1210628e-03   1.5765727e+00   1.3366982e+00  -9.3959429e+06
   9.3331110e-10  -2.1116845e-03   1.5760434e+00   1.3372250e+00  -9.3544522e+06
   9.3431144e-10  -2.1023476e-03   1.5755166e+00   1.3377495e+00  -9.3131444e+06
   9.3531177e-10  -2.0930520e-03   1.5749921e+00   1.3382719e+00  -9.2720186e+06
   9.3631210e-10  -2.0837973e-03   1.5744701e+00   1.3387921e+00  -9.2310740e+06
   9.3731244e-10  -2.0745836e-03   1.5739504e+00   1.3393101e+00  -9.1903098e+06
   9.3831277e-10  -2.0654105e-03   1.5734331e+00   1.3398260e+00  -9.1497253e+06
   9.3931310e-10  -2.0562780e-03   1.5729183e+00   1.3403398e+00  -9.1093197e+06
   9.4031344e-10  -2.0471858e-03   1.5724057e+00   1.3408513e+00  -9.0690921e+06
   9.4131377e-10  -2.0381337e-03   1.5718955e+00   1.3413608e+00  -9.0290418e+06
   9.4231410e-10  -2.0291216e-03   1.5713877e+00   1.3418681e+00  -8.9891681e+06
   9.4331444e-10  -2.0201493e-03   1.5708822e+00   1.3423733e+00  -8.9494700e+06
   9.4431477e-10  -2.0112166e-03   1.5703790e+00   1.3428764e+00  -8.9099469e+06
   9.4531511e-10  -2.0023234e-03   1.5698781e+00   1.3433774e+00  -8.8705980e+06
   9.4631544e-10  -1.9934695e-03   1.5693795e+00   1.3438764e+00  -8.8314225e+06
   9.4731577e-10  -1.9846546e-03   1.5688832e+00   1.3443732e+00  -8.7924197e+06
   9.4831611e-10  -1.9758787e-03   1.5683891e+00   1.3448679e+00  -8.7535888e+06
   9.4931644e-10  -1.9671415e-03   1.5678974e+00   1.3453606e+00  -8.7149291e+06
   9.5031677e-10  -1.9584430e-03   1.5674078e+00   1.3458512e+00  -8.6764397e+06
   9.5131711e-10  -1.9497828e-03   1.5669205e+00   1.3463398e+00  -8.6381200e+06
   9.5231744e-10  -1.9411609e-03   1.5664355e+00   1.3468263e+00  -8.5999691e+06
   9.5331777e-10  -1.9325771e-03   1.5659527e+00   1.3473108e+00  -8.5619865e+06
   9.5431811e-10  -1.9240312e-03   1.5654720e+00   1.3477933e+00  -8.5241712e+06
   9.5531844e-10  -1.9155230e-03   1.5649936e+00   1.3482738e+00  -8.4865227e+06
   9.5631877e-10  -1.9070524e-03   1.5645174e+00   1.3487522e+00  -8.4490400e+06
   9.5731911e-10  -1.8986192e-03   1.5640433e+00   1.3492286e+00  -8.4117227e+06
   9.5831944e-10  -1.8902233e-03   1.5635714e+00   1.3497031e+00  -8.3745698e+06
   9.5931977e-10  -1.8818645e-03   1.5631017e+00   1.3501755e+00  -8.3375806e+06
   9.6032011e-10  -1.8735425e-03   1.5626341e+00   1.3506460e+00  -8.3007545e+06
   9.6132044e-10  -1.8652574e-03   1.5621687e+00   1.3511145e+00  -8.2640908e+06
   9.6232077e-10  -1.8570088e-03   1.5617053e+00   1.3515810e+00  -8.2275887e+06
   9.6332111e-10  -1.8487966e-03   1.5612441e+00   1.3520456e+00  -8.1912475e+06
   9.6432144e-10  -1.8406208e-03   1.5607851e+00   1.3525082e+00  -8.1550665e+06
   9.6532177e-10  -1.8324810e-03   1.5603281e+00   1.3529689e+00  -8.1190449e+06
   9.6632211e-10  -1.8243772e-03   1.5598732e+00   1.3534276e+00  -8.0831822e+06
   9.6732244e-10  -1.8163092e-03   1.5594203e+00   1.3538845e+00  -8.0474776e+06
   9.6832277e-10  -1.8082768e-03   1.5589696e+00   1.3543394e+00  -8.0119304e+06
   9.6932311e-10  -1.8002799e-03   1.5585209e+00   1.3547924e+00  -7.9765399e+06
   9.7032344e-10  -1.7923184e-03   1.5580742e+00   1.3552435e+00  -7.9413054e+06
   9.7132377e-10  -1.7843920e-03   1.5576296e+00   1.3556926e+00  -7.9062263e+06
   9.7232411e-10  -1.7765006e-03   1.5571870e+00   1.3561399e+00  -7.8713018e+06
   9.7332444e-10  -1.7686441e-03   1.5567465e+00   1.3565854e+00  -7.8365313e+06
   9.7432477e-10  -1.7608223e-03   1.5563079e+00   1.3570289e+00  -7.8019141e+06
   9.7532511e-10  -1.7530350e-03   1.5558714e+00   1.3574706e+00  -7.7674495e+06
   9.7632544e-10  -1.7452821e-03   1.5554368e+00   1.3579104e+00  -7.7331369e+06
   9.7732578e-10  -1.7375635e-03   1.5550042e+00   1.3583484e+00  -7.6989755e+06
   9.7832611e-10  -1.7298790e-03   1.5545737e+00   1.3587845e+00  -7.6649648e+06
   9.7932644e-10  -1.7222284e-03   1.5541450e+00   1.3592188e+00  -7.6311040e+06
   9.8032678e-10  -1.7146117e-03   1.5537183e+00   1.3596513e+00  -7.5973925e+06
   9.8132711e-10  -1.7070285e-03   1.5532936e+00   1.3600819e+00  -7.5638297e+06
   9.8232744e-10  -1.6994789e-03   1.5528708e+00   1.3605108e+00  -7.5304148e+06
   9.8332778e-10  -1.6919626e-03   1.5524499e+00   1.3609378e+00  -7.4971473e+06
   9.8432811e-10  -1.6844796e-03   1.5520310e+00   1.3613630e+00  -7.4640265e+06
   9.8532844e-10  -1.6770296e-03   1.5516140e+00   1.3617864e+00  -7.4310517e+06
   9.8632878e-10  -1.6696125e-03   1.5511988e+00   1.3622081e+00  -7.3982224e+06
   9.8732911e-10  -1.6622281e-03   1.5507856e+00   1.3626279e+00  -7.3655378e+06
   9.8832944e-10  -1.6548764e-03   1.5503742e+00   1.3630460e+00  -7.3329973e+06
   9.8932978e-10  -1.6475572e-03   1.5499647e+00   1.3634623e+00  -7.3006003e+06
   9.9033011e-10  -1.6402703e-03   1.5495571e+00   1.3638769e+00  -7.2683461e+06
   9.9133044e-10  -1.6330156e-03   1.5491513e+00   1.3642897e+00  -7.2362342e+06
   9.9233078e-10  -1.6257930e-03   1.5487474e+00   1.3647008e+00  -7.2042639e+06
   9.9333111e-10  -1.6186022e-03   1.5483454e+00   1.3651101e+00  -7.1724346e+06
   9.9433144e-10  -1.6114433e-03   1.5479451e+00   1.3655177e+00  -7.1407457e+06
   9.9533178e-10  -1.6043159e-03   1.5475467e+00   1.3659236e+00  -7.1091965e+06
   9.9633211e-10  -1.5972201e-03   1.5471501e+00   1.3663278e+00  -7.0777864e+06
   9.9733244e-10  -1.5901556e-03   1.5467553e+00   1.3667302e+00  -7.0465149e+06
   9.9833278e-10  -1.5831223e-03   1.5463623e+00   1.3671310e+00  -7.0153813e+06
   9.9933311e-10  -1.5761201e-03   1.5459710e+00   1.3675301e+00  -6.9843850e+06
   1.0003334e-09  -1.5691488e-03   1.5455816e+00   1.3679274e+00  -6.9535253e+06
   1.0013338e-09  -1.5622084e-03   1.5451939e+00   1.3683231e+00  -6.9228018e+06
   1.0023341e-09  -1.5552986e-03   1.5448080e+00   1.3687171e+00  -6.8922138e+06
   1.0033344e-09  -1.5484193e-03   1.5444239e+00   1.3691095e+00  -6.8617607e+06
   1.0043348e-09  -1.5415704e-03   1.5440415e+00   1.3695002e+00  -6.8314419e+06
   1.0053351e-09  -1.5347518e-03   1.5436608e+00   1.3698892e+00  -6.8012568e+06
   1.0063354e-09  -1.5279633e-03   1.5432819e+00   1.3702766e+00  -6.7712049e+06
   1.0073358e-09  -1.5212048e-03   1.5429047e+00   1.3706623e+00  -6.7412855e+06
   1.0083361e-09  -1.5144762e-03   1.5425292e+00   1.3710464e+00  -6.7114981e+06
   1.0093364e-09  -1.5077773e-03   1.5421554e+00   1.3714289e+00  -6.6818420e+06
   1.0103368e-09  -1.5011080e-03   1.5417834e+00   1.3718098e+00  -6.6523168e+06
   1.0113371e-09  -1.4944682e-03   1.5414130e+00   1.3721890e+00  -6.6229218e+06
   1.0123374e-09  -1.4878577e-03   1.5410443e+00   1.3725666e+00  -6.5936564e+06
   1.0133378e-09  -1.4812765e-03   1.5406772e+00   1.3729427e+00  -6.5645202e+06
   1.0143381e-09  -1.4747243e-03   1.5403119e+00   1.3733171e+00  -6.5355124e+06
   1.0153384e-09  -1.4682010e-03   1.5399482e+00   1.3736899e+00  -6.5066326e+06
   1.0163388e-09  -1.4617066e-03   1.5395861e+00   1.3740612e+00  -6.4778803e+06
   1.0173391e-09  -1.4552409e-03   1.5392257e+00   1.3744309e+00  -6.4492547e+06
   1.0183394e-09  -1.4488038e-03   1.5388669e+00   1.3747990e+00  -6.4207554e+06
   1.0193398e-09  -1.4423951e-03   1.5385098e+00   1.3751656e+00  -6.3923818e+06
   1.0203401e-09  -1.4360147e-03   1.5381543e+00   1.3755305e+00  -6.3641335e+06
   1.0213404e-09  -1.4296625e-03   1.5378004e+00   1.3758940e+00  -6.3360097e+06
   1.0223408e-09  -1.4233384e-03   1.5374481e+00   1.3762559e+00  -6.3080100e+06
   1.0233411e-09  -1.4170423e-03   1.5370974e+00   1.3766162e+00  -6.2801338e+06
   1.0243414e-09  -1.4107739e-03   1.5367483e+00   1.3769751e+00  -6.2523805e+06
   1.0253418e-09  -1.4045333e-03   1.5364007e+00   1.3773324e+00  -6.2247498e+06
   1.0263421e-09  -1.3983202e-03   1.5360548e+00   1.3776882e+00  -6.1972409e+06
   1.0273424e-09  -1.3921346e-03   1.5357104e+00   1.3780424e+00  -6.1698533e+06
   1.0283428e-09  -1.3859764e-03   1.5353676e+00   1.3783952e+00  -6.1425867e+06
   1.0293431e-09  -1.3798453e-03   1.5350264e+00   1.3787464e+00  -6.1154403e+06
   1.0303434e-09  -1.3737414e-03   1.5346866e+00   1.3790962e+00  -6.0884136e+06
   1.0313438e-09  -1.3676644e-03   1.5343485e+00   1.3794445e+00  -6.0615062e+06
   1.0323441e-09  -1.3616143e-03   1.5340118e+00   1.3797913e+00  -6.0347176e+06
   1.0333444e-09  -1.3555909e-03   1.5336767e+00   1.3801366e+00  -6.0080471e+06
   1.0343448e-09  -1.3495941e-03   1.5333432e+00   1.3804804e+00  -5.9814943e+06
   1.0353451e-09  -1.3436239e-03   1.5330111e+00   1.3808228e+00  -5.9550586e+06
   1.0363454e-09  -1.3376800e-03   1.5326805e+00   1.3811637e+00  -5.9287396e+06
   1.0373458e-09  -1.3317624e-03   1.5323514e+00   1.3815032e+00  -5.9025367e+06
   1.0383461e-09  -1.3258710e-03   1.5320239e+00   1.3818412e+00  -5.8764494e+06
   1.0393464e-09  -1.3200056e-03   1.5316978e+00   1.3821778e+00  -5.8504773e+06
   1.0403468e-09  -1.3141661e-03   1.5313731e+00   1.3825129e+00  -5.8246197e+06
   1.0413471e-09  -1.3083524e-03   1.5310500e+00   1.3828467e+00  -5.7988762e+06
   1.0423474e-09  -1.3025644e-03   1.5307283e+00   1.3831790e+00  -5.7732463e+06
   1.0433478e-09  -1.2968020e-03   1.5304081e+00   1.3835098e+00  -5.7477295e+06
   1.0443481e-09  -1.2910651e-03   1.5300893e+00   1.3838393e+00  -5.7223254e+06
   1.0453484e-09  -1.2853535e-03   1.5297720e+00   1.3841673e+00  -5.6970333e+06
   1.0463488e-09  -1.2796672e-03   1.5294561e+00   1.3844940e+00  -5.6718528e+06
   1.0473491e-09  -1.2740060e-03   1.5291416e+00   1.3848193e+00  -5.6467834e+06
   1.0483494e-09  -1.2683698e-03   1.5288286e+00   1.3851431e+00  -5.6218247e+06
   1.0493498e-09  -1.2627585e-03   1.5285170e+00   1.3854656e+00  -5.5969761e+06
   1.0503501e-09  -1.2571721e-03   1.5282068e+00   1.3857867e+00  -5.5722371e+06
   1.0513505e-09  -1.2516103e-03   1.5278980e+00   1.3861065e+00  -5.5476074e+06
   1.0523508e-09  -1.2460731e-03   1.5275906e+00   1.3864248e+00  -5.5230863e+06
   1.0533511e-09  -1.2405604e-03   1.5272846e+00   1.3867418e+00  -5.4986734e+06
   1.0543515e-09  -1.2350721e-03   1.5269799e+00   1.3870575e+00  -5.4743683e+06
   1.0553518e-09  -1.2296080e-03   1.5266767e+00   1.3873718e+00  -5.4501704e+06
   1.0563521e-09  -1.2241681e-03   1.5263748e+00   1.3876848e+00  -5.4260794e+06
   1.0573525e-09  -1.2187522e-03   1.5260743e+00   1.3879964e+00  -5.4020946e+06
   1.0583528e-09  -1.2133602e-03   1.5257751e+00   1.3883067e+00  -5.3782157e+06
   1.0593531e-09  -1.2079921e-03   1.5254773e+00   1.3886156e+00  -5.3544422e+06
   1.0603535e-09  -1.2026478e-03   1.5251809e+00   1.3889233e+00  -5.3307736e+06
   1.0613538e-09  -1.1973270e-03   1.5248858e+00   1.3892296e+00  -5.3072095e+06
   1.0623541e-09  -1.1920298e-03   1.5245920e+00   1.3895346e+00  -5.2837494e+06
   1.0633545e-09  -1.1867559e-03   1.5242996e+00   1.3898383e+00  -5.2603928e+06
   1.0643548e-09  -1.1815054e-03   1.5240084e+00   1.3901407e+00  -5.2371393e+06
   1.0653551e-09  -1.1762781e-03   1.5237186e+00   1.3904419e+00  -5.2139884e+06
   1.0663555e-09  -1.1710739e-03   1.5234301e+00   1.3907417e+00  -5.1909397e+06
   1.0673558e-09  -1.1658928e-03   1.5231429e+00   1.3910402e+00  -5.1679928e+06
   1.0683561e-09  -1.1607345e-03   1.5228570e+00   1.3913375e+00  -5.1451471e+06
   1.0693565e-09  -1.1555990e-03   1.5225724e+00   1.3916335e+00  -5.1224023e+06
   1.0703568e-09  -1.1504862e-03   1.5222891e+00   1.3919282e+00  -5.0997579e+06
   1.0713571e-09  -1.1453961e-03   1.5220071e+00   1.3922216e+00  -5.0772134e+06
   1.0723575e-09  -1.1403284e-03   1.5217263e+00   1.3925138e+00  -5.0547685e+06
   1.0733578e-09  -1.1352831e-03   1.5214468e+00   1.3928048e+00  -5.0324226e+06
   1.0743581e-09  -1.1302601e-03   1.5211686e+00   1.3930945e+00  -5.0101753e+06
   1.0753585e-09  -1.1252594e-03   1.5208916e+00   1.3933829e+00  -4.9880263e+06
   1.0763588e-09  -1.1202807e-03   1.5206159e+00   1.3936702e+00  -4.9659750e+06
   1.0773591e-09  -1.1153241e-03   1.5203414e+00   1.3939561e+00  -4.9440211e+06
   1.0783595e-09  -1.1103894e-03   1.5200682e+00   1.3942409e+00  -4.9221640e+06
   1.0793598e-09  -1.1054765e-03   1.5197962e+00   1.3945244e+00  -4.9004035e+06
   1.0803601e-09  -1.1005853e-03   1.5195254e+00   1.3948068e+00  -4.8787390e+06
   1.0813605e-09  -1.0957157e-03   1.5192559e+00   1.3950879e+00  -4.8571702e+06
   1.0823608e-09  -1.0908676e-03   1.5189875e+00   1.3953678e+00  -4.8356966e+06
   1.0833611e-09  -1.0860410e-03   1.5187204e+00   1.3956465e+00  -4.8143178e+06
   1.0843615e-09  -1.0812358e-03   1.5184545e+00   1.3959240e+00  -4.7930333e+06
   1.0853618e-09  -1.0764517e-03   1.5181898e+00   1.3962003e+00  -4.7718429e+06
   1.0863621e-09  -1.0716889e-03   1.5179263e+00   1.3964754e+00  -4.7507459e+06
   1.0873625e-09  -1.0669471e-03   1.5176639e+00   1.3967493e+00  -4.7297421e+06
   1.0883628e-09  -1.0622262e-03   1.5174028e+00   1.3970221e+00  -4.7088311e+06
   1.0893631e-09  -1.0575262e-03   1.5171428e+00   1.3972937e+00  -4.6880123e+06
   1.0903635e-09  -1.0528470e-03   1.5168840e+00   1.3975641e+00  -4.6672855e+06
   1.0913638e-09  -1.0481885e-03   1.5166264e+00   1.3978334e+00  -4.6466502e+06
   1.0923641e-09  -1.0435506e-03   1.5163699e+00   1.3981015e+00  -4.6261060e+06
   1.0933645e-09  -1.0389332e-03   1.5161146e+00   1.3983684e+00  -4.6056525e+06
   1.0943648e-09  -1.0343362e-03   1.5158604e+00   1.3986343e+00  -4.5852893e+06
   1.0953651e-09  -1.0297595e-03   1.5156074e+00   1.3988989e+00  -4.5650160e+06
   1.0963655e-09  -1.0252031e-03   1.5153556e+00   1.3991624e+00  -4.5448322e+06
   1.0973658e-09  -1.0206668e-03   1.5151048e+00   1.3994248e+00  -4.5247375e+06
   1.0983661e-09  -1.0161506e-03   1.5148552e+00   1.3996861e+00  -4.5047316e+06
   1.0993665e-09  -1.0116543e-03   1.5146067e+00   1.3999462e+00  -4.4848140e+06
   1.1003668e-09  -1.0071779e-03   1.5143594e+00   1.4002052e+00  -4.4649843e+06
   1.1013671e-09  -1.0027213e-03   1.5141131e+00   1.4004631e+00  -4.4452422e+06
   1.1023675e-09  -9.9828443e-04   1.5138680e+00   1.4007199e+00  -4.4255873e+06
   1.1033678e-09  -9.9386716e-04   1.5136240e+00   1.4009756e+00  -4.4060191e+06
   1.1043681e-09  -9.8946942e-04   1.5133811e+00   1.4012302e+00  -4.3865374e+06
   1.1053685e-09  -9.8509113e-04   1.5131392e+00   1.4014837e+00  -4.3671417e+06
   1.1063688e-09  -9.8073220e-04   1.5128985e+00   1.4017361e+00  -4.3478316e+06
   1.1073691e-09  -9.7639254e-04   1.5126588e+00   1.4019874e+00  -4.3286068e+06
   1.1083695e-09  -9.7207207e-04   1.5124202e+00   1.4022376e+00  -4.3094669e+06
   1.1093698e-09  -9.6777070e-04   1.5121827e+00   1.4024868e+00  -4.2904115e+06
   1.1103701e-09  -9.6348836e-04   1.5119463e+00   1.4027349e+00  -4.2714403e+06
   1.1113705e-09  -9.5922495e-04   1.5117109e+00   1.4029819e+00  -4.2525528e+06
   1.1123708e-09  -9.5498039e-04   1.5114766e+00   1.4032278e+00  -4.2337487e+06
   1.1133711e-09  -9.5075460e-04   1.5112434e+00   1.4034727e+00  -4.2150277e+06
   1.1143715e-09  -9.4654749e-04   1.5110112e+00   1.4037165e+00  -4.1963893e+06
   1.1153718e-09  -9.4235899e-04   1.5107800e+00   1.4039593e+00  -4.1778333e+06
   1.1163721e-09  -9.3818901e-04   1.5105499e+00   1.4042010e+00  -4.1593592e+06
   1.1173725e-09  -9.3403747e-04   1.5103208e+00   1.4044417e+00  -4.1409667e+06
   1.1183728e-09  -9.2990429e-04   1.5100928e+00   1.4046814e+00  -4.1226554e+06
   1.1193731e-09  -9.2578939e-04   1.5098658e+00   1.4049200e+00  -4.1044250e+06
   1.1203735e-09  -9.2169268e-04   1.5096398e+00   1.4051575e+00  -4.0862751e+06
   1.1213738e-09  -9.1761408e-04   1.5094148e+00   1.4053941e+00  -4.0682053e+06
   1.1223741e-09  -9.1355353e-04   1.5091908e+00   1.4056296e+00  -4.0502154e+06
   1.1233745e-09  -9.0951093e-04   1.5089679e+00   1.4058642e+00  -4.0323049e+06
   1.1243748e-09  -9.0548620e-04   1.5087459e+00   1.4060977e+00  -4.0144735e+06
   1.1253751e-09  -9.0147927e-04   1.5085250e+00   1.4063302e+00  -3.9967209e+06
   1.1263755e-09  -8.9749007e-04   1.5083050e+00   1.4065617e+00  -3.9790466e+06
   1.1273758e-09  -8.9351850e-04   1.5080860e+00   1.4067922e+00  -3.9614504e+06
   1.1283761e-09  -8.8956450e-04   1.5078680e+00   1.4070217e+00  -3.9439320e+06
   1.1293765e-09  -8.8562798e-04   1.5076510e+00   1.4072502e+00  -3.9264909e+06
   1.1303768e-09  -8.8170887e-04   1.5074350e+00   1.4074777e+00  -3.9091269e+06
   1.1313771e-09  -8.7780710e-04   1.5072199e+00   1.4077043e+00  -3.8918395e+06
   1.1323775e-09  -8.7392257e-04   1.5070058e+00   1.4079298e+00  -3.8746285e+06
   1.1333778e-09  -8.7005523e-04   1.5067927e+00   1.4081544e+00  -3.8574935e+06
   1.1343781e-09  -8.6620499e-04   1.5065806e+00   1.4083780e+00  -3.8404342e+06
   1.1353785e-09  -8.6237177e-04   1.5063693e+00   1.4086007e+00  -3.8234503e+06
   1.1363788e-09  -8.5855551e-04   1.5061591e+00   1.4088224e+00  -3.8065414e+06
   1.1373791e-09  -8.5475613e-04   1.5059498e+00   1.4090431e+00  -3.7897071e+06
   1.1383795e-09  -8.5097355e-04   1.5057414e+00   1.4092629e+00  -3.7729472e+06
   1.1393798e-09  -8.4720769e-04   1.5055339e+00   1.4094817e+00  -3.7562614e+06
   1.1403801e-09  -8.4345849e-04   1.5053274e+00   1.4096996e+00  -3.7396493e+06
   1.1413805e-09  -8.3972588e-04   1.5051219e+00   1.4099165e+00  -3.7231105e+06
   1.1423808e-09  -8.3600977e-04   1.5049172e+00   1.4101325e+00  -3.7066448e+06
   1.1433811e-09  -8.3231009e-04   1.5047135e+00   1.4103476e+00  -3.6902518e+06
   1.1443815e-09  -8.2862678e-04   1.5045106e+00   1.4105617e+00  -3.6739312e+06
   1.1453818e-09  -8.2495975e-04   1.5043087e+00   1.4107749e+00  -3.6576828e+06
   1.1463821e-09  -8.2130895e-04   1.5041077e+00   1.4109872e+00  -3.6415061e+06
   1.1473825e-09  -8.1767429e-04   1.5039076e+00   1.4111986e+00  -3.6254009e+06
   1.1483828e-09  -8.1405570e-04   1.5037084e+00   1.4114090e+00  -3.6093668e+06
   1.1493831e-09  -8.1045312e-04   1.5035101e+00   1.4116186e+00  -3.5934035e+06
   1.1503835e-09  -8.0686648e-04   1.5033127e+00   1.4118272e+00  -3.5775108e+06
   1.1513838e-09  -8.0329569e-04   1.5031162e+00   1.4120349e+00  -3.5616883e+06
   1.1523841e-09  -7.9974070e-04   1.5029206e+00   1.4122417e+00  -3.5459356e+06
   1.1533845e-09  -7.9620143e-04   1.5027258e+00   1.4124477e+00  -3.5302526e+06
   1.1543848e-09  -7.9267782e-04   1.5025319e+00   1.4126527e+00  -3.5146389e+06
   1.1553851e-09  -7.8916979e-04   1.5023389e+00   1.4128569e+00  -3.4990941e+06
   1.1563855e-09  -7.8567728e-04   1.5021467e+00   1.4130601e+00  -3.4836180e+06
   1.1573858e-09  -7.8220021e-04   1.5019555e+00   1.4132625e+00  -3.4682103e+06
   1.1583861e-09  -7.7873852e-04   1.5017650e+00   1.4134641e+00  -3.4528706e+06
   1.1593865e-09  -7.7529214e-04   1.5015755e+00   1.4136647e+00  -3.4375987e+06
   1.1603868e-09  -7.7186101e-04   1.5013867e+00   1.4138645e+00  -3.4223943e+06
   1.1613871e-09  -7.6844505e-04   1.5011989e+00   1.4140634e+00  -3.4072571e+06
   1.1623875e-09  -7.6504420e-04   1.5010118e+00   1.4142614e+00  -3.3921867e+06
   1.1633878e-09  -7.6165839e-04   1.5008256e+00   1.4144586e+00  -3.3771829e+06
   1.1643881e-09  -7.5828756e-04   1.5006403e+00   1.4146549e+00  -3.3622455e+06
   1.1653885e-09  -7.5493163e-04   1.5004558e+00   1.4148504e+00  -3.3473740e+06
   1.1663888e-09  -7.5159056e-04   1.5002721e+00   1.4150450e+00  -3.3325682e+06
   1.1673891e-09  -7.4826425e-04   1.5000892e+00   1.4152388e+00  -3.3178278e+06
   1.1683895e-09  -7.4495267e-04   1.4999072e+00   1.4154318e+00  -3.3031526e+06
   1.1693898e-09  -7.4165572e-04   1.4997259e+00   1.4156239e+00  -3.2885422e+06
   1.1703901e-09  -7.3837337e-04   1.4995455e+00   1.4158152e+00  -3.2739963e+06
   1.1713905e-09  -7.3510553e-04   1.4993659e+00   1.4160056e+00  -3.2595148e+06
   1.1723908e-09  -7.3185214e-04   1.4991871e+00   1.4161952e+00  -3.2450972e+06
   1.1733911e-09  -7.2861315e-04   1.4990091e+00   1.4163840e+00  -3.2307433e+06
   1.1743915e-09  -7.2538848e-04   1.4988319e+00   1.4165720e+00  -3.2164528e+06
   1.1753918e-09  -7.2217808e-04   1.4986555e+00   1.4167592e+00  -3.2022255e+06
   1.1763921e-09  -7.1898187e-04   1.4984799e+00   1.4169455e+00  -3.1880610e+06
   1.1773925e-09  -7.1579981e-04   1.4983050e+00   1.4171311e+00  -3.1739592e+06
   1.1783928e-09  -7.1263182e-04   1.4981310e+00   1.4173158e+00  -3.1599196e+06
   1.1793931e-09  -7.0947784e-04   1.4979577e+00   1.4174997e+00  -3.1459421e+06
   1.1803935e-09  -7.0633781e-04   1.4977853e+00   1.4176829e+00  -3.1320264e+06
   1.1813938e-09  -7.0321168e-04   1.4976135e+00   1.4178652e+00  -3.1181721e+06
   1.1823941e-09  -7.0009937e-04   1.4974426e+00   1.4180468e+00  -3.1043791e+06
   1.1833945e-09  -6.9700083e-04   1.4972724e+00   1.4182275e+00  -3.0906470e+06
   1.1843948e-09  -6.9391599e-04   1.4971030e+00   1.4184075e+00  -3.0769756e+06
   1.1853951e-09  -6.9084481e-04   1.4969344e+00   1.4185867e+00  -3.0633646e+06
   1.1863955e-09  -6.8778720e-04   1.4967665e+00   1.4187651e+00  -3.0498137e+06
   1.1873958e-09  -6.8474312e-04   1.4965993e+00   1.4189427e+00  -3.0363228e+06
   1.1883961e-09  -6.8171251e-04   1.4964329e+00   1.4191196e+00  -3.0228914e+06
   1.1893965e-09  -6.7869531e-04   1.4962673e+00   1.4192957e+00  -3.0095194e+06
   1.1903968e-09  -6.7569145e-04   1.4961024e+00   1.4194710e+00  -2.9962065e+06
   1.1913971e-09  -6.7270087e-04   1.4959382e+00   1.4196456e+00  -2.9829524e+06
   1.1923975e-09  -6.6972353e-04   1.4957748e+00   1.4198194e+00  -2.9697569e+06
   1.1933978e-09  -6.6675936e-04   1.4956121e+00   1.4199925e+00  -2.9566198e+06
   1.1943981e-09  -6.6380830e-04   1.4954501e+00   1.4201648e+00  -2.9435406e+06
   1.1953985e-09  -6.6087030e-04   1.4952889e+00   1.4203364e+00  -2.9305193e+06
   1.1963988e-09  -6.5794529e-04   1.4951284e+00   1.4205072e+00  -2.9175555e+06
   1.1973991e-09  -6.5503322e-04   1.4949686e+00   1.4206772e+00  -2.9046490e+06
   1.1983995e-09  -6.5213404e-04   1.4948095e+00   1.4208466e+00  -2.8917996e+06
   1.1993998e-09  -6.4924767e-04   1.4946511e+00   1.4210152e+00  -2.8790069e+06
   1.2004001e-09  -6.4637408e-04   1.4944934e+00   1.4211830e+00  -2.8662708e+06
   1.2014005e-09  -6.4351320e-04   1.4943365e+00   1.4213501e+00  -2.8535910e+06
   1.2024008e-09  -6.4066498e-04   1.4941802e+00   1.4215166e+00  -2.8409672e+06
   1.2034011e-09  -6.3782935e-04   1.4940247e+00   1.4216822e+00  -2.8283992e+06
   1.2044015e-09  -6.3500628e-04   1.4938698e+00   1.4218472e+00  -2.8158867e+06
   1.2054018e-09  -6.3219568e-04   1.4937157e+00   1.4220114e+00  -2.8034296e+06
   1.2064021e-09  -6.2939753e-04   1.4935622e+00   1.4221750e+00  -2.7910275e+06
   1.2074025e-09  -6.2661175e-04   1.4934094e+00   1.4223378e+00  -2.7786802e+06
   1.2084028e-09  -6.2383830e-04   1.4932573e+00   1.4224999e+00  -2.7663875e+06
   1.2094031e-09  -6.2107711e-04   1.4931059e+00   1.4226613e+00  -2.7541491e+06
   1.2104035e-09  -6.1832814e-04   1.4929552e+00   1.4228220e+00  -2.7419648e+06
   1.2114038e-09  -6.1559134e-04   1.4928051e+00   1.4229820e+00  -2.7298344e+06
   1.2124041e-09  -6.1286664e-04   1.4926557e+00   1.4231413e+00  -2.7177576e+06
   1.2134045e-09  -6.1015399e-04   1.4925070e+00   1.4232999e+00  -2.7057341e+06
   1.2144048e-09  -6.0745335e-04   1.4923589e+00   1.4234578e+00  -2.6937638e+06
   1.2154051e-09  -6.0476465e-04   1.4922115e+00   1.4236150e+00  -2.6818464e+06
   1.2164055e-09  -6.0208785e-04   1.4920648e+00   1.4237716e+00  -2.6699817e+06
   1.2174058e-09  -5.9942289e-04   1.4919187e+00   1.4239274e+00  -2.6581695e+06
   1.2184061e-09  -5.9676972e-04   1.4917733e+00   1.4240826e+00  -2.6464094e+06
   1.2194065e-09  -5.9412829e-04   1.4916285e+00   1.4242371e+00  -2.6347013e+06
   1.2204068e-09  -5.9149854e-04   1.4914844e+00   1.4243910e+00  -2.6230450e+06
   1.2214071e-09  -5.8888043e-04   1.4913409e+00   1.4245441e+00  -2.6114402e+06
   1.2224075e-09  -5.8627390e-04   1.4911981e+00   1.4246966e+00  -2.5998867e+06
   1.2234078e-09  -5.8367891e-04   1.4910559e+00   1.4248485e+00  -2.5883843e+06
   1.2244081e-09  -5.8109539e-04   1.4909143e+00   1.4249996e+00  -2.5769327e+06
   1.2254085e-09  -5.7852330e-04   1.4907734e+00   1.4251502e+00  -2.5655317e+06
   1.2264088e-09  -5.7596260e-04   1.4906331e+00   1.4253000e+00  -2.5541811e+06
   1.2274091e-09  -5.7341322e-04   1.4904934e+00   1.4254492e+00  -2.5428807e+06
   1.2284095e-09  -5.7087513e-04   1.4903544e+00   1.4255978e+00  -2.5316303e+06
   1.2294098e-09  -5.6834826e-04   1.4902160e+00   1.4257457e+00  -2.5204296e+06
   1.2304101e-09  -5.6583257e-04   1.4900782e+00   1.4258929e+00  -2.5092784e+06
   1.2314105e-09  -5.6332801e-04   1.4899410e+00   1.4260396e+00  -2.4981765e+06
   1.2324108e-09  -5.6083453e-04   1.4898044e+00   1.4261855e+00  -2.4871236e+06
   1.2334111e-09  -5.5835209e-04   1.4896684e+00   1.4263309e+00  -2.4761197e+06
   1.2344115e-09  -5.5588063e-04   1.4895331e+00   1.4264756e+00  -2.4651643e+06
   1.2354118e-09  -5.5342010e-04   1.4893983e+00   1.4266197e+00  -2.4542574e+06
   1.2364121e-09  -5.5097046e-04   1.4892642e+00   1.4267631e+00  -2.4433988e+06
   1.2374125e-09  -5.4853166e-04   1.4891307e+00   1.4269060e+00  -2.4325881e+06
   1.2384128e-09  -5.4610364e-04   1.4889977e+00   1.4270482e+00  -2.4218252e+06
   1.2394131e-09  -5.4368637e-04   1.4888654e+00   1.4271897e+00  -2.4111099e+06
   1.2404135e-09  -5.4127980e-04   1.4887336e+00   1.4273307e+00  -2.4004420e+06
   1.2414138e-09  -5.3888387e-04   1.4886024e+00   1.4274711e+00  -2.3898212e+06
   1.2424141e-09  -5.3649855e-04   1.4884718e+00   1.4276108e+00  -2.3792474e+06
   1.2434145e-09  -5.3412378e-04   1.4883418e+00   1.4277499e+00  -2.3687203e+06
   1.2444148e-09  -5.3175951e-04   1.4882124e+00   1.4278885e+00  -2.3582398e+06
   1.2454151e-09  -5.2940571e-04   1.4880836e+00   1.4280264e+00  -2.3478056e+06
   1.2464155e-09  -5.2706232e-04   1.4879553e+00   1.4281637e+00  -2.3374175e+06
   1.2474158e-09  -5.2472930e-04   1.4878276e+00   1.4283004e+00  -2.3270753e+06
   1.2484161e-09  -5.2240660e-04   1.4877005e+00   1.4284365e+00  -2.3167789e+06
   1.2494165e-09  -5.2009418e-04   1.4875739e+00   1.4285720e+00  -2.3065280e+06
   1.2504168e-09  -5.1779199e-04   1.4874480e+00   1.4287070e+00  -2.2963224e+06
   1.2514171e-09  -5.1549999e-04   1.4873225e+00   1.4288413e+00  -2.2861620e+06
   1.2524175e-09  -5.1321813e-04   1.4871977e+00   1.4289751e+00  -2.2760464e+06
   1.2534178e-09  -5.1094637e-04   1.4870734e+00   1.4291083e+00  -2.2659756e+06
   1.2544181e-09  -5.0868465e-04   1.4869496e+00   1.4292408e+00  -2.2559493e+06
   1.2554185e-09  -5.0643295e-04   1.4868264e+00   1.4293729e+00  -2.2459674e+06
   1.2564188e-09  -5.0419121e-04   1.4867038e+00   1.4295043e+00  -2.2360295e+06
   1.2574191e-09  -5.0195938e-04   1.4865817e+00   1.4296352e+00  -2.2261357e+06
   1.2584195e-09  -4.9973743e-04   1.4864601e+00   1.4297655e+00  -2.2162855e+06
   1.2594198e-09  -4.9752532e-04   1.4863391e+00   1.4298952e+00  -2.2064789e+06
   1.2604201e-09  -4.9532299e-04   1.4862187e+00   1.4300243e+00  -2.1967157e+06
   1.2614205e-09  -4.9313041e-04   1.4860987e+00   1.4301529e+00  -2.1869956e+06
   1.2624208e-09  -4.9094753e-04   1.4859793e+00   1.4302810e+00  -2.1773185e+06
   1.2634211e-09  -4.8877430e-04   1.4858605e+00   1.4304084e+00  -2.1676842e+06
   1.2644215e-09  -4.8661070e-04   1.4857421e+00   1.4305353e+00  -2.1580925e+06
   1.2654218e-09  -4.8445667e-04   1.4856243e+00   1.4306617e+00  -2.1485432e+06
   1.2664221e-09  -4.8231217e-04   1.4855071e+00   1.4307875e+00  -2.1390361e+06
   1.2674225e-09  -4.8017715e-04   1.4853903e+00   1.4309128e+00  -2.1295711e+06
   1.2684228e-09  -4.7805159e-04   1.4852741e+00   1.4310375e+00  -2.1201479e+06
   1.2694231e-09  -4.7593543e-04   1.4851584e+00   1.4311616e+00  -2.1107664e+06
   1.2704235e-09  -4.7382863e-04   1.4850432e+00   1.4312853e+00  -2.1014264e+06
   1.2714238e-09  -4.7173116e-04   1.4849285e+00   1.4314083e+00  -2.0921276e+06
   1.2724241e-09  -4.6964297e-04   1.4848144e+00   1.4315309e+00  -2.0828700e+06
   1.2734245e-09  -4.6756402e-04   1.4847007e+00   1.4316529e+00  -2.0736533e+06
   1.2744248e-09  -4.6549427e-04   1.4845875e+00   1.4317744e+00  -2.0644774e+06
   1.2754251e-09  -4.6343367e-04   1.4844749e+00   1.4318953e+00  -2.0553420e+06
   1.2764255e-09  -4.6138220e-04   1.4843628e+00   1.4320157e+00  -2.0462471e+06
   1.2774258e-09  -4.5933980e-04   1.4842511e+00   1.4321356e+00  -2.0371923e+06
   1.2784261e-09  -4.5730644e-04   1.4841400e+00   1.4322550e+00  -2.0281776e+06
   1.2794265e-09  -4.5528208e-04   1.4840293e+00   1.4323738e+00  -2.0192028e+06
   1.2804268e-09  -4.5326668e-04   1.4839192e+00   1.4324922e+00  -2.0102676e+06
   1.2814271e-09  -4.5126019e-04   1.4838095e+00   1.4326100e+00  -2.0013720e+06
   1.2824275e-09  -4.4926259e-04   1.4837004e+00   1.4327272e+00  -1.9925157e+06
   1.2834278e-09  -4.4727382e-04   1.4835917e+00   1.4328440e+00  -1.9836985e+06
   1.2844281e-09  -4.4529385e-04   1.4834835e+00   1.4329603e+00  -1.9749204e+06
   1.2854285e-09  -4.4332265e-04   1.4833758e+00   1.4330760e+00  -1.9661810e+06
   1.2864288e-09  -4.4136017e-04   1.4832686e+00   1.4331913e+00  -1.9574803e+06
   1.2874291e-09  -4.3940637e-04   1.4831618e+00   1.4333060e+00  -1.9488181e+06
   1.2884295e-09  -4.3746122e-04   1.4830555e+00   1.4334203e+00  -1.9401942e+06
   1.2894298e-09  -4.3552467e-04   1.4829497e+00   1.4335340e+00  -1.9316084e+06
   1.2904301e-09  -4.3359670e-04   1.4828444e+00   1.4336473e+00  -1.9230606e+06
   1.2914305e-09  -4.3167726e-04   1.4827395e+00   1.4337600e+00  -1.9145506e+06
   1.2924308e-09  -4.2976631e-04   1.4826351e+00   1.4338723e+00  -1.9060782e+06
   1.2934311e-09  -4.2786382e-04   1.4825312e+00   1.4339841e+00  -1.8976433e+06
   1.2944315e-09  -4.2596974e-04   1.4824278e+00   1.4340953e+00  -1.8892457e+06
   1.2954318e-09  -4.2408405e-04   1.4823248e+00   1.4342061e+00  -1.8808853e+06
   1.2964321e-09  -4.2220671e-04   1.4822222e+00   1.4343164e+00  -1.8725618e+06
   1.2974325e-09  -4.2033767e-04   1.4821201e+00   1.4344263e+00  -1.8642751e+06
   1.2984328e-09  -4.1847690e-04   1.4820185e+00   1.4345356e+00  -1.8560250e+06
   1.2994331e-09  -4.1662437e-04   1.4819173e+00   1.4346445e+00  -1.8478115e+06
   1.3004335e-09  -4.1478003e-04   1.4818166e+00   1.4347529e+00  -1.8396343e+06
   1.3014338e-09  -4.1294386e-04   1.4817163e+00   1.4348608e+00  -1.8314932e+06
   1.3024341e-09  -4.1111581e-04   1.4816165e+00   1.4349682e+00  -1.8233881e+06
   1.3034345e-09  -4.0929586e-04   1.4815171e+00   1.4350752e+00  -1.8153189e+06
   1.3044348e-09  -4.0748395e-04   1.4814182e+00   1.4351817e+00  -1.8072854e+06
   1.3054351e-09  -4.0568007e-04   1.4813197e+00   1.4352877e+00  -1.7992874e+06
   1.3064355e-09  -4.0388417e-04   1.4812216e+00   1.4353933e+00  -1.7913248e+06
   1.3074358e-09  -4.0209621e-04   1.4811240e+00   1.4354984e+00  -1.7833974e+06
   1.3084361e-09  -4.0031617e-04   1.4810268e+00   1.4356031e+00  -1.7755050e+06
   1.3094365e-09  -3.9854401e-04   1.4809301e+00   1.4357072e+00  -1.7676476e+06
   1.3104368e-09  -3.9677969e-04   1.4808338e+00   1.4358110e+00  -1.7598249e+06
   1.3114371e-09  -3.9502317e-04   1.4807379e+00   1.4359143e+00  -1.7520368e+06
   1.3124375e-09  -3.9327443e-04   1.4806424e+00   1.4360171e+00  -1.7442831e+06
   1.3134378e-09  -3.9153343e-04   1.4805474e+00   1.4361195e+00  -1.7365637e+06
   1.3144381e-09  -3.8980014e-04   1.4804528e+00   1.4362214e+00  -1.7288785e+06
   1.3154385e-09  -3.8807451e-04   1.4803586e+00   1.4363229e+00  -1.7212273e+06
   1.3164388e-09  -3.8635652e-04   1.4802648e+00   1.4364239e+00  -1.7136099e+06
   1.3174391e-09  -3.8464614e-04   1.4801715e+00   1.4365245e+00  -1.7060262e+06
   1.3184395e-09  -3.8294332e-04   1.4800785e+00   1.4366247e+00  -1.6984761e+06
   1.3194398e-09  -3.8124804e-04   1.4799860e+00   1.4367244e+00  -1.6909593e+06
   1.3204401e-09  -3.7956026e-04   1.4798939e+00   1.4368237e+00  -1.6834758e+06
   1.3214405e-09  -3.7787996e-04   1.4798022e+00   1.4369225e+00  -1.6760254e+06
   1.3224408e-09  -3.7620708e-04   1.4797109e+00   1.4370209e+00  -1.6686079e+06
   1.3234411e-09  -3.7454162e-04   1.4796201e+00   1.4371189e+00  -1.6612232e+06
   1.3244415e-09  -3.7288352e-04   1.4795296e+00   1.4372164e+00  -1.6538712e+06
   1.3254418e-09  -3.7123276e-04   1.4794395e+00   1.4373136e+00  -1.6465518e+06
   1.3264421e-09  -3.6958931e-04   1.4793498e+00   1.4374103e+00  -1.6392647e+06
   1.3274425e-09  -3.6795313e-04   1.4792606e+00   1.4375065e+00  -1.6320098e+06
   1.3284428e-09  -3.6632419e-04   1.4791717e+00   1.4376024e+00  -1.6247870e+06
   1.3294431e-09  -3.6470246e-04   1.4790832e+00   1.4376978e+00  -1.6175962e+06
   1.3304435e-09  -3.6308791e-04   1.4789951e+00   1.4377928e+00  -1.6104372e+06
   1.3314438e-09  -3.6148050e-04   1.4789075e+00   1.4378874e+00  -1.6033098e+06
   1.3324441e-09  -3.5988021e-04   1.4788202e+00   1.4379816e+00  -1.5962140e+06
   1.3334445e-09  -3.5828700e-04   1.4787333e+00   1.4380754e+00  -1.5891495e+06
   1.3344448e-09  -3.5670084e-04   1.4786467e+00   1.4381687e+00  -1.5821163e+06
   1.3354451e-09  -3.5512170e-04   1.4785606e+00   1.4382617e+00  -1.5751142e+06
   1.3364455e-09  -3.5354955e-04   1.4784748e+00   1.4383542e+00  -1.5681431e+06
   1.3374458e-09  -3.5198436e-04   1.4783895e+00   1.4384463e+00  -1.5612028e+06
   1.3384461e-09  -3.5042609e-04   1.4783045e+00   1.4385381e+00  -1.5542932e+06
   1.3394465e-09  -3.4887472e-04   1.4782199e+00   1.4386294e+00  -1.5474142e+06
   1.3404468e-09  -3.4733022e-04   1.4781356e+00   1.4387203e+00  -1.5405656e+06
   1.3414471e-09  -3.4579255e-04   1.4780518e+00   1.4388108e+00  -1.5337473e+06
   1.3424475e-09  -3.4426169e-04   1.4779683e+00   1.4389010e+00  -1.5269592e+06
   1.3434478e-09  -3.4273761e-04   1.4778852e+00   1.4389907e+00  -1.5202011e+06
   1.3444481e-09  -3.4122027e-04   1.4778024e+00   1.4390800e+00  -1.5134729e+06
   1.3454485e-09  -3.3970964e-04   1.4777201e+00   1.4391690e+00  -1.5067744e+06
   1.3464488e-09  -3.3820570e-04   1.4776381e+00   1.4392576e+00  -1.5001056e+06
   1.3474491e-09  -3.3670842e-04   1.4775564e+00   1.4393457e+00  -1.4934662e+06
   1.3484495e-09  -3.3521777e-04   1.4774752e+00   1.4394335e+00  -1.4868563e+06
   1.3494498e-09  -3.3373371e-04   1.4773942e+00   1.4395209e+00  -1.4802756e+06
   1.3504502e-09  -3.3225622e-04   1.4773137e+00   1.4396079e+00  -1.4737240e+06
   1.3514505e-09  -3.3078527e-04   1.4772335e+00   1.4396946e+00  -1.4672013e+06
   1.3524508e-09  -3.2932083e-04   1.4771537e+00   1.4397808e+00  -1.4607076e+06
   1.3534512e-09  -3.2786287e-04   1.4770742e+00   1.4398667e+00  -1.4542425e+06
   1.3544515e-09  -3.2641136e-04   1.4769950e+00   1.4399522e+00  -1.4478061e+06
   1.3554518e-09  -3.2496628e-04   1.4769163e+00   1.4400373e+00  -1.4413981e+06
   1.3564522e-09  -3.2352760e-04   1.4768378e+00   1.4401221e+00  -1.4350185e+06
   1.3574525e-09  -3.2209528e-04   1.4767598e+00   1.4402064e+00  -1.4286671e+06
   1.3584528e-09  -3.2066930e-04   1.4766820e+00   1.4402904e+00  -1.4223438e+06
   1.3594532e-09  -3.1924963e-04   1.4766047e+00   1.4403741e+00  -1.4160484e+06
   1.3604535e-09  -3.1783625e-04   1.4765276e+00   1.4404573e+00  -1.4097810e+06
   1.3614538e-09  -3.1642912e-04   1.4764509e+00   1.4405403e+00  -1.4035412e+06
   1.3624542e-09  -3.1502822e-04   1.4763746e+00   1.4406228e+00  -1.3973290e+06
   1.3634545e-09  -3.1363352e-04   1.4762986e+00   1.4407050e+00  -1.3911444e+06
   1.3644548e-09  -3.1224500e-04   1.4762229e+00   1.4407868e+00  -1.3849871e+06
   1.3654552e-09  -3.1086261e-04   1.4761476e+00   1.4408683e+00  -1.3788570e+06
   1.3664555e-09  -3.0948635e-04   1.4760726e+00   1.4409494e+00  -1.3727540e+06
   1.3674558e-09  -3.0811618e-04   1.4759979e+00   1.4410301e+00  -1.3666781e+06
   1.3684562e-09  -3.0675208e-04   1.4759236e+00   1.4411105e+00  -1.3606290e+06
   1.3694565e-09  -3.0539401e-04   1.4758496e+00   1.4411905e+00  -1.3546067e+06
   1.3704568e-09  -3.0404195e-04   1.4757759e+00   1.4412702e+00  -1.3486110e+06
   1.3714572e-09  -3.0269588e-04   1.4757025e+00   1.4413495e+00  -1.3426418e+06
   1.3724575e-09  -3.0135576e-04   1.4756295e+00   1.4414285e+00  -1.3366991e+06
   1.3734578e-09  -3.0002158e-04   1.4755568e+00   1.4415072e+00  -1.3307826e+06
   1.3744582e-09  -2.9869330e-04   1.4754845e+00   1.4415855e+00  -1.3248924e+06
   1.3754585e-09  -2.9737090e-04   1.4754124e+00   1.4416634e+00  -1.3190282e+06
   1.3764588e-09  -2.9605436e-04   1.4753407e+00   1.4417410e+00  -1.3131899e+06
   1.3774592e-09  -2.9474364e-04   1.4752693e+00   1.4418183e+00  -1.3073774e+06
   1.3784595e-09  -2.9343872e-04   1.4751982e+00   1.4418952e+00  -1.3015907e+06
   1.3794598e-09  -2.9213958e-04   1.4751274e+00   1.4419718e+00  -1.2958296e+06
   1.3804602e-09  -2.9084619e-04   1.4750570e+00   1.4420481e+00  -1.2900939e+06
   1.3814605e-09  -2.8955852e-04   1.4749868e+00   1.4421240e+00  -1.2843837e+06
   1.3824608e-09  -2.8827656e-04   1.4749170e+00   1.4421996e+00  -1.2786987e+06
   1.3834612e-09  -2.8700026e-04   1.4748475e+00   1.4422748e+00  -1.2730388e+06
   1.3844615e-09  -2.8572962e-04   1.4747783e+00   1.4423498e+00  -1.2674040e+06
   1.3854618e-09  -2.8446460e-04   1.4747094e+00   1.4424243e+00  -1.2617941e+06
   1.3864622e-09  -2.8320518e-04   1.4746408e+00   1.4424986e+00  -1.2562091e+06
   1.3874625e-09  -2.8195134e-04   1.4745725e+00   1.4425726e+00  -1.2506487e+06
   1.3884628e-09  -2.8070304e-04   1.4745045e+00   1.4426462e+00  -1.2451130e+06
   1.3894632e-09  -2.7946027e-04   1.4744368e+00   1.4427195e+00  -1.2396017e+06
   1.3904635e-09  -2.7822301e-04   1.4743694e+00   1.4427924e+00  -1.2341148e+06
   1.3914638e-09  -2.7699121e-04   1.4743023e+00   1.4428651e+00  -1.2286522e+06
   1.3924642e-09  -2.7576487e-04   1.4742355e+00   1.4429374e+00  -1.2232138e+06
   1.3934645e-09  -2.7454396e-04   1.4741691e+00   1.4430094e+00  -1.2177994e+06
   1.3944648e-09  -2.7332845e-04   1.4741029e+00   1.4430811e+00  -1.2124090e+06
   1.3954652e-09  -2.7211833e-04   1.4740370e+00   1.4431525e+00  -1.2070425e+06
   1.3964655e-09  -2.7091356e-04   1.4739714e+00   1.4432236e+00  -1.2016996e+06
   1.3974658e-09  -2.6971412e-04   1.4739061e+00   1.4432943e+00  -1.1963805e+06
   1.3984662e-09  -2.6851999e-04   1.4738410e+00   1.4433648e+00  -1.1910848e+06
   1.3994665e-09  -2.6733115e-04   1.4737763e+00   1.4434349e+00  -1.1858126e+06
   1.4004668e-09  -2.6614757e-04   1.4737119e+00   1.4435047e+00  -1.1805637e+06
   1.4014672e-09  -2.6496923e-04   1.4736477e+00   1.4435742e+00  -1.1753380e+06
   1.4024675e-09  -2.6379610e-04   1.4735838e+00   1.4436434e+00  -1.1701355e+06
   1.4034678e-09  -2.6262817e-04   1.4735202e+00   1.4437124e+00  -1.1649560e+06
   1.4044682e-09  -2.6146540e-04   1.4734569e+00   1.4437810e+00  -1.1597994e+06
   1.4054685e-09  -2.6030779e-04   1.4733939e+00   1.4438493e+00  -1.1546656e+06
   1.4064688e-09  -2.5915529e-04   1.4733312e+00   1.4439173e+00  -1.1495545e+06
   1.4074692e-09  -2.5800790e-04   1.4732687e+00   1.4439850e+00  -1.1444660e+06
   1.4084695e-09  -2.5686559e-04   1.4732065e+00   1.4440524e+00  -1.1394001e+06
   1.4094698e-09  -2.5572834e-04   1.4731446e+00   1.4441195e+00  -1.1343565e+06
   1.4104702e-09  -2.5459611e-04   1.4730830e+00   1.4441863e+00  -1.1293353e+06
   1.4114705e-09  -2.5346890e-04   1.4730216e+00   1.4442528e+00  -1.1243363e+06
   1.4124708e-09  -2.5234668e-04   1.4729605e+00   1.4443191e+00  -1.1193594e+06
   1.4134712e-09  -2.5122943e-04   1.4728997e+00   1.4443850e+00  -1.1144046e+06
   1.4144715e-09  -2.5011712e-04   1.4728392e+00   1.4444506e+00  -1.1094717e+06
   1.4154718e-09  -2.4900974e-04   1.4727789e+00   1.4445160e+00  -1.1045605e+06
   1.4164722e-09  -2.4790726e-04   1.4727189e+00   1.4445811e+00  -1.0996712e+06
   1.4174725e-09  -2.4680966e-04   1.4726592e+00   1.4446459e+00  -1.0948034e+06
   1.4184728e-09  -2.4571692e-04   1.4725997e+00   1.4447104e+00  -1.0899572e+06
   1.4194732e-09  -2.4462901e-04   1.4725405e+00   1.4447746e+00  -1.0851325e+06
   1.4204735e-09  -2.4354592e-04   1.4724815e+00   1.4448385e+00  -1.0803290e+06
   1.4214738e-09  -2.4246762e-04   1.4724229e+00   1.4449022e+00  -1.0755469e+06
   1.4224742e-09  -2.4139410e-04   1.4723644e+00   1.4449655e+00  -1.0707859e+06
   1.4234745e-09  -2.4032533e-04   1.4723063e+00   1.4450286e+00  -1.0660459e+06
   1.4244748e-09  -2.3926129e-04   1.4722484e+00   1.4450914e+00  -1.0613270e+06
   1.4254752e-09  -2.3820196e-04   1.4721907e+00   1.4451540e+00  -1.0566289e+06
   1.4264755e-09  -2.3714732e-04   1.4721333e+00   1.4452162e+00  -1.0519516e+06
   1.4274758e-09  -2.3609735e-04   1.4720762e+00   1.4452782e+00  -1.0472950e+06
   1.4284762e-09  -2.3505203e-04   1.4720193e+00   1.4453399e+00  -1.0426590e+06
   1.4294765e-09  -2.3401133e-04   1.4719627e+00   1.4454014e+00  -1.0380436e+06
   1.4304768e-09  -2.3297524e-04   1.4719063e+00   1.4454626e+00  -1.0334485e+06
   1.4314772e-09  -2.3194374e-04   1.4718502e+00   1.4455235e+00  -1.0288738e+06
   1.4324775e-09  -2.3091680e-04   1.4717943e+00   1.4455841e+00  -1.0243193e+06
   1.4334778e-09  -2.2989441e-04   1.4717387e+00   1.4456445e+00  -1.0197850e+06
   1.4344782e-09  -2.2887654e-04   1.4716833e+00   1.4457046e+00  -1.0152708e+06
   1.4354785e-09  -2.2786318e-04   1.4716282e+00   1.4457644e+00  -1.0107765e+06
   1.4364788e-09  -2.2685431e-04   1.4715733e+00   1.4458240e+00  -1.0063021e+06
   1.4374792e-09  -2.2584990e-04   1.4715187e+00   1.4458833e+00  -1.0018475e+06
   1.4384795e-09  -2.2484994e-04   1.4714643e+00   1.4459424e+00  -9.9741260e+05
   1.4394798e-09  -2.2385440e-04   1.4714101e+00   1.4460012e+00  -9.9299735e+05
   1.4404802e-09  -2.2286328e-04   1.4713562e+00   1.4460597e+00  -9.8860163e+05
   1.4414805e-09  -2.2187654e-04   1.4713025e+00   1.4461180e+00  -9.8422536e+05
   1.4424808e-09  -2.2089416e-04   1.4712491e+00   1.4461760e+00  -9.7986846e+05
   1.4434812e-09  -2.1991614e-04   1.4711959e+00   1.4462338e+00  -9.7553084e+05
   1.4444815e-09  -2.1894244e-04   1.4711429e+00   1.4462913e+00  -9.7121241e+05
   1.4454818e-09  -2.1797306e-04   1.4710902e+00   1.4463486e+00  -9.6691309e+05
   1.4464822e-09  -2.1700797e-04   1.4710377e+00   1.4464056e+00  -9.6263280e+05
   1.4474825e-09  -2.1604715e-04   1.4709854e+00   1.4464623e+00  -9.5837145e+05
   1.4484828e-09  -2.1509058e-04   1.4709334e+00   1.4465188e+00  -9.5412896e+05
   1.4494832e-09  -2.1413825e-04   1.4708816e+00   1.4465751e+00  -9.4990524e+05
   1.4504835e-09  -2.1319013e-04   1.4708300e+00   1.4466311e+00  -9.4570021e+05
   1.4514838e-09  -2.1224621e-04   1.4707787e+00   1.4466869e+00  -9.4151379e+05
   1.4524842e-09  -2.1130647e-04   1.4707276e+00   1.4467424e+00  -9.3734590e+05
   1.4534845e-09  -2.1037089e-04   1.4706767e+00   1.4467977e+00  -9.3319645e+05
   1.4544848e-09  -2.0943945e-04   1.4706260e+00   1.4468527e+00  -9.2906536e+05
   1.4554852e-09  -2.0851213e-04   1.4705756e+00   1.4469075e+00  -9.2495256e+05
   1.4564855e-09  -2.0758892e-04   1.4705254e+00   1.4469620e+00  -9.2085795e+05
   1.4574858e-09  -2.0666979e-04   1.4704754e+00   1.4470163e+00  -9.1678147e+05
   1.4584862e-09  -2.0575474e-04   1.4704257e+00   1.4470704e+00  -9.1272302e+05
   1.4594865e-09  -2.0484373e-04   1.4703761e+00   1.4471242e+00  -9.0868253e+05
   1.4604868e-09  -2.0393676e-04   1.4703268e+00   1.4471778e+00  -9.0465993e+05
   1.4614872e-09  -2.0303380e-04   1.4702777e+00   1.4472312e+00  -9.0065513e+05
   1.4624875e-09  -2.0213484e-04   1.4702288e+00   1.4472843e+00  -8.9666805e+05
