   0.0000000e+00  -1.2732545e-01   6.3173507e+00   3.1449396e-04  -5.2043102e+08
   1.0003334e-12  -1.2680556e-01   6.3158041e+00   3.2739761e-04  -5.1902752e+08
   2.0006669e-12  -1.2628707e-01   6.3142308e+00   3.4079200e-04  -5.1762386e+08
   3.0010003e-12  -1.2576999e-01   6.3126305e+00   3.5469406e-04  -5.1622005e+08
   4.0013338e-12  -1.2525431e-01   6.3110027e+00   3.6912127e-04  -5.1481609e+08
   5.0016672e-12  -1.2474004e-01   6.3093471e+00   3.8409161e-04  -5.1341199e+08
   6.0020007e-12  -1.2422717e-01   6.3076633e+00   3.9962360e-04  -5.1200773e+08
   7.0023341e-12  -1.2371571e-01   6.3059510e+00   4.1573632e-04  -5.1060334e+08
   8.0026676e-12  -1.2320565e-01   6.3042099e+00   4.3244941e-04  -5.0919880e+08
   9.0030010e-12  -1.2269700e-01   6.3024395e+00   4.4978307e-04  -5.0779413e+08
   1.0003334e-11  -1.2218975e-01   6.3006395e+00   4.6775813e-04  -5.0638933e+08
   1.1003668e-11  -1.2168390e-01   6.2988095e+00   4.8639599e-04  -5.0498439e+08
   1.2004001e-11  -1.2117947e-01   6.2969492e+00   5.0571868e-04  -5.0357933e+08
   1.3004335e-11  -1.2067644e-01   6.2950582e+00   5.2574887e-04  -5.0217414e+08
   1.4004668e-11  -1.2017481e-01   6.2931361e+00   5.4650987e-04  -5.0076883e+08
   1.5005002e-11  -1.1967459e-01   6.2911825e+00   5.6802566e-04  -4.9936341e+08
   1.6005335e-11  -1.1917578e-01   6.2891971e+00   5.9032087e-04  -4.9795787e+08
   1.7005669e-11  -1.1867837e-01   6.2871795e+00   6.1342084e-04  -4.9655222e+08
   1.8006002e-11  -1.1818237e-01   6.2851293e+00   6.3735164e-04  -4.9514647e+08
   1.9006335e-11  -1.1768777e-01   6.2830461e+00   6.6214001e-04  -4.9374062e+08
   2.0006669e-11  -1.1719458e-01   6.2809296e+00   6.8781347e-04  -4.9233467e+08
   2.1007002e-11  -1.1670280e-01   6.2787793e+00   7.1440026e-04  -4.9092864e+08
   2.2007336e-11  -1.1621242e-01   6.2765949e+00   7.4192941e-04  -4.8952251e+08
   2.3007669e-11  -1.1572345e-01   6.2743761e+00   7.7043072e-04  -4.8811631e+08
   2.4008003e-11  -1.1523589e-01   6.2721223e+00   7.9993480e-04  -4.8671003e+08
   2.5008336e-11  -1.1474973e-01   6.2698333e+00   8.3047305e-04  -4.8530368e+08
   2.6008670e-11  -1.1426499e-01   6.2675086e+00   8.6207773e-04  -4.8389727e+08
   2.7009003e-11  -1.1378164e-01   6.2651479e+00   8.9478192e-04  -4.8249079e+08
   2.8009336e-11  -1.1329971e-01   6.2627508e+00   9.2861959e-04  -4.8108426e+08
   2.9009670e-11  -1.1281918e-01   6.2603168e+00   9.6362556e-04  -4.7967769e+08
   3.0010003e-11  -1.1234006e-01   6.2578457e+00   9.9983557e-04  -4.7827108e+08
   3.1010337e-11  -1.1186235e-01   6.2553370e+00   1.0372863e-03  -4.7686443e+08
   3.2010670e-11  -1.1138604e-01   6.2527903e+00   1.0760152e-03  -4.7545775e+08
   3.3011004e-11  -1.1091114e-01   6.2502052e+00   1.1160609e-03  -4.7405105e+08
   3.4011337e-11  -1.1043765e-01   6.2475814e+00   1.1574629e-03  -4.7264434e+08
   3.5011671e-11  -1.0996556e-01   6.2449185e+00   1.2002615e-03  -4.7123762e+08
   3.6012004e-11  -1.0949488e-01   6.2422161e+00   1.2444983e-03  -4.6983091e+08
   3.7012337e-11  -1.0902561e-01   6.2394738e+00   1.2902157e-03  -4.6842420e+08
   3.8012671e-11  -1.0855775e-01   6.2366911e+00   1.3374572e-03  -4.6701751e+08
   3.9013004e-11  -1.0809129e-01   6.2338678e+00   1.3862673e-03  -4.6561084e+08
   4.0013338e-11  -1.0762625e-01   6.2310035e+00   1.4366917e-03  -4.6420421e+08
   4.1013671e-11  -1.0716260e-01   6.2280977e+00   1.4887770e-03  -4.6279761e+08
   4.2014005e-11  -1.0670037e-01   6.2251501e+00   1.5425709e-03  -4.6139107e+08
   4.3014338e-11  -1.0623954e-01   6.2221603e+00   1.5981224e-03  -4.5998459e+08
   4.4014672e-11  -1.0578012e-01   6.2191279e+00   1.6554815e-03  -4.5857817e+08
   4.5015005e-11  -1.0532210e-01   6.2160526e+00   1.7146993e-03  -4.5717184e+08
   4.6015338e-11  -1.0486550e-01   6.2129339e+00   1.7758281e-03  -4.5576559e+08
   4.7015672e-11  -1.0441030e-01   6.2097715e+00   1.8389215e-03  -4.5435943e+08
   4.8016005e-11  -1.0395650e-01   6.2065651e+00   1.9040340e-03  -4.5295339e+08
   4.9016339e-11  -1.0350411e-01   6.2033142e+00   1.9712217e-03  -4.5154746e+08
   5.0016672e-11  -1.0305313e-01   6.2000184e+00   2.0405416e-03  -4.5014166e+08
   5.1017006e-11  -1.0260356e-01   6.1966775e+00   2.1120521e-03  -4.4873600e+08
   5.2017339e-11  -1.0215539e-01   6.1932910e+00   2.1858128e-03  -4.4733048e+08
   5.3017673e-11  -1.0170862e-01   6.1898587e+00   2.2618845e-03  -4.4592513e+08
   5.4018006e-11  -1.0126327e-01   6.1863800e+00   2.3403295e-03  -4.4451995e+08
   5.5018339e-11  -1.0081931e-01   6.1828547e+00   2.4212112e-03  -4.4311496e+08
   5.6018673e-11  -1.0037677e-01   6.1792824e+00   2.5045945e-03  -4.4171016e+08
   5.7019006e-11  -9.9935625e-02   6.1756628e+00   2.5905453e-03  -4.4030557e+08
   5.8019340e-11  -9.9495889e-02   6.1719955e+00   2.6791312e-03  -4.3890120e+08
   5.9019673e-11  -9.9057557e-02   6.1682802e+00   2.7704209e-03  -4.3749706e+08
   6.0020007e-11  -9.8620629e-02   6.1645165e+00   2.8644847e-03  -4.3609317e+08
   6.1020340e-11  -9.8185106e-02   6.1607041e+00   2.9613941e-03  -4.3468953e+08
   6.2020674e-11  -9.7750986e-02   6.1568426e+00   3.0612221e-03  -4.3328617e+08
   6.3021007e-11  -9.7318270e-02   6.1529318e+00   3.1640430e-03  -4.3188310e+08
   6.4021340e-11  -9.6886958e-02   6.1489712e+00   3.2699327e-03  -4.3048032e+08
   6.5021674e-11  -9.6457049e-02   6.1449607e+00   3.3789682e-03  -4.2907786e+08
   6.6022007e-11  -9.6028542e-02   6.1408997e+00   3.4912283e-03  -4.2767573e+08
   6.7022341e-11  -9.5601438e-02   6.1367882e+00   3.6067930e-03  -4.2627395e+08
   6.8022674e-11  -9.5175736e-02   6.1326256e+00   3.7257440e-03  -4.2487252e+08
   6.9023008e-11  -9.4751435e-02   6.1284118e+00   3.8481642e-03  -4.2347146e+08
   7.0023341e-11  -9.4328536e-02   6.1241464e+00   3.9741382e-03  -4.2207079e+08
   7.1023675e-11  -9.3907038e-02   6.1198291e+00   4.1037519e-03  -4.2067053e+08
   7.2024008e-11  -9.3486940e-02   6.1154596e+00   4.2370928e-03  -4.1927069e+08
   7.3024341e-11  -9.3068242e-02   6.1110377e+00   4.3742500e-03  -4.1787128e+08
   7.4024675e-11  -9.2650944e-02   6.1065630e+00   4.5153138e-03  -4.1647233e+08
   7.5025008e-11  -9.2235045e-02   6.1020354e+00   4.6603763e-03  -4.1507385e+08
   7.6025342e-11  -9.1820544e-02   6.0974544e+00   4.8095311e-03  -4.1367585e+08
   7.7025675e-11  -9.1407442e-02   6.0928199e+00   4.9628732e-03  -4.1227836e+08
   7.8026009e-11  -9.0995737e-02   6.0881316e+00   5.1204991e-03  -4.1088139e+08
   7.9026342e-11  -9.0585430e-02   6.0833893e+00   5.2825069e-03  -4.0948496e+08
   8.0026676e-11  -9.0176519e-02   6.0785926e+00   5.4489963e-03  -4.0808908e+08
   8.1027009e-11  -8.9769004e-02   6.0737414e+00   5.6200685e-03  -4.0669378e+08
   8.2027342e-11  -8.9362885e-02   6.0688354e+00   5.7958261e-03  -4.0529908e+08
   8.3027676e-11  -8.8958160e-02   6.0638744e+00   5.9763734e-03  -4.0390498e+08
   8.4028009e-11  -8.8554830e-02   6.0588582e+00   6.1618162e-03  -4.0251152e+08
   8.5028343e-11  -8.8152893e-02   6.0537865e+00   6.3522617e-03  -4.0111871e+08
   8.6028676e-11  -8.7752349e-02   6.0486591e+00   6.5478188e-03  -3.9972657e+08
   8.7029010e-11  -8.7353197e-02   6.0434760e+00   6.7485978e-03  -3.9833512e+08
   8.8029343e-11  -8.6955437e-02   6.0382367e+00   6.9547106e-03  -3.9694438e+08
   8.9029677e-11  -8.6559067e-02   6.0329413e+00   7.1662707e-03  -3.9555436e+08
   9.0030010e-11  -8.6164088e-02   6.0275894e+00   7.3833928e-03  -3.9416510e+08
   9.1030343e-11  -8.5770497e-02   6.0221809e+00   7.6061935e-03  -3.9277661e+08
   9.2030677e-11  -8.5378296e-02   6.0167157e+00   7.8347906e-03  -3.9138891e+08
   9.3031010e-11  -8.4987482e-02   6.0111936e+00   8.0693035e-03  -3.9000203e+08
   9.4031344e-11  -8.4598054e-02   6.0056144e+00   8.3098531e-03  -3.8861597e+08
   9.5031677e-11  -8.4210013e-02   5.9999780e+00   8.5565617e-03  -3.8723078e+08
   9.6032011e-11  -8.3823357e-02   5.9942843e+00   8.8095532e-03  -3.8584646e+08
   9.7032344e-11  -8.3438086e-02   5.9885331e+00   9.0689527e-03  -3.8446304e+08
   9.8032678e-11  -8.3054197e-02   5.9827244e+00   9.3348869e-03  -3.8308055e+08
   9.9033011e-11  -8.2671691e-02   5.9768580e+00   9.6074839e-03  -3.8169899e+08
   1.0003334e-10  -8.2290567e-02   5.9709338e+00   9.8868732e-03  -3.8031841e+08
   1.0103368e-10  -8.1910823e-02   5.9649518e+00   1.0173186e-02  -3.7893882e+08
   1.0203401e-10  -8.1532458e-02   5.9589118e+00   1.0466553e-02  -3.7756023e+08
   1.0303434e-10  -8.1155472e-02   5.9528137e+00   1.0767110e-02  -3.7618269e+08
   1.0403468e-10  -8.0779863e-02   5.9466576e+00   1.1074991e-02  -3.7480621e+08
   1.0503501e-10  -8.0405631e-02   5.9404433e+00   1.1390331e-02  -3.7343081e+08
   1.0603535e-10  -8.0032774e-02   5.9341708e+00   1.1713269e-02  -3.7205652e+08
   1.0703568e-10  -7.9661291e-02   5.9278401e+00   1.2043944e-02  -3.7068336e+08
   1.0803601e-10  -7.9291181e-02   5.9214512e+00   1.2382494e-02  -3.6931135e+08
   1.0903635e-10  -7.8922443e-02   5.9150039e+00   1.2729062e-02  -3.6794053e+08
   1.1003668e-10  -7.8555075e-02   5.9084984e+00   1.3083790e-02  -3.6657092e+08
   1.1103701e-10  -7.8189077e-02   5.9019345e+00   1.3446821e-02  -3.6520253e+08
   1.1203735e-10  -7.7824447e-02   5.8953124e+00   1.3818300e-02  -3.6383540e+08
   1.1303768e-10  -7.7461183e-02   5.8886320e+00   1.4198373e-02  -3.6246955e+08
   1.1403801e-10  -7.7099286e-02   5.8818934e+00   1.4587186e-02  -3.6110501e+08
   1.1503835e-10  -7.6738752e-02   5.8750965e+00   1.4984888e-02  -3.5974180e+08
   1.1603868e-10  -7.6379582e-02   5.8682415e+00   1.5391627e-02  -3.5837995e+08
   1.1703901e-10  -7.6021773e-02   5.8613284e+00   1.5807553e-02  -3.5701948e+08
   1.1803935e-10  -7.5665324e-02   5.8543573e+00   1.6232817e-02  -3.5566042e+08
   1.1903968e-10  -7.5310234e-02   5.8473282e+00   1.6667570e-02  -3.5430279e+08
   1.2004001e-10  -7.4956501e-02   5.8402412e+00   1.7111965e-02  -3.5294663e+08
   1.2104035e-10  -7.4604124e-02   5.8330964e+00   1.7566156e-02  -3.5159195e+08
   1.2204068e-10  -7.4253101e-02   5.8258939e+00   1.8030296e-02  -3.5023879e+08
   1.2304101e-10  -7.3903431e-02   5.8186339e+00   1.8504540e-02  -3.4888717e+08
   1.2404135e-10  -7.3555112e-02   5.8113165e+00   1.8989045e-02  -3.4753712e+08
   1.2504168e-10  -7.3208143e-02   5.8039417e+00   1.9483965e-02  -3.4618867e+08
   1.2604201e-10  -7.2862522e-02   5.7965098e+00   1.9989459e-02  -3.4484184e+08
   1.2704235e-10  -7.2518247e-02   5.7890208e+00   2.0505682e-02  -3.4349665e+08
   1.2804268e-10  -7.2175317e-02   5.7814750e+00   2.1032795e-02  -3.4215314e+08
   1.2904301e-10  -7.1833730e-02   5.7738725e+00   2.1570954e-02  -3.4081134e+08
   1.3004335e-10  -7.1493484e-02   5.7662136e+00   2.2120318e-02  -3.3947127e+08
   1.3104368e-10  -7.1154578e-02   5.7584983e+00   2.2681048e-02  -3.3813295e+08
   1.3204401e-10  -7.0817009e-02   5.7507270e+00   2.3253303e-02  -3.3679642e+08
   1.3304435e-10  -7.0480777e-02   5.7428998e+00   2.3837241e-02  -3.3546171e+08
   1.3404468e-10  -7.0145879e-02   5.7350169e+00   2.4433025e-02  -3.3412883e+08
   1.3504502e-10  -6.9812313e-02   5.7270786e+00   2.5040814e-02  -3.3279783e+08
   1.3604535e-10  -6.9480077e-02   5.7190851e+00   2.5660768e-02  -3.3146872e+08
   1.3704568e-10  -6.9149170e-02   5.7110367e+00   2.6293048e-02  -3.3014153e+08
   1.3804602e-10  -6.8819590e-02   5.7029336e+00   2.6937815e-02  -3.2881630e+08
   1.3904635e-10  -6.8491334e-02   5.6947761e+00   2.7595229e-02  -3.2749304e+08
   1.4004668e-10  -6.8164401e-02   5.6865645e+00   2.8265451e-02  -3.2617180e+08
   1.4104702e-10  -6.7838788e-02   5.6782990e+00   2.8948641e-02  -3.2485258e+08
   1.4204735e-10  -6.7514494e-02   5.6699800e+00   2.9644960e-02  -3.2353544e+08
   1.4304768e-10  -6.7191516e-02   5.6616079e+00   3.0354568e-02  -3.2222038e+08
   1.4404802e-10  -6.6869853e-02   5.6531828e+00   3.1077624e-02  -3.2090744e+08
   1.4504835e-10  -6.6549502e-02   5.6447051e+00   3.1814287e-02  -3.1959665e+08
   1.4604868e-10  -6.6230461e-02   5.6361752e+00   3.2564717e-02  -3.1828803e+08
   1.4704902e-10  -6.5912728e-02   5.6275934e+00   3.3329072e-02  -3.1698161e+08
   1.4804935e-10  -6.5596300e-02   5.6189601e+00   3.4107511e-02  -3.1567742e+08
   1.4904968e-10  -6.5281176e-02   5.6102756e+00   3.4900190e-02  -3.1437549e+08
   1.5005002e-10  -6.4967354e-02   5.6015403e+00   3.5707266e-02  -3.1307585e+08
   1.5105035e-10  -6.4654830e-02   5.5927546e+00   3.6528896e-02  -3.1177851e+08
   1.5205068e-10  -6.4343602e-02   5.5839188e+00   3.7365235e-02  -3.1048352e+08
   1.5305102e-10  -6.4033669e-02   5.5750334e+00   3.8216437e-02  -3.0919090e+08
   1.5405135e-10  -6.3725027e-02   5.5660988e+00   3.9082656e-02  -3.0790067e+08
   1.5505168e-10  -6.3417675e-02   5.5571154e+00   3.9964046e-02  -3.0661286e+08
   1.5605202e-10  -6.3111610e-02   5.5480837e+00   4.0860757e-02  -3.0532750e+08
   1.5705235e-10  -6.2806829e-02   5.5390039e+00   4.1772940e-02  -3.0404461e+08
   1.5805268e-10  -6.2503330e-02   5.5298767e+00   4.2700746e-02  -3.0276423e+08
   1.5905302e-10  -6.2201111e-02   5.5207024e+00   4.3644322e-02  -3.0148638e+08
   1.6005335e-10  -6.1900168e-02   5.5114814e+00   4.4603817e-02  -3.0021109e+08
   1.6105368e-10  -6.1600500e-02   5.5022144e+00   4.5579375e-02  -2.9893838e+08
   1.6205402e-10  -6.1302104e-02   5.4929016e+00   4.6571142e-02  -2.9766827e+08
   1.6305435e-10  -6.1004977e-02   5.4835437e+00   4.7579260e-02  -2.9640081e+08
   1.6405468e-10  -6.0709116e-02   5.4741411e+00   4.8603873e-02  -2.9513601e+08
   1.6505502e-10  -6.0414520e-02   5.4646942e+00   4.9645120e-02  -2.9387389e+08
   1.6605535e-10  -6.0121184e-02   5.4552036e+00   5.0703139e-02  -2.9261449e+08
   1.6705569e-10  -5.9829107e-02   5.4456698e+00   5.1778069e-02  -2.9135783e+08
   1.6805602e-10  -5.9538285e-02   5.4360934e+00   5.2870044e-02  -2.9010394e+08
   1.6905635e-10  -5.9248716e-02   5.4264747e+00   5.3979199e-02  -2.8885283e+08
   1.7005669e-10  -5.8960397e-02   5.4168144e+00   5.5105665e-02  -2.8760454e+08
   1.7105702e-10  -5.8673326e-02   5.4071129e+00   5.6249572e-02  -2.8635910e+08
   1.7205735e-10  -5.8387499e-02   5.3973709e+00   5.7411049e-02  -2.8511652e+08
   1.7305769e-10  -5.8102913e-02   5.3875888e+00   5.8590222e-02  -2.8387683e+08
   1.7405802e-10  -5.7819566e-02   5.3777673e+00   5.9787216e-02  -2.8264005e+08
   1.7505835e-10  -5.7537454e-02   5.3679068e+00   6.1002152e-02  -2.8140622e+08
   1.7605869e-10  -5.7256576e-02   5.3580079e+00   6.2235152e-02  -2.8017534e+08
   1.7705902e-10  -5.6976927e-02   5.3480713e+00   6.3486332e-02  -2.7894746e+08
   1.7805935e-10  -5.6698504e-02   5.3380974e+00   6.4755809e-02  -2.7772258e+08
   1.7905969e-10  -5.6421306e-02   5.3280868e+00   6.6043696e-02  -2.7650074e+08
   1.8006002e-10  -5.6145328e-02   5.3180402e+00   6.7350105e-02  -2.7528196e+08
   1.8106035e-10  -5.5870568e-02   5.3079581e+00   6.8675144e-02  -2.7406625e+08
   1.8206069e-10  -5.5597022e-02   5.2978411e+00   7.0018920e-02  -2.7285365e+08
   1.8306102e-10  -5.5324688e-02   5.2876897e+00   7.1381538e-02  -2.7164417e+08
   1.8406135e-10  -5.5053561e-02   5.2775047e+00   7.2763099e-02  -2.7043784e+08
   1.8506169e-10  -5.4783640e-02   5.2672866e+00   7.4163702e-02  -2.6923468e+08
   1.8606202e-10  -5.4514921e-02   5.2570360e+00   7.5583444e-02  -2.6803471e+08
   1.8706235e-10  -5.4247401e-02   5.2467534e+00   7.7022418e-02  -2.6683795e+08
   1.8806269e-10  -5.3981076e-02   5.2364396e+00   7.8480717e-02  -2.6564442e+08
   1.8906302e-10  -5.3715943e-02   5.2260952e+00   7.9958428e-02  -2.6445414e+08
   1.9006335e-10  -5.3452000e-02   5.2157207e+00   8.1455638e-02  -2.6326714e+08
   1.9106369e-10  -5.3189242e-02   5.2053168e+00   8.2972430e-02  -2.6208343e+08
   1.9206402e-10  -5.2927666e-02   5.1948841e+00   8.4508884e-02  -2.6090304e+08
   1.9306435e-10  -5.2667270e-02   5.1844233e+00   8.6065079e-02  -2.5972598e+08
   1.9406469e-10  -5.2408049e-02   5.1739349e+00   8.7641088e-02  -2.5855227e+08
   1.9506502e-10  -5.2150001e-02   5.1634196e+00   8.9236984e-02  -2.5738193e+08
   1.9606536e-10  -5.1893121e-02   5.1528781e+00   9.0852835e-02  -2.5621499e+08
   1.9706569e-10  -5.1637408e-02   5.1423109e+00   9.2488708e-02  -2.5505145e+08
   1.9806602e-10  -5.1382856e-02   5.1317188e+00   9.4144666e-02  -2.5389133e+08
   1.9906636e-10  -5.1129463e-02   5.1211023e+00   9.5820769e-02  -2.5273467e+08
   2.0006669e-10  -5.0877226e-02   5.1104621e+00   9.7517073e-02  -2.5158146e+08
   2.0106702e-10  -5.0626140e-02   5.0997989e+00   9.9233634e-02  -2.5043173e+08
   2.0206736e-10  -5.0376203e-02   5.0891132e+00   1.0097050e-01  -2.4928550e+08
   2.0306769e-10  -5.0127410e-02   5.0784057e+00   1.0272772e-01  -2.4814278e+08
   2.0406802e-10  -4.9879759e-02   5.0676772e+00   1.0450535e-01  -2.4700359e+08
   2.0506836e-10  -4.9633245e-02   5.0569281e+00   1.0630341e-01  -2.4586794e+08
   2.0606869e-10  -4.9387866e-02   5.0461592e+00   1.0812195e-01  -2.4473585e+08
   2.0706902e-10  -4.9143617e-02   5.0353711e+00   1.0996101e-01  -2.4360733e+08
   2.0806936e-10  -4.8900496e-02   5.0245645e+00   1.1182061e-01  -2.4248240e+08
   2.0906969e-10  -4.8658498e-02   5.0137400e+00   1.1370079e-01  -2.4136108e+08
   2.1007002e-10  -4.8417619e-02   5.0028982e+00   1.1560158e-01  -2.4024337e+08
   2.1107036e-10  -4.8177857e-02   4.9920398e+00   1.1752298e-01  -2.3912930e+08
   2.1207069e-10  -4.7939208e-02   4.9811654e+00   1.1946504e-01  -2.3801887e+08
   2.1307102e-10  -4.7701667e-02   4.9702758e+00   1.2142775e-01  -2.3691209e+08
   2.1407136e-10  -4.7465232e-02   4.9593714e+00   1.2341114e-01  -2.3580899e+08
   2.1507169e-10  -4.7229899e-02   4.9484531e+00   1.2541520e-01  -2.3470957e+08
   2.1607202e-10  -4.6995663e-02   4.9375213e+00   1.2743996e-01  -2.3361385e+08
   2.1707236e-10  -4.6762521e-02   4.9265768e+00   1.2948541e-01  -2.3252183e+08
   2.1807269e-10  -4.6530471e-02   4.9156202e+00   1.3155156e-01  -2.3143353e+08
   2.1907302e-10  -4.6299506e-02   4.9046521e+00   1.3363839e-01  -2.3034896e+08
   2.2007336e-10  -4.6069625e-02   4.8936731e+00   1.3574591e-01  -2.2926813e+08
   2.2107369e-10  -4.5840823e-02   4.8826840e+00   1.3787410e-01  -2.2819104e+08
   2.2207402e-10  -4.5613097e-02   4.8716853e+00   1.4002296e-01  -2.2711772e+08
   2.2307436e-10  -4.5386443e-02   4.8606776e+00   1.4219246e-01  -2.2604817e+08
   2.2407469e-10  -4.5160856e-02   4.8496616e+00   1.4438258e-01  -2.2498239e+08
   2.2507503e-10  -4.4936334e-02   4.8386379e+00   1.4659331e-01  -2.2392040e+08
   2.2607536e-10  -4.4712872e-02   4.8276072e+00   1.4882461e-01  -2.2286221e+08
   2.2707569e-10  -4.4490467e-02   4.8165699e+00   1.5107647e-01  -2.2180782e+08
   2.2807603e-10  -4.4269114e-02   4.8055269e+00   1.5334884e-01  -2.2075725e+08
   2.2907636e-10  -4.4048811e-02   4.7944786e+00   1.5564170e-01  -2.1971049e+08
   2.3007669e-10  -4.3829553e-02   4.7834257e+00   1.5795500e-01  -2.1866756e+08
   2.3107703e-10  -4.3611336e-02   4.7723688e+00   1.6028870e-01  -2.1762847e+08
   2.3207736e-10  -4.3394156e-02   4.7613085e+00   1.6264276e-01  -2.1659321e+08
   2.3307769e-10  -4.3178010e-02   4.7502454e+00   1.6501713e-01  -2.1556180e+08
   2.3407803e-10  -4.2962895e-02   4.7391801e+00   1.6741177e-01  -2.1453425e+08
   2.3507836e-10  -4.2748805e-02   4.7281131e+00   1.6982661e-01  -2.1351055e+08
   2.3607869e-10  -4.2535737e-02   4.7170452e+00   1.7226160e-01  -2.1249071e+08
   2.3707903e-10  -4.2323687e-02   4.7059768e+00   1.7471668e-01  -2.1147474e+08
   2.3807936e-10  -4.2112652e-02   4.6949085e+00   1.7719179e-01  -2.1046264e+08
   2.3907969e-10  -4.1902627e-02   4.6838410e+00   1.7968686e-01  -2.0945442e+08
   2.4008003e-10  -4.1693609e-02   4.6727747e+00   1.8220182e-01  -2.0845008e+08
   2.4108036e-10  -4.1485593e-02   4.6617104e+00   1.8473661e-01  -2.0744962e+08
   2.4208069e-10  -4.1278577e-02   4.6506484e+00   1.8729115e-01  -2.0645305e+08
   2.4308103e-10  -4.1072555e-02   4.6395895e+00   1.8986536e-01  -2.0546037e+08
   2.4408136e-10  -4.0867524e-02   4.6285341e+00   1.9245917e-01  -2.0447158e+08
   2.4508169e-10  -4.0663481e-02   4.6174828e+00   1.9507248e-01  -2.0348668e+08
   2.4608203e-10  -4.0460421e-02   4.6064362e+00   1.9770522e-01  -2.0250569e+08
   2.4708236e-10  -4.0258340e-02   4.5953947e+00   2.0035729e-01  -2.0152858e+08
   2.4808269e-10  -4.0057234e-02   4.5843590e+00   2.0302861e-01  -2.0055538e+08
   2.4908303e-10  -3.9857101e-02   4.5733296e+00   2.0571908e-01  -1.9958608e+08
   2.5008336e-10  -3.9657934e-02   4.5623069e+00   2.0842861e-01  -1.9862068e+08
   2.5108369e-10  -3.9459732e-02   4.5512916e+00   2.1115710e-01  -1.9765918e+08
   2.5208403e-10  -3.9262490e-02   4.5402841e+00   2.1390444e-01  -1.9670158e+08
   2.5308436e-10  -3.9066203e-02   4.5292850e+00   2.1667053e-01  -1.9574789e+08
   2.5408469e-10  -3.8870868e-02   4.5182947e+00   2.1945528e-01  -1.9479809e+08
   2.5508503e-10  -3.8676482e-02   4.5073138e+00   2.2225856e-01  -1.9385219e+08
   2.5608536e-10  -3.8483040e-02   4.4963427e+00   2.2508027e-01  -1.9291020e+08
   2.5708570e-10  -3.8290538e-02   4.4853821e+00   2.2792029e-01  -1.9197210e+08
   2.5808603e-10  -3.8098973e-02   4.4744322e+00   2.3077851e-01  -1.9103789e+08
   2.5908636e-10  -3.7908340e-02   4.4634937e+00   2.3365482e-01  -1.9010758e+08
   2.6008670e-10  -3.7718636e-02   4.4525670e+00   2.3654908e-01  -1.8918116e+08
   2.6108703e-10  -3.7529857e-02   4.4416526e+00   2.3946118e-01  -1.8825863e+08
   2.6208736e-10  -3.7341998e-02   4.4307510e+00   2.4239100e-01  -1.8733999e+08
   2.6308770e-10  -3.7155057e-02   4.4198625e+00   2.4533840e-01  -1.8642523e+08
   2.6408803e-10  -3.6969029e-02   4.4089878e+00   2.4830326e-01  -1.8551436e+08
   2.6508836e-10  -3.6783910e-02   4.3981271e+00   2.5128545e-01  -1.8460735e+08
   2.6608870e-10  -3.6599696e-02   4.3872810e+00   2.5428484e-01  -1.8370423e+08
   2.6708903e-10  -3.6416384e-02   4.3764499e+00   2.5730129e-01  -1.8280497e+08
   2.6808936e-10  -3.6233969e-02   4.3656342e+00   2.6033466e-01  -1.8190958e+08
   2.6908970e-10  -3.6052448e-02   4.3548344e+00   2.6338481e-01  -1.8101804e+08
   2.7009003e-10  -3.5871817e-02   4.3440509e+00   2.6645161e-01  -1.8013037e+08
   2.7109036e-10  -3.5692073e-02   4.3332841e+00   2.6953491e-01  -1.7924654e+08
   2.7209070e-10  -3.5513210e-02   4.3225345e+00   2.7263458e-01  -1.7836656e+08
   2.7309103e-10  -3.5335225e-02   4.3118023e+00   2.7575045e-01  -1.7749042e+08
   2.7409136e-10  -3.5158116e-02   4.3010881e+00   2.7888240e-01  -1.7661812e+08
   2.7509170e-10  -3.4981876e-02   4.2903921e+00   2.8203026e-01  -1.7574964e+08
   2.7609203e-10  -3.4806504e-02   4.2797149e+00   2.8519388e-01  -1.7488499e+08
   2.7709236e-10  -3.4631995e-02   4.2690568e+00   2.8837313e-01  -1.7402415e+08
   2.7809270e-10  -3.4458345e-02   4.2584182e+00   2.9156783e-01  -1.7316713e+08
   2.7909303e-10  -3.4285550e-02   4.2477993e+00   2.9477784e-01  -1.7231391e+08
   2.8009336e-10  -3.4113607e-02   4.2372007e+00   2.9800301e-01  -1.7146448e+08
   2.8109370e-10  -3.3942511e-02   4.2266227e+00   3.0124316e-01  -1.7061885e+08
   2.8209403e-10  -3.3772260e-02   4.2160656e+00   3.0449815e-01  -1.6977700e+08
   2.8309436e-10  -3.3602849e-02   4.2055297e+00   3.0776782e-01  -1.6893892e+08
   2.8409470e-10  -3.3434275e-02   4.1950155e+00   3.1105200e-01  -1.6810461e+08
   2.8509503e-10  -3.3266533e-02   4.1845232e+00   3.1435052e-01  -1.6727406e+08
   2.8609537e-10  -3.3099620e-02   4.1740532e+00   3.1766324e-01  -1.6644726e+08
   2.8709570e-10  -3.2933532e-02   4.1636058e+00   3.2098997e-01  -1.6562420e+08
   2.8809603e-10  -3.2768266e-02   4.1531814e+00   3.2433056e-01  -1.6480488e+08
   2.8909637e-10  -3.2603817e-02   4.1427802e+00   3.2768484e-01  -1.6398929e+08
   2.9009670e-10  -3.2440182e-02   4.1324025e+00   3.3105265e-01  -1.6317741e+08
   2.9109703e-10  -3.2277358e-02   4.1220487e+00   3.3443380e-01  -1.6236925e+08
   2.9209737e-10  -3.2115340e-02   4.1117191e+00   3.3782813e-01  -1.6156478e+08
   2.9309770e-10  -3.1954126e-02   4.1014139e+00   3.4123548e-01  -1.6076401e+08
   2.9409803e-10  -3.1793710e-02   4.0911335e+00   3.4465567e-01  -1.5996691e+08
   2.9509837e-10  -3.1634090e-02   4.0808781e+00   3.4808853e-01  -1.5917349e+08
   2.9609870e-10  -3.1475262e-02   4.0706480e+00   3.5153388e-01  -1.5838373e+08
   2.9709903e-10  -3.1317221e-02   4.0604435e+00   3.5499156e-01  -1.5759763e+08
   2.9809937e-10  -3.1159966e-02   4.0502648e+00   3.5846138e-01  -1.5681516e+08
   2.9909970e-10  -3.1003491e-02   4.0401122e+00   3.6194318e-01  -1.5603633e+08
   3.0010003e-10  -3.0847794e-02   4.0299860e+00   3.6543677e-01  -1.5526113e+08
   3.0110037e-10  -3.0692870e-02   4.0198863e+00   3.6894199e-01  -1.5448953e+08
   3.0210070e-10  -3.0538716e-02   4.0098135e+00   3.7245865e-01  -1.5372154e+08
   3.0310103e-10  -3.0385329e-02   3.9997679e+00   3.7598658e-01  -1.5295714e+08
   3.0410137e-10  -3.0232704e-02   3.9897495e+00   3.7952561e-01  -1.5219633e+08
   3.0510170e-10  -3.0080839e-02   3.9797587e+00   3.8307554e-01  -1.5143908e+08
   3.0610203e-10  -2.9929730e-02   3.9697956e+00   3.8663622e-01  -1.5068539e+08
   3.0710237e-10  -2.9779373e-02   3.9598606e+00   3.9020745e-01  -1.4993525e+08
   3.0810270e-10  -2.9629764e-02   3.9499537e+00   3.9378906e-01  -1.4918865e+08
   3.0910303e-10  -2.9480900e-02   3.9400753e+00   3.9738088e-01  -1.4844558e+08
   3.1010337e-10  -2.9332778e-02   3.9302255e+00   4.0098271e-01  -1.4770602e+08
   3.1110370e-10  -2.9185394e-02   3.9204046e+00   4.0459439e-01  -1.4696997e+08
   3.1210403e-10  -2.9038745e-02   3.9106126e+00   4.0821573e-01  -1.4623740e+08
   3.1310437e-10  -2.8892826e-02   3.9008499e+00   4.1184656e-01  -1.4550832e+08
   3.1410470e-10  -2.8747635e-02   3.8911165e+00   4.1548669e-01  -1.4478271e+08
   3.1510504e-10  -2.8603169e-02   3.8814127e+00   4.1913595e-01  -1.4406056e+08
   3.1610537e-10  -2.8459423e-02   3.8717386e+00   4.2279416e-01  -1.4334186e+08
   3.1710570e-10  -2.8316394e-02   3.8620945e+00   4.2646113e-01  -1.4262658e+08
   3.1810604e-10  -2.8174079e-02   3.8524804e+00   4.3013670e-01  -1.4191473e+08
   3.1910637e-10  -2.8032474e-02   3.8428966e+00   4.3382067e-01  -1.4120630e+08
   3.2010670e-10  -2.7891576e-02   3.8333431e+00   4.3751287e-01  -1.4050126e+08
   3.2110704e-10  -2.7751382e-02   3.8238202e+00   4.4121313e-01  -1.3979960e+08
   3.2210737e-10  -2.7611888e-02   3.8143280e+00   4.4492125e-01  -1.3910132e+08
   3.2310770e-10  -2.7473091e-02   3.8048667e+00   4.4863707e-01  -1.3840641e+08
   3.2410804e-10  -2.7334987e-02   3.7954363e+00   4.5236041e-01  -1.3771484e+08
   3.2510837e-10  -2.7197573e-02   3.7860370e+00   4.5609109e-01  -1.3702661e+08
   3.2610870e-10  -2.7060846e-02   3.7766689e+00   4.5982893e-01  -1.3634171e+08
   3.2710904e-10  -2.6924803e-02   3.7673322e+00   4.6357376e-01  -1.3566012e+08
   3.2810937e-10  -2.6789440e-02   3.7580270e+00   4.6732539e-01  -1.3498183e+08
   3.2910970e-10  -2.6654754e-02   3.7487534e+00   4.7108365e-01  -1.3430682e+08
   3.3011004e-10  -2.6520741e-02   3.7395115e+00   4.7484837e-01  -1.3363509e+08
   3.3111037e-10  -2.6387398e-02   3.7303014e+00   4.7861937e-01  -1.3296663e+08
   3.3211070e-10  -2.6254723e-02   3.7211232e+00   4.8239647e-01  -1.3230141e+08
   3.3311104e-10  -2.6122711e-02   3.7119771e+00   4.8617950e-01  -1.3163943e+08
   3.3411137e-10  -2.5991360e-02   3.7028630e+00   4.8996829e-01  -1.3098068e+08
   3.3511170e-10  -2.5860666e-02   3.6937812e+00   4.9376266e-01  -1.3032513e+08
   3.3611204e-10  -2.5730627e-02   3.6847317e+00   4.9756245e-01  -1.2967279e+08
   3.3711237e-10  -2.5601238e-02   3.6757146e+00   5.0136747e-01  -1.2902363e+08
   3.3811270e-10  -2.5472497e-02   3.6667299e+00   5.0517755e-01  -1.2837765e+08
   3.3911304e-10  -2.5344401e-02   3.6577778e+00   5.0899253e-01  -1.2773482e+08
   3.4011337e-10  -2.5216946e-02   3.6488583e+00   5.1281224e-01  -1.2709515e+08
   3.4111370e-10  -2.5090130e-02   3.6399714e+00   5.1663650e-01  -1.2645861e+08
   3.4211404e-10  -2.4963949e-02   3.6311174e+00   5.2046515e-01  -1.2582519e+08
   3.4311437e-10  -2.4838399e-02   3.6222961e+00   5.2429801e-01  -1.2519487e+08
   3.4411470e-10  -2.4713479e-02   3.6135077e+00   5.2813493e-01  -1.2456766e+08
   3.4511504e-10  -2.4589185e-02   3.6047523e+00   5.3197573e-01  -1.2394353e+08
   3.4611537e-10  -2.4465513e-02   3.5960298e+00   5.3582024e-01  -1.2332246e+08
   3.4711571e-10  -2.4342461e-02   3.5873403e+00   5.3966831e-01  -1.2270446e+08
   3.4811604e-10  -2.4220026e-02   3.5786839e+00   5.4351976e-01  -1.2208950e+08
   3.4911637e-10  -2.4098204e-02   3.5700607e+00   5.4737444e-01  -1.2147757e+08
   3.5011671e-10  -2.3976993e-02   3.5614706e+00   5.5123218e-01  -1.2086865e+08
   3.5111704e-10  -2.3856390e-02   3.5529137e+00   5.5509282e-01  -1.2026275e+08
   3.5211737e-10  -2.3736391e-02   3.5443900e+00   5.5895620e-01  -1.1965983e+08
   3.5311771e-10  -2.3616994e-02   3.5358996e+00   5.6282216e-01  -1.1905989e+08
   3.5411804e-10  -2.3498195e-02   3.5274424e+00   5.6669053e-01  -1.1846292e+08
   3.5511837e-10  -2.3379993e-02   3.5190186e+00   5.7056117e-01  -1.1786891e+08
   3.5611871e-10  -2.3262382e-02   3.5106280e+00   5.7443391e-01  -1.1727783e+08
   3.5711904e-10  -2.3145362e-02   3.5022709e+00   5.7830860e-01  -1.1668968e+08
   3.5811937e-10  -2.3028929e-02   3.4939471e+00   5.8218507e-01  -1.1610444e+08
   3.5911971e-10  -2.2913079e-02   3.4856566e+00   5.8606319e-01  -1.1552211e+08
   3.6012004e-10  -2.2797811e-02   3.4773995e+00   5.8994279e-01  -1.1494266e+08
   3.6112037e-10  -2.2683120e-02   3.4691759e+00   5.9382372e-01  -1.1436609e+08
   3.6212071e-10  -2.2569005e-02   3.4609856e+00   5.9770583e-01  -1.1379238e+08
   3.6312104e-10  -2.2455463e-02   3.4528287e+00   6.0158897e-01  -1.1322152e+08
   3.6412137e-10  -2.2342490e-02   3.4447051e+00   6.0547298e-01  -1.1265350e+08
   3.6512171e-10  -2.2230084e-02   3.4366150e+00   6.0935773e-01  -1.1208830e+08
   3.6612204e-10  -2.2118242e-02   3.4285583e+00   6.1324307e-01  -1.1152592e+08
   3.6712237e-10  -2.2006961e-02   3.4205349e+00   6.1712884e-01  -1.1096633e+08
   3.6812271e-10  -2.1896238e-02   3.4125449e+00   6.2101490e-01  -1.1040952e+08
   3.6912304e-10  -2.1786071e-02   3.4045882e+00   6.2490111e-01  -1.0985549e+08
   3.7012337e-10  -2.1676457e-02   3.3966648e+00   6.2878733e-01  -1.0930422e+08
   3.7112371e-10  -2.1567393e-02   3.3887748e+00   6.3267341e-01  -1.0875569e+08
   3.7212404e-10  -2.1458876e-02   3.3809180e+00   6.3655921e-01  -1.0820990e+08
   3.7312437e-10  -2.1350904e-02   3.3730945e+00   6.4044459e-01  -1.0766683e+08
   3.7412471e-10  -2.1243474e-02   3.3653043e+00   6.4432942e-01  -1.0712647e+08
   3.7512504e-10  -2.1136583e-02   3.3575472e+00   6.4821355e-01  -1.0658881e+08
   3.7612538e-10  -2.1030228e-02   3.3498233e+00   6.5209685e-01  -1.0605383e+08
   3.7712571e-10  -2.0924407e-02   3.3421326e+00   6.5597919e-01  -1.0552152e+08
   3.7812604e-10  -2.0819117e-02   3.3344750e+00   6.5986043e-01  -1.0499187e+08
   3.7912638e-10  -2.0714356e-02   3.3268505e+00   6.6374043e-01  -1.0446486e+08
   3.8012671e-10  -2.0610121e-02   3.3192590e+00   6.6761907e-01  -1.0394049e+08
   3.8112704e-10  -2.0506408e-02   3.3117005e+00   6.7149621e-01  -1.0341874e+08
   3.8212738e-10  -2.0403217e-02   3.3041750e+00   6.7537173e-01  -1.0289960e+08
   3.8312771e-10  -2.0300543e-02   3.2966824e+00   6.7924550e-01  -1.0238305e+08
   3.8412804e-10  -2.0198385e-02   3.2892227e+00   6.8311738e-01  -1.0186909e+08
   3.8512838e-10  -2.0096740e-02   3.2817958e+00   6.8698726e-01  -1.0135770e+08
   3.8612871e-10  -1.9995605e-02   3.2744017e+00   6.9085500e-01  -1.0084887e+08
   3.8712904e-10  -1.9894977e-02   3.2670403e+00   6.9472050e-01  -1.0034258e+08
   3.8812938e-10  -1.9794855e-02   3.2597115e+00   6.9858361e-01  -9.9838832e+07
   3.8912971e-10  -1.9695236e-02   3.2524154e+00   7.0244422e-01  -9.9337605e+07
   3.9013004e-10  -1.9596116e-02   3.2451519e+00   7.0630221e-01  -9.8838888e+07
   3.9113038e-10  -1.9497494e-02   3.2379208e+00   7.1015747e-01  -9.8342669e+07
   3.9213071e-10  -1.9399368e-02   3.2307222e+00   7.1400986e-01  -9.7848937e+07
   3.9313104e-10  -1.9301734e-02   3.2235560e+00   7.1785929e-01  -9.7357678e+07
   3.9413138e-10  -1.9204590e-02   3.2164221e+00   7.2170562e-01  -9.6868882e+07
   3.9513171e-10  -1.9107934e-02   3.2093205e+00   7.2554876e-01  -9.6382536e+07
   3.9613204e-10  -1.9011763e-02   3.2022511e+00   7.2938857e-01  -9.5898629e+07
   3.9713238e-10  -1.8916075e-02   3.1952138e+00   7.3322496e-01  -9.5417148e+07
   3.9813271e-10  -1.8820867e-02   3.1882085e+00   7.3705781e-01  -9.4938081e+07
   3.9913304e-10  -1.8726138e-02   3.1812353e+00   7.4088701e-01  -9.4461417e+07
   4.0013338e-10  -1.8631884e-02   3.1742940e+00   7.4471245e-01  -9.3987145e+07
   4.0113371e-10  -1.8538103e-02   3.1673845e+00   7.4853403e-01  -9.3515251e+07
   4.0213404e-10  -1.8444793e-02   3.1605068e+00   7.5235164e-01  -9.3045726e+07
   4.0313438e-10  -1.8351951e-02   3.1536608e+00   7.5616517e-01  -9.2578556e+07
   4.0413471e-10  -1.8259576e-02   3.1468465e+00   7.5997453e-01  -9.2113731e+07
   4.0513505e-10  -1.8167665e-02   3.1400637e+00   7.6377960e-01  -9.1651239e+07
   4.0613538e-10  -1.8076215e-02   3.1333123e+00   7.6758029e-01  -9.1191068e+07
   4.0713571e-10  -1.7985224e-02   3.1265924e+00   7.7137650e-01  -9.0733207e+07
   4.0813605e-10  -1.7894690e-02   3.1199038e+00   7.7516812e-01  -9.0277645e+07
   4.0913638e-10  -1.7804610e-02   3.1132464e+00   7.7895507e-01  -8.9824370e+07
   4.1013671e-10  -1.7714983e-02   3.1066202e+00   7.8273724e-01  -8.9373371e+07
   4.1113705e-10  -1.7625806e-02   3.1000251e+00   7.8651453e-01  -8.8924637e+07
   4.1213738e-10  -1.7537076e-02   3.0934609e+00   7.9028686e-01  -8.8478156e+07
   4.1313771e-10  -1.7448793e-02   3.0869277e+00   7.9405414e-01  -8.8033917e+07
   4.1413805e-10  -1.7360952e-02   3.0804253e+00   7.9781626e-01  -8.7591910e+07
   4.1513838e-10  -1.7273552e-02   3.0739536e+00   8.0157313e-01  -8.7152122e+07
   4.1613871e-10  -1.7186591e-02   3.0675125e+00   8.0532468e-01  -8.6714544e+07
   4.1713905e-10  -1.7100067e-02   3.0611020e+00   8.0907080e-01  -8.6279164e+07
   4.1813938e-10  -1.7013977e-02   3.0547220e+00   8.1281142e-01  -8.5845970e+07
   4.1913971e-10  -1.6928320e-02   3.0483724e+00   8.1654644e-01  -8.5414953e+07
   4.2014005e-10  -1.6843092e-02   3.0420530e+00   8.2027578e-01  -8.4986101e+07
   4.2114038e-10  -1.6758292e-02   3.0357639e+00   8.2399936e-01  -8.4559403e+07
   4.2214071e-10  -1.6673919e-02   3.0295048e+00   8.2771709e-01  -8.4134850e+07
   4.2314105e-10  -1.6589968e-02   3.0232758e+00   8.3142890e-01  -8.3712429e+07
   4.2414138e-10  -1.6506440e-02   3.0170767e+00   8.3513469e-01  -8.3292130e+07
   4.2514171e-10  -1.6423330e-02   3.0109074e+00   8.3883439e-01  -8.2873944e+07
   4.2614205e-10  -1.6340638e-02   3.0047678e+00   8.4252793e-01  -8.2457858e+07
   4.2714238e-10  -1.6258361e-02   2.9986579e+00   8.4621522e-01  -8.2043863e+07
   4.2814271e-10  -1.6176497e-02   2.9925775e+00   8.4989619e-01  -8.1631948e+07
   4.2914305e-10  -1.6095044e-02   2.9865266e+00   8.5357077e-01  -8.1222103e+07
   4.3014338e-10  -1.6014000e-02   2.9805050e+00   8.5723887e-01  -8.0814317e+07
   4.3114371e-10  -1.5933363e-02   2.9745127e+00   8.6090043e-01  -8.0408580e+07
   4.3214405e-10  -1.5853131e-02   2.9685495e+00   8.6455537e-01  -8.0004882e+07
   4.3314438e-10  -1.5773302e-02   2.9626153e+00   8.6820363e-01  -7.9603212e+07
   4.3414471e-10  -1.5693873e-02   2.9567101e+00   8.7184513e-01  -7.9203560e+07
   4.3514505e-10  -1.5614843e-02   2.9508338e+00   8.7547981e-01  -7.8805916e+07
   4.3614538e-10  -1.5536210e-02   2.9449862e+00   8.7910759e-01  -7.8410271e+07
   4.3714572e-10  -1.5457972e-02   2.9391672e+00   8.8272842e-01  -7.8016613e+07
   4.3814605e-10  -1.5380126e-02   2.9333768e+00   8.8634221e-01  -7.7624933e+07
   4.3914638e-10  -1.5302671e-02   2.9276149e+00   8.8994892e-01  -7.7235221e+07
   4.4014672e-10  -1.5225605e-02   2.9218813e+00   8.9354847e-01  -7.6847466e+07
   4.4114705e-10  -1.5148926e-02   2.9161759e+00   8.9714081e-01  -7.6461660e+07
   4.4214738e-10  -1.5072632e-02   2.9104987e+00   9.0072587e-01  -7.6077793e+07
   4.4314772e-10  -1.4996721e-02   2.9048495e+00   9.0430359e-01  -7.5695853e+07
   4.4414805e-10  -1.4921191e-02   2.8992283e+00   9.0787391e-01  -7.5315833e+07
   4.4514838e-10  -1.4846041e-02   2.8936349e+00   9.1143678e-01  -7.4937721e+07
   4.4614872e-10  -1.4771267e-02   2.8880692e+00   9.1499213e-01  -7.4561509e+07
   4.4714905e-10  -1.4696869e-02   2.8825311e+00   9.1853991e-01  -7.4187187e+07
   4.4814938e-10  -1.4622844e-02   2.8770206e+00   9.2208006e-01  -7.3814745e+07
   4.4914972e-10  -1.4549192e-02   2.8715375e+00   9.2561254e-01  -7.3444174e+07
   4.5015005e-10  -1.4475908e-02   2.8660816e+00   9.2913727e-01  -7.3075464e+07
   4.5115038e-10  -1.4402993e-02   2.8606530e+00   9.3265422e-01  -7.2708606e+07
   4.5215072e-10  -1.4330444e-02   2.8552515e+00   9.3616333e-01  -7.2343590e+07
   4.5315105e-10  -1.4258259e-02   2.8498770e+00   9.3966455e-01  -7.1980408e+07
   4.5415138e-10  -1.4186436e-02   2.8445294e+00   9.4315783e-01  -7.1619050e+07
   4.5515172e-10  -1.4114974e-02   2.8392085e+00   9.4664312e-01  -7.1259507e+07
   4.5615205e-10  -1.4043870e-02   2.8339144e+00   9.5012037e-01  -7.0901769e+07
   4.5715238e-10  -1.3973124e-02   2.8286468e+00   9.5358954e-01  -7.0545827e+07
   4.5815272e-10  -1.3902733e-02   2.8234056e+00   9.5705058e-01  -7.0191673e+07
   4.5915305e-10  -1.3832695e-02   2.8181909e+00   9.6050344e-01  -6.9839297e+07
   4.6015338e-10  -1.3763008e-02   2.8130023e+00   9.6394807e-01  -6.9488690e+07
   4.6115372e-10  -1.3693672e-02   2.8078400e+00   9.6738445e-01  -6.9139844e+07
   4.6215405e-10  -1.3624684e-02   2.8027036e+00   9.7081252e-01  -6.8792749e+07
   4.6315438e-10  -1.3556042e-02   2.7975932e+00   9.7423223e-01  -6.8447396e+07
   4.6415472e-10  -1.3487744e-02   2.7925086e+00   9.7764356e-01  -6.8103777e+07
   4.6515505e-10  -1.3419789e-02   2.7874498e+00   9.8104646e-01  -6.7761883e+07
   4.6615539e-10  -1.3352176e-02   2.7824165e+00   9.8444089e-01  -6.7421706e+07
   4.6715572e-10  -1.3284902e-02   2.7774088e+00   9.8782681e-01  -6.7083235e+07
   4.6815605e-10  -1.3217966e-02   2.7724264e+00   9.9120419e-01  -6.6746464e+07
   4.6915639e-10  -1.3151365e-02   2.7674694e+00   9.9457298e-01  -6.6411383e+07
   4.7015672e-10  -1.3085099e-02   2.7625375e+00   9.9793316e-01  -6.6077983e+07
   4.7115705e-10  -1.3019166e-02   2.7576307e+00   1.0012847e+00  -6.5746257e+07
   4.7215739e-10  -1.2953564e-02   2.7527489e+00   1.0046275e+00  -6.5416195e+07
   4.7315772e-10  -1.2888291e-02   2.7478919e+00   1.0079616e+00  -6.5087790e+07
   4.7415805e-10  -1.2823345e-02   2.7430597e+00   1.0112870e+00  -6.4761033e+07
   4.7515839e-10  -1.2758726e-02   2.7382522e+00   1.0146036e+00  -6.4435915e+07
   4.7615872e-10  -1.2694431e-02   2.7334692e+00   1.0179113e+00  -6.4112428e+07
   4.7715905e-10  -1.2630459e-02   2.7287106e+00   1.0212102e+00  -6.3790564e+07
   4.7815939e-10  -1.2566808e-02   2.7239764e+00   1.0245003e+00  -6.3470315e+07
   4.7915972e-10  -1.2503477e-02   2.7192663e+00   1.0277814e+00  -6.3151672e+07
   4.8016005e-10  -1.2440464e-02   2.7145804e+00   1.0310536e+00  -6.2834628e+07
   4.8116039e-10  -1.2377767e-02   2.7099186e+00   1.0343168e+00  -6.2519174e+07
   4.8216072e-10  -1.2315384e-02   2.7052806e+00   1.0375711e+00  -6.2205302e+07
   4.8316105e-10  -1.2253315e-02   2.7006664e+00   1.0408163e+00  -6.1893005e+07
   4.8416139e-10  -1.2191558e-02   2.6960759e+00   1.0440525e+00  -6.1582274e+07
   4.8516172e-10  -1.2130110e-02   2.6915090e+00   1.0472796e+00  -6.1273101e+07
   4.8616205e-10  -1.2068971e-02   2.6869656e+00   1.0504977e+00  -6.0965479e+07
   4.8716239e-10  -1.2008139e-02   2.6824455e+00   1.0537066e+00  -6.0659399e+07
   4.8816272e-10  -1.1947612e-02   2.6779488e+00   1.0569064e+00  -6.0354855e+07
   4.8916305e-10  -1.1887390e-02   2.6734752e+00   1.0600971e+00  -6.0051837e+07
   4.9016339e-10  -1.1827469e-02   2.6690246e+00   1.0632786e+00  -5.9750338e+07
   4.9116372e-10  -1.1767850e-02   2.6645970e+00   1.0664508e+00  -5.9450351e+07
   4.9216405e-10  -1.1708529e-02   2.6601923e+00   1.0696139e+00  -5.9151868e+07
   4.9316439e-10  -1.1649507e-02   2.6558103e+00   1.0727677e+00  -5.8854882e+07
   4.9416472e-10  -1.1590781e-02   2.6514510e+00   1.0759123e+00  -5.8559384e+07
   4.9516506e-10  -1.1532350e-02   2.6471142e+00   1.0790476e+00  -5.8265368e+07
   4.9616539e-10  -1.1474212e-02   2.6427998e+00   1.0821737e+00  -5.7972825e+07
   4.9716572e-10  -1.1416366e-02   2.6385078e+00   1.0852904e+00  -5.7681748e+07
   4.9816606e-10  -1.1358810e-02   2.6342380e+00   1.0883978e+00  -5.7392131e+07
   4.9916639e-10  -1.1301544e-02   2.6299903e+00   1.0914959e+00  -5.7103965e+07
   5.0016672e-10  -1.1244565e-02   2.6257646e+00   1.0945846e+00  -5.6817243e+07
   5.0116706e-10  -1.1187872e-02   2.6215609e+00   1.0976640e+00  -5.6531958e+07
   5.0216739e-10  -1.1131463e-02   2.6173790e+00   1.1007340e+00  -5.6248103e+07
   5.0316772e-10  -1.1075338e-02   2.6132188e+00   1.1037946e+00  -5.5965670e+07
   5.0416806e-10  -1.1019495e-02   2.6090802e+00   1.1068458e+00  -5.5684652e+07
   5.0516839e-10  -1.0963932e-02   2.6049631e+00   1.1098876e+00  -5.5405042e+07
   5.0616872e-10  -1.0908648e-02   2.6008674e+00   1.1129200e+00  -5.5126833e+07
   5.0716906e-10  -1.0853642e-02   2.5967930e+00   1.1159429e+00  -5.4850018e+07
   5.0816939e-10  -1.0798912e-02   2.5927398e+00   1.1189564e+00  -5.4574590e+07
   5.0916972e-10  -1.0744457e-02   2.5887078e+00   1.1219605e+00  -5.4300542e+07
   5.1017006e-10  -1.0690275e-02   2.5846967e+00   1.1249551e+00  -5.4027867e+07
   5.1117039e-10  -1.0636366e-02   2.5807066e+00   1.1279402e+00  -5.3756557e+07
   5.1217072e-10  -1.0582727e-02   2.5767372e+00   1.1309158e+00  -5.3486607e+07
   5.1317106e-10  -1.0529357e-02   2.5727886e+00   1.1338820e+00  -5.3218009e+07
   5.1417139e-10  -1.0476255e-02   2.5688605e+00   1.1368387e+00  -5.2950756e+07
   5.1517172e-10  -1.0423420e-02   2.5649530e+00   1.1397859e+00  -5.2684841e+07
   5.1617206e-10  -1.0370851e-02   2.5610659e+00   1.1427235e+00  -5.2420259e+07
   5.1717239e-10  -1.0318545e-02   2.5571990e+00   1.1456517e+00  -5.2157001e+07
   5.1817272e-10  -1.0266502e-02   2.5533524e+00   1.1485704e+00  -5.1895062e+07
   5.1917306e-10  -1.0214721e-02   2.5495259e+00   1.1514795e+00  -5.1634435e+07
   5.2017339e-10  -1.0163199e-02   2.5457195e+00   1.1543792e+00  -5.1375112e+07
   5.2117372e-10  -1.0111937e-02   2.5419329e+00   1.1572693e+00  -5.1117089e+07
   5.2217406e-10  -1.0060931e-02   2.5381661e+00   1.1601499e+00  -5.0860357e+07
   5.2317439e-10  -1.0010182e-02   2.5344191e+00   1.1630210e+00  -5.0604911e+07
   5.2417472e-10  -9.9596879e-03   2.5306917e+00   1.1658825e+00  -5.0350744e+07
   5.2517506e-10  -9.9094473e-03   2.5269838e+00   1.1687345e+00  -5.0097849e+07
   5.2617539e-10  -9.8594590e-03   2.5232954e+00   1.1715770e+00  -4.9846221e+07
   5.2717573e-10  -9.8097218e-03   2.5196263e+00   1.1744100e+00  -4.9595852e+07
   5.2817606e-10  -9.7602344e-03   2.5159764e+00   1.1772334e+00  -4.9346737e+07
   5.2917639e-10  -9.7109956e-03   2.5123457e+00   1.1800473e+00  -4.9098869e+07
   5.3017673e-10  -9.6620041e-03   2.5087341e+00   1.1828517e+00  -4.8852242e+07
   5.3117706e-10  -9.6132587e-03   2.5051414e+00   1.1856466e+00  -4.8606850e+07
   5.3217739e-10  -9.5647582e-03   2.5015675e+00   1.1884319e+00  -4.8362686e+07
   5.3317773e-10  -9.5165013e-03   2.4980125e+00   1.1912077e+00  -4.8119744e+07
   5.3417806e-10  -9.4684868e-03   2.4944761e+00   1.1939740e+00  -4.7878018e+07
   5.3517839e-10  -9.4207135e-03   2.4909583e+00   1.1967308e+00  -4.7637502e+07
   5.3617873e-10  -9.3731801e-03   2.4874589e+00   1.1994781e+00  -4.7398190e+07
   5.3717906e-10  -9.3258856e-03   2.4839780e+00   1.2022158e+00  -4.7160076e+07
   5.3817939e-10  -9.2788287e-03   2.4805154e+00   1.2049441e+00  -4.6923153e+07
   5.3917973e-10  -9.2320081e-03   2.4770710e+00   1.2076629e+00  -4.6687417e+07
   5.4018006e-10  -9.1854228e-03   2.4736448e+00   1.2103721e+00  -4.6452860e+07
   5.4118039e-10  -9.1390715e-03   2.4702365e+00   1.2130719e+00  -4.6219477e+07
   5.4218073e-10  -9.0929531e-03   2.4668462e+00   1.2157622e+00  -4.5987262e+07
   5.4318106e-10  -9.0470665e-03   2.4634738e+00   1.2184431e+00  -4.5756210e+07
   5.4418139e-10  -9.0014103e-03   2.4601191e+00   1.2211144e+00  -4.5526313e+07
   5.4518173e-10  -8.9559836e-03   2.4567821e+00   1.2237763e+00  -4.5297567e+07
   5.4618206e-10  -8.9107851e-03   2.4534627e+00   1.2264288e+00  -4.5069966e+07
   5.4718239e-10  -8.8658137e-03   2.4501608e+00   1.2290718e+00  -4.4843504e+07
   5.4818273e-10  -8.8210682e-03   2.4468763e+00   1.2317054e+00  -4.4618174e+07
   5.4918306e-10  -8.7765476e-03   2.4436091e+00   1.2343295e+00  -4.4393973e+07
   5.5018339e-10  -8.7322507e-03   2.4403591e+00   1.2369442e+00  -4.4170893e+07
   5.5118373e-10  -8.6881764e-03   2.4371262e+00   1.2395496e+00  -4.3948930e+07
   5.5218406e-10  -8.6443236e-03   2.4339105e+00   1.2421455e+00  -4.3728077e+07
   5.5318439e-10  -8.6006912e-03   2.4307117e+00   1.2447320e+00  -4.3508330e+07
   5.5418473e-10  -8.5572780e-03   2.4275297e+00   1.2473091e+00  -4.3289682e+07
   5.5518506e-10  -8.5140830e-03   2.4243646e+00   1.2498769e+00  -4.3072128e+07
   5.5618540e-10  -8.4711051e-03   2.4212162e+00   1.2524353e+00  -4.2855662e+07
   5.5718573e-10  -8.4283431e-03   2.4180844e+00   1.2549843e+00  -4.2640280e+07
   5.5818606e-10  -8.3857961e-03   2.4149691e+00   1.2575240e+00  -4.2425975e+07
   5.5918640e-10  -8.3434629e-03   2.4118703e+00   1.2600544e+00  -4.2212742e+07
   5.6018673e-10  -8.3013425e-03   2.4087878e+00   1.2625755e+00  -4.2000577e+07
   5.6118706e-10  -8.2594338e-03   2.4057217e+00   1.2650872e+00  -4.1789472e+07
   5.6218740e-10  -8.2177357e-03   2.4026717e+00   1.2675897e+00  -4.1579425e+07
   5.6318773e-10  -8.1762472e-03   2.3996379e+00   1.2700829e+00  -4.1370428e+07
   5.6418806e-10  -8.1349672e-03   2.3966201e+00   1.2725668e+00  -4.1162476e+07
   5.6518840e-10  -8.0938948e-03   2.3936182e+00   1.2750415e+00  -4.0955565e+07
   5.6618873e-10  -8.0530288e-03   2.3906323e+00   1.2775069e+00  -4.0749689e+07
   5.6718906e-10  -8.0123682e-03   2.3876621e+00   1.2799631e+00  -4.0544844e+07
   5.6818940e-10  -7.9719121e-03   2.3847076e+00   1.2824101e+00  -4.0341023e+07
   5.6918973e-10  -7.9316593e-03   2.3817687e+00   1.2848479e+00  -4.0138222e+07
   5.7019006e-10  -7.8916088e-03   2.3788454e+00   1.2872765e+00  -3.9936435e+07
   5.7119040e-10  -7.8517597e-03   2.3759375e+00   1.2896959e+00  -3.9735658e+07
   5.7219073e-10  -7.8121110e-03   2.3730451e+00   1.2921062e+00  -3.9535885e+07
   5.7319106e-10  -7.7726616e-03   2.3701679e+00   1.2945073e+00  -3.9337112e+07
   5.7419140e-10  -7.7334105e-03   2.3673060e+00   1.2968993e+00  -3.9139334e+07
   5.7519173e-10  -7.6943568e-03   2.3644592e+00   1.2992822e+00  -3.8942544e+07
   5.7619206e-10  -7.6554994e-03   2.3616274e+00   1.3016560e+00  -3.8746740e+07
   5.7719240e-10  -7.6168374e-03   2.3588107e+00   1.3040208e+00  -3.8551915e+07
   5.7819273e-10  -7.5783698e-03   2.3560089e+00   1.3063765e+00  -3.8358064e+07
   5.7919306e-10  -7.5400957e-03   2.3532219e+00   1.3087231e+00  -3.8165184e+07
   5.8019340e-10  -7.5020140e-03   2.3504496e+00   1.3110607e+00  -3.7973268e+07
   5.8119373e-10  -7.4641238e-03   2.3476921e+00   1.3133893e+00  -3.7782313e+07
   5.8219406e-10  -7.4264241e-03   2.3449491e+00   1.3157089e+00  -3.7592313e+07
   5.8319440e-10  -7.3889140e-03   2.3422206e+00   1.3180195e+00  -3.7403264e+07
   5.8419473e-10  -7.3515926e-03   2.3395066e+00   1.3203211e+00  -3.7215160e+07
   5.8519507e-10  -7.3144588e-03   2.3368070e+00   1.3226138e+00  -3.7027997e+07
   5.8619540e-10  -7.2775118e-03   2.3341217e+00   1.3248976e+00  -3.6841771e+07
   5.8719573e-10  -7.2407506e-03   2.3314506e+00   1.3271725e+00  -3.6656477e+07
   5.8819607e-10  -7.2041743e-03   2.3287937e+00   1.3294385e+00  -3.6472110e+07
   5.8919640e-10  -7.1677820e-03   2.3261508e+00   1.3316956e+00  -3.6288665e+07
   5.9019673e-10  -7.1315727e-03   2.3235219e+00   1.3339439e+00  -3.6106138e+07
   5.9119707e-10  -7.0955456e-03   2.3209070e+00   1.3361833e+00  -3.5924524e+07
   5.9219740e-10  -7.0596997e-03   2.3183059e+00   1.3384139e+00  -3.5743819e+07
   5.9319773e-10  -7.0240340e-03   2.3157185e+00   1.3406358e+00  -3.5564017e+07
   5.9419807e-10  -6.9885478e-03   2.3131449e+00   1.3428488e+00  -3.5385116e+07
   5.9519840e-10  -6.9532401e-03   2.3105850e+00   1.3450531e+00  -3.5207110e+07
   5.9619873e-10  -6.9181101e-03   2.3080386e+00   1.3472486e+00  -3.5029994e+07
   5.9719907e-10  -6.8831567e-03   2.3055057e+00   1.3494355e+00  -3.4853765e+07
   5.9819940e-10  -6.8483792e-03   2.3029862e+00   1.3516136e+00  -3.4678417e+07
   5.9919973e-10  -6.8137766e-03   2.3004800e+00   1.3537831e+00  -3.4503947e+07
   6.0020007e-10  -6.7793482e-03   2.2979872e+00   1.3559438e+00  -3.4330349e+07
   6.0120040e-10  -6.7450930e-03   2.2955075e+00   1.3580960e+00  -3.4157621e+07
   6.0220073e-10  -6.7110101e-03   2.2930410e+00   1.3602395e+00  -3.3985756e+07
   6.0320107e-10  -6.6770987e-03   2.2905876e+00   1.3623745e+00  -3.3814752e+07
   6.0420140e-10  -6.6433579e-03   2.2881471e+00   1.3645008e+00  -3.3644603e+07
   6.0520173e-10  -6.6097869e-03   2.2857196e+00   1.3666186e+00  -3.3475306e+07
   6.0620207e-10  -6.5763849e-03   2.2833050e+00   1.3687279e+00  -3.3306856e+07
   6.0720240e-10  -6.5431509e-03   2.2809032e+00   1.3708286e+00  -3.3139249e+07
   6.0820273e-10  -6.5100842e-03   2.2785141e+00   1.3729209e+00  -3.2972481e+07
   6.0920307e-10  -6.4771839e-03   2.2761376e+00   1.3750047e+00  -3.2806547e+07
   6.1020340e-10  -6.4444491e-03   2.2737738e+00   1.3770800e+00  -3.2641444e+07
   6.1120373e-10  -6.4118791e-03   2.2714224e+00   1.3791469e+00  -3.2477167e+07
   6.1220407e-10  -6.3794730e-03   2.2690836e+00   1.3812053e+00  -3.2313712e+07
   6.1320440e-10  -6.3472300e-03   2.2667571e+00   1.3832554e+00  -3.2151075e+07
   6.1420473e-10  -6.3151493e-03   2.2644430e+00   1.3852972e+00  -3.1989253e+07
   6.1520507e-10  -6.2832300e-03   2.2621411e+00   1.3873305e+00  -3.1828240e+07
   6.1620540e-10  -6.2514715e-03   2.2598514e+00   1.3893556e+00  -3.1668033e+07
   6.1720574e-10  -6.2198727e-03   2.2575739e+00   1.3913724e+00  -3.1508627e+07
   6.1820607e-10  -6.1884331e-03   2.2553084e+00   1.3933808e+00  -3.1350020e+07
   6.1920640e-10  -6.1571517e-03   2.2530550e+00   1.3953810e+00  -3.1192207e+07
   6.2020674e-10  -6.1260277e-03   2.2508134e+00   1.3973730e+00  -3.1035183e+07
   6.2120707e-10  -6.0950605e-03   2.2485838e+00   1.3993568e+00  -3.0878946e+07
   6.2220740e-10  -6.0642491e-03   2.2463660e+00   1.4013324e+00  -3.0723490e+07
   6.2320774e-10  -6.0335929e-03   2.2441599e+00   1.4032998e+00  -3.0568813e+07
   6.2420807e-10  -6.0030910e-03   2.2419655e+00   1.4052590e+00  -3.0414910e+07
   6.2520840e-10  -5.9727427e-03   2.2397827e+00   1.4072102e+00  -3.0261777e+07
   6.2620874e-10  -5.9425471e-03   2.2376115e+00   1.4091532e+00  -3.0109411e+07
   6.2720907e-10  -5.9125036e-03   2.2354518e+00   1.4110882e+00  -2.9957808e+07
   6.2820940e-10  -5.8826114e-03   2.2333036e+00   1.4130151e+00  -2.9806964e+07
   6.2920974e-10  -5.8528697e-03   2.2311667e+00   1.4149340e+00  -2.9656875e+07
   6.3021007e-10  -5.8232778e-03   2.2290412e+00   1.4168448e+00  -2.9507537e+07
   6.3121040e-10  -5.7938348e-03   2.2269269e+00   1.4187477e+00  -2.9358947e+07
   6.3221074e-10  -5.7645402e-03   2.2248238e+00   1.4206426e+00  -2.9211101e+07
   6.3321107e-10  -5.7353930e-03   2.2227319e+00   1.4225296e+00  -2.9063995e+07
   6.3421140e-10  -5.7063926e-03   2.2206510e+00   1.4244086e+00  -2.8917626e+07
   6.3521174e-10  -5.6775383e-03   2.2185811e+00   1.4262798e+00  -2.8771990e+07
   6.3621207e-10  -5.6488293e-03   2.2165223e+00   1.4281431e+00  -2.8627083e+07
   6.3721240e-10  -5.6202649e-03   2.2144743e+00   1.4299985e+00  -2.8482901e+07
   6.3821274e-10  -5.5918444e-03   2.2124372e+00   1.4318462e+00  -2.8339442e+07
   6.3921307e-10  -5.5635670e-03   2.2104108e+00   1.4336860e+00  -2.8196701e+07
   6.4021340e-10  -5.5354321e-03   2.2083952e+00   1.4355180e+00  -2.8054675e+07
   6.4121374e-10  -5.5074388e-03   2.2063903e+00   1.4373423e+00  -2.7913360e+07
   6.4221407e-10  -5.4795866e-03   2.2043959e+00   1.4391589e+00  -2.7772753e+07
   6.4321440e-10  -5.4518747e-03   2.2024122e+00   1.4409677e+00  -2.7632850e+07
   6.4421474e-10  -5.4243023e-03   2.2004389e+00   1.4427689e+00  -2.7493647e+07
   6.4521507e-10  -5.3968689e-03   2.1984761e+00   1.4445624e+00  -2.7355142e+07
   6.4621541e-10  -5.3695737e-03   2.1965237e+00   1.4463482e+00  -2.7217331e+07
   6.4721574e-10  -5.3424159e-03   2.1945816e+00   1.4481265e+00  -2.7080210e+07
   6.4821607e-10  -5.3153950e-03   2.1926498e+00   1.4498972e+00  -2.6943775e+07
   6.4921641e-10  -5.2885103e-03   2.1907282e+00   1.4516603e+00  -2.6808025e+07
   6.5021674e-10  -5.2617610e-03   2.1888168e+00   1.4534158e+00  -2.6672954e+07
   6.5121707e-10  -5.2351464e-03   2.1869155e+00   1.4551639e+00  -2.6538560e+07
   6.5221741e-10  -5.2086660e-03   2.1850243e+00   1.4569044e+00  -2.6404839e+07
   6.5321774e-10  -5.1823190e-03   2.1831430e+00   1.4586375e+00  -2.6271788e+07
   6.5421807e-10  -5.1561048e-03   2.1812718e+00   1.4603632e+00  -2.6139403e+07
   6.5521841e-10  -5.1300226e-03   2.1794104e+00   1.4620814e+00  -2.6007682e+07
   6.5621874e-10  -5.1040719e-03   2.1775589e+00   1.4637922e+00  -2.5876621e+07
   6.5721907e-10  -5.0782520e-03   2.1757171e+00   1.4654957e+00  -2.5746216e+07
   6.5821941e-10  -5.0525622e-03   2.1738852e+00   1.4671918e+00  -2.5616465e+07
   6.5921974e-10  -5.0270018e-03   2.1720629e+00   1.4688805e+00  -2.5487364e+07
   6.6022007e-10  -5.0015703e-03   2.1702502e+00   1.4705620e+00  -2.5358909e+07
   6.6122041e-10  -4.9762669e-03   2.1684471e+00   1.4722362e+00  -2.5231099e+07
   6.6222074e-10  -4.9510911e-03   2.1666536e+00   1.4739031e+00  -2.5103929e+07
   6.6322107e-10  -4.9260422e-03   2.1648695e+00   1.4755629e+00  -2.4977396e+07
   6.6422141e-10  -4.9011195e-03   2.1630949e+00   1.4772154e+00  -2.4851497e+07
   6.6522174e-10  -4.8763225e-03   2.1613297e+00   1.4788607e+00  -2.4726230e+07
   6.6622207e-10  -4.8516504e-03   2.1595738e+00   1.4804989e+00  -2.4601590e+07
   6.6722241e-10  -4.8271028e-03   2.1578272e+00   1.4821299e+00  -2.4477575e+07
   6.6822274e-10  -4.8026788e-03   2.1560898e+00   1.4837538e+00  -2.4354181e+07
   6.6922307e-10  -4.7783780e-03   2.1543616e+00   1.4853707e+00  -2.4231406e+07
   6.7022341e-10  -4.7541997e-03   2.1526425e+00   1.4869804e+00  -2.4109246e+07
   6.7122374e-10  -4.7301433e-03   2.1509325e+00   1.4885832e+00  -2.3987699e+07
   6.7222407e-10  -4.7062082e-03   2.1492316e+00   1.4901789e+00  -2.3866761e+07
   6.7322441e-10  -4.6823937e-03   2.1475396e+00   1.4917677e+00  -2.3746429e+07
   6.7422474e-10  -4.6586993e-03   2.1458566e+00   1.4933494e+00  -2.3626701e+07
   6.7522508e-10  -4.6351244e-03   2.1441824e+00   1.4949243e+00  -2.3507572e+07
   6.7622541e-10  -4.6116683e-03   2.1425171e+00   1.4964922e+00  -2.3389041e+07
   6.7722574e-10  -4.5883306e-03   2.1408607e+00   1.4980532e+00  -2.3271105e+07
   6.7822608e-10  -4.5651105e-03   2.1392129e+00   1.4996074e+00  -2.3153759e+07
   6.7922641e-10  -4.5420075e-03   2.1375739e+00   1.5011547e+00  -2.3037002e+07
   6.8022674e-10  -4.5190210e-03   2.1359435e+00   1.5026952e+00  -2.2920830e+07
   6.8122708e-10  -4.4961504e-03   2.1343217e+00   1.5042289e+00  -2.2805241e+07
   6.8222741e-10  -4.4733951e-03   2.1327085e+00   1.5057558e+00  -2.2690232e+07
   6.8322774e-10  -4.4507546e-03   2.1311038e+00   1.5072760e+00  -2.2575799e+07
   6.8422808e-10  -4.4282283e-03   2.1295076e+00   1.5087894e+00  -2.2461940e+07
   6.8522841e-10  -4.4058156e-03   2.1279197e+00   1.5102962e+00  -2.2348652e+07
   6.8622874e-10  -4.3835160e-03   2.1263403e+00   1.5117962e+00  -2.2235933e+07
   6.8722908e-10  -4.3613288e-03   2.1247692e+00   1.5132897e+00  -2.2123778e+07
   6.8822941e-10  -4.3392535e-03   2.1232064e+00   1.5147764e+00  -2.2012187e+07
   6.8922974e-10  -4.3172896e-03   2.1216519e+00   1.5162566e+00  -2.1901155e+07
   6.9023008e-10  -4.2954364e-03   2.1201055e+00   1.5177302e+00  -2.1790679e+07
   6.9123041e-10  -4.2736935e-03   2.1185674e+00   1.5191973e+00  -2.1680758e+07
   6.9223074e-10  -4.2520603e-03   2.1170373e+00   1.5206578e+00  -2.1571389e+07
   6.9323108e-10  -4.2305362e-03   2.1155153e+00   1.5221118e+00  -2.1462568e+07
   6.9423141e-10  -4.2091207e-03   2.1140013e+00   1.5235593e+00  -2.1354293e+07
   6.9523174e-10  -4.1878133e-03   2.1124953e+00   1.5250004e+00  -2.1246561e+07
   6.9623208e-10  -4.1666133e-03   2.1109972e+00   1.5264350e+00  -2.1139370e+07
   6.9723241e-10  -4.1455203e-03   2.1095071e+00   1.5278632e+00  -2.1032717e+07
   6.9823274e-10  -4.1245337e-03   2.1080248e+00   1.5292850e+00  -2.0926598e+07
   6.9923308e-10  -4.1036530e-03   2.1065503e+00   1.5307004e+00  -2.0821012e+07
   7.0023341e-10  -4.0828776e-03   2.1050836e+00   1.5321095e+00  -2.0715956e+07
   7.0123374e-10  -4.0622071e-03   2.1036246e+00   1.5335123e+00  -2.0611427e+07
   7.0223408e-10  -4.0416409e-03   2.1021733e+00   1.5349087e+00  -2.0507423e+07
   7.0323441e-10  -4.0211785e-03   2.1007297e+00   1.5362989e+00  -2.0403941e+07
   7.0423474e-10  -4.0008193e-03   2.0992936e+00   1.5376829e+00  -2.0300978e+07
   7.0523508e-10  -3.9805628e-03   2.0978651e+00   1.5390606e+00  -2.0198532e+07
   7.0623541e-10  -3.9604086e-03   2.0964442e+00   1.5404321e+00  -2.0096599e+07
   7.0723575e-10  -3.9403561e-03   2.0950307e+00   1.5417975e+00  -1.9995179e+07
   7.0823608e-10  -3.9204048e-03   2.0936247e+00   1.5431566e+00  -1.9894268e+07
   7.0923641e-10  -3.9005541e-03   2.0922261e+00   1.5445097e+00  -1.9793863e+07
   7.1023675e-10  -3.8808037e-03   2.0908348e+00   1.5458566e+00  -1.9693962e+07
   7.1123708e-10  -3.8611529e-03   2.0894509e+00   1.5471975e+00  -1.9594562e+07
   7.1223741e-10  -3.8416014e-03   2.0880743e+00   1.5485323e+00  -1.9495662e+07
   7.1323775e-10  -3.8221485e-03   2.0867049e+00   1.5498610e+00  -1.9397258e+07
   7.1423808e-10  -3.8027938e-03   2.0853427e+00   1.5511837e+00  -1.9299348e+07
   7.1523841e-10  -3.7835368e-03   2.0839877e+00   1.5525005e+00  -1.9201930e+07
   7.1623875e-10  -3.7643770e-03   2.0826398e+00   1.5538112e+00  -1.9105001e+07
   7.1723908e-10  -3.7453139e-03   2.0812990e+00   1.5551160e+00  -1.9008559e+07
   7.1823941e-10  -3.7263470e-03   2.0799653e+00   1.5564149e+00  -1.8912601e+07
   7.1923975e-10  -3.7074759e-03   2.0786386e+00   1.5577079e+00  -1.8817124e+07
   7.2024008e-10  -3.6887001e-03   2.0773188e+00   1.5589950e+00  -1.8722127e+07
   7.2124041e-10  -3.6700190e-03   2.0760060e+00   1.5602762e+00  -1.8627608e+07
   7.2224075e-10  -3.6514323e-03   2.0747001e+00   1.5615516e+00  -1.8533563e+07
   7.2324108e-10  -3.6329394e-03   2.0734011e+00   1.5628212e+00  -1.8439990e+07
   7.2424141e-10  -3.6145399e-03   2.0721089e+00   1.5640850e+00  -1.8346887e+07
   7.2524175e-10  -3.5962333e-03   2.0708235e+00   1.5653431e+00  -1.8254252e+07
   7.2624208e-10  -3.5780191e-03   2.0695449e+00   1.5665954e+00  -1.8162082e+07
   7.2724241e-10  -3.5598969e-03   2.0682730e+00   1.5678420e+00  -1.8070375e+07
   7.2824275e-10  -3.5418662e-03   2.0670077e+00   1.5690828e+00  -1.7979129e+07
   7.2924308e-10  -3.5239265e-03   2.0657491e+00   1.5703180e+00  -1.7888341e+07
   7.3024341e-10  -3.5060774e-03   2.0644972e+00   1.5715476e+00  -1.7798009e+07
   7.3124375e-10  -3.4883185e-03   2.0632518e+00   1.5727715e+00  -1.7708131e+07
   7.3224408e-10  -3.4706492e-03   2.0620129e+00   1.5739898e+00  -1.7618705e+07
   7.3324441e-10  -3.4530692e-03   2.0607806e+00   1.5752025e+00  -1.7529728e+07
   7.3424475e-10  -3.4355779e-03   2.0595547e+00   1.5764096e+00  -1.7441197e+07
   7.3524508e-10  -3.4181750e-03   2.0583353e+00   1.5776112e+00  -1.7353112e+07
   7.3624542e-10  -3.4008600e-03   2.0571223e+00   1.5788073e+00  -1.7265470e+07
   7.3724575e-10  -3.3836324e-03   2.0559156e+00   1.5799979e+00  -1.7178267e+07
   7.3824608e-10  -3.3664919e-03   2.0547153e+00   1.5811830e+00  -1.7091503e+07
   7.3924642e-10  -3.3494379e-03   2.0535213e+00   1.5823627e+00  -1.7005175e+07
   7.4024675e-10  -3.3324700e-03   2.0523335e+00   1.5835369e+00  -1.6919281e+07
   7.4124708e-10  -3.3155879e-03   2.0511520e+00   1.5847057e+00  -1.6833819e+07
   7.4224742e-10  -3.2987911e-03   2.0499767e+00   1.5858691e+00  -1.6748786e+07
   7.4324775e-10  -3.2820790e-03   2.0488076e+00   1.5870272e+00  -1.6664180e+07
   7.4424808e-10  -3.2654515e-03   2.0476446e+00   1.5881799e+00  -1.6580000e+07
   7.4524842e-10  -3.2489079e-03   2.0464877e+00   1.5893273e+00  -1.6496243e+07
   7.4624875e-10  -3.2324478e-03   2.0453368e+00   1.5904693e+00  -1.6412906e+07
   7.4724908e-10  -3.2160710e-03   2.0441920e+00   1.5916061e+00  -1.6329989e+07
   7.4824942e-10  -3.1997768e-03   2.0430532e+00   1.5927377e+00  -1.6247489e+07
   7.4924975e-10  -3.1835650e-03   2.0419204e+00   1.5938640e+00  -1.6165403e+07
   7.5025008e-10  -3.1674351e-03   2.0407935e+00   1.5949850e+00  -1.6083730e+07
   7.5125042e-10  -3.1513867e-03   2.0396725e+00   1.5961009e+00  -1.6002468e+07
   7.5225075e-10  -3.1354194e-03   2.0385575e+00   1.5972116e+00  -1.5921614e+07
   7.5325108e-10  -3.1195327e-03   2.0374482e+00   1.5983172e+00  -1.5841167e+07
   7.5425142e-10  -3.1037264e-03   2.0363448e+00   1.5994176e+00  -1.5761124e+07
   7.5525175e-10  -3.0879999e-03   2.0352471e+00   1.6005129e+00  -1.5681484e+07
   7.5625208e-10  -3.0723528e-03   2.0341552e+00   1.6016031e+00  -1.5602244e+07
   7.5725242e-10  -3.0567848e-03   2.0330691e+00   1.6026883e+00  -1.5523403e+07
   7.5825275e-10  -3.0412955e-03   2.0319886e+00   1.6037684e+00  -1.5444958e+07
   7.5925308e-10  -3.0258845e-03   2.0309138e+00   1.6048435e+00  -1.5366908e+07
   7.6025342e-10  -3.0105514e-03   2.0298446e+00   1.6059136e+00  -1.5289250e+07
   7.6125375e-10  -2.9952957e-03   2.0287810e+00   1.6069786e+00  -1.5211983e+07
   7.6225408e-10  -2.9801171e-03   2.0277229e+00   1.6080388e+00  -1.5135105e+07
   7.6325442e-10  -2.9650153e-03   2.0266705e+00   1.6090939e+00  -1.5058613e+07
   7.6425475e-10  -2.9499897e-03   2.0256235e+00   1.6101442e+00  -1.4982506e+07
   7.6525509e-10  -2.9350401e-03   2.0245820e+00   1.6111895e+00  -1.4906782e+07
   7.6625542e-10  -2.9201661e-03   2.0235460e+00   1.6122300e+00  -1.4831439e+07
   7.6725575e-10  -2.9053673e-03   2.0225154e+00   1.6132656e+00  -1.4756475e+07
   7.6825609e-10  -2.8906432e-03   2.0214902e+00   1.6142964e+00  -1.4681888e+07
   7.6925642e-10  -2.8759936e-03   2.0204703e+00   1.6153223e+00  -1.4607676e+07
   7.7025675e-10  -2.8614180e-03   2.0194558e+00   1.6163435e+00  -1.4533837e+07
   7.7125709e-10  -2.8469161e-03   2.0184466e+00   1.6173598e+00  -1.4460371e+07
   7.7225742e-10  -2.8324875e-03   2.0174427e+00   1.6183714e+00  -1.4387273e+07
   7.7325775e-10  -2.8181318e-03   2.0164440e+00   1.6193783e+00  -1.4314544e+07
   7.7425809e-10  -2.8038487e-03   2.0154506e+00   1.6203804e+00  -1.4242181e+07
   7.7525842e-10  -2.7896378e-03   2.0144623e+00   1.6213778e+00  -1.4170181e+07
   7.7625875e-10  -2.7754988e-03   2.0134792e+00   1.6223706e+00  -1.4098544e+07
   7.7725909e-10  -2.7614312e-03   2.0125013e+00   1.6233587e+00  -1.4027268e+07
   7.7825942e-10  -2.7474348e-03   2.0115285e+00   1.6243421e+00  -1.3956350e+07
   7.7925975e-10  -2.7335091e-03   2.0105607e+00   1.6253209e+00  -1.3885789e+07
   7.8026009e-10  -2.7196538e-03   2.0095981e+00   1.6262952e+00  -1.3815584e+07
   7.8126042e-10  -2.7058686e-03   2.0086404e+00   1.6272648e+00  -1.3745732e+07
   7.8226075e-10  -2.6921531e-03   2.0076878e+00   1.6282299e+00  -1.3676231e+07
   7.8326109e-10  -2.6785069e-03   2.0067401e+00   1.6291904e+00  -1.3607080e+07
   7.8426142e-10  -2.6649298e-03   2.0057974e+00   1.6301464e+00  -1.3538278e+07
   7.8526175e-10  -2.6514212e-03   2.0048596e+00   1.6310979e+00  -1.3469821e+07
   7.8626209e-10  -2.6379810e-03   2.0039267e+00   1.6320449e+00  -1.3401710e+07
   7.8726242e-10  -2.6246088e-03   2.0029987e+00   1.6329875e+00  -1.3333941e+07
   7.8826275e-10  -2.6113041e-03   2.0020755e+00   1.6339256e+00  -1.3266513e+07
   7.8926309e-10  -2.5980668e-03   2.0011572e+00   1.6348593e+00  -1.3199425e+07
   7.9026342e-10  -2.5848964e-03   2.0002437e+00   1.6357885e+00  -1.3132675e+07
   7.9126375e-10  -2.5717926e-03   1.9993349e+00   1.6367134e+00  -1.3066261e+07
   7.9226409e-10  -2.5587550e-03   1.9984308e+00   1.6376339e+00  -1.3000181e+07
   7.9326442e-10  -2.5457834e-03   1.9975315e+00   1.6385500e+00  -1.2934434e+07
   7.9426475e-10  -2.5328774e-03   1.9966369e+00   1.6394619e+00  -1.2869018e+07
   7.9526509e-10  -2.5200367e-03   1.9957470e+00   1.6403694e+00  -1.2803931e+07
   7.9626542e-10  -2.5072609e-03   1.9948617e+00   1.6412726e+00  -1.2739173e+07
   7.9726576e-10  -2.4945498e-03   1.9939810e+00   1.6421715e+00  -1.2674740e+07
   7.9826609e-10  -2.4819029e-03   1.9931049e+00   1.6430662e+00  -1.2610632e+07
   7.9926642e-10  -2.4693200e-03   1.9922334e+00   1.6439566e+00  -1.2546847e+07
   8.0026676e-10  -2.4568007e-03   1.9913664e+00   1.6448428e+00  -1.2483383e+07
   8.0126709e-10  -2.4443448e-03   1.9905040e+00   1.6457248e+00  -1.2420239e+07
   8.0226742e-10  -2.4319519e-03   1.9896461e+00   1.6466026e+00  -1.2357413e+07
   8.0326776e-10  -2.4196216e-03   1.9887926e+00   1.6474762e+00  -1.2294903e+07
   8.0426809e-10  -2.4073538e-03   1.9879436e+00   1.6483457e+00  -1.2232708e+07
   8.0526842e-10  -2.3951479e-03   1.9870990e+00   1.6492111e+00  -1.2170827e+07
   8.0626876e-10  -2.3830039e-03   1.9862588e+00   1.6500723e+00  -1.2109257e+07
   8.0726909e-10  -2.3709213e-03   1.9854230e+00   1.6509295e+00  -1.2047997e+07
   8.0826942e-10  -2.3588997e-03   1.9845915e+00   1.6517826e+00  -1.1987047e+07
   8.0926976e-10  -2.3469391e-03   1.9837644e+00   1.6526316e+00  -1.1926403e+07
   8.1027009e-10  -2.3350389e-03   1.9829416e+00   1.6534765e+00  -1.1866065e+07
   8.1127042e-10  -2.3231989e-03   1.9821231e+00   1.6543175e+00  -1.1806030e+07
   8.1227076e-10  -2.3114189e-03   1.9813089e+00   1.6551544e+00  -1.1746299e+07
   8.1327109e-10  -2.2996984e-03   1.9804988e+00   1.6559874e+00  -1.1686868e+07
   8.1427142e-10  -2.2880372e-03   1.9796931e+00   1.6568164e+00  -1.1627737e+07
   8.1527176e-10  -2.2764351e-03   1.9788915e+00   1.6576414e+00  -1.1568904e+07
   8.1627209e-10  -2.2648916e-03   1.9780941e+00   1.6584625e+00  -1.1510367e+07
   8.1727242e-10  -2.2534066e-03   1.9773008e+00   1.6592797e+00  -1.1452126e+07
   8.1827276e-10  -2.2419796e-03   1.9765117e+00   1.6600929e+00  -1.1394177e+07
   8.1927309e-10  -2.2306105e-03   1.9757267e+00   1.6609023e+00  -1.1336521e+07
   8.2027342e-10  -2.2192989e-03   1.9749457e+00   1.6617078e+00  -1.1279156e+07
   8.2127376e-10  -2.2080446e-03   1.9741689e+00   1.6625095e+00  -1.1222080e+07
   8.2227409e-10  -2.1968472e-03   1.9733960e+00   1.6633073e+00  -1.1165291e+07
   8.2327442e-10  -2.1857065e-03   1.9726272e+00   1.6641014e+00  -1.1108789e+07
   8.2427476e-10  -2.1746221e-03   1.9718624e+00   1.6648916e+00  -1.1052571e+07
   8.2527509e-10  -2.1635938e-03   1.9711016e+00   1.6656780e+00  -1.0996637e+07
   8.2627543e-10  -2.1526214e-03   1.9703448e+00   1.6664607e+00  -1.0940985e+07
   8.2727576e-10  -2.1417045e-03   1.9695919e+00   1.6672396e+00  -1.0885614e+07
   8.2827609e-10  -2.1308428e-03   1.9688429e+00   1.6680148e+00  -1.0830521e+07
   8.2927643e-10  -2.1200361e-03   1.9680978e+00   1.6687863e+00  -1.0775707e+07
   8.3027676e-10  -2.1092841e-03   1.9673565e+00   1.6695541e+00  -1.0721169e+07
   8.3127709e-10  -2.0985866e-03   1.9666192e+00   1.6703182e+00  -1.0666905e+07
   8.3227743e-10  -2.0879431e-03   1.9658856e+00   1.6710786e+00  -1.0612916e+07
   8.3327776e-10  -2.0773536e-03   1.9651559e+00   1.6718354e+00  -1.0559198e+07
   8.3427809e-10  -2.0668176e-03   1.9644300e+00   1.6725885e+00  -1.0505752e+07
   8.3527843e-10  -2.0563350e-03   1.9637078e+00   1.6733381e+00  -1.0452575e+07
   8.3627876e-10  -2.0459054e-03   1.9629894e+00   1.6740840e+00  -1.0399666e+07
   8.3727909e-10  -2.0355286e-03   1.9622748e+00   1.6748264e+00  -1.0347024e+07
   8.3827943e-10  -2.0252043e-03   1.9615638e+00   1.6755651e+00  -1.0294648e+07
   8.3927976e-10  -2.0149323e-03   1.9608566e+00   1.6763004e+00  -1.0242536e+07
   8.4028009e-10  -2.0047124e-03   1.9601530e+00   1.6770321e+00  -1.0190686e+07
   8.4128043e-10  -1.9945441e-03   1.9594531e+00   1.6777602e+00  -1.0139098e+07
   8.4228076e-10  -1.9844273e-03   1.9587568e+00   1.6784849e+00  -1.0087771e+07
   8.4328109e-10  -1.9743617e-03   1.9580641e+00   1.6792061e+00  -1.0036702e+07
   8.4428143e-10  -1.9643471e-03   1.9573751e+00   1.6799238e+00  -9.9858908e+06
   8.4528176e-10  -1.9543832e-03   1.9566896e+00   1.6806380e+00  -9.9353359e+06
   8.4628209e-10  -1.9444697e-03   1.9560077e+00   1.6813488e+00  -9.8850361e+06
   8.4728243e-10  -1.9346065e-03   1.9553293e+00   1.6820562e+00  -9.8349900e+06
   8.4828276e-10  -1.9247931e-03   1.9546544e+00   1.6827602e+00  -9.7851965e+06
   8.4928309e-10  -1.9150295e-03   1.9539831e+00   1.6834607e+00  -9.7356541e+06
   8.5028343e-10  -1.9053152e-03   1.9533152e+00   1.6841579e+00  -9.6863617e+06
   8.5128376e-10  -1.8956502e-03   1.9526508e+00   1.6848518e+00  -9.6373180e+06
   8.5228409e-10  -1.8860341e-03   1.9519899e+00   1.6855423e+00  -9.5885218e+06
   8.5328443e-10  -1.8764667e-03   1.9513324e+00   1.6862294e+00  -9.5399717e+06
   8.5428476e-10  -1.8669477e-03   1.9506783e+00   1.6869132e+00  -9.4916667e+06
   8.5528510e-10  -1.8574769e-03   1.9500275e+00   1.6875938e+00  -9.4436054e+06
   8.5628543e-10  -1.8480541e-03   1.9493802e+00   1.6882710e+00  -9.3957866e+06
   8.5728576e-10  -1.8386790e-03   1.9487362e+00   1.6889450e+00  -9.3482092e+06
   8.5828610e-10  -1.8293514e-03   1.9480956e+00   1.6896157e+00  -9.3008718e+06
   8.5928643e-10  -1.8200710e-03   1.9474583e+00   1.6902831e+00  -9.2537734e+06
   8.6028676e-10  -1.8108376e-03   1.9468243e+00   1.6909473e+00  -9.2069127e+06
   8.6128710e-10  -1.8016509e-03   1.9461936e+00   1.6916084e+00  -9.1602884e+06
   8.6228743e-10  -1.7925108e-03   1.9455662e+00   1.6922662e+00  -9.1138995e+06
   8.6328776e-10  -1.7834170e-03   1.9449420e+00   1.6929208e+00  -9.0677447e+06
   8.6428810e-10  -1.7743692e-03   1.9443210e+00   1.6935723e+00  -9.0218229e+06
   8.6528843e-10  -1.7653672e-03   1.9437033e+00   1.6942206e+00  -8.9761329e+06
   8.6628876e-10  -1.7564109e-03   1.9430888e+00   1.6948657e+00  -8.9306735e+06
   8.6728910e-10  -1.7474999e-03   1.9424774e+00   1.6955078e+00  -8.8854436e+06
   8.6828943e-10  -1.7386340e-03   1.9418693e+00   1.6961467e+00  -8.8404421e+06
   8.6928976e-10  -1.7298130e-03   1.9412643e+00   1.6967825e+00  -8.7956677e+06
   8.7029010e-10  -1.7210367e-03   1.9406624e+00   1.6974153e+00  -8.7511193e+06
   8.7129043e-10  -1.7123049e-03   1.9400636e+00   1.6980449e+00  -8.7067958e+06
   8.7229076e-10  -1.7036172e-03   1.9394680e+00   1.6986715e+00  -8.6626962e+06
   8.7329110e-10  -1.6949736e-03   1.9388754e+00   1.6992951e+00  -8.6188191e+06
   8.7429143e-10  -1.6863738e-03   1.9382859e+00   1.6999157e+00  -8.5751636e+06
   8.7529176e-10  -1.6778175e-03   1.9376995e+00   1.7005332e+00  -8.5317286e+06
   8.7629210e-10  -1.6693045e-03   1.9371160e+00   1.7011477e+00  -8.4885128e+06
   8.7729243e-10  -1.6608347e-03   1.9365357e+00   1.7017593e+00  -8.4455153e+06
   8.7829276e-10  -1.6524078e-03   1.9359583e+00   1.7023678e+00  -8.4027349e+06
   8.7929310e-10  -1.6440236e-03   1.9353839e+00   1.7029734e+00  -8.3601705e+06
   8.8029343e-10  -1.6356818e-03   1.9348125e+00   1.7035761e+00  -8.3178210e+06
   8.8129376e-10  -1.6273823e-03   1.9342440e+00   1.7041758e+00  -8.2756854e+06
   8.8229410e-10  -1.6191249e-03   1.9336785e+00   1.7047727e+00  -8.2337626e+06
   8.8329443e-10  -1.6109092e-03   1.9331160e+00   1.7053666e+00  -8.1920516e+06
   8.8429476e-10  -1.6027352e-03   1.9325563e+00   1.7059576e+00  -8.1505512e+06
   8.8529510e-10  -1.5946026e-03   1.9319995e+00   1.7065457e+00  -8.1092603e+06
   8.8629543e-10  -1.5865112e-03   1.9314457e+00   1.7071310e+00  -8.0681781e+06
   8.8729577e-10  -1.5784608e-03   1.9308946e+00   1.7077135e+00  -8.0273033e+06
   8.8829610e-10  -1.5704512e-03   1.9303465e+00   1.7082930e+00  -7.9866350e+06
   8.8929643e-10  -1.5624821e-03   1.9298011e+00   1.7088698e+00  -7.9461721e+06
   8.9029677e-10  -1.5545535e-03   1.9292586e+00   1.7094438e+00  -7.9059136e+06
   8.9129710e-10  -1.5466650e-03   1.9287189e+00   1.7100149e+00  -7.8658585e+06
   8.9229743e-10  -1.5388164e-03   1.9281820e+00   1.7105833e+00  -7.8260057e+06
   8.9329777e-10  -1.5310077e-03   1.9276479e+00   1.7111489e+00  -7.7863542e+06
   8.9429810e-10  -1.5232385e-03   1.9271166e+00   1.7117117e+00  -7.7469031e+06
   8.9529843e-10  -1.5155086e-03   1.9265879e+00   1.7122718e+00  -7.7076512e+06
   8.9629877e-10  -1.5078180e-03   1.9260621e+00   1.7128292e+00  -7.6685977e+06
   8.9729910e-10  -1.5001663e-03   1.9255389e+00   1.7133838e+00  -7.6297414e+06
   8.9829943e-10  -1.4925533e-03   1.9250184e+00   1.7139357e+00  -7.5910815e+06
   8.9929977e-10  -1.4849790e-03   1.9245007e+00   1.7144850e+00  -7.5526169e+06
   9.0030010e-10  -1.4774430e-03   1.9239856e+00   1.7150315e+00  -7.5143467e+06
   9.0130043e-10  -1.4699452e-03   1.9234732e+00   1.7155754e+00  -7.4762698e+06
   9.0230077e-10  -1.4624854e-03   1.9229634e+00   1.7161166e+00  -7.4383853e+06
   9.0330110e-10  -1.4550634e-03   1.9224563e+00   1.7166552e+00  -7.4006922e+06
   9.0430143e-10  -1.4476790e-03   1.9219518e+00   1.7171911e+00  -7.3631897e+06
   9.0530177e-10  -1.4403321e-03   1.9214499e+00   1.7177244e+00  -7.3258766e+06
   9.0630210e-10  -1.4330223e-03   1.9209506e+00   1.7182552e+00  -7.2887521e+06
   9.0730243e-10  -1.4257496e-03   1.9204538e+00   1.7187833e+00  -7.2518152e+06
   9.0830277e-10  -1.4185138e-03   1.9199597e+00   1.7193088e+00  -7.2150650e+06
   9.0930310e-10  -1.4113146e-03   1.9194681e+00   1.7198318e+00  -7.1785005e+06
   9.1030343e-10  -1.4041519e-03   1.9189790e+00   1.7203522e+00  -7.1421208e+06
   9.1130377e-10  -1.3970256e-03   1.9184924e+00   1.7208700e+00  -7.1059249e+06
   9.1230410e-10  -1.3899353e-03   1.9180084e+00   1.7213853e+00  -7.0699120e+06
   9.1330443e-10  -1.3828810e-03   1.9175269e+00   1.7218981e+00  -7.0340811e+06
   9.1430477e-10  -1.3758624e-03   1.9170479e+00   1.7224084e+00  -6.9984314e+06
   9.1530510e-10  -1.3688794e-03   1.9165713e+00   1.7229161e+00  -6.9629618e+06
   9.1630544e-10  -1.3619317e-03   1.9160972e+00   1.7234214e+00  -6.9276715e+06
   9.1730577e-10  -1.3550193e-03   1.9156255e+00   1.7239242e+00  -6.8925596e+06
   9.1830610e-10  -1.3481420e-03   1.9151563e+00   1.7244246e+00  -6.8576252e+06
   9.1930644e-10  -1.3412995e-03   1.9146895e+00   1.7249225e+00  -6.8228674e+06
   9.2030677e-10  -1.3344916e-03   1.9142251e+00   1.7254179e+00  -6.7882852e+06
   9.2130710e-10  -1.3277183e-03   1.9137632e+00   1.7259109e+00  -6.7538780e+06
   9.2230744e-10  -1.3209793e-03   1.9133036e+00   1.7264015e+00  -6.7196446e+06
   9.2330777e-10  -1.3142745e-03   1.9128463e+00   1.7268897e+00  -6.6855844e+06
   9.2430810e-10  -1.3076036e-03   1.9123915e+00   1.7273755e+00  -6.6516963e+06
   9.2530844e-10  -1.3009666e-03   1.9119390e+00   1.7278589e+00  -6.6179795e+06
   9.2630877e-10  -1.2943632e-03   1.9114888e+00   1.7283399e+00  -6.5844333e+06
   9.2730910e-10  -1.2877933e-03   1.9110409e+00   1.7288186e+00  -6.5510566e+06
   9.2830944e-10  -1.2812566e-03   1.9105954e+00   1.7292949e+00  -6.5178487e+06
   9.2930977e-10  -1.2747532e-03   1.9101521e+00   1.7297689e+00  -6.4848087e+06
   9.3031010e-10  -1.2682826e-03   1.9097112e+00   1.7302405e+00  -6.4519358e+06
   9.3131044e-10  -1.2618449e-03   1.9092725e+00   1.7307099e+00  -6.4192291e+06
   9.3231077e-10  -1.2554399e-03   1.9088360e+00   1.7311769e+00  -6.3866878e+06
   9.3331110e-10  -1.2490672e-03   1.9084019e+00   1.7316416e+00  -6.3543110e+06
   9.3431144e-10  -1.2427269e-03   1.9079699e+00   1.7321040e+00  -6.3220980e+06
   9.3531177e-10  -1.2364188e-03   1.9075402e+00   1.7325642e+00  -6.2900479e+06
   9.3631210e-10  -1.2301426e-03   1.9071128e+00   1.7330221e+00  -6.2581598e+06
   9.3731244e-10  -1.2238982e-03   1.9066875e+00   1.7334777e+00  -6.2264331e+06
   9.3831277e-10  -1.2176855e-03   1.9062644e+00   1.7339311e+00  -6.1948667e+06
   9.3931310e-10  -1.2115043e-03   1.9058435e+00   1.7343823e+00  -6.1634601e+06
   9.4031344e-10  -1.2053544e-03   1.9054248e+00   1.7348313e+00  -6.1322122e+06
   9.4131377e-10  -1.1992357e-03   1.9050082e+00   1.7352780e+00  -6.1011224e+06
   9.4231410e-10  -1.1931481e-03   1.9045938e+00   1.7357225e+00  -6.0701899e+06
   9.4331444e-10  -1.1870913e-03   1.9041815e+00   1.7361649e+00  -6.0394138e+06
   9.4431477e-10  -1.1810652e-03   1.9037713e+00   1.7366050e+00  -6.0087934e+06
   9.4531511e-10  -1.1750696e-03   1.9033632e+00   1.7370430e+00  -5.9783278e+06
   9.4631544e-10  -1.1691045e-03   1.9029573e+00   1.7374789e+00  -5.9480164e+06
   9.4731577e-10  -1.1631696e-03   1.9025534e+00   1.7379126e+00  -5.9178583e+06
   9.4831611e-10  -1.1572647e-03   1.9021517e+00   1.7383441e+00  -5.8878527e+06
   9.4931644e-10  -1.1513899e-03   1.9017520e+00   1.7387735e+00  -5.8579990e+06
   9.5031677e-10  -1.1455448e-03   1.9013543e+00   1.7392009e+00  -5.8282962e+06
   9.5131711e-10  -1.1397293e-03   1.9009587e+00   1.7396261e+00  -5.7987437e+06
   9.5231744e-10  -1.1339434e-03   1.9005652e+00   1.7400492e+00  -5.7693408e+06
   9.5331777e-10  -1.1281868e-03   1.9001737e+00   1.7404702e+00  -5.7400865e+06
   9.5431811e-10  -1.1224593e-03   1.8997842e+00   1.7408891e+00  -5.7109803e+06
   9.5531844e-10  -1.1167609e-03   1.8993966e+00   1.7413060e+00  -5.6820214e+06
   9.5631877e-10  -1.1110915e-03   1.8990111e+00   1.7417208e+00  -5.6532089e+06
   9.5731911e-10  -1.1054507e-03   1.8986276e+00   1.7421335e+00  -5.6245422e+06
   9.5831944e-10  -1.0998386e-03   1.8982461e+00   1.7425443e+00  -5.5960206e+06
   9.5931977e-10  -1.0942549e-03   1.8978665e+00   1.7429530e+00  -5.5676433e+06
   9.6032011e-10  -1.0886995e-03   1.8974889e+00   1.7433596e+00  -5.5394095e+06
   9.6132044e-10  -1.0831723e-03   1.8971132e+00   1.7437643e+00  -5.5113187e+06
   9.6232077e-10  -1.0776732e-03   1.8967395e+00   1.7441670e+00  -5.4833699e+06
   9.6332111e-10  -1.0722019e-03   1.8963676e+00   1.7445677e+00  -5.4555626e+06
   9.6432144e-10  -1.0667583e-03   1.8959977e+00   1.7449664e+00  -5.4278960e+06
   9.6532177e-10  -1.0613424e-03   1.8956297e+00   1.7453631e+00  -5.4003694e+06
   9.6632211e-10  -1.0559540e-03   1.8952636e+00   1.7457578e+00  -5.3729821e+06
   9.6732244e-10  -1.0505928e-03   1.8948994e+00   1.7461507e+00  -5.3457334e+06
   9.6832277e-10  -1.0452589e-03   1.8945371e+00   1.7465415e+00  -5.3186226e+06
   9.6932311e-10  -1.0399520e-03   1.8941766e+00   1.7469305e+00  -5.2916490e+06
   9.7032344e-10  -1.0346720e-03   1.8938180e+00   1.7473175e+00  -5.2648119e+06
   9.7132377e-10  -1.0294188e-03   1.8934612e+00   1.7477026e+00  -5.2381107e+06
   9.7232411e-10  -1.0241922e-03   1.8931062e+00   1.7480858e+00  -5.2115445e+06
   9.7332444e-10  -1.0189922e-03   1.8927531e+00   1.7484671e+00  -5.1851129e+06
   9.7432477e-10  -1.0138185e-03   1.8924018e+00   1.7488465e+00  -5.1588150e+06
   9.7532511e-10  -1.0086711e-03   1.8920523e+00   1.7492240e+00  -5.1326502e+06
   9.7632544e-10  -1.0035497e-03   1.8917046e+00   1.7495997e+00  -5.1066178e+06
   9.7732578e-10  -9.9845439e-04   1.8913587e+00   1.7499735e+00  -5.0807172e+06
   9.7832611e-10  -9.9338488e-04   1.8910146e+00   1.7503454e+00  -5.0549477e+06
   9.7932644e-10  -9.8834108e-04   1.8906722e+00   1.7507155e+00  -5.0293087e+06
   9.8032678e-10  -9.8332287e-04   1.8903317e+00   1.7510838e+00  -5.0037994e+06
   9.8132711e-10  -9.7833010e-04   1.8899928e+00   1.7514502e+00  -4.9784192e+06
   9.8232744e-10  -9.7336266e-04   1.8896557e+00   1.7518149e+00  -4.9531676e+06
   9.8332778e-10  -9.6842042e-04   1.8893204e+00   1.7521777e+00  -4.9280437e+06
   9.8432811e-10  -9.6350325e-04   1.8889867e+00   1.7525387e+00  -4.9030470e+06
   9.8532844e-10  -9.5861101e-04   1.8886548e+00   1.7528980e+00  -4.8781769e+06
   9.8632878e-10  -9.5374360e-04   1.8883246e+00   1.7532554e+00  -4.8534327e+06
   9.8732911e-10  -9.4890087e-04   1.8879961e+00   1.7536111e+00  -4.8288138e+06
   9.8832944e-10  -9.4408271e-04   1.8876692e+00   1.7539650e+00  -4.8043195e+06
   9.8932978e-10  -9.3928898e-04   1.8873441e+00   1.7543172e+00  -4.7799492e+06
   9.9033011e-10  -9.3451958e-04   1.8870206e+00   1.7546676e+00  -4.7557022e+06
   9.9133044e-10  -9.2977437e-04   1.8866988e+00   1.7550163e+00  -4.7315781e+06
   9.9233078e-10  -9.2505322e-04   1.8863786e+00   1.7553632e+00  -4.7075761e+06
   9.9333111e-10  -9.2035603e-04   1.8860601e+00   1.7557084e+00  -4.6836956e+06
   9.9433144e-10  -9.1568267e-04   1.8857433e+00   1.7560520e+00  -4.6599360e+06
   9.9533178e-10  -9.1103301e-04   1.8854280e+00   1.7563938e+00  -4.6362967e+06
   9.9633211e-10  -9.0640694e-04   1.8851144e+00   1.7567339e+00  -4.6127771e+06
   9.9733244e-10  -9.0180434e-04   1.8848024e+00   1.7570723e+00  -4.5893766e+06
   9.9833278e-10  -8.9722509e-04   1.8844920e+00   1.7574090e+00  -4.5660946e+06
   9.9933311e-10  -8.9266907e-04   1.8841831e+00   1.7577441e+00  -4.5429305e+06
   1.0003334e-09  -8.8813616e-04   1.8838759e+00   1.7580775e+00  -4.5198837e+06
   1.0013338e-09  -8.8362625e-04   1.8835703e+00   1.7584093e+00  -4.4969536e+06
   1.0023341e-09  -8.7913921e-04   1.8832662e+00   1.7587394e+00  -4.4741396e+06
   1.0033344e-09  -8.7467494e-04   1.8829637e+00   1.7590678e+00  -4.4514412e+06
   1.0043348e-09  -8.7023332e-04   1.8826627e+00   1.7593946e+00  -4.4288577e+06
   1.0053351e-09  -8.6581424e-04   1.8823633e+00   1.7597198e+00  -4.4063885e+06
   1.0063354e-09  -8.6141757e-04   1.8820654e+00   1.7600434e+00  -4.3840332e+06
   1.0073358e-09  -8.5704321e-04   1.8817691e+00   1.7603654e+00  -4.3617910e+06
   1.0083361e-09  -8.5269104e-04   1.8814743e+00   1.7606858e+00  -4.3396615e+06
   1.0093364e-09  -8.4836095e-04   1.8811809e+00   1.7610046e+00  -4.3176441e+06
   1.0103368e-09  -8.4405283e-04   1.8808891e+00   1.7613218e+00  -4.2957382e+06
   1.0113371e-09  -8.3976657e-04   1.8805988e+00   1.7616374e+00  -4.2739432e+06
   1.0123374e-09  -8.3550206e-04   1.8803100e+00   1.7619514e+00  -4.2522587e+06
   1.0133378e-09  -8.3125918e-04   1.8800227e+00   1.7622639e+00  -4.2306839e+06
   1.0143381e-09  -8.2703783e-04   1.8797368e+00   1.7625749e+00  -4.2092185e+06
   1.0153384e-09  -8.2283790e-04   1.8794524e+00   1.7628843e+00  -4.1878617e+06
   1.0163388e-09  -8.1865928e-04   1.8791695e+00   1.7631921e+00  -4.1666131e+06
   1.0173391e-09  -8.1450186e-04   1.8788880e+00   1.7634984e+00  -4.1454722e+06
   1.0183394e-09  -8.1036553e-04   1.8786080e+00   1.7638032e+00  -4.1244384e+06
   1.0193398e-09  -8.0625020e-04   1.8783294e+00   1.7641065e+00  -4.1035110e+06
   1.0203401e-09  -8.0215574e-04   1.8780523e+00   1.7644082e+00  -4.0826897e+06
   1.0213404e-09  -7.9808206e-04   1.8777765e+00   1.7647085e+00  -4.0619739e+06
   1.0223408e-09  -7.9402905e-04   1.8775022e+00   1.7650073e+00  -4.0413630e+06
   1.0233411e-09  -7.8999660e-04   1.8772293e+00   1.7653046e+00  -4.0208565e+06
   1.0243414e-09  -7.8598462e-04   1.8769578e+00   1.7656004e+00  -4.0004539e+06
   1.0253418e-09  -7.8199299e-04   1.8766877e+00   1.7658947e+00  -3.9801547e+06
   1.0263421e-09  -7.7802162e-04   1.8764189e+00   1.7661875e+00  -3.9599583e+06
   1.0273424e-09  -7.7407040e-04   1.8761516e+00   1.7664789e+00  -3.9398642e+06
   1.0283428e-09  -7.7013923e-04   1.8758856e+00   1.7667689e+00  -3.9198719e+06
   1.0293431e-09  -7.6622801e-04   1.8756210e+00   1.7670574e+00  -3.8999809e+06
   1.0303434e-09  -7.6233663e-04   1.8753577e+00   1.7673444e+00  -3.8801907e+06
   1.0313438e-09  -7.5846500e-04   1.8750958e+00   1.7676301e+00  -3.8605007e+06
   1.0323441e-09  -7.5461302e-04   1.8748352e+00   1.7679143e+00  -3.8409105e+06
   1.0333444e-09  -7.5078059e-04   1.8745760e+00   1.7681971e+00  -3.8214196e+06
   1.0343448e-09  -7.4696760e-04   1.8743181e+00   1.7684785e+00  -3.8020274e+06
   1.0353451e-09  -7.4317396e-04   1.8740615e+00   1.7687584e+00  -3.7827334e+06
   1.0363454e-09  -7.3939958e-04   1.8738063e+00   1.7690370e+00  -3.7635372e+06
   1.0373458e-09  -7.3564435e-04   1.8735523e+00   1.7693142e+00  -3.7444383e+06
   1.0383461e-09  -7.3190817e-04   1.8732997e+00   1.7695900e+00  -3.7254361e+06
   1.0393464e-09  -7.2819096e-04   1.8730483e+00   1.7698645e+00  -3.7065303e+06
   1.0403468e-09  -7.2449261e-04   1.8727983e+00   1.7701375e+00  -3.6877202e+06
   1.0413471e-09  -7.2081302e-04   1.8725495e+00   1.7704092e+00  -3.6690054e+06
   1.0423474e-09  -7.1715212e-04   1.8723020e+00   1.7706796e+00  -3.6503855e+06
   1.0433478e-09  -7.1350979e-04   1.8720558e+00   1.7709486e+00  -3.6318599e+06
   1.0443481e-09  -7.0988594e-04   1.8718108e+00   1.7712162e+00  -3.6134282e+06
   1.0453484e-09  -7.0628049e-04   1.8715671e+00   1.7714825e+00  -3.5950899e+06
   1.0463488e-09  -7.0269333e-04   1.8713246e+00   1.7717475e+00  -3.5768446e+06
   1.0473491e-09  -6.9912438e-04   1.8710834e+00   1.7720112e+00  -3.5586917e+06
   1.0483494e-09  -6.9557354e-04   1.8708434e+00   1.7722736e+00  -3.5406308e+06
   1.0493498e-09  -6.9204073e-04   1.8706047e+00   1.7725346e+00  -3.5226614e+06
   1.0503501e-09  -6.8852584e-04   1.8703671e+00   1.7727943e+00  -3.5047831e+06
   1.0513505e-09  -6.8502879e-04   1.8701308e+00   1.7730528e+00  -3.4869953e+06
   1.0523508e-09  -6.8154950e-04   1.8698957e+00   1.7733099e+00  -3.4692978e+06
   1.0533511e-09  -6.7808785e-04   1.8696618e+00   1.7735658e+00  -3.4516899e+06
   1.0543515e-09  -6.7464378e-04   1.8694291e+00   1.7738204e+00  -3.4341713e+06
   1.0553518e-09  -6.7121719e-04   1.8691976e+00   1.7740737e+00  -3.4167414e+06
   1.0563521e-09  -6.6780799e-04   1.8689673e+00   1.7743257e+00  -3.3993999e+06
   1.0573525e-09  -6.6441610e-04   1.8687382e+00   1.7745765e+00  -3.3821463e+06
   1.0583528e-09  -6.6104141e-04   1.8685102e+00   1.7748261e+00  -3.3649801e+06
   1.0593531e-09  -6.5768386e-04   1.8682834e+00   1.7750743e+00  -3.3479009e+06
   1.0603535e-09  -6.5434335e-04   1.8680578e+00   1.7753214e+00  -3.3309083e+06
   1.0613538e-09  -6.5101979e-04   1.8678333e+00   1.7755672e+00  -3.3140019e+06
   1.0623541e-09  -6.4771311e-04   1.8676100e+00   1.7758118e+00  -3.2971811e+06
   1.0633545e-09  -6.4442320e-04   1.8673878e+00   1.7760551e+00  -3.2804456e+06
   1.0643548e-09  -6.4115000e-04   1.8671668e+00   1.7762973e+00  -3.2637949e+06
   1.0653551e-09  -6.3789341e-04   1.8669469e+00   1.7765382e+00  -3.2472286e+06
   1.0663555e-09  -6.3465335e-04   1.8667281e+00   1.7767780e+00  -3.2307463e+06
   1.0673558e-09  -6.3142973e-04   1.8665104e+00   1.7770165e+00  -3.2143475e+06
   1.0683561e-09  -6.2822248e-04   1.8662939e+00   1.7772538e+00  -3.1980319e+06
   1.0693565e-09  -6.2503151e-04   1.8660785e+00   1.7774900e+00  -3.1817989e+06
   1.0703568e-09  -6.2185673e-04   1.8658641e+00   1.7777249e+00  -3.1656483e+06
   1.0713571e-09  -6.1869807e-04   1.8656509e+00   1.7779587e+00  -3.1495795e+06
   1.0723575e-09  -6.1555545e-04   1.8654387e+00   1.7781914e+00  -3.1335922e+06
   1.0733578e-09  -6.1242877e-04   1.8652277e+00   1.7784228e+00  -3.1176859e+06
   1.0743581e-09  -6.0931797e-04   1.8650177e+00   1.7786531e+00  -3.1018603e+06
   1.0753585e-09  -6.0622296e-04   1.8648088e+00   1.7788823e+00  -3.0861149e+06
   1.0763588e-09  -6.0314365e-04   1.8646010e+00   1.7791103e+00  -3.0704493e+06
   1.0773591e-09  -6.0007998e-04   1.8643942e+00   1.7793371e+00  -3.0548631e+06
   1.0783595e-09  -5.9703186e-04   1.8641885e+00   1.7795628e+00  -3.0393560e+06
   1.0793598e-09  -5.9399922e-04   1.8639839e+00   1.7797874e+00  -3.0239275e+06
   1.0803601e-09  -5.9098196e-04   1.8637803e+00   1.7800109e+00  -3.0085772e+06
   1.0813605e-09  -5.8798003e-04   1.8635777e+00   1.7802333e+00  -2.9933047e+06
   1.0823608e-09  -5.8499333e-04   1.8633762e+00   1.7804545e+00  -2.9781096e+06
   1.0833611e-09  -5.8202180e-04   1.8631757e+00   1.7806746e+00  -2.9629916e+06
   1.0843615e-09  -5.7906535e-04   1.8629762e+00   1.7808936e+00  -2.9479502e+06
   1.0853618e-09  -5.7612391e-04   1.8627778e+00   1.7811116e+00  -2.9329851e+06
   1.0863621e-09  -5.7319740e-04   1.8625804e+00   1.7813284e+00  -2.9180959e+06
   1.0873625e-09  -5.7028574e-04   1.8623839e+00   1.7815442e+00  -2.9032822e+06
   1.0883628e-09  -5.6738887e-04   1.8621885e+00   1.7817588e+00  -2.8885436e+06
   1.0893631e-09  -5.6450670e-04   1.8619941e+00   1.7819724e+00  -2.8738797e+06
   1.0903635e-09  -5.6163917e-04   1.8618007e+00   1.7821850e+00  -2.8592901e+06
   1.0913638e-09  -5.5878619e-04   1.8616083e+00   1.7823964e+00  -2.8447746e+06
   1.0923641e-09  -5.5594770e-04   1.8614168e+00   1.7826068e+00  -2.8303326e+06
   1.0933645e-09  -5.5312361e-04   1.8612264e+00   1.7828162e+00  -2.8159639e+06
   1.0943648e-09  -5.5031387e-04   1.8610369e+00   1.7830245e+00  -2.8016680e+06
   1.0953651e-09  -5.4751839e-04   1.8608484e+00   1.7832317e+00  -2.7874446e+06
   1.0963655e-09  -5.4473709e-04   1.8606608e+00   1.7834379e+00  -2.7732934e+06
   1.0973658e-09  -5.4196992e-04   1.8604742e+00   1.7836431e+00  -2.7592139e+06
   1.0983661e-09  -5.3921680e-04   1.8602886e+00   1.7838473e+00  -2.7452058e+06
   1.0993665e-09  -5.3647766e-04   1.8601039e+00   1.7840504e+00  -2.7312687e+06
   1.1003668e-09  -5.3375242e-04   1.8599202e+00   1.7842525e+00  -2.7174023e+06
   1.1013671e-09  -5.3104102e-04   1.8597374e+00   1.7844536e+00  -2.7036062e+06
   1.1023675e-09  -5.2834338e-04   1.8595555e+00   1.7846537e+00  -2.6898801e+06
   1.1033678e-09  -5.2565944e-04   1.8593746e+00   1.7848528e+00  -2.6762236e+06
   1.1043681e-09  -5.2298913e-04   1.8591946e+00   1.7850508e+00  -2.6626364e+06
   1.1053685e-09  -5.2033237e-04   1.8590155e+00   1.7852479e+00  -2.6491180e+06
   1.1063688e-09  -5.1768910e-04   1.8588373e+00   1.7854440e+00  -2.6356683e+06
   1.1073691e-09  -5.1505925e-04   1.8586600e+00   1.7856392e+00  -2.6222867e+06
   1.1083695e-09  -5.1244275e-04   1.8584837e+00   1.7858333e+00  -2.6089730e+06
   1.1093698e-09  -5.0983954e-04   1.8583082e+00   1.7860265e+00  -2.5957268e+06
   1.1103701e-09  -5.0724955e-04   1.8581337e+00   1.7862187e+00  -2.5825478e+06
   1.1113705e-09  -5.0467270e-04   1.8579600e+00   1.7864099e+00  -2.5694356e+06
   1.1123708e-09  -5.0210894e-04   1.8577873e+00   1.7866002e+00  -2.5563899e+06
   1.1133711e-09  -4.9955819e-04   1.8576154e+00   1.7867895e+00  -2.5434104e+06
   1.1143715e-09  -4.9702040e-04   1.8574444e+00   1.7869778e+00  -2.5304968e+06
   1.1153718e-09  -4.9449549e-04   1.8572742e+00   1.7871653e+00  -2.5176486e+06
   1.1163721e-09  -4.9198340e-04   1.8571050e+00   1.7873518e+00  -2.5048656e+06
   1.1173725e-09  -4.8948407e-04   1.8569366e+00   1.7875373e+00  -2.4921474e+06
   1.1183728e-09  -4.8699742e-04   1.8567690e+00   1.7877219e+00  -2.4794937e+06
   1.1193731e-09  -4.8452341e-04   1.8566024e+00   1.7879056e+00  -2.4669043e+06
   1.1203735e-09  -4.8206195e-04   1.8564365e+00   1.7880884e+00  -2.4543786e+06
   1.1213738e-09  -4.7961299e-04   1.8562715e+00   1.7882702e+00  -2.4419165e+06
   1.1223741e-09  -4.7717647e-04   1.8561074e+00   1.7884511e+00  -2.4295176e+06
   1.1233745e-09  -4.7475231e-04   1.8559441e+00   1.7886312e+00  -2.4171816e+06
   1.1243748e-09  -4.7234047e-04   1.8557817e+00   1.7888103e+00  -2.4049082e+06
   1.1253751e-09  -4.6994087e-04   1.8556200e+00   1.7889885e+00  -2.3926970e+06
   1.1263755e-09  -4.6755346e-04   1.8554592e+00   1.7891658e+00  -2.3805478e+06
   1.1273758e-09  -4.6517817e-04   1.8552992e+00   1.7893423e+00  -2.3684602e+06
   1.1283761e-09  -4.6281494e-04   1.8551401e+00   1.7895178e+00  -2.3564339e+06
   1.1293765e-09  -4.6046371e-04   1.8549817e+00   1.7896925e+00  -2.3444686e+06
   1.1303768e-09  -4.5812442e-04   1.8548242e+00   1.7898663e+00  -2.3325641e+06
   1.1313771e-09  -4.5579700e-04   1.8546675e+00   1.7900392e+00  -2.3207199e+06
   1.1323775e-09  -4.5348141e-04   1.8545115e+00   1.7902112e+00  -2.3089358e+06
   1.1333778e-09  -4.5117757e-04   1.8543564e+00   1.7903824e+00  -2.2972114e+06
   1.1343781e-09  -4.4888543e-04   1.8542020e+00   1.7905527e+00  -2.2855466e+06
   1.1353785e-09  -4.4660493e-04   1.8540485e+00   1.7907222e+00  -2.2739409e+06
   1.1363788e-09  -4.4433602e-04   1.8538957e+00   1.7908908e+00  -2.2623941e+06
   1.1373791e-09  -4.4207862e-04   1.8537437e+00   1.7910586e+00  -2.2509058e+06
   1.1383795e-09  -4.3983268e-04   1.8535925e+00   1.7912255e+00  -2.2394759e+06
   1.1393798e-09  -4.3759815e-04   1.8534421e+00   1.7913916e+00  -2.2281039e+06
   1.1403801e-09  -4.3537497e-04   1.8532924e+00   1.7915568e+00  -2.2167896e+06
   1.1413805e-09  -4.3316308e-04   1.8531435e+00   1.7917213e+00  -2.2055328e+06
   1.1423808e-09  -4.3096241e-04   1.8529954e+00   1.7918849e+00  -2.1943330e+06
   1.1433811e-09  -4.2877293e-04   1.8528480e+00   1.7920476e+00  -2.1831901e+06
   1.1443815e-09  -4.2659456e-04   1.8527014e+00   1.7922096e+00  -2.1721036e+06
   1.1453818e-09  -4.2442725e-04   1.8525555e+00   1.7923707e+00  -2.1610735e+06
   1.1463821e-09  -4.2227095e-04   1.8524103e+00   1.7925310e+00  -2.1500993e+06
   1.1473825e-09  -4.2012560e-04   1.8522659e+00   1.7926906e+00  -2.1391807e+06
   1.1483828e-09  -4.1799115e-04   1.8521223e+00   1.7928493e+00  -2.1283176e+06
   1.1493831e-09  -4.1586753e-04   1.8519794e+00   1.7930072e+00  -2.1175096e+06
   1.1503835e-09  -4.1375470e-04   1.8518372e+00   1.7931643e+00  -2.1067564e+06
   1.1513838e-09  -4.1165259e-04   1.8516957e+00   1.7933207e+00  -2.0960578e+06
   1.1523841e-09  -4.0956116e-04   1.8515550e+00   1.7934762e+00  -2.0854134e+06
   1.1533845e-09  -4.0748036e-04   1.8514149e+00   1.7936310e+00  -2.0748231e+06
   1.1543848e-09  -4.0541012e-04   1.8512756e+00   1.7937850e+00  -2.0642865e+06
   1.1553851e-09  -4.0335039e-04   1.8511370e+00   1.7939382e+00  -2.0538034e+06
   1.1563855e-09  -4.0130112e-04   1.8509991e+00   1.7940906e+00  -2.0433734e+06
   1.1573858e-09  -3.9926226e-04   1.8508620e+00   1.7942423e+00  -2.0329964e+06
   1.1583861e-09  -3.9723375e-04   1.8507255e+00   1.7943932e+00  -2.0226720e+06
   1.1593865e-09  -3.9521555e-04   1.8505897e+00   1.7945434e+00  -2.0124000e+06
   1.1603868e-09  -3.9320760e-04   1.8504546e+00   1.7946927e+00  -2.0021801e+06
   1.1613871e-09  -3.9120984e-04   1.8503202e+00   1.7948414e+00  -1.9920121e+06
   1.1623875e-09  -3.8922223e-04   1.8501865e+00   1.7949893e+00  -1.9818957e+06
   1.1633878e-09  -3.8724471e-04   1.8500534e+00   1.7951364e+00  -1.9718306e+06
   1.1643881e-09  -3.8527723e-04   1.8499211e+00   1.7952829e+00  -1.9618166e+06
   1.1653885e-09  -3.8331975e-04   1.8497894e+00   1.7954285e+00  -1.9518534e+06
   1.1663888e-09  -3.8137221e-04   1.8496584e+00   1.7955735e+00  -1.9419408e+06
   1.1673891e-09  -3.7943455e-04   1.8495281e+00   1.7957177e+00  -1.9320784e+06
   1.1683895e-09  -3.7750674e-04   1.8493984e+00   1.7958612e+00  -1.9222661e+06
   1.1693898e-09  -3.7558872e-04   1.8492694e+00   1.7960039e+00  -1.9125036e+06
   1.1703901e-09  -3.7368044e-04   1.8491410e+00   1.7961460e+00  -1.9027906e+06
   1.1713905e-09  -3.7178186e-04   1.8490134e+00   1.7962873e+00  -1.8931270e+06
   1.1723908e-09  -3.6989291e-04   1.8488863e+00   1.7964279e+00  -1.8835123e+06
   1.1733911e-09  -3.6801356e-04   1.8487599e+00   1.7965678e+00  -1.8739465e+06
   1.1743915e-09  -3.6614375e-04   1.8486342e+00   1.7967070e+00  -1.8644292e+06
   1.1753918e-09  -3.6428344e-04   1.8485091e+00   1.7968455e+00  -1.8549602e+06
   1.1763921e-09  -3.6243258e-04   1.8483846e+00   1.7969833e+00  -1.8455392e+06
   1.1773925e-09  -3.6059112e-04   1.8482608e+00   1.7971204e+00  -1.8361661e+06
   1.1783928e-09  -3.5875901e-04   1.8481376e+00   1.7972569e+00  -1.8268405e+06
   1.1793931e-09  -3.5693620e-04   1.8480150e+00   1.7973926e+00  -1.8175622e+06
   1.1803935e-09  -3.5512265e-04   1.8478931e+00   1.7975277e+00  -1.8083311e+06
   1.1813938e-09  -3.5331832e-04   1.8477717e+00   1.7976620e+00  -1.7991468e+06
   1.1823941e-09  -3.5152314e-04   1.8476510e+00   1.7977957e+00  -1.7900090e+06
   1.1833945e-09  -3.4973709e-04   1.8475310e+00   1.7979287e+00  -1.7809177e+06
   1.1843948e-09  -3.4796011e-04   1.8474115e+00   1.7980611e+00  -1.7718725e+06
   1.1853951e-09  -3.4619215e-04   1.8472926e+00   1.7981928e+00  -1.7628732e+06
   1.1863955e-09  -3.4443317e-04   1.8471744e+00   1.7983238e+00  -1.7539196e+06
   1.1873958e-09  -3.4268312e-04   1.8470567e+00   1.7984541e+00  -1.7450114e+06
   1.1883961e-09  -3.4094197e-04   1.8469397e+00   1.7985838e+00  -1.7361485e+06
   1.1893965e-09  -3.3920965e-04   1.8468232e+00   1.7987129e+00  -1.7273305e+06
   1.1903968e-09  -3.3748614e-04   1.8467074e+00   1.7988413e+00  -1.7185573e+06
   1.1913971e-09  -3.3577138e-04   1.8465921e+00   1.7989690e+00  -1.7098286e+06
   1.1923975e-09  -3.3406533e-04   1.8464774e+00   1.7990961e+00  -1.7011442e+06
   1.1933978e-09  -3.3236794e-04   1.8463633e+00   1.7992226e+00  -1.6925038e+06
   1.1943981e-09  -3.3067918e-04   1.8462498e+00   1.7993484e+00  -1.6839074e+06
   1.1953985e-09  -3.2899899e-04   1.8461369e+00   1.7994736e+00  -1.6753545e+06
   1.1963988e-09  -3.2732733e-04   1.8460245e+00   1.7995982e+00  -1.6668451e+06
   1.1973991e-09  -3.2566417e-04   1.8459128e+00   1.7997221e+00  -1.6583789e+06
   1.1983995e-09  -3.2400946e-04   1.8458015e+00   1.7998454e+00  -1.6499556e+06
   1.1993998e-09  -3.2236315e-04   1.8456909e+00   1.7999681e+00  -1.6415751e+06
   1.2004001e-09  -3.2072520e-04   1.8455808e+00   1.8000902e+00  -1.6332371e+06
   1.2014005e-09  -3.1909557e-04   1.8454713e+00   1.8002116e+00  -1.6249414e+06
   1.2024008e-09  -3.1747422e-04   1.8453624e+00   1.8003325e+00  -1.6166879e+06
   1.2034011e-09  -3.1586110e-04   1.8452540e+00   1.8004527e+00  -1.6084762e+06
   1.2044015e-09  -3.1425618e-04   1.8451461e+00   1.8005723e+00  -1.6003062e+06
   1.2054018e-09  -3.1265941e-04   1.8450388e+00   1.8006914e+00  -1.5921777e+06
   1.2064021e-09  -3.1107075e-04   1.8449321e+00   1.8008098e+00  -1.5840905e+06
   1.2074025e-09  -3.0949016e-04   1.8448259e+00   1.8009276e+00  -1.5760443e+06
   1.2084028e-09  -3.0791759e-04   1.8447202e+00   1.8010448e+00  -1.5680389e+06
   1.2094031e-09  -3.0635302e-04   1.8446151e+00   1.8011615e+00  -1.5600742e+06
   1.2104035e-09  -3.0479639e-04   1.8445105e+00   1.8012775e+00  -1.5521499e+06
   1.2114038e-09  -3.0324767e-04   1.8444064e+00   1.8013930e+00  -1.5442659e+06
   1.2124041e-09  -3.0170682e-04   1.8443029e+00   1.8015079e+00  -1.5364218e+06
   1.2134045e-09  -3.0017379e-04   1.8441999e+00   1.8016222e+00  -1.5286176e+06
   1.2144048e-09  -2.9864855e-04   1.8440974e+00   1.8017359e+00  -1.5208530e+06
   1.2154051e-09  -2.9713105e-04   1.8439955e+00   1.8018491e+00  -1.5131278e+06
   1.2164055e-09  -2.9562127e-04   1.8438941e+00   1.8019616e+00  -1.5054418e+06
   1.2174058e-09  -2.9411915e-04   1.8437932e+00   1.8020737e+00  -1.4977948e+06
   1.2184061e-09  -2.9262467e-04   1.8436928e+00   1.8021851e+00  -1.4901867e+06
   1.2194065e-09  -2.9113777e-04   1.8435929e+00   1.8022960e+00  -1.4826171e+06
   1.2204068e-09  -2.8965843e-04   1.8434935e+00   1.8024063e+00  -1.4750860e+06
   1.2214071e-09  -2.8818661e-04   1.8433947e+00   1.8025161e+00  -1.4675931e+06
   1.2224075e-09  -2.8672225e-04   1.8432963e+00   1.8026253e+00  -1.4601383e+06
   1.2234078e-09  -2.8526534e-04   1.8431984e+00   1.8027340e+00  -1.4527213e+06
   1.2244081e-09  -2.8381583e-04   1.8431011e+00   1.8028421e+00  -1.4453420e+06
   1.2254085e-09  -2.8237368e-04   1.8430042e+00   1.8029497e+00  -1.4380001e+06
   1.2264088e-09  -2.8093886e-04   1.8429079e+00   1.8030567e+00  -1.4306955e+06
   1.2274091e-09  -2.7951132e-04   1.8428120e+00   1.8031632e+00  -1.4234279e+06
   1.2284095e-09  -2.7809104e-04   1.8427166e+00   1.8032691e+00  -1.4161973e+06
   1.2294098e-09  -2.7667797e-04   1.8426217e+00   1.8033746e+00  -1.4090034e+06
   1.2304101e-09  -2.7527208e-04   1.8425273e+00   1.8034794e+00  -1.4018460e+06
   1.2314105e-09  -2.7387333e-04   1.8424333e+00   1.8035838e+00  -1.3947249e+06
   1.2324108e-09  -2.7248169e-04   1.8423399e+00   1.8036876e+00  -1.3876400e+06
   1.2334111e-09  -2.7109712e-04   1.8422469e+00   1.8037909e+00  -1.3805911e+06
   1.2344115e-09  -2.6971958e-04   1.8421544e+00   1.8038937e+00  -1.3735779e+06
   1.2354118e-09  -2.6834903e-04   1.8420624e+00   1.8039960e+00  -1.3666003e+06
   1.2364121e-09  -2.6698545e-04   1.8419708e+00   1.8040977e+00  -1.3596582e+06
   1.2374125e-09  -2.6562880e-04   1.8418797e+00   1.8041989e+00  -1.3527513e+06
   1.2384128e-09  -2.6427903e-04   1.8417891e+00   1.8042997e+00  -1.3458795e+06
   1.2394131e-09  -2.6293613e-04   1.8416989e+00   1.8043999e+00  -1.3390425e+06
   1.2404135e-09  -2.6160005e-04   1.8416092e+00   1.8044996e+00  -1.3322403e+06
   1.2414138e-09  -2.6027075e-04   1.8415199e+00   1.8045988e+00  -1.3254726e+06
   1.2424141e-09  -2.5894820e-04   1.8414312e+00   1.8046975e+00  -1.3187393e+06
   1.2434145e-09  -2.5763238e-04   1.8413428e+00   1.8047957e+00  -1.3120402e+06
   1.2444148e-09  -2.5632324e-04   1.8412549e+00   1.8048934e+00  -1.3053750e+06
   1.2454151e-09  -2.5502075e-04   1.8411675e+00   1.8049906e+00  -1.2987437e+06
   1.2464155e-09  -2.5372487e-04   1.8410805e+00   1.8050873e+00  -1.2921461e+06
   1.2474158e-09  -2.5243558e-04   1.8409939e+00   1.8051836e+00  -1.2855820e+06
   1.2484161e-09  -2.5115284e-04   1.8409078e+00   1.8052793e+00  -1.2790512e+06
   1.2494165e-09  -2.4987662e-04   1.8408221e+00   1.8053746e+00  -1.2725535e+06
   1.2504168e-09  -2.4860687e-04   1.8407369e+00   1.8054694e+00  -1.2660889e+06
   1.2514171e-09  -2.4734358e-04   1.8406521e+00   1.8055637e+00  -1.2596571e+06
   1.2524175e-09  -2.4608671e-04   1.8405677e+00   1.8056575e+00  -1.2532579e+06
   1.2534178e-09  -2.4483622e-04   1.8404838e+00   1.8057509e+00  -1.2468912e+06
   1.2544181e-09  -2.4359208e-04   1.8404003e+00   1.8058437e+00  -1.2405568e+06
   1.2554185e-09  -2.4235427e-04   1.8403172e+00   1.8059362e+00  -1.2342546e+06
   1.2564188e-09  -2.4112274e-04   1.8402345e+00   1.8060281e+00  -1.2279845e+06
   1.2574191e-09  -2.3989747e-04   1.8401523e+00   1.8061196e+00  -1.2217461e+06
   1.2584195e-09  -2.3867842e-04   1.8400704e+00   1.8062106e+00  -1.2155394e+06
   1.2594198e-09  -2.3746557e-04   1.8399890e+00   1.8063012e+00  -1.2093642e+06
   1.2604201e-09  -2.3625888e-04   1.8399081e+00   1.8063913e+00  -1.2032204e+06
   1.2614205e-09  -2.3505832e-04   1.8398275e+00   1.8064809e+00  -1.1971078e+06
   1.2624208e-09  -2.3386385e-04   1.8397473e+00   1.8065701e+00  -1.1910262e+06
   1.2634211e-09  -2.3267546e-04   1.8396676e+00   1.8066589e+00  -1.1849755e+06
   1.2644215e-09  -2.3149310e-04   1.8395882e+00   1.8067472e+00  -1.1789555e+06
   1.2654218e-09  -2.3031675e-04   1.8395093e+00   1.8068350e+00  -1.1729661e+06
   1.2664221e-09  -2.2914638e-04   1.8394307e+00   1.8069224e+00  -1.1670071e+06
   1.2674225e-09  -2.2798195e-04   1.8393526e+00   1.8070094e+00  -1.1610784e+06
   1.2684228e-09  -2.2682344e-04   1.8392748e+00   1.8070959e+00  -1.1551798e+06
   1.2694231e-09  -2.2567081e-04   1.8391975e+00   1.8071820e+00  -1.1493111e+06
   1.2704235e-09  -2.2452404e-04   1.8391205e+00   1.8072676e+00  -1.1434722e+06
   1.2714238e-09  -2.2338309e-04   1.8390440e+00   1.8073529e+00  -1.1376629e+06
   1.2724241e-09  -2.2224794e-04   1.8389678e+00   1.8074376e+00  -1.1318832e+06
   1.2734245e-09  -2.2111856e-04   1.8388920e+00   1.8075220e+00  -1.1261328e+06
   1.2744248e-09  -2.1999492e-04   1.8388166e+00   1.8076059e+00  -1.1204116e+06
   1.2754251e-09  -2.1887698e-04   1.8387416e+00   1.8076894e+00  -1.1147195e+06
   1.2764255e-09  -2.1776472e-04   1.8386670e+00   1.8077725e+00  -1.1090563e+06
   1.2774258e-09  -2.1665812e-04   1.8385927e+00   1.8078552e+00  -1.1034218e+06
   1.2784261e-09  -2.1555713e-04   1.8385188e+00   1.8079374e+00  -1.0978159e+06
   1.2794265e-09  -2.1446174e-04   1.8384453e+00   1.8080193e+00  -1.0922385e+06
   1.2804268e-09  -2.1337192e-04   1.8383722e+00   1.8081007e+00  -1.0866895e+06
   1.2814271e-09  -2.1228763e-04   1.8382995e+00   1.8081817e+00  -1.0811686e+06
   1.2824275e-09  -2.1120885e-04   1.8382271e+00   1.8082623e+00  -1.0756757e+06
   1.2834278e-09  -2.1013555e-04   1.8381551e+00   1.8083425e+00  -1.0702107e+06
   1.2844281e-09  -2.0906771e-04   1.8380834e+00   1.8084223e+00  -1.0647735e+06
   1.2854285e-09  -2.0800529e-04   1.8380122e+00   1.8085017e+00  -1.0593639e+06
   1.2864288e-09  -2.0694826e-04   1.8379413e+00   1.8085806e+00  -1.0539818e+06
   1.2874291e-09  -2.0589661e-04   1.8378707e+00   1.8086592e+00  -1.0486270e+06
   1.2884295e-09  -2.0485030e-04   1.8378005e+00   1.8087374e+00  -1.0432994e+06
   1.2894298e-09  -2.0380931e-04   1.8377307e+00   1.8088152e+00  -1.0379988e+06
   1.2904301e-09  -2.0277360e-04   1.8376612e+00   1.8088926e+00  -1.0327252e+06
   1.2914305e-09  -2.0174316e-04   1.8375921e+00   1.8089696e+00  -1.0274783e+06
   1.2924308e-09  -2.0071795e-04   1.8375233e+00   1.8090462e+00  -1.0222581e+06
   1.2934311e-09  -1.9969795e-04   1.8374549e+00   1.8091224e+00  -1.0170644e+06
   1.2944315e-09  -1.9868314e-04   1.8373868e+00   1.8091983e+00  -1.0118971e+06
   1.2954318e-09  -1.9767348e-04   1.8373191e+00   1.8092737e+00  -1.0067560e+06
   1.2964321e-09  -1.9666894e-04   1.8372517e+00   1.8093488e+00  -1.0016410e+06
   1.2974325e-09  -1.9566952e-04   1.8371847e+00   1.8094235e+00  -9.9655203e+05
   1.2984328e-09  -1.9467517e-04   1.8371180e+00   1.8094978e+00  -9.9148888e+05
   1.2994331e-09  -1.9368587e-04   1.8370516e+00   1.8095718e+00  -9.8645144e+05
   1.3004335e-09  -1.9270160e-04   1.8369856e+00   1.8096453e+00  -9.8143958e+05
   1.3014338e-09  -1.9172233e-04   1.8369199e+00   1.8097185e+00  -9.7645317e+05
   1.3024341e-09  -1.9074803e-04   1.8368546e+00   1.8097913e+00  -9.7149209e+05
   1.3034345e-09  -1.8977869e-04   1.8367896e+00   1.8098638e+00  -9.6655620e+05
   1.3044348e-09  -1.8881427e-04   1.8367249e+00   1.8099359e+00  -9.6164539e+05
   1.3054351e-09  -1.8785475e-04   1.8366605e+00   1.8100076e+00  -9.5675951e+05
   1.3064355e-09  -1.8690010e-04   1.8365965e+00   1.8100790e+00  -9.5189844e+05
   1.3074358e-09  -1.8595031e-04   1.8365328e+00   1.8101500e+00  -9.4706206e+05
   1.3084361e-09  -1.8500534e-04   1.8364694e+00   1.8102206e+00  -9.4225025e+05
   1.3094365e-09  -1.8406517e-04   1.8364064e+00   1.8102909e+00  -9.3746287e+05
   1.3104368e-09  -1.8312978e-04   1.8363437e+00   1.8103608e+00  -9.3269981e+05
   1.3114371e-09  -1.8219914e-04   1.8362812e+00   1.8104304e+00  -9.2796093e+05
   1.3124375e-09  -1.8127323e-04   1.8362192e+00   1.8104996e+00  -9.2324613e+05
   1.3134378e-09  -1.8035202e-04   1.8361574e+00   1.8105685e+00  -9.1855527e+05
   1.3144381e-09  -1.7943550e-04   1.8360959e+00   1.8106370e+00  -9.1388823e+05
   1.3154385e-09  -1.7852363e-04   1.8360348e+00   1.8107052e+00  -9.0924490e+05
   1.3164388e-09  -1.7761639e-04   1.8359739e+00   1.8107730e+00  -9.0462515e+05
   1.3174391e-09  -1.7671377e-04   1.8359134e+00   1.8108405e+00  -9.0002886e+05
   1.3184395e-09  -1.7581573e-04   1.8358532e+00   1.8109077e+00  -8.9545592e+05
   1.3194398e-09  -1.7492225e-04   1.8357933e+00   1.8109745e+00  -8.9090620e+05
   1.3204401e-09  -1.7403331e-04   1.8357337e+00   1.8110410e+00  -8.8637959e+05
   1.3214405e-09  -1.7314889e-04   1.8356744e+00   1.8111071e+00  -8.8187597e+05
   1.3224408e-09  -1.7226897e-04   1.8356154e+00   1.8111729e+00  -8.7739522e+05
   1.3234411e-09  -1.7139351e-04   1.8355567e+00   1.8112384e+00  -8.7293723e+05
   1.3244415e-09  -1.7052250e-04   1.8354983e+00   1.8113035e+00  -8.6850189e+05
   1.3254418e-09  -1.6965592e-04   1.8354402e+00   1.8113683e+00  -8.6408907e+05
   1.3264421e-09  -1.6879374e-04   1.8353824e+00   1.8114328e+00  -8.5969866e+05
   1.3274425e-09  -1.6793594e-04   1.8353248e+00   1.8114969e+00  -8.5533056e+05
   1.3284428e-09  -1.6708250e-04   1.8352676e+00   1.8115608e+00  -8.5098463e+05
   1.3294431e-09  -1.6623340e-04   1.8352107e+00   1.8116243e+00  -8.4666079e+05
   1.3304435e-09  -1.6538861e-04   1.8351541e+00   1.8116874e+00  -8.4235890e+05
   1.3314438e-09  -1.6454811e-04   1.8350977e+00   1.8117503e+00  -8.3807886e+05
   1.3324441e-09  -1.6371188e-04   1.8350416e+00   1.8118128e+00  -8.3382057e+05
   1.3334445e-09  -1.6287991e-04   1.8349859e+00   1.8118751e+00  -8.2958390e+05
   1.3344448e-09  -1.6205216e-04   1.8349304e+00   1.8119370e+00  -8.2536875e+05
   1.3354451e-09  -1.6122861e-04   1.8348752e+00   1.8119986e+00  -8.2117501e+05
   1.3364455e-09  -1.6040925e-04   1.8348202e+00   1.8120599e+00  -8.1700257e+05
   1.3374458e-09  -1.5959405e-04   1.8347656e+00   1.8121208e+00  -8.1285132e+05
   1.3384461e-09  -1.5878300e-04   1.8347112e+00   1.8121815e+00  -8.0872116e+05
   1.3394465e-09  -1.5797606e-04   1.8346571e+00   1.8122419e+00  -8.0461197e+05
   1.3404468e-09  -1.5717323e-04   1.8346033e+00   1.8123019e+00  -8.0052366e+05
   1.3414471e-09  -1.5637448e-04   1.8345498e+00   1.8123617e+00  -7.9645612e+05
   1.3424475e-09  -1.5557978e-04   1.8344965e+00   1.8124211e+00  -7.9240923e+05
   1.3434478e-09  -1.5478912e-04   1.8344435e+00   1.8124803e+00  -7.8838290e+05
   1.3444481e-09  -1.5400248e-04   1.8343908e+00   1.8125391e+00  -7.8437702e+05
   1.3454485e-09  -1.5321984e-04   1.8343383e+00   1.8125977e+00  -7.8039149e+05
   1.3464488e-09  -1.5244117e-04   1.8342861e+00   1.8126559e+00  -7.7642621e+05
   1.3474491e-09  -1.5166646e-04   1.8342342e+00   1.8127139e+00  -7.7248106e+05
   1.3484495e-09  -1.5089569e-04   1.8341825e+00   1.8127715e+00  -7.6855596e+05
   1.3494498e-09  -1.5012883e-04   1.8341311e+00   1.8128289e+00  -7.6465079e+05
   1.3504502e-09  -1.4936587e-04   1.8340800e+00   1.8128860e+00  -7.6076545e+05
   1.3514505e-09  -1.4860679e-04   1.8340291e+00   1.8129428e+00  -7.5689986e+05
   1.3524508e-09  -1.4785156e-04   1.8339785e+00   1.8129993e+00  -7.5305390e+05
   1.3534512e-09  -1.4710017e-04   1.8339281e+00   1.8130555e+00  -7.4922747e+05
   1.3544515e-09  -1.4635260e-04   1.8338780e+00   1.8131115e+00  -7.4542048e+05
   1.3554518e-09  -1.4560882e-04   1.8338282e+00   1.8131671e+00  -7.4163283e+05
   1.3564522e-09  -1.4486883e-04   1.8337786e+00   1.8132225e+00  -7.3786442e+05
   1.3574525e-09  -1.4413260e-04   1.8337292e+00   1.8132776e+00  -7.3411515e+05
   1.3584528e-09  -1.4340010e-04   1.8336801e+00   1.8133324e+00  -7.3038492e+05
   1.3594532e-09  -1.4267133e-04   1.8336313e+00   1.8133869e+00  -7.2667364e+05
   1.3604535e-09  -1.4194627e-04   1.8335827e+00   1.8134412e+00  -7.2298122e+05
   1.3614538e-09  -1.4122488e-04   1.8335343e+00   1.8134951e+00  -7.1930755e+05
   1.3624542e-09  -1.4050717e-04   1.8334862e+00   1.8135489e+00  -7.1565254e+05
   1.3634545e-09  -1.3979309e-04   1.8334384e+00   1.8136023e+00  -7.1201610e+05
   1.3644548e-09  -1.3908265e-04   1.8333908e+00   1.8136555e+00  -7.0839813e+05
   1.3654552e-09  -1.3837582e-04   1.8333434e+00   1.8137084e+00  -7.0479854e+05
   1.3664555e-09  -1.3767258e-04   1.8332963e+00   1.8137610e+00  -7.0121724e+05
   1.3674558e-09  -1.3697291e-04   1.8332494e+00   1.8138133e+00  -6.9765412e+05
   1.3684562e-09  -1.3627680e-04   1.8332027e+00   1.8138654e+00  -6.9410911e+05
   1.3694565e-09  -1.3558422e-04   1.8331563e+00   1.8139173e+00  -6.9058210e+05
   1.3704568e-09  -1.3489517e-04   1.8331101e+00   1.8139688e+00  -6.8707301e+05
   1.3714572e-09  -1.3420961e-04   1.8330642e+00   1.8140201e+00  -6.8358175e+05
   1.3724575e-09  -1.3352754e-04   1.8330185e+00   1.8140712e+00  -6.8010822e+05
   1.3734578e-09  -1.3284894e-04   1.8329730e+00   1.8141220e+00  -6.7665234e+05
   1.3744582e-09  -1.3217378e-04   1.8329278e+00   1.8141725e+00  -6.7321401e+05
   1.3754585e-09  -1.3150206e-04   1.8328828e+00   1.8142228e+00  -6.6979315e+05
   1.3764588e-09  -1.3083374e-04   1.8328380e+00   1.8142728e+00  -6.6638966e+05
   1.3774592e-09  -1.3016883e-04   1.8327934e+00   1.8143226e+00  -6.6300347e+05
   1.3784595e-09  -1.2950729e-04   1.8327491e+00   1.8143721e+00  -6.5963447e+05
   1.3794598e-09  -1.2884911e-04   1.8327050e+00   1.8144214e+00  -6.5628259e+05
   1.3804602e-09  -1.2819428e-04   1.8326611e+00   1.8144704e+00  -6.5294774e+05
   1.3814605e-09  -1.2754277e-04   1.8326175e+00   1.8145192e+00  -6.4962983e+05
   1.3824608e-09  -1.2689458e-04   1.8325740e+00   1.8145677e+00  -6.4632878e+05
   1.3834612e-09  -1.2624968e-04   1.8325308e+00   1.8146159e+00  -6.4304449e+05
   1.3844615e-09  -1.2560806e-04   1.8324878e+00   1.8146640e+00  -6.3977689e+05
   1.3854618e-09  -1.2496969e-04   1.8324451e+00   1.8147118e+00  -6.3652588e+05
   1.3864622e-09  -1.2433458e-04   1.8324025e+00   1.8147593e+00  -6.3329140e+05
   1.3874625e-09  -1.2370268e-04   1.8323602e+00   1.8148066e+00  -6.3007334e+05
   1.3884628e-09  -1.2307400e-04   1.8323181e+00   1.8148537e+00  -6.2687163e+05
   1.3894632e-09  -1.2244852e-04   1.8322762e+00   1.8149005e+00  -6.2368619e+05
   1.3904635e-09  -1.2182621e-04   1.8322345e+00   1.8149471e+00  -6.2051693e+05
   1.3914638e-09  -1.2120706e-04   1.8321930e+00   1.8149934e+00  -6.1736377e+05
   1.3924642e-09  -1.2059107e-04   1.8321517e+00   1.8150396e+00  -6.1422663e+05
   1.3934645e-09  -1.1997820e-04   1.8321106e+00   1.8150854e+00  -6.1110542e+05
   1.3944648e-09  -1.1936844e-04   1.8320698e+00   1.8151311e+00  -6.0800007e+05
   1.3954652e-09  -1.1876179e-04   1.8320292e+00   1.8151765e+00  -6.0491050e+05
   1.3964655e-09  -1.1815821e-04   1.8319887e+00   1.8152217e+00  -6.0183662e+05
   1.3974658e-09  -1.1755771e-04   1.8319485e+00   1.8152667e+00  -5.9877836e+05
   1.3984662e-09  -1.1696025e-04   1.8319085e+00   1.8153114e+00  -5.9573564e+05
   1.3994665e-09  -1.1636583e-04   1.8318686e+00   1.8153559e+00  -5.9270837e+05
   1.4004668e-09  -1.1577443e-04   1.8318290e+00   1.8154002e+00  -5.8969648e+05
   1.4014672e-09  -1.1518604e-04   1.8317896e+00   1.8154442e+00  -5.8669989e+05
   1.4024675e-09  -1.1460064e-04   1.8317504e+00   1.8154881e+00  -5.8371853e+05
   1.4034678e-09  -1.1401821e-04   1.8317114e+00   1.8155317e+00  -5.8075231e+05
   1.4044682e-09  -1.1343874e-04   1.8316725e+00   1.8155751e+00  -5.7780117e+05
   1.4054685e-09  -1.1286222e-04   1.8316339e+00   1.8156182e+00  -5.7486501e+05
   1.4064688e-09  -1.1228862e-04   1.8315955e+00   1.8156612e+00  -5.7194377e+05
   1.4074692e-09  -1.1171794e-04   1.8315573e+00   1.8157039e+00  -5.6903737e+05
   1.4084695e-09  -1.1115016e-04   1.8315192e+00   1.8157464e+00  -5.6614574e+05
   1.4094698e-09  -1.1058527e-04   1.8314814e+00   1.8157887e+00  -5.6326880e+05
   1.4104702e-09  -1.1002324e-04   1.8314438e+00   1.8158308e+00  -5.6040648e+05
   1.4114705e-09  -1.0946408e-04   1.8314063e+00   1.8158727e+00  -5.5755869e+05
   1.4124708e-09  -1.0890775e-04   1.8313690e+00   1.8159144e+00  -5.5472538e+05
   1.4134712e-09  -1.0835425e-04   1.8313320e+00   1.8159558e+00  -5.5190645e+05
   1.4144715e-09  -1.0780356e-04   1.8312951e+00   1.8159970e+00  -5.4910185e+05
   1.4154718e-09  -1.0725568e-04   1.8312584e+00   1.8160381e+00  -5.4631150e+05
   1.4164722e-09  -1.0671057e-04   1.8312219e+00   1.8160789e+00  -5.4353533e+05
   1.4174725e-09  -1.0616824e-04   1.8311855e+00   1.8161195e+00  -5.4077325e+05
   1.4184728e-09  -1.0562866e-04   1.8311494e+00   1.8161599e+00  -5.3802522e+05
   1.4194732e-09  -1.0509182e-04   1.8311134e+00   1.8162001e+00  -5.3529114e+05
   1.4204735e-09  -1.0455772e-04   1.8310777e+00   1.8162401e+00  -5.3257095e+05
   1.4214738e-09  -1.0402632e-04   1.8310421e+00   1.8162799e+00  -5.2986459e+05
   1.4224742e-09  -1.0349763e-04   1.8310066e+00   1.8163195e+00  -5.2717197e+05
   1.4234745e-09  -1.0297162e-04   1.8309714e+00   1.8163589e+00  -5.2449303e+05
   1.4244748e-09  -1.0244829e-04   1.8309364e+00   1.8163981e+00  -5.2182770e+05
   1.4254752e-09  -1.0192762e-04   1.8309015e+00   1.8164371e+00  -5.1917592e+05
   1.4264755e-09  -1.0140959e-04   1.8308668e+00   1.8164759e+00  -5.1653761e+05
   1.4274758e-09  -1.0089419e-04   1.8308323e+00   1.8165145e+00  -5.1391270e+05
   1.4284762e-09  -1.0038141e-04   1.8307979e+00   1.8165529e+00  -5.1130113e+05
   1.4294765e-09  -9.9871243e-05   1.8307638e+00   1.8165911e+00  -5.0870282e+05
   1.4304768e-09  -9.9363665e-05   1.8307298e+00   1.8166292e+00  -5.0611772e+05
   1.4314772e-09  -9.8858666e-05   1.8306959e+00   1.8166670e+00  -5.0354575e+05
   1.4324775e-09  -9.8356233e-05   1.8306623e+00   1.8167046e+00  -5.0098685e+05
   1.4334778e-09  -9.7856354e-05   1.8306288e+00   1.8167421e+00  -4.9844095e+05
   1.4344782e-09  -9.7359015e-05   1.8305955e+00   1.8167793e+00  -4.9590798e+05
   1.4354785e-09  -9.6864203e-05   1.8305624e+00   1.8168164e+00  -4.9338788e+05
   1.4364788e-09  -9.6371906e-05   1.8305294e+00   1.8168532e+00  -4.9088059e+05
   1.4374792e-09  -9.5882110e-05   1.8304966e+00   1.8168899e+00  -4.8838603e+05
   1.4384795e-09  -9.5394804e-05   1.8304640e+00   1.8169264e+00  -4.8590415e+05
   1.4394798e-09  -9.4909974e-05   1.8304315e+00   1.8169628e+00  -4.8343488e+05
   1.4404802e-09  -9.4427607e-05   1.8303992e+00   1.8169989e+00  -4.8097816e+05
   1.4414805e-09  -9.3947692e-05   1.8303670e+00   1.8170348e+00  -4.7853392e+05
   1.4424808e-09  -9.3470216e-05   1.8303351e+00   1.8170706e+00  -4.7610209e+05
   1.4434812e-09  -9.2995166e-05   1.8303033e+00   1.8171062e+00  -4.7368262e+05
   1.4444815e-09  -9.2522531e-05   1.8302716e+00   1.8171416e+00  -4.7127545e+05
   1.4454818e-09  -9.2052297e-05   1.8302401e+00   1.8171768e+00  -4.6888050e+05
   1.4464822e-09  -9.1584453e-05   1.8302088e+00   1.8172119e+00  -4.6649772e+05
   1.4474825e-09  -9.1118987e-05   1.8301776e+00   1.8172468e+00  -4.6412705e+05
   1.4484828e-09  -9.0655885e-05   1.8301466e+00   1.8172814e+00  -4.6176843e+05
   1.4494832e-09  -9.0195138e-05   1.8301157e+00   1.8173160e+00  -4.5942178e+05
   1.4504835e-09  -8.9736732e-05   1.8300850e+00   1.8173503e+00  -4.5708706e+05
   1.4514838e-09  -8.9280655e-05   1.8300545e+00   1.8173845e+00  -4.5476421e+05
   1.4524842e-09  -8.8826896e-05   1.8300241e+00   1.8174185e+00  -4.5245315e+05
   1.4534845e-09  -8.8375443e-05   1.8299939e+00   1.8174523e+00  -4.5015384e+05
   1.4544848e-09  -8.7926284e-05   1.8299638e+00   1.8174859e+00  -4.4786621e+05
   1.4554852e-09  -8.7479408e-05   1.8299339e+00   1.8175194e+00  -4.4559020e+05
   1.4564855e-09  -8.7034803e-05   1.8299041e+00   1.8175527e+00  -4.4332576e+05
   1.4574858e-09  -8.6592457e-05   1.8298745e+00   1.8175859e+00  -4.4107282e+05
   1.4584862e-09  -8.6152359e-05   1.8298450e+00   1.8176189e+00  -4.3883133e+05
   1.4594865e-09  -8.5714498e-05   1.8298157e+00   1.8176517e+00  -4.3660123e+05
   1.4604868e-09  -8.5278862e-05   1.8297865e+00   1.8176843e+00  -4.3438246e+05
   1.4614872e-09  -8.4845439e-05   1.8297575e+00   1.8177168e+00  -4.3217496e+05
   1.4624875e-09  -8.4414220e-05   1.8297286e+00   1.8177491e+00  -4.2997868e+05
