   0.0000000e+00  -1.3524321e-01   6.2808935e+00   1.6885751e-04  -5.1943988e+08
   1.0003334e-12  -1.3472433e-01   6.2786313e+00   1.7575167e-04  -5.1802729e+08
   2.0006669e-12  -1.3420686e-01   6.2763309e+00   1.8290604e-04  -5.1661447e+08
   3.0010003e-12  -1.3369080e-01   6.2739918e+00   1.9032952e-04  -5.1520143e+08
   4.0013338e-12  -1.3317616e-01   6.2716136e+00   1.9803123e-04  -5.1378817e+08
   5.0016672e-12  -1.3266293e-01   6.2691956e+00   2.0602059e-04  -5.1237470e+08
   6.0020007e-12  -1.3215112e-01   6.2667376e+00   2.1430729e-04  -5.1096102e+08
   7.0023341e-12  -1.3164072e-01   6.2642390e+00   2.2290129e-04  -5.0954713e+08
   8.0026676e-12  -1.3113173e-01   6.2616993e+00   2.3181284e-04  -5.0813304e+08
   9.0030010e-12  -1.3062416e-01   6.2591180e+00   2.4105250e-04  -5.0671875e+08
   1.0003334e-11  -1.3011800e-01   6.2564947e+00   2.5063111e-04  -5.0530427e+08
   1.1003668e-11  -1.2961326e-01   6.2538289e+00   2.6055982e-04  -5.0388960e+08
   1.2004001e-11  -1.2910993e-01   6.2511201e+00   2.7085012e-04  -5.0247474e+08
   1.3004335e-11  -1.2860802e-01   6.2483678e+00   2.8151379e-04  -5.0105970e+08
   1.4004668e-11  -1.2810753e-01   6.2455715e+00   2.9256295e-04  -4.9964449e+08
   1.5005002e-11  -1.2760845e-01   6.2427308e+00   3.0401006e-04  -4.9822911e+08
   1.6005335e-11  -1.2711079e-01   6.2398452e+00   3.1586791e-04  -4.9681357e+08
   1.7005669e-11  -1.2661454e-01   6.2369141e+00   3.2814965e-04  -4.9539787e+08
   1.8006002e-11  -1.2611971e-01   6.2339371e+00   3.4086879e-04  -4.9398202e+08
   1.9006335e-11  -1.2562630e-01   6.2309138e+00   3.5403917e-04  -4.9256603e+08
   2.0006669e-11  -1.2513430e-01   6.2278436e+00   3.6767504e-04  -4.9114990e+08
   2.1007002e-11  -1.2464372e-01   6.2247260e+00   3.8179101e-04  -4.8973363e+08
   2.2007336e-11  -1.2415456e-01   6.2215606e+00   3.9640207e-04  -4.8831725e+08
   2.3007669e-11  -1.2366681e-01   6.2183469e+00   4.1152360e-04  -4.8690074e+08
   2.4008003e-11  -1.2318048e-01   6.2150844e+00   4.2717141e-04  -4.8548413e+08
   2.5008336e-11  -1.2269557e-01   6.2117726e+00   4.4336167e-04  -4.8406742e+08
   2.6008670e-11  -1.2221208e-01   6.2084110e+00   4.6011099e-04  -4.8265061e+08
   2.7009003e-11  -1.2173000e-01   6.2049993e+00   4.7743640e-04  -4.8123372e+08
   2.8009336e-11  -1.2124934e-01   6.2015368e+00   4.9535535e-04  -4.7981675e+08
   2.9009670e-11  -1.2077010e-01   6.1980232e+00   5.1388574e-04  -4.7839972e+08
   3.0010003e-11  -1.2029227e-01   6.1944579e+00   5.3304590e-04  -4.7698262e+08
   3.1010337e-11  -1.1981586e-01   6.1908405e+00   5.5285461e-04  -4.7556548e+08
   3.2010670e-11  -1.1934088e-01   6.1871705e+00   5.7333112e-04  -4.7414829e+08
   3.3011004e-11  -1.1886730e-01   6.1834475e+00   5.9449513e-04  -4.7273108e+08
   3.4011337e-11  -1.1839515e-01   6.1796709e+00   6.1636683e-04  -4.7131385e+08
   3.5011671e-11  -1.1792441e-01   6.1758405e+00   6.3896688e-04  -4.6989660e+08
   3.6012004e-11  -1.1745510e-01   6.1719555e+00   6.6231643e-04  -4.6847936e+08
   3.7012337e-11  -1.1698720e-01   6.1680157e+00   6.8643711e-04  -4.6706213e+08
   3.8012671e-11  -1.1652071e-01   6.1640206e+00   7.1135108e-04  -4.6564492e+08
   3.9013004e-11  -1.1605565e-01   6.1599697e+00   7.3708099e-04  -4.6422775e+08
   4.0013338e-11  -1.1559200e-01   6.1558627e+00   7.6365001e-04  -4.6281062e+08
   4.1013671e-11  -1.1512977e-01   6.1516989e+00   7.9108184e-04  -4.6139356e+08
   4.2014005e-11  -1.1466896e-01   6.1474781e+00   8.1940070e-04  -4.5997656e+08
   4.3014338e-11  -1.1420956e-01   6.1431998e+00   8.4863135e-04  -4.5855964e+08
   4.4014672e-11  -1.1375159e-01   6.1388635e+00   8.7879910e-04  -4.5714282e+08
   4.5015005e-11  -1.1329503e-01   6.1344689e+00   9.0992980e-04  -4.5572611e+08
   4.6015338e-11  -1.1283988e-01   6.1300156e+00   9.4204988e-04  -4.5430953e+08
   4.7015672e-11  -1.1238616e-01   6.1255030e+00   9.7518631e-04  -4.5289308e+08
   4.8016005e-11  -1.1193385e-01   6.1209309e+00   1.0093666e-03  -4.5147678e+08
   4.9016339e-11  -1.1148296e-01   6.1162988e+00   1.0446190e-03  -4.5006064e+08
   5.0016672e-11  -1.1103348e-01   6.1116063e+00   1.0809721e-03  -4.4864468e+08
   5.1017006e-11  -1.1058542e-01   6.1068530e+00   1.1184552e-03  -4.4722892e+08
   5.2017339e-11  -1.1013878e-01   6.1020387e+00   1.1570982e-03  -4.4581337e+08
   5.3017673e-11  -1.0969355e-01   6.0971628e+00   1.1969317e-03  -4.4439804e+08
   5.4018006e-11  -1.0924974e-01   6.0922250e+00   1.2379867e-03  -4.4298295e+08
   5.5018339e-11  -1.0880735e-01   6.0872250e+00   1.2802949e-03  -4.4156812e+08
   5.6018673e-11  -1.0836637e-01   6.0821624e+00   1.3238887e-03  -4.4015357e+08
   5.7019006e-11  -1.0792680e-01   6.0770368e+00   1.3688010e-03  -4.3873930e+08
   5.8019340e-11  -1.0748865e-01   6.0718479e+00   1.4150654e-03  -4.3732535e+08
   5.9019673e-11  -1.0705191e-01   6.0665955e+00   1.4627162e-03  -4.3591171e+08
   6.0020007e-11  -1.0661659e-01   6.0612791e+00   1.5117880e-03  -4.3449842e+08
   6.1020340e-11  -1.0618268e-01   6.0558984e+00   1.5623165e-03  -4.3308549e+08
   6.2020674e-11  -1.0575018e-01   6.0504531e+00   1.6143378e-03  -4.3167294e+08
   6.3021007e-11  -1.0531910e-01   6.0449430e+00   1.6678887e-03  -4.3026079e+08
   6.4021340e-11  -1.0488943e-01   6.0393678e+00   1.7230065e-03  -4.2884905e+08
   6.5021674e-11  -1.0446117e-01   6.0337270e+00   1.7797294e-03  -4.2743774e+08
   6.6022007e-11  -1.0403432e-01   6.0280206e+00   1.8380961e-03  -4.2602690e+08
   6.7022341e-11  -1.0360889e-01   6.0222482e+00   1.8981460e-03  -4.2461652e+08
   6.8022674e-11  -1.0318486e-01   6.0164095e+00   1.9599192e-03  -4.2320665e+08
   6.9023008e-11  -1.0276224e-01   6.0105044e+00   2.0234564e-03  -4.2179728e+08
   7.0023341e-11  -1.0234104e-01   6.0045325e+00   2.0887991e-03  -4.2038846e+08
   7.1023675e-11  -1.0192124e-01   5.9984936e+00   2.1559892e-03  -4.1898019e+08
   7.2024008e-11  -1.0150285e-01   5.9923876e+00   2.2250695e-03  -4.1757250e+08
   7.3024341e-11  -1.0108587e-01   5.9862143e+00   2.2960835e-03  -4.1616541e+08
   7.4024675e-11  -1.0067030e-01   5.9799733e+00   2.3690752e-03  -4.1475894e+08
   7.5025008e-11  -1.0025613e-01   5.9736646e+00   2.4440893e-03  -4.1335311e+08
   7.6025342e-11  -9.9843370e-02   5.9672879e+00   2.5211713e-03  -4.1194796e+08
   7.7025675e-11  -9.9432014e-02   5.9608432e+00   2.6003673e-03  -4.1054349e+08
   7.8026009e-11  -9.9022063e-02   5.9543301e+00   2.6817240e-03  -4.0913973e+08
   7.9026342e-11  -9.8613515e-02   5.9477487e+00   2.7652889e-03  -4.0773671e+08
   8.0026676e-11  -9.8206371e-02   5.9410988e+00   2.8511101e-03  -4.0633446e+08
   8.1027009e-11  -9.7800629e-02   5.9343801e+00   2.9392363e-03  -4.0493298e+08
   8.2027342e-11  -9.7396288e-02   5.9275928e+00   3.0297170e-03  -4.0353231e+08
   8.3027676e-11  -9.6993348e-02   5.9207365e+00   3.1226022e-03  -4.0213247e+08
   8.4028009e-11  -9.6591808e-02   5.9138113e+00   3.2179427e-03  -4.0073350e+08
   8.5028343e-11  -9.6191667e-02   5.9068171e+00   3.3157899e-03  -3.9933540e+08
   8.6028676e-11  -9.5792924e-02   5.8997538e+00   3.4161959e-03  -3.9793821e+08
   8.7029010e-11  -9.5395578e-02   5.8926213e+00   3.5192133e-03  -3.9654195e+08
   8.8029343e-11  -9.4999628e-02   5.8854197e+00   3.6248955e-03  -3.9514665e+08
   8.9029677e-11  -9.4605074e-02   5.8781489e+00   3.7332965e-03  -3.9375234e+08
   9.0030010e-11  -9.4211913e-02   5.8708089e+00   3.8444708e-03  -3.9235904e+08
   9.1030343e-11  -9.3820146e-02   5.8633996e+00   3.9584737e-03  -3.9096677e+08
   9.2030677e-11  -9.3429771e-02   5.8559212e+00   4.0753610e-03  -3.8957557e+08
   9.3031010e-11  -9.3040787e-02   5.8483735e+00   4.1951892e-03  -3.8818546e+08
   9.4031344e-11  -9.2653193e-02   5.8407568e+00   4.3180154e-03  -3.8679647e+08
   9.5031677e-11  -9.2266988e-02   5.8330709e+00   4.4438972e-03  -3.8540862e+08
   9.6032011e-11  -9.1882171e-02   5.8253160e+00   4.5728928e-03  -3.8402195e+08
   9.7032344e-11  -9.1498740e-02   5.8174922e+00   4.7050611e-03  -3.8263648e+08
   9.8032678e-11  -9.1116694e-02   5.8095995e+00   4.8404615e-03  -3.8125224e+08
   9.9033011e-11  -9.0736032e-02   5.8016380e+00   4.9791539e-03  -3.7986926e+08
   1.0003334e-10  -9.0356753e-02   5.7936079e+00   5.1211988e-03  -3.7848756e+08
   1.0103368e-10  -8.9978855e-02   5.7855093e+00   5.2666573e-03  -3.7710718e+08
   1.0203401e-10  -8.9602338e-02   5.7773423e+00   5.4155910e-03  -3.7572814e+08
   1.0303434e-10  -8.9227199e-02   5.7691070e+00   5.5680619e-03  -3.7435047e+08
   1.0403468e-10  -8.8853437e-02   5.7608038e+00   5.7241327e-03  -3.7297421e+08
   1.0503501e-10  -8.8481051e-02   5.7524326e+00   5.8838664e-03  -3.7159938e+08
   1.0603535e-10  -8.8110040e-02   5.7439938e+00   6.0473267e-03  -3.7022600e+08
   1.0703568e-10  -8.7740402e-02   5.7354875e+00   6.2145775e-03  -3.6885412e+08
   1.0803601e-10  -8.7372135e-02   5.7269140e+00   6.3856834e-03  -3.6748376e+08
   1.0903635e-10  -8.7005239e-02   5.7182734e+00   6.5607094e-03  -3.6611495e+08
   1.1003668e-10  -8.6639710e-02   5.7095661e+00   6.7397208e-03  -3.6474773e+08
   1.1103701e-10  -8.6275549e-02   5.7007923e+00   6.9227834e-03  -3.6338211e+08
   1.1203735e-10  -8.5912752e-02   5.6919523e+00   7.1099634e-03  -3.6201813e+08
   1.1303768e-10  -8.5551319e-02   5.6830463e+00   7.3013273e-03  -3.6065582e+08
   1.1403801e-10  -8.5191248e-02   5.6740747e+00   7.4969422e-03  -3.5929522e+08
   1.1503835e-10  -8.4832537e-02   5.6650377e+00   7.6968752e-03  -3.5793635e+08
   1.1603868e-10  -8.4475184e-02   5.6559358e+00   7.9011941e-03  -3.5657924e+08
   1.1703901e-10  -8.4119188e-02   5.6467692e+00   8.1099667e-03  -3.5522393e+08
   1.1803935e-10  -8.3764547e-02   5.6375382e+00   8.3232614e-03  -3.5387044e+08
   1.1903968e-10  -8.3411258e-02   5.6282434e+00   8.5411466e-03  -3.5251881e+08
   1.2004001e-10  -8.3059320e-02   5.6188849e+00   8.7636911e-03  -3.5116907e+08
   1.2104035e-10  -8.2708732e-02   5.6094633e+00   8.9909640e-03  -3.4982124e+08
   1.2204068e-10  -8.2359491e-02   5.5999790e+00   9.2230346e-03  -3.4847536e+08
   1.2304101e-10  -8.2011595e-02   5.5904322e+00   9.4599722e-03  -3.4713147e+08
   1.2404135e-10  -8.1665042e-02   5.5808236e+00   9.7018467e-03  -3.4578958e+08
   1.2504168e-10  -8.1319830e-02   5.5711534e+00   9.9487278e-03  -3.4444974e+08
   1.2604201e-10  -8.0975958e-02   5.5614222e+00   1.0200686e-02  -3.4311197e+08
   1.2704235e-10  -8.0633422e-02   5.5516304e+00   1.0457790e-02  -3.4177631e+08
   1.2804268e-10  -8.0292222e-02   5.5417786e+00   1.0720111e-02  -3.4044278e+08
   1.2904301e-10  -7.9952354e-02   5.5318671e+00   1.0987720e-02  -3.3911142e+08
   1.3004335e-10  -7.9613817e-02   5.5218965e+00   1.1260687e-02  -3.3778226e+08
   1.3104368e-10  -7.9276608e-02   5.5118673e+00   1.1539081e-02  -3.3645533e+08
   1.3204401e-10  -7.8940725e-02   5.5017800e+00   1.1822974e-02  -3.3513066e+08
   1.3304435e-10  -7.8606166e-02   5.4916352e+00   1.2112437e-02  -3.3380829e+08
   1.3404468e-10  -7.8272929e-02   5.4814333e+00   1.2407538e-02  -3.3248823e+08
   1.3504502e-10  -7.7941011e-02   5.4711751e+00   1.2708350e-02  -3.3117053e+08
   1.3604535e-10  -7.7610409e-02   5.4608609e+00   1.3014942e-02  -3.2985521e+08
   1.3704568e-10  -7.7281122e-02   5.4504914e+00   1.3327385e-02  -3.2854231e+08
   1.3804602e-10  -7.6953147e-02   5.4400672e+00   1.3645748e-02  -3.2723186e+08
   1.3904635e-10  -7.6626482e-02   5.4295888e+00   1.3970102e-02  -3.2592388e+08
   1.4004668e-10  -7.6301123e-02   5.4190570e+00   1.4300517e-02  -3.2461841e+08
   1.4104702e-10  -7.5977069e-02   5.4084722e+00   1.4637063e-02  -3.2331547e+08
   1.4204735e-10  -7.5654317e-02   5.3978351e+00   1.4979808e-02  -3.2201510e+08
   1.4304768e-10  -7.5332864e-02   5.3871464e+00   1.5328823e-02  -3.2071734e+08
   1.4404802e-10  -7.5012708e-02   5.3764066e+00   1.5684176e-02  -3.1942219e+08
   1.4504835e-10  -7.4693847e-02   5.3656165e+00   1.6045936e-02  -3.1812971e+08
   1.4604868e-10  -7.4376276e-02   5.3547767e+00   1.6414172e-02  -3.1683991e+08
   1.4704902e-10  -7.4059995e-02   5.3438878e+00   1.6788952e-02  -3.1555283e+08
   1.4804935e-10  -7.3744999e-02   5.3329506e+00   1.7170344e-02  -3.1426849e+08
   1.4904968e-10  -7.3431286e-02   5.3219658e+00   1.7558415e-02  -3.1298693e+08
   1.5005002e-10  -7.3118854e-02   5.3109339e+00   1.7953233e-02  -3.1170817e+08
   1.5105035e-10  -7.2807700e-02   5.2998557e+00   1.8354865e-02  -3.1043224e+08
   1.5205068e-10  -7.2497820e-02   5.2887320e+00   1.8763376e-02  -3.0915917e+08
   1.5305102e-10  -7.2189213e-02   5.2775634e+00   1.9178833e-02  -3.0788900e+08
   1.5405135e-10  -7.1881874e-02   5.2663506e+00   1.9601302e-02  -3.0662174e+08
   1.5505168e-10  -7.1575801e-02   5.2550945e+00   2.0030846e-02  -3.0535742e+08
   1.5605202e-10  -7.1270992e-02   5.2437956e+00   2.0467531e-02  -3.0409608e+08
   1.5705235e-10  -7.0967442e-02   5.2324548e+00   2.0911421e-02  -3.0283773e+08
   1.5805268e-10  -7.0665150e-02   5.2210728e+00   2.1362579e-02  -3.0158242e+08
   1.5905302e-10  -7.0364111e-02   5.2096503e+00   2.1821068e-02  -3.0033015e+08
   1.6005335e-10  -7.0064324e-02   5.1981881e+00   2.2286950e-02  -2.9908097e+08
   1.6105368e-10  -6.9765785e-02   5.1866870e+00   2.2760287e-02  -2.9783490e+08
   1.6205402e-10  -6.9468490e-02   5.1751476e+00   2.3241139e-02  -2.9659195e+08
   1.6305435e-10  -6.9172437e-02   5.1635709e+00   2.3729568e-02  -2.9535217e+08
   1.6405468e-10  -6.8877623e-02   5.1519576e+00   2.4225633e-02  -2.9411557e+08
   1.6505502e-10  -6.8584043e-02   5.1403084e+00   2.4729392e-02  -2.9288218e+08
   1.6605535e-10  -6.8291696e-02   5.1286241e+00   2.5240905e-02  -2.9165202e+08
   1.6705569e-10  -6.8000577e-02   5.1169055e+00   2.5760228e-02  -2.9042512e+08
   1.6805602e-10  -6.7710684e-02   5.1051534e+00   2.6287419e-02  -2.8920151e+08
   1.6905635e-10  -6.7422014e-02   5.0933685e+00   2.6822533e-02  -2.8798120e+08
   1.7005669e-10  -6.7134562e-02   5.0815518e+00   2.7365626e-02  -2.8676422e+08
   1.7105702e-10  -6.6848326e-02   5.0697039e+00   2.7916752e-02  -2.8555060e+08
   1.7205735e-10  -6.6563301e-02   5.0578257e+00   2.8475965e-02  -2.8434035e+08
   1.7305769e-10  -6.6279486e-02   5.0459180e+00   2.9043318e-02  -2.8313350e+08
   1.7405802e-10  -6.5996876e-02   5.0339815e+00   2.9618862e-02  -2.8193008e+08
   1.7505835e-10  -6.5715468e-02   5.0220171e+00   3.0202648e-02  -2.8073010e+08
   1.7605869e-10  -6.5435259e-02   5.0100256e+00   3.0794728e-02  -2.7953358e+08
   1.7705902e-10  -6.5156244e-02   4.9980078e+00   3.1395150e-02  -2.7834055e+08
   1.7805935e-10  -6.4878421e-02   4.9859644e+00   3.2003962e-02  -2.7715103e+08
   1.7905969e-10  -6.4601787e-02   4.9738963e+00   3.2621212e-02  -2.7596504e+08
   1.8006002e-10  -6.4326336e-02   4.9618044e+00   3.3246946e-02  -2.7478259e+08
   1.8106035e-10  -6.4052067e-02   4.9496894e+00   3.3881210e-02  -2.7360371e+08
   1.8206069e-10  -6.3778974e-02   4.9375520e+00   3.4524048e-02  -2.7242842e+08
   1.8306102e-10  -6.3507056e-02   4.9253932e+00   3.5175505e-02  -2.7125674e+08
   1.8406135e-10  -6.3236307e-02   4.9132137e+00   3.5835622e-02  -2.7008868e+08
   1.8506169e-10  -6.2966726e-02   4.9010144e+00   3.6504440e-02  -2.6892427e+08
   1.8606202e-10  -6.2698307e-02   4.8887960e+00   3.7182002e-02  -2.6776351e+08
   1.8706235e-10  -6.2431047e-02   4.8765593e+00   3.7868345e-02  -2.6660644e+08
   1.8806269e-10  -6.2164942e-02   4.8643051e+00   3.8563509e-02  -2.6545306e+08
   1.8906302e-10  -6.1899989e-02   4.8520343e+00   3.9267530e-02  -2.6430339e+08
   1.9006335e-10  -6.1636185e-02   4.8397477e+00   3.9980446e-02  -2.6315745e+08
   1.9106369e-10  -6.1373525e-02   4.8274459e+00   4.0702291e-02  -2.6201526e+08
   1.9206402e-10  -6.1112005e-02   4.8151299e+00   4.1433099e-02  -2.6087683e+08
   1.9306435e-10  -6.0851622e-02   4.8028004e+00   4.2172904e-02  -2.5974217e+08
   1.9406469e-10  -6.0592372e-02   4.7904582e+00   4.2921738e-02  -2.5861130e+08
   1.9506502e-10  -6.0334251e-02   4.7781040e+00   4.3679630e-02  -2.5748424e+08
   1.9606536e-10  -6.0077256e-02   4.7657388e+00   4.4446612e-02  -2.5636100e+08
   1.9706569e-10  -5.9821382e-02   4.7533632e+00   4.5222712e-02  -2.5524158e+08
   1.9806602e-10  -5.9566626e-02   4.7409780e+00   4.6007956e-02  -2.5412602e+08
   1.9906636e-10  -5.9312983e-02   4.7285839e+00   4.6802372e-02  -2.5301431e+08
   2.0006669e-10  -5.9060451e-02   4.7161819e+00   4.7605985e-02  -2.5190647e+08
   2.0106702e-10  -5.8809025e-02   4.7037725e+00   4.8418818e-02  -2.5080251e+08
   2.0206736e-10  -5.8558701e-02   4.6913566e+00   4.9240895e-02  -2.4970245e+08
   2.0306769e-10  -5.8309476e-02   4.6789350e+00   5.0072237e-02  -2.4860629e+08
   2.0406802e-10  -5.8061345e-02   4.6665083e+00   5.0912865e-02  -2.4751404e+08
   2.0506836e-10  -5.7814304e-02   4.6540774e+00   5.1762799e-02  -2.4642572e+08
   2.0606869e-10  -5.7568350e-02   4.6416429e+00   5.2622056e-02  -2.4534134e+08
   2.0706902e-10  -5.7323479e-02   4.6292056e+00   5.3490654e-02  -2.4426090e+08
   2.0806936e-10  -5.7079686e-02   4.6167663e+00   5.4368609e-02  -2.4318441e+08
   2.0906969e-10  -5.6836968e-02   4.6043256e+00   5.5255935e-02  -2.4211189e+08
   2.1007002e-10  -5.6595321e-02   4.5918842e+00   5.6152646e-02  -2.4104333e+08
   2.1107036e-10  -5.6354741e-02   4.5794430e+00   5.7058755e-02  -2.3997876e+08
   2.1207069e-10  -5.6115223e-02   4.5670026e+00   5.7974272e-02  -2.3891817e+08
   2.1307102e-10  -5.5876764e-02   4.5545636e+00   5.8899209e-02  -2.3786157e+08
   2.1407136e-10  -5.5639360e-02   4.5421269e+00   5.9833573e-02  -2.3680897e+08
   2.1507169e-10  -5.5403007e-02   4.5296931e+00   6.0777373e-02  -2.3576038e+08
   2.1607202e-10  -5.5167701e-02   4.5172628e+00   6.1730615e-02  -2.3471580e+08
   2.1707236e-10  -5.4933437e-02   4.5048367e+00   6.2693305e-02  -2.3367524e+08
   2.1807269e-10  -5.4700213e-02   4.4924156e+00   6.3665447e-02  -2.3263870e+08
   2.1907302e-10  -5.4468023e-02   4.4800001e+00   6.4647045e-02  -2.3160618e+08
   2.2007336e-10  -5.4236864e-02   4.4675909e+00   6.5638099e-02  -2.3057770e+08
   2.2107369e-10  -5.4006731e-02   4.4551885e+00   6.6638612e-02  -2.2955325e+08
   2.2207402e-10  -5.3777621e-02   4.4427937e+00   6.7648582e-02  -2.2853284e+08
   2.2307436e-10  -5.3549530e-02   4.4304071e+00   6.8668009e-02  -2.2751647e+08
   2.2407469e-10  -5.3322453e-02   4.4180292e+00   6.9696889e-02  -2.2650414e+08
   2.2507503e-10  -5.3096387e-02   4.4056609e+00   7.0735220e-02  -2.2549587e+08
   2.2607536e-10  -5.2871327e-02   4.3933026e+00   7.1782996e-02  -2.2449164e+08
   2.2707569e-10  -5.2647270e-02   4.3809550e+00   7.2840211e-02  -2.2349146e+08
   2.2807603e-10  -5.2424211e-02   4.3686186e+00   7.3906859e-02  -2.2249533e+08
   2.2907636e-10  -5.2202147e-02   4.3562942e+00   7.4982931e-02  -2.2150326e+08
   2.3007669e-10  -5.1981072e-02   4.3439822e+00   7.6068418e-02  -2.2051524e+08
   2.3107703e-10  -5.1760984e-02   4.3316833e+00   7.7163310e-02  -2.1953127e+08
   2.3207736e-10  -5.1541878e-02   4.3193980e+00   7.8267595e-02  -2.1855136e+08
   2.3307769e-10  -5.1323750e-02   4.3071269e+00   7.9381261e-02  -2.1757550e+08
   2.3407803e-10  -5.1106597e-02   4.2948705e+00   8.0504294e-02  -2.1660369e+08
   2.3507836e-10  -5.0890413e-02   4.2826295e+00   8.1636681e-02  -2.1563594e+08
   2.3607869e-10  -5.0675195e-02   4.2704043e+00   8.2778404e-02  -2.1467223e+08
   2.3707903e-10  -5.0460939e-02   4.2581955e+00   8.3929448e-02  -2.1371257e+08
   2.3807936e-10  -5.0247641e-02   4.2460037e+00   8.5089794e-02  -2.1275696e+08
   2.3907969e-10  -5.0035297e-02   4.2338293e+00   8.6259425e-02  -2.1180540e+08
   2.4008003e-10  -4.9823902e-02   4.2216729e+00   8.7438320e-02  -2.1085787e+08
   2.4108036e-10  -4.9613453e-02   4.2095350e+00   8.8626459e-02  -2.0991438e+08
   2.4208069e-10  -4.9403946e-02   4.1974160e+00   8.9823819e-02  -2.0897493e+08
   2.4308103e-10  -4.9195377e-02   4.1853166e+00   9.1030379e-02  -2.0803951e+08
   2.4408136e-10  -4.8987741e-02   4.1732371e+00   9.2246114e-02  -2.0710811e+08
   2.4508169e-10  -4.8781035e-02   4.1611780e+00   9.3471000e-02  -2.0618074e+08
   2.4608203e-10  -4.8575254e-02   4.1491399e+00   9.4705011e-02  -2.0525738e+08
   2.4708236e-10  -4.8370395e-02   4.1371231e+00   9.5948121e-02  -2.0433804e+08
   2.4808269e-10  -4.8166453e-02   4.1251282e+00   9.7200303e-02  -2.0342271e+08
   2.4908303e-10  -4.7963425e-02   4.1131555e+00   9.8461527e-02  -2.0251138e+08
   2.5008336e-10  -4.7761307e-02   4.1012056e+00   9.9731765e-02  -2.0160405e+08
   2.5108369e-10  -4.7560094e-02   4.0892788e+00   1.0101099e-01  -2.0070071e+08
   2.5208403e-10  -4.7359782e-02   4.0773756e+00   1.0229916e-01  -1.9980135e+08
   2.5308436e-10  -4.7160369e-02   4.0654964e+00   1.0359626e-01  -1.9890598e+08
   2.5408469e-10  -4.6961849e-02   4.0536416e+00   1.0490224e-01  -1.9801457e+08
   2.5508503e-10  -4.6764218e-02   4.0418117e+00   1.0621707e-01  -1.9712713e+08
   2.5608536e-10  -4.6567473e-02   4.0300069e+00   1.0754073e-01  -1.9624365e+08
   2.5708570e-10  -4.6371610e-02   4.0182278e+00   1.0887317e-01  -1.9536412e+08
   2.5808603e-10  -4.6176625e-02   4.0064746e+00   1.1021436e-01  -1.9448854e+08
   2.5908636e-10  -4.5982513e-02   3.9947478e+00   1.1156426e-01  -1.9361688e+08
   2.6008670e-10  -4.5789271e-02   3.9830477e+00   1.1292284e-01  -1.9274916e+08
   2.6108703e-10  -4.5596896e-02   3.9713747e+00   1.1429005e-01  -1.9188535e+08
   2.6208736e-10  -4.5405382e-02   3.9597291e+00   1.1566585e-01  -1.9102546e+08
   2.6308770e-10  -4.5214726e-02   3.9481114e+00   1.1705022e-01  -1.9016946e+08
   2.6408803e-10  -4.5024925e-02   3.9365217e+00   1.1844310e-01  -1.8931736e+08
   2.6508836e-10  -4.4835974e-02   3.9249605e+00   1.1984445e-01  -1.8846914e+08
   2.6608870e-10  -4.4647870e-02   3.9134280e+00   1.2125423e-01  -1.8762479e+08
   2.6708903e-10  -4.4460608e-02   3.9019247e+00   1.2267241e-01  -1.8678431e+08
   2.6808936e-10  -4.4274185e-02   3.8904507e+00   1.2409893e-01  -1.8594768e+08
   2.6908970e-10  -4.4088597e-02   3.8790065e+00   1.2553375e-01  -1.8511490e+08
   2.7009003e-10  -4.3903840e-02   3.8675922e+00   1.2697683e-01  -1.8428595e+08
   2.7109036e-10  -4.3719910e-02   3.8562082e+00   1.2842812e-01  -1.8346082e+08
   2.7209070e-10  -4.3536804e-02   3.8448548e+00   1.2988758e-01  -1.8263951e+08
   2.7309103e-10  -4.3354517e-02   3.8335323e+00   1.3135516e-01  -1.8182200e+08
   2.7409136e-10  -4.3173047e-02   3.8222409e+00   1.3283080e-01  -1.8100828e+08
   2.7509170e-10  -4.2992388e-02   3.8109808e+00   1.3431447e-01  -1.8019834e+08
   2.7609203e-10  -4.2812537e-02   3.7997524e+00   1.3580612e-01  -1.7939217e+08
   2.7709236e-10  -4.2633491e-02   3.7885558e+00   1.3730569e-01  -1.7858976e+08
   2.7809270e-10  -4.2455246e-02   3.7773914e+00   1.3881314e-01  -1.7779110e+08
   2.7909303e-10  -4.2277797e-02   3.7662593e+00   1.4032842e-01  -1.7699617e+08
   2.8009336e-10  -4.2101142e-02   3.7551598e+00   1.4185147e-01  -1.7620496e+08
   2.8109370e-10  -4.1925276e-02   3.7440931e+00   1.4338225e-01  -1.7541747e+08
   2.8209403e-10  -4.1750197e-02   3.7330595e+00   1.4492070e-01  -1.7463367e+08
   2.8309436e-10  -4.1575899e-02   3.7220591e+00   1.4646677e-01  -1.7385356e+08
   2.8409470e-10  -4.1402380e-02   3.7110921e+00   1.4802040e-01  -1.7307713e+08
   2.8509503e-10  -4.1229636e-02   3.7001588e+00   1.4958156e-01  -1.7230435e+08
   2.8609537e-10  -4.1057663e-02   3.6892593e+00   1.5115017e-01  -1.7153523e+08
   2.8709570e-10  -4.0886457e-02   3.6783939e+00   1.5272620e-01  -1.7076975e+08
   2.8809603e-10  -4.0716015e-02   3.6675626e+00   1.5430957e-01  -1.7000789e+08
   2.8909637e-10  -4.0546334e-02   3.6567658e+00   1.5590025e-01  -1.6924964e+08
   2.9009670e-10  -4.0377409e-02   3.6460035e+00   1.5749817e-01  -1.6849499e+08
   2.9109703e-10  -4.0209237e-02   3.6352759e+00   1.5910327e-01  -1.6774392e+08
   2.9209737e-10  -4.0041815e-02   3.6245831e+00   1.6071551e-01  -1.6699643e+08
   2.9309770e-10  -3.9875138e-02   3.6139254e+00   1.6233482e-01  -1.6625249e+08
   2.9409803e-10  -3.9709204e-02   3.6033029e+00   1.6396115e-01  -1.6551210e+08
   2.9509837e-10  -3.9544009e-02   3.5927157e+00   1.6559444e-01  -1.6477525e+08
   2.9609870e-10  -3.9379549e-02   3.5821639e+00   1.6723464e-01  -1.6404191e+08
   2.9709903e-10  -3.9215821e-02   3.5716478e+00   1.6888168e-01  -1.6331208e+08
   2.9809937e-10  -3.9052821e-02   3.5611673e+00   1.7053551e-01  -1.6258574e+08
   2.9909970e-10  -3.8890546e-02   3.5507227e+00   1.7219607e-01  -1.6186287e+08
   3.0010003e-10  -3.8728992e-02   3.5403140e+00   1.7386331e-01  -1.6114347e+08
   3.0110037e-10  -3.8568156e-02   3.5299414e+00   1.7553715e-01  -1.6042752e+08
   3.0210070e-10  -3.8408034e-02   3.5196049e+00   1.7721755e-01  -1.5971501e+08
   3.0310103e-10  -3.8248624e-02   3.5093047e+00   1.7890444e-01  -1.5900591e+08
   3.0410137e-10  -3.8089921e-02   3.4990409e+00   1.8059776e-01  -1.5830023e+08
   3.0510170e-10  -3.7931922e-02   3.4888135e+00   1.8229746e-01  -1.5759794e+08
   3.0610203e-10  -3.7774624e-02   3.4786227e+00   1.8400347e-01  -1.5689903e+08
   3.0710237e-10  -3.7618024e-02   3.4684685e+00   1.8571574e-01  -1.5620348e+08
   3.0810270e-10  -3.7462117e-02   3.4583510e+00   1.8743420e-01  -1.5551129e+08
   3.0910303e-10  -3.7306901e-02   3.4482702e+00   1.8915879e-01  -1.5482243e+08
   3.1010337e-10  -3.7152373e-02   3.4382263e+00   1.9088946e-01  -1.5413690e+08
   3.1110370e-10  -3.6998529e-02   3.4282194e+00   1.9262613e-01  -1.5345467e+08
   3.1210403e-10  -3.6845365e-02   3.4182493e+00   1.9436875e-01  -1.5277574e+08
   3.1310437e-10  -3.6692879e-02   3.4083164e+00   1.9611727e-01  -1.5210008e+08
   3.1410470e-10  -3.6541067e-02   3.3984205e+00   1.9787160e-01  -1.5142769e+08
   3.1510504e-10  -3.6389926e-02   3.3885617e+00   1.9963171e-01  -1.5075856e+08
   3.1610537e-10  -3.6239453e-02   3.3787401e+00   2.0139751e-01  -1.5009265e+08
   3.1710570e-10  -3.6089644e-02   3.3689557e+00   2.0316896e-01  -1.4942997e+08
   3.1810604e-10  -3.5940497e-02   3.3592085e+00   2.0494598e-01  -1.4877050e+08
   3.1910637e-10  -3.5792007e-02   3.3494987e+00   2.0672853e-01  -1.4811422e+08
   3.2010670e-10  -3.5644173e-02   3.3398261e+00   2.0851652e-01  -1.4746111e+08
   3.2110704e-10  -3.5496990e-02   3.3301909e+00   2.1030991e-01  -1.4681117e+08
   3.2210737e-10  -3.5350456e-02   3.3205930e+00   2.1210863e-01  -1.4616438e+08
   3.2310770e-10  -3.5204567e-02   3.3110325e+00   2.1391262e-01  -1.4552072e+08
   3.2410804e-10  -3.5059320e-02   3.3015094e+00   2.1572182e-01  -1.4488018e+08
   3.2510837e-10  -3.4914713e-02   3.2920237e+00   2.1753615e-01  -1.4424275e+08
   3.2610870e-10  -3.4770741e-02   3.2825753e+00   2.1935557e-01  -1.4360841e+08
   3.2710904e-10  -3.4627403e-02   3.2731644e+00   2.2118000e-01  -1.4297714e+08
   3.2810937e-10  -3.4484694e-02   3.2637909e+00   2.2300939e-01  -1.4234893e+08
   3.2910970e-10  -3.4342613e-02   3.2544548e+00   2.2484368e-01  -1.4172377e+08
   3.3011004e-10  -3.4201155e-02   3.2451562e+00   2.2668279e-01  -1.4110164e+08
   3.3111037e-10  -3.4060318e-02   3.2358949e+00   2.2852667e-01  -1.4048253e+08
   3.3211070e-10  -3.3920098e-02   3.2266709e+00   2.3037526e-01  -1.3986642e+08
   3.3311104e-10  -3.3780494e-02   3.2174844e+00   2.3222849e-01  -1.3925330e+08
   3.3411137e-10  -3.3641501e-02   3.2083352e+00   2.3408630e-01  -1.3864315e+08
   3.3511170e-10  -3.3503118e-02   3.1992233e+00   2.3594862e-01  -1.3803596e+08
   3.3611204e-10  -3.3365340e-02   3.1901487e+00   2.3781541e-01  -1.3743172e+08
   3.3711237e-10  -3.3228165e-02   3.1811115e+00   2.3968658e-01  -1.3683040e+08
   3.3811270e-10  -3.3091590e-02   3.1721114e+00   2.4156209e-01  -1.3623200e+08
   3.3911304e-10  -3.2955612e-02   3.1631486e+00   2.4344186e-01  -1.3563651e+08
   3.4011337e-10  -3.2820228e-02   3.1542230e+00   2.4532584e-01  -1.3504389e+08
   3.4111370e-10  -3.2685436e-02   3.1453345e+00   2.4721397e-01  -1.3445416e+08
   3.4211404e-10  -3.2551232e-02   3.1364831e+00   2.4910618e-01  -1.3386728e+08
   3.4311437e-10  -3.2417614e-02   3.1276688e+00   2.5100240e-01  -1.3328324e+08
   3.4411470e-10  -3.2284579e-02   3.1188915e+00   2.5290259e-01  -1.3270203e+08
   3.4511504e-10  -3.2152124e-02   3.1101511e+00   2.5480667e-01  -1.3212364e+08
   3.4611537e-10  -3.2020245e-02   3.1014477e+00   2.5671459e-01  -1.3154805e+08
   3.4711571e-10  -3.1888942e-02   3.0927812e+00   2.5862628e-01  -1.3097524e+08
   3.4811604e-10  -3.1758209e-02   3.0841515e+00   2.6054168e-01  -1.3040521e+08
   3.4911637e-10  -3.1628046e-02   3.0755586e+00   2.6246074e-01  -1.2983793e+08
   3.5011671e-10  -3.1498449e-02   3.0670024e+00   2.6438338e-01  -1.2927340e+08
   3.5111704e-10  -3.1369415e-02   3.0584828e+00   2.6630955e-01  -1.2871160e+08
   3.5211737e-10  -3.1240941e-02   3.0499998e+00   2.6823919e-01  -1.2815252e+08
   3.5311771e-10  -3.1113026e-02   3.0415534e+00   2.7017224e-01  -1.2759613e+08
   3.5411804e-10  -3.0985665e-02   3.0331434e+00   2.7210864e-01  -1.2704244e+08
   3.5511837e-10  -3.0858857e-02   3.0247698e+00   2.7404832e-01  -1.2649142e+08
   3.5611871e-10  -3.0732599e-02   3.0164325e+00   2.7599122e-01  -1.2594306e+08
   3.5711904e-10  -3.0606889e-02   3.0081315e+00   2.7793730e-01  -1.2539734e+08
   3.5811937e-10  -3.0481723e-02   2.9998666e+00   2.7988648e-01  -1.2485426e+08
   3.5911971e-10  -3.0357098e-02   2.9916379e+00   2.8183870e-01  -1.2431380e+08
   3.6012004e-10  -3.0233013e-02   2.9834452e+00   2.8379391e-01  -1.2377594e+08
   3.6112037e-10  -3.0109465e-02   2.9752884e+00   2.8575205e-01  -1.2324068e+08
   3.6212071e-10  -2.9986451e-02   2.9671675e+00   2.8771306e-01  -1.2270799e+08
   3.6312104e-10  -2.9863968e-02   2.9590824e+00   2.8967688e-01  -1.2217787e+08
   3.6412137e-10  -2.9742015e-02   2.9510330e+00   2.9164344e-01  -1.2165030e+08
   3.6512171e-10  -2.9620588e-02   2.9430192e+00   2.9361270e-01  -1.2112526e+08
   3.6612204e-10  -2.9499685e-02   2.9350410e+00   2.9558459e-01  -1.2060275e+08
   3.6712237e-10  -2.9379303e-02   2.9270982e+00   2.9755906e-01  -1.2008275e+08
   3.6812271e-10  -2.9259440e-02   2.9191908e+00   2.9953604e-01  -1.1956525e+08
   3.6912304e-10  -2.9140094e-02   2.9113187e+00   3.0151549e-01  -1.1905023e+08
   3.7012337e-10  -2.9021261e-02   2.9034817e+00   3.0349733e-01  -1.1853769e+08
   3.7112371e-10  -2.8902940e-02   2.8956798e+00   3.0548152e-01  -1.1802760e+08
   3.7212404e-10  -2.8785128e-02   2.8879130e+00   3.0746800e-01  -1.1751996e+08
   3.7312437e-10  -2.8667823e-02   2.8801810e+00   3.0945671e-01  -1.1701474e+08
   3.7412471e-10  -2.8551022e-02   2.8724838e+00   3.1144759e-01  -1.1651195e+08
   3.7512504e-10  -2.8434722e-02   2.8648214e+00   3.1344059e-01  -1.1601156e+08
   3.7612538e-10  -2.8318922e-02   2.8571935e+00   3.1543565e-01  -1.1551357e+08
   3.7712571e-10  -2.8203619e-02   2.8496002e+00   3.1743272e-01  -1.1501795e+08
   3.7812604e-10  -2.8088810e-02   2.8420413e+00   3.1943173e-01  -1.1452471e+08
   3.7912638e-10  -2.7974494e-02   2.8345167e+00   3.2143264e-01  -1.1403382e+08
   3.8012671e-10  -2.7860667e-02   2.8270263e+00   3.2343539e-01  -1.1354527e+08
   3.8112704e-10  -2.7747328e-02   2.8195701e+00   3.2543993e-01  -1.1305905e+08
   3.8212738e-10  -2.7634475e-02   2.8121478e+00   3.2744619e-01  -1.1257514e+08
   3.8312771e-10  -2.7522104e-02   2.8047594e+00   3.2945413e-01  -1.1209355e+08
   3.8412804e-10  -2.7410213e-02   2.7974048e+00   3.3146369e-01  -1.1161424e+08
   3.8512838e-10  -2.7298801e-02   2.7900840e+00   3.3347481e-01  -1.1113721e+08
   3.8612871e-10  -2.7187865e-02   2.7827966e+00   3.3548745e-01  -1.1066245e+08
   3.8712904e-10  -2.7077403e-02   2.7755428e+00   3.3750155e-01  -1.1018995e+08
   3.8812938e-10  -2.6967413e-02   2.7683223e+00   3.3951706e-01  -1.0971969e+08
   3.8912971e-10  -2.6857891e-02   2.7611351e+00   3.4153392e-01  -1.0925166e+08
   3.9013004e-10  -2.6748837e-02   2.7539811e+00   3.4355208e-01  -1.0878585e+08
   3.9113038e-10  -2.6640248e-02   2.7468600e+00   3.4557149e-01  -1.0832225e+08
   3.9213071e-10  -2.6532121e-02   2.7397719e+00   3.4759210e-01  -1.0786084e+08
   3.9313104e-10  -2.6424454e-02   2.7327166e+00   3.4961386e-01  -1.0740161e+08
   3.9413138e-10  -2.6317246e-02   2.7256940e+00   3.5163671e-01  -1.0694456e+08
   3.9513171e-10  -2.6210494e-02   2.7187040e+00   3.5366060e-01  -1.0648966e+08
   3.9613204e-10  -2.6104196e-02   2.7117464e+00   3.5568548e-01  -1.0603692e+08
   3.9713238e-10  -2.5998350e-02   2.7048213e+00   3.5771130e-01  -1.0558631e+08
   3.9813271e-10  -2.5892954e-02   2.6979283e+00   3.5973802e-01  -1.0513782e+08
   3.9913304e-10  -2.5788005e-02   2.6910675e+00   3.6176558e-01  -1.0469145e+08
   4.0013338e-10  -2.5683502e-02   2.6842387e+00   3.6379392e-01  -1.0424718e+08
   4.0113371e-10  -2.5579441e-02   2.6774418e+00   3.6582301e-01  -1.0380500e+08
   4.0213404e-10  -2.5475823e-02   2.6706766e+00   3.6785279e-01  -1.0336490e+08
   4.0313438e-10  -2.5372643e-02   2.6639432e+00   3.6988322e-01  -1.0292686e+08
   4.0413471e-10  -2.5269901e-02   2.6572413e+00   3.7191424e-01  -1.0249088e+08
   4.0513505e-10  -2.5167593e-02   2.6505708e+00   3.7394581e-01  -1.0205695e+08
   4.0613538e-10  -2.5065719e-02   2.6439316e+00   3.7597787e-01  -1.0162506e+08
   4.0713571e-10  -2.4964276e-02   2.6373236e+00   3.7801039e-01  -1.0119518e+08
   4.0813605e-10  -2.4863261e-02   2.6307467e+00   3.8004331e-01  -1.0076732e+08
   4.0913638e-10  -2.4762674e-02   2.6242007e+00   3.8207659e-01  -1.0034146e+08
   4.1013671e-10  -2.4662512e-02   2.6176856e+00   3.8411018e-01  -9.9917587e+07
   4.1113705e-10  -2.4562772e-02   2.6112012e+00   3.8614403e-01  -9.9495697e+07
   4.1213738e-10  -2.4463454e-02   2.6047474e+00   3.8817809e-01  -9.9075775e+07
   4.1313771e-10  -2.4364555e-02   2.5983240e+00   3.9021233e-01  -9.8657811e+07
   4.1413805e-10  -2.4266073e-02   2.5919310e+00   3.9224670e-01  -9.8241796e+07
   4.1513838e-10  -2.4168006e-02   2.5855683e+00   3.9428114e-01  -9.7827717e+07
   4.1613871e-10  -2.4070352e-02   2.5792357e+00   3.9631562e-01  -9.7415565e+07
   4.1713905e-10  -2.3973110e-02   2.5729330e+00   3.9835009e-01  -9.7005330e+07
   4.1813938e-10  -2.3876277e-02   2.5666603e+00   4.0038451e-01  -9.6597000e+07
   4.1913971e-10  -2.3779852e-02   2.5604173e+00   4.0241882e-01  -9.6190565e+07
   4.2014005e-10  -2.3683832e-02   2.5542039e+00   4.0445300e-01  -9.5786016e+07
   4.2114038e-10  -2.3588216e-02   2.5480201e+00   4.0648699e-01  -9.5383343e+07
   4.2214071e-10  -2.3493002e-02   2.5418656e+00   4.0852075e-01  -9.4982534e+07
   4.2314105e-10  -2.3398188e-02   2.5357404e+00   4.1055425e-01  -9.4583579e+07
   4.2414138e-10  -2.3303772e-02   2.5296444e+00   4.1258742e-01  -9.4186470e+07
   4.2514171e-10  -2.3209752e-02   2.5235774e+00   4.1462024e-01  -9.3791196e+07
   4.2614205e-10  -2.3116127e-02   2.5175393e+00   4.1665267e-01  -9.3397747e+07
   4.2714238e-10  -2.3022894e-02   2.5115300e+00   4.1868465e-01  -9.3006112e+07
   4.2814271e-10  -2.2930053e-02   2.5055493e+00   4.2071615e-01  -9.2616284e+07
   4.2914305e-10  -2.2837600e-02   2.4995972e+00   4.2274713e-01  -9.2228250e+07
   4.3014338e-10  -2.2745535e-02   2.4936735e+00   4.2477755e-01  -9.1842003e+07
   4.3114371e-10  -2.2653855e-02   2.4877782e+00   4.2680736e-01  -9.1457532e+07
   4.3214405e-10  -2.2562559e-02   2.4819110e+00   4.2883653e-01  -9.1074828e+07
   4.3314438e-10  -2.2471644e-02   2.4760719e+00   4.3086502e-01  -9.0693882e+07
   4.3414471e-10  -2.2381110e-02   2.4702607e+00   4.3289278e-01  -9.0314683e+07
   4.3514505e-10  -2.2290955e-02   2.4644773e+00   4.3491978e-01  -8.9937222e+07
   4.3614538e-10  -2.2201176e-02   2.4587217e+00   4.3694598e-01  -8.9561491e+07
   4.3714572e-10  -2.2111772e-02   2.4529936e+00   4.3897134e-01  -8.9187480e+07
   4.3814605e-10  -2.2022742e-02   2.4472929e+00   4.4099582e-01  -8.8815179e+07
   4.3914638e-10  -2.1934082e-02   2.4416197e+00   4.4301939e-01  -8.8444580e+07
   4.4014672e-10  -2.1845793e-02   2.4359736e+00   4.4504200e-01  -8.8075673e+07
   4.4114705e-10  -2.1757872e-02   2.4303546e+00   4.4706362e-01  -8.7708449e+07
   4.4214738e-10  -2.1670318e-02   2.4247626e+00   4.4908422e-01  -8.7342900e+07
   4.4314772e-10  -2.1583128e-02   2.4191975e+00   4.5110374e-01  -8.6979016e+07
   4.4414805e-10  -2.1496302e-02   2.4136591e+00   4.5312217e-01  -8.6616789e+07
   4.4514838e-10  -2.1409837e-02   2.4081473e+00   4.5513946e-01  -8.6256209e+07
   4.4614872e-10  -2.1323732e-02   2.4026621e+00   4.5715557e-01  -8.5897269e+07
   4.4714905e-10  -2.1237985e-02   2.3972032e+00   4.5917048e-01  -8.5539958e+07
   4.4814938e-10  -2.1152595e-02   2.3917706e+00   4.6118414e-01  -8.5184269e+07
   4.4914972e-10  -2.1067560e-02   2.3863641e+00   4.6319652e-01  -8.4830192e+07
   4.5015005e-10  -2.0982878e-02   2.3809836e+00   4.6520759e-01  -8.4477720e+07
   4.5115038e-10  -2.0898548e-02   2.3756291e+00   4.6721731e-01  -8.4126844e+07
   4.5215072e-10  -2.0814568e-02   2.3703003e+00   4.6922564e-01  -8.3777555e+07
   4.5315105e-10  -2.0730937e-02   2.3649973e+00   4.7123256e-01  -8.3429845e+07
   4.5415138e-10  -2.0647652e-02   2.3597197e+00   4.7323803e-01  -8.3083705e+07
   4.5515172e-10  -2.0564714e-02   2.3544677e+00   4.7524202e-01  -8.2739128e+07
   4.5615205e-10  -2.0482119e-02   2.3492409e+00   4.7724449e-01  -8.2396104e+07
   4.5715238e-10  -2.0399866e-02   2.3440393e+00   4.7924541e-01  -8.2054626e+07
   4.5815272e-10  -2.0317955e-02   2.3388629e+00   4.8124475e-01  -8.1714686e+07
   4.5915305e-10  -2.0236382e-02   2.3337114e+00   4.8324247e-01  -8.1376276e+07
   4.6015338e-10  -2.0155148e-02   2.3285847e+00   4.8523855e-01  -8.1039386e+07
   4.6115372e-10  -2.0074249e-02   2.3234829e+00   4.8723296e-01  -8.0704011e+07
   4.6215405e-10  -1.9993686e-02   2.3184056e+00   4.8922565e-01  -8.0370140e+07
   4.6315438e-10  -1.9913455e-02   2.3133528e+00   4.9121661e-01  -8.0037767e+07
   4.6415472e-10  -1.9833557e-02   2.3083245e+00   4.9320580e-01  -7.9706884e+07
   4.6515505e-10  -1.9753988e-02   2.3033204e+00   4.9519319e-01  -7.9377483e+07
   4.6615539e-10  -1.9674749e-02   2.2983405e+00   4.9717875e-01  -7.9049556e+07
   4.6715572e-10  -1.9595836e-02   2.2933847e+00   4.9916245e-01  -7.8723095e+07
   4.6815605e-10  -1.9517250e-02   2.2884527e+00   5.0114426e-01  -7.8398093e+07
   4.6915639e-10  -1.9438988e-02   2.2835447e+00   5.0312415e-01  -7.8074542e+07
   4.7015672e-10  -1.9361048e-02   2.2786603e+00   5.0510210e-01  -7.7752435e+07
   4.7115705e-10  -1.9283431e-02   2.2737996e+00   5.0707806e-01  -7.7431764e+07
   4.7215739e-10  -1.9206133e-02   2.2689623e+00   5.0905203e-01  -7.7112521e+07
   4.7315772e-10  -1.9129154e-02   2.2641484e+00   5.1102396e-01  -7.6794699e+07
   4.7415805e-10  -1.9052492e-02   2.2593578e+00   5.1299384e-01  -7.6478291e+07
   4.7515839e-10  -1.8976146e-02   2.2545903e+00   5.1496162e-01  -7.6163290e+07
   4.7615872e-10  -1.8900115e-02   2.2498459e+00   5.1692730e-01  -7.5849687e+07
   4.7715905e-10  -1.8824396e-02   2.2451244e+00   5.1889083e-01  -7.5537477e+07
   4.7815939e-10  -1.8748989e-02   2.2404258e+00   5.2085219e-01  -7.5226651e+07
   4.7915972e-10  -1.8673892e-02   2.2357499e+00   5.2281135e-01  -7.4917202e+07
   4.8016005e-10  -1.8599105e-02   2.2310966e+00   5.2476830e-01  -7.4609124e+07
   4.8116039e-10  -1.8524624e-02   2.2264657e+00   5.2672300e-01  -7.4302410e+07
   4.8216072e-10  -1.8450450e-02   2.2218573e+00   5.2867543e-01  -7.3997051e+07
   4.8316105e-10  -1.8376581e-02   2.2172712e+00   5.3062556e-01  -7.3693042e+07
   4.8416139e-10  -1.8303015e-02   2.2127072e+00   5.3257336e-01  -7.3390375e+07
   4.8516172e-10  -1.8229751e-02   2.2081653e+00   5.3451882e-01  -7.3089043e+07
   4.8616205e-10  -1.8156788e-02   2.2036453e+00   5.3646191e-01  -7.2789041e+07
   4.8716239e-10  -1.8084124e-02   2.1991472e+00   5.3840260e-01  -7.2490360e+07
   4.8816272e-10  -1.8011758e-02   2.1946709e+00   5.4034087e-01  -7.2192994e+07
   4.8916305e-10  -1.7939690e-02   2.1902162e+00   5.4227669e-01  -7.1896936e+07
   4.9016339e-10  -1.7867916e-02   2.1857830e+00   5.4421005e-01  -7.1602180e+07
   4.9116372e-10  -1.7796437e-02   2.1813713e+00   5.4614091e-01  -7.1308719e+07
   4.9216405e-10  -1.7725251e-02   2.1769809e+00   5.4806927e-01  -7.1016546e+07
   4.9316439e-10  -1.7654357e-02   2.1726117e+00   5.4999508e-01  -7.0725655e+07
   4.9416472e-10  -1.7583752e-02   2.1682637e+00   5.5191834e-01  -7.0436039e+07
   4.9516506e-10  -1.7513437e-02   2.1639366e+00   5.5383901e-01  -7.0147693e+07
   4.9616539e-10  -1.7443410e-02   2.1596305e+00   5.5575708e-01  -6.9860608e+07
   4.9716572e-10  -1.7373669e-02   2.1553452e+00   5.5767253e-01  -6.9574780e+07
   4.9816606e-10  -1.7304214e-02   2.1510805e+00   5.5958533e-01  -6.9290201e+07
   4.9916639e-10  -1.7235042e-02   2.1468365e+00   5.6149546e-01  -6.9006865e+07
   5.0016672e-10  -1.7166154e-02   2.1426130e+00   5.6340290e-01  -6.8724766e+07
   5.0116706e-10  -1.7097547e-02   2.1384099e+00   5.6530764e-01  -6.8443899e+07
   5.0216739e-10  -1.7029220e-02   2.1342271e+00   5.6720964e-01  -6.8164255e+07
   5.0316772e-10  -1.6961173e-02   2.1300645e+00   5.6910889e-01  -6.7885830e+07
   5.0416806e-10  -1.6893403e-02   2.1259220e+00   5.7100537e-01  -6.7608618e+07
   5.0516839e-10  -1.6825910e-02   2.1217995e+00   5.7289906e-01  -6.7332611e+07
   5.0616872e-10  -1.6758693e-02   2.1176969e+00   5.7478995e-01  -6.7057805e+07
   5.0716906e-10  -1.6691749e-02   2.1136141e+00   5.7667800e-01  -6.6784193e+07
   5.0816939e-10  -1.6625079e-02   2.1095510e+00   5.7856320e-01  -6.6511769e+07
   5.0916972e-10  -1.6558681e-02   2.1055075e+00   5.8044554e-01  -6.6240527e+07
   5.1017006e-10  -1.6492554e-02   2.1014836e+00   5.8232499e-01  -6.5970461e+07
   5.1117039e-10  -1.6426696e-02   2.0974790e+00   5.8420154e-01  -6.5701566e+07
   5.1217072e-10  -1.6361107e-02   2.0934938e+00   5.8607517e-01  -6.5433835e+07
   5.1317106e-10  -1.6295785e-02   2.0895278e+00   5.8794586e-01  -6.5167263e+07
   5.1417139e-10  -1.6230729e-02   2.0855809e+00   5.8981359e-01  -6.4901844e+07
   5.1517172e-10  -1.6165937e-02   2.0816530e+00   5.9167834e-01  -6.4637573e+07
   5.1617206e-10  -1.6101410e-02   2.0777441e+00   5.9354011e-01  -6.4374443e+07
   5.1717239e-10  -1.6037145e-02   2.0738540e+00   5.9539886e-01  -6.4112449e+07
   5.1817272e-10  -1.5973142e-02   2.0699827e+00   5.9725459e-01  -6.3851585e+07
   5.1917306e-10  -1.5909399e-02   2.0661300e+00   5.9910728e-01  -6.3591846e+07
   5.2017339e-10  -1.5845916e-02   2.0622958e+00   6.0095690e-01  -6.3333226e+07
   5.2117372e-10  -1.5782690e-02   2.0584802e+00   6.0280346e-01  -6.3075720e+07
   5.2217406e-10  -1.5719722e-02   2.0546829e+00   6.0464692e-01  -6.2819322e+07
   5.2317439e-10  -1.5657010e-02   2.0509039e+00   6.0648728e-01  -6.2564027e+07
   5.2417472e-10  -1.5594552e-02   2.0471431e+00   6.0832451e-01  -6.2309829e+07
   5.2517506e-10  -1.5532348e-02   2.0434004e+00   6.1015861e-01  -6.2056723e+07
   5.2617539e-10  -1.5470397e-02   2.0396756e+00   6.1198955e-01  -6.1804703e+07
   5.2717573e-10  -1.5408697e-02   2.0359688e+00   6.1381733e-01  -6.1553765e+07
   5.2817606e-10  -1.5347248e-02   2.0322799e+00   6.1564193e-01  -6.1303903e+07
   5.2917639e-10  -1.5286048e-02   2.0286086e+00   6.1746334e-01  -6.1055111e+07
   5.3017673e-10  -1.5225097e-02   2.0249551e+00   6.1928153e-01  -6.0807385e+07
   5.3117706e-10  -1.5164393e-02   2.0213190e+00   6.2109650e-01  -6.0560719e+07
   5.3217739e-10  -1.5103935e-02   2.0177005e+00   6.2290823e-01  -6.0315108e+07
   5.3317773e-10  -1.5043722e-02   2.0140993e+00   6.2471671e-01  -6.0070547e+07
   5.3417806e-10  -1.4983753e-02   2.0105154e+00   6.2652193e-01  -5.9827031e+07
   5.3517839e-10  -1.4924028e-02   2.0069488e+00   6.2832387e-01  -5.9584554e+07
   5.3617873e-10  -1.4864544e-02   2.0033992e+00   6.3012252e-01  -5.9343113e+07
   5.3717906e-10  -1.4805302e-02   1.9998667e+00   6.3191786e-01  -5.9102701e+07
   5.3817939e-10  -1.4746299e-02   1.9963512e+00   6.3370989e-01  -5.8863314e+07
   5.3917973e-10  -1.4687536e-02   1.9928525e+00   6.3549859e-01  -5.8624947e+07
   5.4018006e-10  -1.4629010e-02   1.9893706e+00   6.3728396e-01  -5.8387594e+07
   5.4118039e-10  -1.4570721e-02   1.9859053e+00   6.3906597e-01  -5.8151252e+07
   5.4218073e-10  -1.4512669e-02   1.9824567e+00   6.4084461e-01  -5.7915915e+07
   5.4318106e-10  -1.4454851e-02   1.9790246e+00   6.4261988e-01  -5.7681578e+07
   5.4418139e-10  -1.4397267e-02   1.9756090e+00   6.4439177e-01  -5.7448236e+07
   5.4518173e-10  -1.4339916e-02   1.9722097e+00   6.4616025e-01  -5.7215885e+07
   5.4618206e-10  -1.4282796e-02   1.9688267e+00   6.4792533e-01  -5.6984521e+07
   5.4718239e-10  -1.4225908e-02   1.9654598e+00   6.4968699e-01  -5.6754137e+07
   5.4818273e-10  -1.4169250e-02   1.9621091e+00   6.5144522e-01  -5.6524730e+07
   5.4918306e-10  -1.4112821e-02   1.9587745e+00   6.5320000e-01  -5.6296295e+07
   5.5018339e-10  -1.4056620e-02   1.9554557e+00   6.5495134e-01  -5.6068827e+07
   5.5118373e-10  -1.4000646e-02   1.9521529e+00   6.5669921e-01  -5.5842322e+07
   5.5218406e-10  -1.3944898e-02   1.9488658e+00   6.5844361e-01  -5.5616774e+07
   5.5318439e-10  -1.3889375e-02   1.9455944e+00   6.6018454e-01  -5.5392180e+07
   5.5418473e-10  -1.3834076e-02   1.9423387e+00   6.6192197e-01  -5.5168536e+07
   5.5518506e-10  -1.3779001e-02   1.9390985e+00   6.6365590e-01  -5.4945835e+07
   5.5618540e-10  -1.3724147e-02   1.9358737e+00   6.6538632e-01  -5.4724075e+07
   5.5718573e-10  -1.3669516e-02   1.9326644e+00   6.6711323e-01  -5.4503250e+07
   5.5818606e-10  -1.3615104e-02   1.9294704e+00   6.6883661e-01  -5.4283356e+07
   5.5918640e-10  -1.3560913e-02   1.9262916e+00   6.7055645e-01  -5.4064389e+07
   5.6018673e-10  -1.3506939e-02   1.9231280e+00   6.7227275e-01  -5.3846344e+07
   5.6118706e-10  -1.3453184e-02   1.9199794e+00   6.7398549e-01  -5.3629218e+07
   5.6218740e-10  -1.3399645e-02   1.9168459e+00   6.7569468e-01  -5.3413004e+07
   5.6318773e-10  -1.3346322e-02   1.9137273e+00   6.7740030e-01  -5.3197701e+07
   5.6418806e-10  -1.3293214e-02   1.9106235e+00   6.7910234e-01  -5.2983302e+07
   5.6518840e-10  -1.3240320e-02   1.9075345e+00   6.8080080e-01  -5.2769804e+07
   5.6618873e-10  -1.3187639e-02   1.9044603e+00   6.8249566e-01  -5.2557203e+07
   5.6718906e-10  -1.3135170e-02   1.9014006e+00   6.8418693e-01  -5.2345494e+07
   5.6818940e-10  -1.3082913e-02   1.8983555e+00   6.8587459e-01  -5.2134673e+07
   5.6918973e-10  -1.3030866e-02   1.8953249e+00   6.8755864e-01  -5.1924737e+07
   5.7019006e-10  -1.2979028e-02   1.8923087e+00   6.8923907e-01  -5.1715680e+07
   5.7119040e-10  -1.2927400e-02   1.8893068e+00   6.9091587e-01  -5.1507500e+07
   5.7219073e-10  -1.2875979e-02   1.8863192e+00   6.9258904e-01  -5.1300191e+07
   5.7319106e-10  -1.2824765e-02   1.8833457e+00   6.9425857e-01  -5.1093749e+07
   5.7419140e-10  -1.2773757e-02   1.8803864e+00   6.9592445e-01  -5.0888172e+07
   5.7519173e-10  -1.2722954e-02   1.8774412e+00   6.9758668e-01  -5.0683454e+07
   5.7619206e-10  -1.2672356e-02   1.8745099e+00   6.9924526e-01  -5.0479592e+07
   5.7719240e-10  -1.2621961e-02   1.8715925e+00   7.0090017e-01  -5.0276581e+07
   5.7819273e-10  -1.2571769e-02   1.8686889e+00   7.0255141e-01  -5.0074419e+07
   5.7919306e-10  -1.2521779e-02   1.8657991e+00   7.0419897e-01  -4.9873100e+07
   5.8019340e-10  -1.2471989e-02   1.8629230e+00   7.0584286e-01  -4.9672621e+07
   5.8119373e-10  -1.2422400e-02   1.8600605e+00   7.0748306e-01  -4.9472978e+07
   5.8219406e-10  -1.2373010e-02   1.8572115e+00   7.0911957e-01  -4.9274167e+07
   5.8319440e-10  -1.2323819e-02   1.8543761e+00   7.1075238e-01  -4.9076185e+07
   5.8419473e-10  -1.2274825e-02   1.8515541e+00   7.1238150e-01  -4.8879027e+07
   5.8519507e-10  -1.2226028e-02   1.8487454e+00   7.1400691e-01  -4.8682690e+07
   5.8619540e-10  -1.2177427e-02   1.8459499e+00   7.1562861e-01  -4.8487170e+07
   5.8719573e-10  -1.2129021e-02   1.8431677e+00   7.1724660e-01  -4.8292464e+07
   5.8819607e-10  -1.2080809e-02   1.8403987e+00   7.1886086e-01  -4.8098567e+07
   5.8919640e-10  -1.2032791e-02   1.8376427e+00   7.2047141e-01  -4.7905475e+07
   5.9019673e-10  -1.1984966e-02   1.8348997e+00   7.2207823e-01  -4.7713186e+07
   5.9119707e-10  -1.1937333e-02   1.8321697e+00   7.2368132e-01  -4.7521696e+07
   5.9219740e-10  -1.1889891e-02   1.8294526e+00   7.2528068e-01  -4.7331000e+07
   5.9319773e-10  -1.1842639e-02   1.8267483e+00   7.2687630e-01  -4.7141095e+07
   5.9419807e-10  -1.1795577e-02   1.8240567e+00   7.2846818e-01  -4.6951978e+07
   5.9519840e-10  -1.1748704e-02   1.8213778e+00   7.3005632e-01  -4.6763645e+07
   5.9619873e-10  -1.1702018e-02   1.8187115e+00   7.3164071e-01  -4.6576092e+07
   5.9719907e-10  -1.1655520e-02   1.8160578e+00   7.3322135e-01  -4.6389317e+07
   5.9819940e-10  -1.1609209e-02   1.8134166e+00   7.3479824e-01  -4.6203314e+07
   5.9919973e-10  -1.1563083e-02   1.8107878e+00   7.3637137e-01  -4.6018082e+07
   6.0020007e-10  -1.1517141e-02   1.8081714e+00   7.3794074e-01  -4.5833616e+07
   6.0120040e-10  -1.1471385e-02   1.8055673e+00   7.3950636e-01  -4.5649913e+07
   6.0220073e-10  -1.1425811e-02   1.8029754e+00   7.4106821e-01  -4.5466969e+07
   6.0320107e-10  -1.1380420e-02   1.8003957e+00   7.4262629e-01  -4.5284782e+07
   6.0420140e-10  -1.1335211e-02   1.7978281e+00   7.4418061e-01  -4.5103347e+07
   6.0520173e-10  -1.1290183e-02   1.7952726e+00   7.4573115e-01  -4.4922661e+07
   6.0620207e-10  -1.1245335e-02   1.7927291e+00   7.4727793e-01  -4.4742721e+07
   6.0720240e-10  -1.1200668e-02   1.7901975e+00   7.4882093e-01  -4.4563524e+07
   6.0820273e-10  -1.1156178e-02   1.7876778e+00   7.5036015e-01  -4.4385065e+07
   6.0920307e-10  -1.1111868e-02   1.7851699e+00   7.5189560e-01  -4.4207343e+07
   6.1020340e-10  -1.1067734e-02   1.7826737e+00   7.5342727e-01  -4.4030353e+07
   6.1120373e-10  -1.1023777e-02   1.7801893e+00   7.5495516e-01  -4.3854092e+07
   6.1220407e-10  -1.0979996e-02   1.7777164e+00   7.5647927e-01  -4.3678558e+07
   6.1320440e-10  -1.0936391e-02   1.7752552e+00   7.5799960e-01  -4.3503746e+07
   6.1420473e-10  -1.0892960e-02   1.7728055e+00   7.5951615e-01  -4.3329654e+07
   6.1520507e-10  -1.0849702e-02   1.7703672e+00   7.6102891e-01  -4.3156277e+07
   6.1620540e-10  -1.0806618e-02   1.7679404e+00   7.6253788e-01  -4.2983614e+07
   6.1720574e-10  -1.0763706e-02   1.7655249e+00   7.6404307e-01  -4.2811661e+07
   6.1820607e-10  -1.0720966e-02   1.7631207e+00   7.6554447e-01  -4.2640415e+07
   6.1920640e-10  -1.0678397e-02   1.7607277e+00   7.6704209e-01  -4.2469872e+07
   6.2020674e-10  -1.0635998e-02   1.7583459e+00   7.6853592e-01  -4.2300030e+07
   6.2120707e-10  -1.0593768e-02   1.7559752e+00   7.7002596e-01  -4.2130885e+07
   6.2220740e-10  -1.0551708e-02   1.7536155e+00   7.7151222e-01  -4.1962435e+07
   6.2320774e-10  -1.0509815e-02   1.7512669e+00   7.7299468e-01  -4.1794675e+07
   6.2420807e-10  -1.0468090e-02   1.7489292e+00   7.7447336e-01  -4.1627604e+07
   6.2520840e-10  -1.0426532e-02   1.7466025e+00   7.7594825e-01  -4.1461218e+07
   6.2620874e-10  -1.0385140e-02   1.7442865e+00   7.7741935e-01  -4.1295513e+07
   6.2720907e-10  -1.0343913e-02   1.7419814e+00   7.7888667e-01  -4.1130488e+07
   6.2820940e-10  -1.0302851e-02   1.7396869e+00   7.8035020e-01  -4.0966139e+07
   6.2920974e-10  -1.0261954e-02   1.7374032e+00   7.8180994e-01  -4.0802463e+07
   6.3021007e-10  -1.0221219e-02   1.7351301e+00   7.8326590e-01  -4.0639457e+07
   6.3121040e-10  -1.0180647e-02   1.7328675e+00   7.8471807e-01  -4.0477118e+07
   6.3221074e-10  -1.0140238e-02   1.7306155e+00   7.8616646e-01  -4.0315443e+07
   6.3321107e-10  -1.0099989e-02   1.7283739e+00   7.8761106e-01  -4.0154430e+07
   6.3421140e-10  -1.0059902e-02   1.7261428e+00   7.8905188e-01  -3.9994075e+07
   6.3521174e-10  -1.0019974e-02   1.7239220e+00   7.9048892e-01  -3.9834375e+07
   6.3621207e-10  -9.9802063e-03   1.7217115e+00   7.9192218e-01  -3.9675328e+07
   6.3721240e-10  -9.9405970e-03   1.7195112e+00   7.9335166e-01  -3.9516931e+07
   6.3821274e-10  -9.9011459e-03   1.7173212e+00   7.9477736e-01  -3.9359180e+07
   6.3921307e-10  -9.8618522e-03   1.7151413e+00   7.9619929e-01  -3.9202074e+07
   6.4021340e-10  -9.8227154e-03   1.7129716e+00   7.9761744e-01  -3.9045609e+07
   6.4121374e-10  -9.7837348e-03   1.7108118e+00   7.9903181e-01  -3.8889782e+07
   6.4221407e-10  -9.7449097e-03   1.7086621e+00   8.0044242e-01  -3.8734591e+07
   6.4321440e-10  -9.7062395e-03   1.7065223e+00   8.0184925e-01  -3.8580033e+07
   6.4421474e-10  -9.6677237e-03   1.7043925e+00   8.0325232e-01  -3.8426104e+07
   6.4521507e-10  -9.6293615e-03   1.7022725e+00   8.0465162e-01  -3.8272804e+07
   6.4621541e-10  -9.5911524e-03   1.7001622e+00   8.0604716e-01  -3.8120127e+07
   6.4721574e-10  -9.5530957e-03   1.6980618e+00   8.0743893e-01  -3.7968073e+07
   6.4821607e-10  -9.5151907e-03   1.6959710e+00   8.0882694e-01  -3.7816638e+07
   6.4921641e-10  -9.4774370e-03   1.6938899e+00   8.1021120e-01  -3.7665820e+07
   6.5021674e-10  -9.4398338e-03   1.6918184e+00   8.1159170e-01  -3.7515615e+07
   6.5121707e-10  -9.4023805e-03   1.6897565e+00   8.1296844e-01  -3.7366021e+07
   6.5221741e-10  -9.3650766e-03   1.6877041e+00   8.1434144e-01  -3.7217036e+07
   6.5321774e-10  -9.3279214e-03   1.6856611e+00   8.1571068e-01  -3.7068657e+07
   6.5421807e-10  -9.2909144e-03   1.6836275e+00   8.1707618e-01  -3.6920881e+07
   6.5521841e-10  -9.2540549e-03   1.6816034e+00   8.1843794e-01  -3.6773706e+07
   6.5621874e-10  -9.2173423e-03   1.6795885e+00   8.1979596e-01  -3.6627129e+07
   6.5721907e-10  -9.1807760e-03   1.6775829e+00   8.2115023e-01  -3.6481147e+07
   6.5821941e-10  -9.1443555e-03   1.6755866e+00   8.2250078e-01  -3.6335758e+07
   6.5921974e-10  -9.1080801e-03   1.6735994e+00   8.2384759e-01  -3.6190960e+07
   6.6022007e-10  -9.0719492e-03   1.6716214e+00   8.2519067e-01  -3.6046749e+07
   6.6122041e-10  -9.0359624e-03   1.6696525e+00   8.2653003e-01  -3.5903124e+07
   6.6222074e-10  -9.0001189e-03   1.6676926e+00   8.2786566e-01  -3.5760081e+07
   6.6322107e-10  -8.9644182e-03   1.6657417e+00   8.2919757e-01  -3.5617618e+07
   6.6422141e-10  -8.9288597e-03   1.6637998e+00   8.3052577e-01  -3.5475734e+07
   6.6522174e-10  -8.8934429e-03   1.6618668e+00   8.3185026e-01  -3.5334424e+07
   6.6622207e-10  -8.8581671e-03   1.6599426e+00   8.3317103e-01  -3.5193688e+07
   6.6722241e-10  -8.8230318e-03   1.6580273e+00   8.3448810e-01  -3.5053521e+07
   6.6822274e-10  -8.7880365e-03   1.6561208e+00   8.3580147e-01  -3.4913923e+07
   6.6922307e-10  -8.7531805e-03   1.6542230e+00   8.3711114e-01  -3.4774890e+07
   6.7022341e-10  -8.7184633e-03   1.6523339e+00   8.3841711e-01  -3.4636420e+07
   6.7122374e-10  -8.6838844e-03   1.6504534e+00   8.3971939e-01  -3.4498511e+07
   6.7222407e-10  -8.6494431e-03   1.6485816e+00   8.4101798e-01  -3.4361160e+07
   6.7322441e-10  -8.6151390e-03   1.6467183e+00   8.4231289e-01  -3.4224365e+07
   6.7422474e-10  -8.5809714e-03   1.6448635e+00   8.4360412e-01  -3.4088123e+07
   6.7522508e-10  -8.5469398e-03   1.6430172e+00   8.4489167e-01  -3.3952432e+07
   6.7622541e-10  -8.5130437e-03   1.6411794e+00   8.4617555e-01  -3.3817290e+07
   6.7722574e-10  -8.4792825e-03   1.6393499e+00   8.4745576e-01  -3.3682695e+07
   6.7822608e-10  -8.4456557e-03   1.6375289e+00   8.4873231e-01  -3.3548644e+07
   6.7922641e-10  -8.4121627e-03   1.6357161e+00   8.5000520e-01  -3.3415134e+07
   6.8022674e-10  -8.3788030e-03   1.6339116e+00   8.5127443e-01  -3.3282164e+07
   6.8122708e-10  -8.3455760e-03   1.6321153e+00   8.5254002e-01  -3.3149731e+07
   6.8222741e-10  -8.3124812e-03   1.6303272e+00   8.5380195e-01  -3.3017833e+07
   6.8322774e-10  -8.2795182e-03   1.6285473e+00   8.5506024e-01  -3.2886468e+07
   6.8422808e-10  -8.2466862e-03   1.6267755e+00   8.5631490e-01  -3.2755633e+07
   6.8522841e-10  -8.2139849e-03   1.6250117e+00   8.5756592e-01  -3.2625326e+07
   6.8622874e-10  -8.1814136e-03   1.6232560e+00   8.5881331e-01  -3.2495545e+07
   6.8722908e-10  -8.1489719e-03   1.6215083e+00   8.6005708e-01  -3.2366287e+07
   6.8822941e-10  -8.1166593e-03   1.6197685e+00   8.6129723e-01  -3.2237551e+07
   6.8922974e-10  -8.0844752e-03   1.6180366e+00   8.6253376e-01  -3.2109335e+07
   6.9023008e-10  -8.0524191e-03   1.6163126e+00   8.6376668e-01  -3.1981635e+07
   6.9123041e-10  -8.0204904e-03   1.6145965e+00   8.6499600e-01  -3.1854450e+07
   6.9223074e-10  -7.9886888e-03   1.6128881e+00   8.6622172e-01  -3.1727778e+07
   6.9323108e-10  -7.9570135e-03   1.6111875e+00   8.6744384e-01  -3.1601616e+07
   6.9423141e-10  -7.9254643e-03   1.6094946e+00   8.6866237e-01  -3.1475963e+07
   6.9523174e-10  -7.8940405e-03   1.6078094e+00   8.6987731e-01  -3.1350816e+07
   6.9623208e-10  -7.8627416e-03   1.6061319e+00   8.7108867e-01  -3.1226173e+07
   6.9723241e-10  -7.8315671e-03   1.6044619e+00   8.7229646e-01  -3.1102032e+07
   6.9823274e-10  -7.8005166e-03   1.6027995e+00   8.7350068e-01  -3.0978390e+07
   6.9923308e-10  -7.7695895e-03   1.6011447e+00   8.7470133e-01  -3.0855247e+07
   7.0023341e-10  -7.7387854e-03   1.5994973e+00   8.7589842e-01  -3.0732599e+07
   7.0123374e-10  -7.7081037e-03   1.5978574e+00   8.7709196e-01  -3.0610445e+07
   7.0223408e-10  -7.6775439e-03   1.5962249e+00   8.7828194e-01  -3.0488782e+07
   7.0323441e-10  -7.6471056e-03   1.5945998e+00   8.7946839e-01  -3.0367609e+07
   7.0423474e-10  -7.6167883e-03   1.5929821e+00   8.8065129e-01  -3.0246922e+07
   7.0523508e-10  -7.5865915e-03   1.5913717e+00   8.8183066e-01  -3.0126722e+07
   7.0623541e-10  -7.5565146e-03   1.5897685e+00   8.8300650e-01  -3.0007004e+07
   7.0723575e-10  -7.5265573e-03   1.5881726e+00   8.8417882e-01  -2.9887768e+07
   7.0823608e-10  -7.4967190e-03   1.5865839e+00   8.8534762e-01  -2.9769011e+07
   7.0923641e-10  -7.4669993e-03   1.5850023e+00   8.8651291e-01  -2.9650732e+07
   7.1023675e-10  -7.4373976e-03   1.5834279e+00   8.8767470e-01  -2.9532927e+07
   7.1123708e-10  -7.4079135e-03   1.5818606e+00   8.8883298e-01  -2.9415596e+07
   7.1223741e-10  -7.3785466e-03   1.5803004e+00   8.8998777e-01  -2.9298736e+07
   7.1323775e-10  -7.3492964e-03   1.5787472e+00   8.9113907e-01  -2.9182346e+07
   7.1423808e-10  -7.3201623e-03   1.5772010e+00   8.9228689e-01  -2.9066422e+07
   7.1523841e-10  -7.2911440e-03   1.5756618e+00   8.9343123e-01  -2.8950964e+07
   7.1623875e-10  -7.2622409e-03   1.5741295e+00   8.9457210e-01  -2.8835970e+07
   7.1723908e-10  -7.2334527e-03   1.5726041e+00   8.9570950e-01  -2.8721437e+07
   7.1823941e-10  -7.2047788e-03   1.5710855e+00   8.9684344e-01  -2.8607364e+07
   7.1923975e-10  -7.1762187e-03   1.5695738e+00   8.9797393e-01  -2.8493749e+07
   7.2024008e-10  -7.1477721e-03   1.5680689e+00   8.9910097e-01  -2.8380589e+07
   7.2124041e-10  -7.1194385e-03   1.5665707e+00   9.0022457e-01  -2.8267883e+07
   7.2224075e-10  -7.0912174e-03   1.5650793e+00   9.0134473e-01  -2.8155629e+07
   7.2324108e-10  -7.0631083e-03   1.5635945e+00   9.0246146e-01  -2.8043825e+07
   7.2424141e-10  -7.0351109e-03   1.5621165e+00   9.0357477e-01  -2.7932470e+07
   7.2524175e-10  -7.0072246e-03   1.5606450e+00   9.0468466e-01  -2.7821561e+07
   7.2624208e-10  -6.9794490e-03   1.5591802e+00   9.0579114e-01  -2.7711096e+07
   7.2724241e-10  -6.9517838e-03   1.5577219e+00   9.0689421e-01  -2.7601074e+07
   7.2824275e-10  -6.9242283e-03   1.5562702e+00   9.0799389e-01  -2.7491494e+07
   7.2924308e-10  -6.8967823e-03   1.5548250e+00   9.0909017e-01  -2.7382352e+07
   7.3024341e-10  -6.8694452e-03   1.5533862e+00   9.1018306e-01  -2.7273647e+07
   7.3124375e-10  -6.8422167e-03   1.5519539e+00   9.1127257e-01  -2.7165377e+07
   7.3224408e-10  -6.8150962e-03   1.5505280e+00   9.1235871e-01  -2.7057542e+07
   7.3324441e-10  -6.7880834e-03   1.5491085e+00   9.1344148e-01  -2.6950138e+07
   7.3424475e-10  -6.7611778e-03   1.5476953e+00   9.1452089e-01  -2.6843164e+07
   7.3524508e-10  -6.7343791e-03   1.5462885e+00   9.1559694e-01  -2.6736618e+07
   7.3624542e-10  -6.7076866e-03   1.5448879e+00   9.1666965e-01  -2.6630499e+07
   7.3724575e-10  -6.6811002e-03   1.5434936e+00   9.1773901e-01  -2.6524804e+07
   7.3824608e-10  -6.6546192e-03   1.5421055e+00   9.1880503e-01  -2.6419533e+07
   7.3924642e-10  -6.6282433e-03   1.5407236e+00   9.1986773e-01  -2.6314682e+07
   7.4024675e-10  -6.6019721e-03   1.5393479e+00   9.2092710e-01  -2.6210252e+07
   7.4124708e-10  -6.5758052e-03   1.5379783e+00   9.2198316e-01  -2.6106238e+07
   7.4224742e-10  -6.5497421e-03   1.5366149e+00   9.2303590e-01  -2.6002641e+07
   7.4324775e-10  -6.5237825e-03   1.5352575e+00   9.2408535e-01  -2.5899458e+07
   7.4424808e-10  -6.4979258e-03   1.5339061e+00   9.2513149e-01  -2.5796688e+07
   7.4524842e-10  -6.4721717e-03   1.5325608e+00   9.2617435e-01  -2.5694329e+07
   7.4624875e-10  -6.4465199e-03   1.5312215e+00   9.2721392e-01  -2.5592379e+07
   7.4724908e-10  -6.4209698e-03   1.5298881e+00   9.2825021e-01  -2.5490836e+07
   7.4824942e-10  -6.3955211e-03   1.5285607e+00   9.2928323e-01  -2.5389699e+07
   7.4924975e-10  -6.3701733e-03   1.5272392e+00   9.3031299e-01  -2.5288966e+07
   7.5025008e-10  -6.3449261e-03   1.5259235e+00   9.3133950e-01  -2.5188636e+07
   7.5125042e-10  -6.3197791e-03   1.5246137e+00   9.3236275e-01  -2.5088707e+07
   7.5225075e-10  -6.2947319e-03   1.5233097e+00   9.3338276e-01  -2.4989177e+07
   7.5325108e-10  -6.2697840e-03   1.5220115e+00   9.3439953e-01  -2.4890044e+07
   7.5425142e-10  -6.2449351e-03   1.5207191e+00   9.3541307e-01  -2.4791308e+07
   7.5525175e-10  -6.2201847e-03   1.5194324e+00   9.3642338e-01  -2.4692966e+07
   7.5625208e-10  -6.1955325e-03   1.5181515e+00   9.3743049e-01  -2.4595016e+07
   7.5725242e-10  -6.1709781e-03   1.5168762e+00   9.3843438e-01  -2.4497458e+07
   7.5825275e-10  -6.1465211e-03   1.5156066e+00   9.3943506e-01  -2.4400289e+07
   7.5925308e-10  -6.1221612e-03   1.5143426e+00   9.4043256e-01  -2.4303508e+07
   7.6025342e-10  -6.0978978e-03   1.5130842e+00   9.4142686e-01  -2.4207113e+07
   7.6125375e-10  -6.0737307e-03   1.5118313e+00   9.4241798e-01  -2.4111103e+07
   7.6225408e-10  -6.0496594e-03   1.5105841e+00   9.4340592e-01  -2.4015476e+07
   7.6325442e-10  -6.0256836e-03   1.5093423e+00   9.4439070e-01  -2.3920230e+07
   7.6425475e-10  -6.0018029e-03   1.5081060e+00   9.4537231e-01  -2.3825365e+07
   7.6525509e-10  -5.9780168e-03   1.5068753e+00   9.4635077e-01  -2.3730878e+07
   7.6625542e-10  -5.9543251e-03   1.5056499e+00   9.4732609e-01  -2.3636768e+07
   7.6725575e-10  -5.9307274e-03   1.5044300e+00   9.4829826e-01  -2.3543033e+07
   7.6825609e-10  -5.9072233e-03   1.5032155e+00   9.4926729e-01  -2.3449673e+07
   7.6925642e-10  -5.8838123e-03   1.5020063e+00   9.5023320e-01  -2.3356684e+07
   7.7025675e-10  -5.8604942e-03   1.5008025e+00   9.5119599e-01  -2.3264067e+07
   7.7125709e-10  -5.8372685e-03   1.4996039e+00   9.5215567e-01  -2.3171818e+07
   7.7225742e-10  -5.8141350e-03   1.4984107e+00   9.5311224e-01  -2.3079938e+07
   7.7325775e-10  -5.7910932e-03   1.4972228e+00   9.5406572e-01  -2.2988423e+07
   7.7425809e-10  -5.7681427e-03   1.4960401e+00   9.5501610e-01  -2.2897274e+07
   7.7525842e-10  -5.7452832e-03   1.4948626e+00   9.5596339e-01  -2.2806487e+07
   7.7625875e-10  -5.7225144e-03   1.4936903e+00   9.5690761e-01  -2.2716063e+07
   7.7725909e-10  -5.6998358e-03   1.4925231e+00   9.5784876e-01  -2.2625999e+07
   7.7825942e-10  -5.6772472e-03   1.4913611e+00   9.5878685e-01  -2.2536294e+07
   7.7925975e-10  -5.6547481e-03   1.4902042e+00   9.5972187e-01  -2.2446946e+07
   7.8026009e-10  -5.6323382e-03   1.4890524e+00   9.6065385e-01  -2.2357954e+07
   7.8126042e-10  -5.6100172e-03   1.4879057e+00   9.6158279e-01  -2.2269317e+07
   7.8226075e-10  -5.5877846e-03   1.4867640e+00   9.6250869e-01  -2.2181032e+07
   7.8326109e-10  -5.5656402e-03   1.4856274e+00   9.6343156e-01  -2.2093100e+07
   7.8426142e-10  -5.5435836e-03   1.4844957e+00   9.6435142e-01  -2.2005517e+07
   7.8526175e-10  -5.5216144e-03   1.4833690e+00   9.6526826e-01  -2.1918283e+07
   7.8626209e-10  -5.4997323e-03   1.4822473e+00   9.6618209e-01  -2.1831397e+07
   7.8726242e-10  -5.4779369e-03   1.4811305e+00   9.6709292e-01  -2.1744857e+07
   7.8826275e-10  -5.4562279e-03   1.4800186e+00   9.6800076e-01  -2.1658661e+07
   7.8926309e-10  -5.4346050e-03   1.4789116e+00   9.6890562e-01  -2.1572808e+07
   7.9026342e-10  -5.4130678e-03   1.4778094e+00   9.6980750e-01  -2.1487297e+07
   7.9126375e-10  -5.3916160e-03   1.4767121e+00   9.7070641e-01  -2.1402127e+07
   7.9226409e-10  -5.3702492e-03   1.4756196e+00   9.7160235e-01  -2.1317295e+07
   7.9326442e-10  -5.3489671e-03   1.4745318e+00   9.7249534e-01  -2.1232801e+07
   7.9426475e-10  -5.3277693e-03   1.4734489e+00   9.7338537e-01  -2.1148643e+07
   7.9526509e-10  -5.3066556e-03   1.4723707e+00   9.7427247e-01  -2.1064820e+07
   7.9626542e-10  -5.2856255e-03   1.4712972e+00   9.7515663e-01  -2.0981331e+07
   7.9726576e-10  -5.2646788e-03   1.4702284e+00   9.7603787e-01  -2.0898174e+07
   7.9826609e-10  -5.2438151e-03   1.4691642e+00   9.7691618e-01  -2.0815348e+07
   7.9926642e-10  -5.2230341e-03   1.4681048e+00   9.7779158e-01  -2.0732851e+07
   8.0026676e-10  -5.2023355e-03   1.4670500e+00   9.7866408e-01  -2.0650682e+07
   8.0126709e-10  -5.1817189e-03   1.4659997e+00   9.7953367e-01  -2.0568840e+07
   8.0226742e-10  -5.1611840e-03   1.4649541e+00   9.8040038e-01  -2.0487324e+07
   8.0326776e-10  -5.1407304e-03   1.4639131e+00   9.8126420e-01  -2.0406132e+07
   8.0426809e-10  -5.1203580e-03   1.4628766e+00   9.8212514e-01  -2.0325262e+07
   8.0526842e-10  -5.1000663e-03   1.4618446e+00   9.8298321e-01  -2.0244715e+07
   8.0626876e-10  -5.0798550e-03   1.4608171e+00   9.8383843e-01  -2.0164487e+07
   8.0726909e-10  -5.0597237e-03   1.4597941e+00   9.8469078e-01  -2.0084579e+07
   8.0826942e-10  -5.0396723e-03   1.4587756e+00   9.8554029e-01  -2.0004988e+07
   8.0926976e-10  -5.0197003e-03   1.4577615e+00   9.8638696e-01  -1.9925714e+07
   8.1027009e-10  -4.9998075e-03   1.4567519e+00   9.8723079e-01  -1.9846754e+07
   8.1127042e-10  -4.9799935e-03   1.4557466e+00   9.8807180e-01  -1.9768109e+07
   8.1227076e-10  -4.9602580e-03   1.4547457e+00   9.8890999e-01  -1.9689776e+07
   8.1327109e-10  -4.9406007e-03   1.4537492e+00   9.8974536e-01  -1.9611755e+07
   8.1427142e-10  -4.9210213e-03   1.4527570e+00   9.9057793e-01  -1.9534043e+07
   8.1527176e-10  -4.9015195e-03   1.4517692e+00   9.9140771e-01  -1.9456641e+07
   8.1627209e-10  -4.8820949e-03   1.4507856e+00   9.9223469e-01  -1.9379546e+07
   8.1727242e-10  -4.8627473e-03   1.4498063e+00   9.9305890e-01  -1.9302757e+07
   8.1827276e-10  -4.8434764e-03   1.4488313e+00   9.9388032e-01  -1.9226273e+07
   8.1927309e-10  -4.8242819e-03   1.4478605e+00   9.9469898e-01  -1.9150094e+07
   8.2027342e-10  -4.8051634e-03   1.4468940e+00   9.9551488e-01  -1.9074217e+07
   8.2127376e-10  -4.7861206e-03   1.4459316e+00   9.9632802e-01  -1.8998641e+07
   8.2227409e-10  -4.7671533e-03   1.4449734e+00   9.9713842e-01  -1.8923366e+07
   8.2327442e-10  -4.7482612e-03   1.4440194e+00   9.9794607e-01  -1.8848389e+07
   8.2427476e-10  -4.7294439e-03   1.4430696e+00   9.9875100e-01  -1.8773711e+07
   8.2527509e-10  -4.7107011e-03   1.4421238e+00   9.9955320e-01  -1.8699329e+07
   8.2627543e-10  -4.6920327e-03   1.4411822e+00   1.0003527e+00  -1.8625242e+07
   8.2727576e-10  -4.6734381e-03   1.4402446e+00   1.0011495e+00  -1.8551450e+07
   8.2827609e-10  -4.6549173e-03   1.4393111e+00   1.0019435e+00  -1.8477950e+07
   8.2927643e-10  -4.6364698e-03   1.4383817e+00   1.0027349e+00  -1.8404743e+07
   8.3027676e-10  -4.6180954e-03   1.4374562e+00   1.0035236e+00  -1.8331826e+07
   8.3127709e-10  -4.5997938e-03   1.4365348e+00   1.0043096e+00  -1.8259199e+07
   8.3227743e-10  -4.5815648e-03   1.4356174e+00   1.0050929e+00  -1.8186860e+07
   8.3327776e-10  -4.5634079e-03   1.4347040e+00   1.0058736e+00  -1.8114808e+07
   8.3427809e-10  -4.5453230e-03   1.4337945e+00   1.0066516e+00  -1.8043042e+07
   8.3527843e-10  -4.5273097e-03   1.4328889e+00   1.0074269e+00  -1.7971562e+07
   8.3627876e-10  -4.5093678e-03   1.4319873e+00   1.0081996e+00  -1.7900364e+07
   8.3727909e-10  -4.4914969e-03   1.4310896e+00   1.0089697e+00  -1.7829450e+07
   8.3827943e-10  -4.4736969e-03   1.4301957e+00   1.0097371e+00  -1.7758817e+07
   8.3927976e-10  -4.4559674e-03   1.4293057e+00   1.0105019e+00  -1.7688464e+07
   8.4028009e-10  -4.4383081e-03   1.4284196e+00   1.0112641e+00  -1.7618391e+07
   8.4128043e-10  -4.4207187e-03   1.4275373e+00   1.0120237e+00  -1.7548596e+07
   8.4228076e-10  -4.4031991e-03   1.4266588e+00   1.0127807e+00  -1.7479077e+07
   8.4328109e-10  -4.3857488e-03   1.4257841e+00   1.0135351e+00  -1.7409835e+07
   8.4428143e-10  -4.3683677e-03   1.4249131e+00   1.0142869e+00  -1.7340867e+07
   8.4528176e-10  -4.3510554e-03   1.4240460e+00   1.0150361e+00  -1.7272173e+07
   8.4628209e-10  -4.3338118e-03   1.4231825e+00   1.0157827e+00  -1.7203752e+07
   8.4728243e-10  -4.3166364e-03   1.4223228e+00   1.0165268e+00  -1.7135602e+07
   8.4828276e-10  -4.2995290e-03   1.4214668e+00   1.0172683e+00  -1.7067722e+07
   8.4928309e-10  -4.2824895e-03   1.4206145e+00   1.0180073e+00  -1.7000112e+07
   8.5028343e-10  -4.2655174e-03   1.4197659e+00   1.0187437e+00  -1.6932769e+07
   8.5128376e-10  -4.2486125e-03   1.4189209e+00   1.0194776e+00  -1.6865694e+07
   8.5228409e-10  -4.2317747e-03   1.4180796e+00   1.0202090e+00  -1.6798886e+07
   8.5328443e-10  -4.2150035e-03   1.4172418e+00   1.0209378e+00  -1.6732342e+07
   8.5428476e-10  -4.1982987e-03   1.4164077e+00   1.0216641e+00  -1.6666062e+07
   8.5528510e-10  -4.1816602e-03   1.4155772e+00   1.0223879e+00  -1.6600045e+07
   8.5628543e-10  -4.1650875e-03   1.4147503e+00   1.0231092e+00  -1.6534289e+07
   8.5728576e-10  -4.1485805e-03   1.4139269e+00   1.0238280e+00  -1.6468795e+07
   8.5828610e-10  -4.1321388e-03   1.4131070e+00   1.0245443e+00  -1.6403560e+07
   8.5928643e-10  -4.1157623e-03   1.4122907e+00   1.0252582e+00  -1.6338584e+07
   8.6028676e-10  -4.0994507e-03   1.4114779e+00   1.0259695e+00  -1.6273866e+07
   8.6128710e-10  -4.0832037e-03   1.4106686e+00   1.0266784e+00  -1.6209404e+07
   8.6228743e-10  -4.0670210e-03   1.4098627e+00   1.0273849e+00  -1.6145198e+07
   8.6328776e-10  -4.0509024e-03   1.4090603e+00   1.0280888e+00  -1.6081247e+07
   8.6428810e-10  -4.0348477e-03   1.4082614e+00   1.0287904e+00  -1.6017549e+07
   8.6528843e-10  -4.0188565e-03   1.4074659e+00   1.0294895e+00  -1.5954104e+07
   8.6628876e-10  -4.0029287e-03   1.4066738e+00   1.0301861e+00  -1.5890910e+07
   8.6728910e-10  -3.9870640e-03   1.4058851e+00   1.0308804e+00  -1.5827967e+07
   8.6828943e-10  -3.9712622e-03   1.4050998e+00   1.0315722e+00  -1.5765273e+07
   8.6928976e-10  -3.9555229e-03   1.4043178e+00   1.0322616e+00  -1.5702828e+07
   8.7029010e-10  -3.9398460e-03   1.4035392e+00   1.0329486e+00  -1.5640630e+07
   8.7129043e-10  -3.9242311e-03   1.4027640e+00   1.0336332e+00  -1.5578679e+07
   8.7229076e-10  -3.9086781e-03   1.4019920e+00   1.0343155e+00  -1.5516974e+07
   8.7329110e-10  -3.8931867e-03   1.4012234e+00   1.0349953e+00  -1.5455513e+07
   8.7429143e-10  -3.8777567e-03   1.4004580e+00   1.0356728e+00  -1.5394296e+07
   8.7529176e-10  -3.8623878e-03   1.3996960e+00   1.0363479e+00  -1.5333321e+07
   8.7629210e-10  -3.8470798e-03   1.3989372e+00   1.0370206e+00  -1.5272588e+07
   8.7729243e-10  -3.8318324e-03   1.3981816e+00   1.0376910e+00  -1.5212096e+07
   8.7829276e-10  -3.8166454e-03   1.3974293e+00   1.0383590e+00  -1.5151844e+07
   8.7929310e-10  -3.8015185e-03   1.3966802e+00   1.0390247e+00  -1.5091830e+07
   8.8029343e-10  -3.7864516e-03   1.3959343e+00   1.0396880e+00  -1.5032054e+07
   8.8129376e-10  -3.7714443e-03   1.3951915e+00   1.0403491e+00  -1.4972516e+07
   8.8229410e-10  -3.7564965e-03   1.3944520e+00   1.0410078e+00  -1.4913213e+07
   8.8329443e-10  -3.7416078e-03   1.3937156e+00   1.0416642e+00  -1.4854145e+07
   8.8429476e-10  -3.7267782e-03   1.3929824e+00   1.0423183e+00  -1.4795311e+07
   8.8529510e-10  -3.7120073e-03   1.3922523e+00   1.0429701e+00  -1.4736710e+07
   8.8629543e-10  -3.6972949e-03   1.3915253e+00   1.0436195e+00  -1.4678342e+07
   8.8729577e-10  -3.6826407e-03   1.3908014e+00   1.0442668e+00  -1.4620205e+07
   8.8829610e-10  -3.6680446e-03   1.3900806e+00   1.0449117e+00  -1.4562298e+07
   8.8929643e-10  -3.6535063e-03   1.3893629e+00   1.0455543e+00  -1.4504620e+07
   8.9029677e-10  -3.6390256e-03   1.3886482e+00   1.0461947e+00  -1.4447171e+07
   8.9129710e-10  -3.6246023e-03   1.3879366e+00   1.0468329e+00  -1.4389950e+07
   8.9229743e-10  -3.6102361e-03   1.3872280e+00   1.0474687e+00  -1.4332956e+07
   8.9329777e-10  -3.5959267e-03   1.3865224e+00   1.0481024e+00  -1.4276187e+07
   8.9429810e-10  -3.5816741e-03   1.3858199e+00   1.0487338e+00  -1.4219643e+07
   8.9529843e-10  -3.5674779e-03   1.3851203e+00   1.0493629e+00  -1.4163323e+07
   8.9629877e-10  -3.5533379e-03   1.3844237e+00   1.0499899e+00  -1.4107227e+07
   8.9729910e-10  -3.5392540e-03   1.3837301e+00   1.0506146e+00  -1.4051352e+07
   8.9829943e-10  -3.5252258e-03   1.3830394e+00   1.0512371e+00  -1.3995699e+07
   8.9929977e-10  -3.5112532e-03   1.3823517e+00   1.0518574e+00  -1.3940266e+07
   9.0030010e-10  -3.4973359e-03   1.3816669e+00   1.0524755e+00  -1.3885053e+07
   9.0130043e-10  -3.4834737e-03   1.3809850e+00   1.0530914e+00  -1.3830059e+07
   9.0230077e-10  -3.4696665e-03   1.3803060e+00   1.0537052e+00  -1.3775282e+07
   9.0330110e-10  -3.4559139e-03   1.3796299e+00   1.0543167e+00  -1.3720723e+07
   9.0430143e-10  -3.4422158e-03   1.3789567e+00   1.0549261e+00  -1.3666379e+07
   9.0530177e-10  -3.4285720e-03   1.3782863e+00   1.0555333e+00  -1.3612251e+07
   9.0630210e-10  -3.4149821e-03   1.3776188e+00   1.0561384e+00  -1.3558338e+07
   9.0730243e-10  -3.4014462e-03   1.3769541e+00   1.0567413e+00  -1.3504637e+07
   9.0830277e-10  -3.3879638e-03   1.3762922e+00   1.0573420e+00  -1.3451150e+07
   9.0930310e-10  -3.3745348e-03   1.3756332e+00   1.0579407e+00  -1.3397874e+07
   9.1030343e-10  -3.3611590e-03   1.3749769e+00   1.0585372e+00  -1.3344809e+07
   9.1130377e-10  -3.3478362e-03   1.3743234e+00   1.0591315e+00  -1.3291955e+07
   9.1230410e-10  -3.3345662e-03   1.3736727e+00   1.0597238e+00  -1.3239310e+07
   9.1330443e-10  -3.3213487e-03   1.3730248e+00   1.0603139e+00  -1.3186873e+07
   9.1430477e-10  -3.3081836e-03   1.3723796e+00   1.0609019e+00  -1.3134644e+07
   9.1530510e-10  -3.2950706e-03   1.3717371e+00   1.0614879e+00  -1.3082622e+07
   9.1630544e-10  -3.2820096e-03   1.3710974e+00   1.0620717e+00  -1.3030805e+07
   9.1730577e-10  -3.2690002e-03   1.3704603e+00   1.0626535e+00  -1.2979194e+07
   9.1830610e-10  -3.2560424e-03   1.3698260e+00   1.0632331e+00  -1.2927788e+07
   9.1930644e-10  -3.2431360e-03   1.3691944e+00   1.0638107e+00  -1.2876585e+07
   9.2030677e-10  -3.2302806e-03   1.3685654e+00   1.0643863e+00  -1.2825584e+07
   9.2130710e-10  -3.2174762e-03   1.3679391e+00   1.0649597e+00  -1.2774786e+07
   9.2230744e-10  -3.2047225e-03   1.3673154e+00   1.0655312e+00  -1.2724189e+07
   9.2330777e-10  -3.1920192e-03   1.3666944e+00   1.0661005e+00  -1.2673792e+07
   9.2430810e-10  -3.1793664e-03   1.3660760e+00   1.0666679e+00  -1.2623595e+07
   9.2530844e-10  -3.1667636e-03   1.3654603e+00   1.0672332e+00  -1.2573596e+07
   9.2630877e-10  -3.1542107e-03   1.3648471e+00   1.0677964e+00  -1.2523796e+07
   9.2730910e-10  -3.1417076e-03   1.3642365e+00   1.0683577e+00  -1.2474192e+07
   9.2830944e-10  -3.1292539e-03   1.3636285e+00   1.0689169e+00  -1.2424786e+07
   9.2930977e-10  -3.1168496e-03   1.3630231e+00   1.0694741e+00  -1.2375574e+07
   9.3031010e-10  -3.1044945e-03   1.3624202e+00   1.0700293e+00  -1.2326558e+07
   9.3131044e-10  -3.0921882e-03   1.3618199e+00   1.0705826e+00  -1.2277735e+07
   9.3231077e-10  -3.0799308e-03   1.3612221e+00   1.0711338e+00  -1.2229106e+07
   9.3331110e-10  -3.0677218e-03   1.3606269e+00   1.0716831e+00  -1.2180670e+07
   9.3431144e-10  -3.0555612e-03   1.3600341e+00   1.0722303e+00  -1.2132425e+07
   9.3531177e-10  -3.0434488e-03   1.3594439e+00   1.0727756e+00  -1.2084371e+07
   9.3631210e-10  -3.0313844e-03   1.3588561e+00   1.0733190e+00  -1.2036508e+07
   9.3731244e-10  -3.0193677e-03   1.3582708e+00   1.0738603e+00  -1.1988833e+07
   9.3831277e-10  -3.0073986e-03   1.3576880e+00   1.0743998e+00  -1.1941348e+07
   9.3931310e-10  -2.9954770e-03   1.3571076e+00   1.0749373e+00  -1.1894051e+07
   9.4031344e-10  -2.9836025e-03   1.3565297e+00   1.0754728e+00  -1.1846941e+07
   9.4131377e-10  -2.9717751e-03   1.3559543e+00   1.0760064e+00  -1.1800017e+07
   9.4231410e-10  -2.9599946e-03   1.3553812e+00   1.0765381e+00  -1.1753279e+07
   9.4331444e-10  -2.9482607e-03   1.3548106e+00   1.0770678e+00  -1.1706727e+07
   9.4431477e-10  -2.9365733e-03   1.3542424e+00   1.0775957e+00  -1.1660358e+07
   9.4531511e-10  -2.9249321e-03   1.3536765e+00   1.0781216e+00  -1.1614173e+07
   9.4631544e-10  -2.9133371e-03   1.3531131e+00   1.0786457e+00  -1.1568171e+07
   9.4731577e-10  -2.9017880e-03   1.3525520e+00   1.0791678e+00  -1.1522351e+07
   9.4831611e-10  -2.8902847e-03   1.3519933e+00   1.0796880e+00  -1.1476713e+07
   9.4931644e-10  -2.8788269e-03   1.3514369e+00   1.0802064e+00  -1.1431255e+07
   9.5031677e-10  -2.8674145e-03   1.3508829e+00   1.0807229e+00  -1.1385977e+07
   9.5131711e-10  -2.8560473e-03   1.3503312e+00   1.0812375e+00  -1.1340878e+07
   9.5231744e-10  -2.8447251e-03   1.3497818e+00   1.0817502e+00  -1.1295958e+07
   9.5331777e-10  -2.8334478e-03   1.3492347e+00   1.0822611e+00  -1.1251215e+07
   9.5431811e-10  -2.8222151e-03   1.3486900e+00   1.0827701e+00  -1.1206650e+07
   9.5531844e-10  -2.8110269e-03   1.3481475e+00   1.0832773e+00  -1.1162261e+07
   9.5631877e-10  -2.7998831e-03   1.3476073e+00   1.0837827e+00  -1.1118048e+07
   9.5731911e-10  -2.7887834e-03   1.3470693e+00   1.0842862e+00  -1.1074010e+07
   9.5831944e-10  -2.7777276e-03   1.3465337e+00   1.0847878e+00  -1.1030146e+07
   9.5931977e-10  -2.7667156e-03   1.3460002e+00   1.0852877e+00  -1.0986456e+07
   9.6032011e-10  -2.7557473e-03   1.3454691e+00   1.0857857e+00  -1.0942938e+07
   9.6132044e-10  -2.7448224e-03   1.3449401e+00   1.0862819e+00  -1.0899593e+07
   9.6232077e-10  -2.7339408e-03   1.3444134e+00   1.0867763e+00  -1.0856420e+07
   9.6332111e-10  -2.7231023e-03   1.3438888e+00   1.0872689e+00  -1.0813417e+07
   9.6432144e-10  -2.7123067e-03   1.3433665e+00   1.0877598e+00  -1.0770585e+07
   9.6532177e-10  -2.7015539e-03   1.3428464e+00   1.0882488e+00  -1.0727922e+07
   9.6632211e-10  -2.6908436e-03   1.3423284e+00   1.0887360e+00  -1.0685428e+07
   9.6732244e-10  -2.6801758e-03   1.3418127e+00   1.0892215e+00  -1.0643102e+07
   9.6832277e-10  -2.6695503e-03   1.3412990e+00   1.0897052e+00  -1.0600944e+07
   9.6932311e-10  -2.6589668e-03   1.3407876e+00   1.0901871e+00  -1.0558953e+07
   9.7032344e-10  -2.6484253e-03   1.3402782e+00   1.0906673e+00  -1.0517128e+07
   9.7132377e-10  -2.6379255e-03   1.3397711e+00   1.0911457e+00  -1.0475468e+07
   9.7232411e-10  -2.6274673e-03   1.3392660e+00   1.0916224e+00  -1.0433973e+07
   9.7332444e-10  -2.6170505e-03   1.3387630e+00   1.0920973e+00  -1.0392643e+07
   9.7432477e-10  -2.6066750e-03   1.3382622e+00   1.0925705e+00  -1.0351476e+07
   9.7532511e-10  -2.5963406e-03   1.3377634e+00   1.0930419e+00  -1.0310472e+07
   9.7632544e-10  -2.5860472e-03   1.3372668e+00   1.0935117e+00  -1.0269630e+07
   9.7732578e-10  -2.5757945e-03   1.3367722e+00   1.0939797e+00  -1.0228950e+07
   9.7832611e-10  -2.5655824e-03   1.3362797e+00   1.0944460e+00  -1.0188431e+07
   9.7932644e-10  -2.5554108e-03   1.3357892e+00   1.0949106e+00  -1.0148072e+07
   9.8032678e-10  -2.5452794e-03   1.3353008e+00   1.0953735e+00  -1.0107873e+07
   9.8132711e-10  -2.5351882e-03   1.3348145e+00   1.0958347e+00  -1.0067833e+07
   9.8232744e-10  -2.5251370e-03   1.3343301e+00   1.0962942e+00  -1.0027952e+07
   9.8332778e-10  -2.5151256e-03   1.3338478e+00   1.0967520e+00  -9.9882286e+06
   9.8432811e-10  -2.5051538e-03   1.3333675e+00   1.0972081e+00  -9.9486623e+06
   9.8532844e-10  -2.4952216e-03   1.3328893e+00   1.0976626e+00  -9.9092526e+06
   9.8632878e-10  -2.4853286e-03   1.3324130e+00   1.0981154e+00  -9.8699988e+06
   9.8732911e-10  -2.4754749e-03   1.3319387e+00   1.0985665e+00  -9.8309005e+06
   9.8832944e-10  -2.4656602e-03   1.3314664e+00   1.0990160e+00  -9.7919568e+06
   9.8932978e-10  -2.4558844e-03   1.3309960e+00   1.0994638e+00  -9.7531673e+06
   9.9033011e-10  -2.4461473e-03   1.3305276e+00   1.0999100e+00  -9.7145313e+06
   9.9133044e-10  -2.4364488e-03   1.3300612e+00   1.1003545e+00  -9.6760482e+06
   9.9233078e-10  -2.4267887e-03   1.3295967e+00   1.1007974e+00  -9.6377175e+06
   9.9333111e-10  -2.4171669e-03   1.3291342e+00   1.1012387e+00  -9.5995384e+06
   9.9433144e-10  -2.4075832e-03   1.3286736e+00   1.1016783e+00  -9.5615104e+06
   9.9533178e-10  -2.3980375e-03   1.3282149e+00   1.1021163e+00  -9.5236330e+06
   9.9633211e-10  -2.3885296e-03   1.3277581e+00   1.1025527e+00  -9.4859054e+06
   9.9733244e-10  -2.3790593e-03   1.3273032e+00   1.1029875e+00  -9.4483272e+06
   9.9833278e-10  -2.3696265e-03   1.3268503e+00   1.1034207e+00  -9.4108977e+06
   9.9933311e-10  -2.3602312e-03   1.3263992e+00   1.1038523e+00  -9.3736163e+06
   1.0003334e-09  -2.3508730e-03   1.3259500e+00   1.1042824e+00  -9.3364824e+06
   1.0013338e-09  -2.3415519e-03   1.3255026e+00   1.1047108e+00  -9.2994956e+06
   1.0023341e-09  -2.3322678e-03   1.3250571e+00   1.1051376e+00  -9.2626551e+06
   1.0033344e-09  -2.3230204e-03   1.3246135e+00   1.1055629e+00  -9.2259604e+06
   1.0043348e-09  -2.3138097e-03   1.3241717e+00   1.1059866e+00  -9.1894109e+06
   1.0053351e-09  -2.3046354e-03   1.3237318e+00   1.1064087e+00  -9.1530061e+06
   1.0063354e-09  -2.2954975e-03   1.3232937e+00   1.1068293e+00  -9.1167454e+06
   1.0073358e-09  -2.2863958e-03   1.3228574e+00   1.1072483e+00  -9.0806281e+06
   1.0083361e-09  -2.2773301e-03   1.3224230e+00   1.1076658e+00  -9.0446538e+06
   1.0093364e-09  -2.2683004e-03   1.3219903e+00   1.1080817e+00  -9.0088219e+06
   1.0103368e-09  -2.2593064e-03   1.3215594e+00   1.1084961e+00  -8.9731318e+06
   1.0113371e-09  -2.2503481e-03   1.3211304e+00   1.1089089e+00  -8.9375830e+06
   1.0123374e-09  -2.2414253e-03   1.3207031e+00   1.1093203e+00  -8.9021748e+06
   1.0133378e-09  -2.2325378e-03   1.3202776e+00   1.1097301e+00  -8.8669068e+06
   1.0143381e-09  -2.2236855e-03   1.3198539e+00   1.1101384e+00  -8.8317783e+06
   1.0153384e-09  -2.2148683e-03   1.3194319e+00   1.1105451e+00  -8.7967889e+06
   1.0163388e-09  -2.2060860e-03   1.3190117e+00   1.1109504e+00  -8.7619379e+06
   1.0173391e-09  -2.1973385e-03   1.3185932e+00   1.1113541e+00  -8.7272249e+06
   1.0183394e-09  -2.1886257e-03   1.3181764e+00   1.1117564e+00  -8.6926493e+06
   1.0193398e-09  -2.1799474e-03   1.3177614e+00   1.1121572e+00  -8.6582105e+06
   1.0203401e-09  -2.1713034e-03   1.3173481e+00   1.1125565e+00  -8.6239080e+06
   1.0213404e-09  -2.1626938e-03   1.3169366e+00   1.1129543e+00  -8.5897412e+06
   1.0223408e-09  -2.1541182e-03   1.3165267e+00   1.1133506e+00  -8.5557097e+06
   1.0233411e-09  -2.1455766e-03   1.3161186e+00   1.1137454e+00  -8.5218129e+06
   1.0243414e-09  -2.1370688e-03   1.3157121e+00   1.1141388e+00  -8.4880502e+06
   1.0253418e-09  -2.1285948e-03   1.3153073e+00   1.1145307e+00  -8.4544211e+06
   1.0263421e-09  -2.1201543e-03   1.3149042e+00   1.1149212e+00  -8.4209251e+06
   1.0273424e-09  -2.1117473e-03   1.3145028e+00   1.1153102e+00  -8.3875617e+06
   1.0283428e-09  -2.1033735e-03   1.3141030e+00   1.1156978e+00  -8.3543304e+06
   1.0293431e-09  -2.0950330e-03   1.3137049e+00   1.1160839e+00  -8.3212305e+06
   1.0303434e-09  -2.0867255e-03   1.3133085e+00   1.1164686e+00  -8.2882617e+06
   1.0313438e-09  -2.0784509e-03   1.3129136e+00   1.1168519e+00  -8.2554233e+06
   1.0323441e-09  -2.0702091e-03   1.3125205e+00   1.1172337e+00  -8.2227149e+06
   1.0333444e-09  -2.0619999e-03   1.3121289e+00   1.1176141e+00  -8.1901360e+06
   1.0343448e-09  -2.0538233e-03   1.3117390e+00   1.1179931e+00  -8.1576860e+06
   1.0353451e-09  -2.0456791e-03   1.3113507e+00   1.1183707e+00  -8.1253644e+06
   1.0363454e-09  -2.0375671e-03   1.3109640e+00   1.1187469e+00  -8.0931708e+06
   1.0373458e-09  -2.0294873e-03   1.3105789e+00   1.1191216e+00  -8.0611045e+06
   1.0383461e-09  -2.0214395e-03   1.3101954e+00   1.1194950e+00  -8.0291652e+06
   1.0393464e-09  -2.0134236e-03   1.3098135e+00   1.1198670e+00  -7.9973523e+06
   1.0403468e-09  -2.0054394e-03   1.3094331e+00   1.1202376e+00  -7.9656653e+06
   1.0413471e-09  -1.9974869e-03   1.3090544e+00   1.1206068e+00  -7.9341037e+06
   1.0423474e-09  -1.9895659e-03   1.3086772e+00   1.1209746e+00  -7.9026670e+06
   1.0433478e-09  -1.9816762e-03   1.3083015e+00   1.1213411e+00  -7.8713547e+06
   1.0443481e-09  -1.9738179e-03   1.3079274e+00   1.1217062e+00  -7.8401664e+06
   1.0453484e-09  -1.9659906e-03   1.3075549e+00   1.1220699e+00  -7.8091015e+06
   1.0463488e-09  -1.9581944e-03   1.3071839e+00   1.1224323e+00  -7.7781595e+06
   1.0473491e-09  -1.9504291e-03   1.3068145e+00   1.1227933e+00  -7.7473400e+06
   1.0483494e-09  -1.9426945e-03   1.3064465e+00   1.1231529e+00  -7.7166425e+06
   1.0493498e-09  -1.9349906e-03   1.3060801e+00   1.1235113e+00  -7.6860665e+06
   1.0503501e-09  -1.9273172e-03   1.3057152e+00   1.1238682e+00  -7.6556115e+06
   1.0513505e-09  -1.9196743e-03   1.3053518e+00   1.1242239e+00  -7.6252771e+06
   1.0523508e-09  -1.9120616e-03   1.3049899e+00   1.1245782e+00  -7.5950627e+06
   1.0533511e-09  -1.9044790e-03   1.3046295e+00   1.1249312e+00  -7.5649679e+06
   1.0543515e-09  -1.8969265e-03   1.3042706e+00   1.1252828e+00  -7.5349922e+06
   1.0553518e-09  -1.8894040e-03   1.3039132e+00   1.1256332e+00  -7.5051352e+06
   1.0563521e-09  -1.8819112e-03   1.3035573e+00   1.1259822e+00  -7.4753963e+06
   1.0573525e-09  -1.8744482e-03   1.3032028e+00   1.1263299e+00  -7.4457751e+06
   1.0583528e-09  -1.8670147e-03   1.3028498e+00   1.1266764e+00  -7.4162712e+06
   1.0593531e-09  -1.8596106e-03   1.3024982e+00   1.1270215e+00  -7.3868840e+06
   1.0603535e-09  -1.8522359e-03   1.3021481e+00   1.1273653e+00  -7.3576132e+06
   1.0613538e-09  -1.8448905e-03   1.3017994e+00   1.1277078e+00  -7.3284582e+06
   1.0623541e-09  -1.8375741e-03   1.3014522e+00   1.1280491e+00  -7.2994186e+06
   1.0633545e-09  -1.8302867e-03   1.3011064e+00   1.1283891e+00  -7.2704940e+06
   1.0643548e-09  -1.8230282e-03   1.3007621e+00   1.1287278e+00  -7.2416838e+06
   1.0653551e-09  -1.8157985e-03   1.3004191e+00   1.1290652e+00  -7.2129877e+06
   1.0663555e-09  -1.8085974e-03   1.3000776e+00   1.1294014e+00  -7.1844052e+06
   1.0673558e-09  -1.8014248e-03   1.2997375e+00   1.1297363e+00  -7.1559358e+06
   1.0683561e-09  -1.7942807e-03   1.2993988e+00   1.1300699e+00  -7.1275791e+06
   1.0693565e-09  -1.7871649e-03   1.2990614e+00   1.1304023e+00  -7.0993346e+06
   1.0703568e-09  -1.7800773e-03   1.2987255e+00   1.1307334e+00  -7.0712019e+06
   1.0713571e-09  -1.7730177e-03   1.2983909e+00   1.1310633e+00  -7.0431806e+06
   1.0723575e-09  -1.7659862e-03   1.2980578e+00   1.1313920e+00  -7.0152701e+06
   1.0733578e-09  -1.7589825e-03   1.2977260e+00   1.1317194e+00  -6.9874702e+06
   1.0743581e-09  -1.7520065e-03   1.2973955e+00   1.1320456e+00  -6.9597803e+06
   1.0753585e-09  -1.7450582e-03   1.2970665e+00   1.1323705e+00  -6.9322000e+06
   1.0763588e-09  -1.7381375e-03   1.2967388e+00   1.1326942e+00  -6.9047289e+06
   1.0773591e-09  -1.7312441e-03   1.2964124e+00   1.1330168e+00  -6.8773665e+06
   1.0783595e-09  -1.7243781e-03   1.2960874e+00   1.1333381e+00  -6.8501124e+06
   1.0793598e-09  -1.7175393e-03   1.2957637e+00   1.1336581e+00  -6.8229662e+06
   1.0803601e-09  -1.7107276e-03   1.2954413e+00   1.1339770e+00  -6.7959275e+06
   1.0813605e-09  -1.7039429e-03   1.2951203e+00   1.1342947e+00  -6.7689958e+06
   1.0823608e-09  -1.6971851e-03   1.2948006e+00   1.1346112e+00  -6.7421706e+06
   1.0833611e-09  -1.6904540e-03   1.2944822e+00   1.1349265e+00  -6.7154517e+06
   1.0843615e-09  -1.6837496e-03   1.2941651e+00   1.1352406e+00  -6.6888386e+06
   1.0853618e-09  -1.6770718e-03   1.2938493e+00   1.1355535e+00  -6.6623307e+06
   1.0863621e-09  -1.6704205e-03   1.2935349e+00   1.1358652e+00  -6.6359279e+06
   1.0873625e-09  -1.6637955e-03   1.2932217e+00   1.1361758e+00  -6.6096295e+06
   1.0883628e-09  -1.6571968e-03   1.2929098e+00   1.1364852e+00  -6.5834352e+06
   1.0893631e-09  -1.6506242e-03   1.2925991e+00   1.1367934e+00  -6.5573446e+06
   1.0903635e-09  -1.6440777e-03   1.2922898e+00   1.1371005e+00  -6.5313573e+06
   1.0913638e-09  -1.6375571e-03   1.2919817e+00   1.1374064e+00  -6.5054729e+06
   1.0923641e-09  -1.6310624e-03   1.2916749e+00   1.1377111e+00  -6.4796910e+06
   1.0933645e-09  -1.6245934e-03   1.2913694e+00   1.1380147e+00  -6.4540111e+06
   1.0943648e-09  -1.6181500e-03   1.2910651e+00   1.1383172e+00  -6.4284328e+06
   1.0953651e-09  -1.6117322e-03   1.2907621e+00   1.1386185e+00  -6.4029558e+06
   1.0963655e-09  -1.6053398e-03   1.2904603e+00   1.1389186e+00  -6.3775797e+06
   1.0973658e-09  -1.5989728e-03   1.2901597e+00   1.1392176e+00  -6.3523040e+06
   1.0983661e-09  -1.5926309e-03   1.2898604e+00   1.1395155e+00  -6.3271284e+06
   1.0993665e-09  -1.5863143e-03   1.2895623e+00   1.1398123e+00  -6.3020524e+06
   1.1003668e-09  -1.5800226e-03   1.2892654e+00   1.1401080e+00  -6.2770757e+06
   1.1013671e-09  -1.5737559e-03   1.2889698e+00   1.1404025e+00  -6.2521979e+06
   1.1023675e-09  -1.5675140e-03   1.2886753e+00   1.1406959e+00  -6.2274186e+06
   1.1033678e-09  -1.5612969e-03   1.2883821e+00   1.1409882e+00  -6.2027374e+06
   1.1043681e-09  -1.5551044e-03   1.2880901e+00   1.1412794e+00  -6.1781538e+06
   1.1053685e-09  -1.5489364e-03   1.2877993e+00   1.1415695e+00  -6.1536676e+06
   1.1063688e-09  -1.5427929e-03   1.2875096e+00   1.1418585e+00  -6.1292784e+06
   1.1073691e-09  -1.5366737e-03   1.2872212e+00   1.1421464e+00  -6.1049856e+06
   1.1083695e-09  -1.5305788e-03   1.2869339e+00   1.1424332e+00  -6.0807891e+06
   1.1093698e-09  -1.5245081e-03   1.2866478e+00   1.1427189e+00  -6.0566884e+06
   1.1103701e-09  -1.5184614e-03   1.2863629e+00   1.1430036e+00  -6.0326830e+06
   1.1113705e-09  -1.5124386e-03   1.2860792e+00   1.1432872e+00  -6.0087727e+06
   1.1123708e-09  -1.5064398e-03   1.2857966e+00   1.1435696e+00  -5.9849571e+06
   1.1133711e-09  -1.5004647e-03   1.2855152e+00   1.1438511e+00  -5.9612357e+06
   1.1143715e-09  -1.4945133e-03   1.2852349e+00   1.1441314e+00  -5.9376083e+06
   1.1153718e-09  -1.4885855e-03   1.2849558e+00   1.1444107e+00  -5.9140744e+06
   1.1163721e-09  -1.4826812e-03   1.2846778e+00   1.1446889e+00  -5.8906336e+06
   1.1173725e-09  -1.4768003e-03   1.2844009e+00   1.1449661e+00  -5.8672857e+06
   1.1183728e-09  -1.4709427e-03   1.2841252e+00   1.1452422e+00  -5.8440302e+06
   1.1193731e-09  -1.4651083e-03   1.2838506e+00   1.1455173e+00  -5.8208668e+06
   1.1203735e-09  -1.4592970e-03   1.2835772e+00   1.1457913e+00  -5.7977951e+06
   1.1213738e-09  -1.4535088e-03   1.2833049e+00   1.1460643e+00  -5.7748147e+06
   1.1223741e-09  -1.4477435e-03   1.2830336e+00   1.1463362e+00  -5.7519254e+06
   1.1233745e-09  -1.4420011e-03   1.2827635e+00   1.1466071e+00  -5.7291266e+06
   1.1243748e-09  -1.4362814e-03   1.2824945e+00   1.1468770e+00  -5.7064181e+06
   1.1253751e-09  -1.4305844e-03   1.2822266e+00   1.1471459e+00  -5.6837995e+06
   1.1263755e-09  -1.4249100e-03   1.2819598e+00   1.1474137e+00  -5.6612705e+06
   1.1273758e-09  -1.4192581e-03   1.2816941e+00   1.1476805e+00  -5.6388307e+06
   1.1283761e-09  -1.4136285e-03   1.2814295e+00   1.1479463e+00  -5.6164797e+06
   1.1293765e-09  -1.4080213e-03   1.2811659e+00   1.1482111e+00  -5.5942172e+06
   1.1303768e-09  -1.4024363e-03   1.2809035e+00   1.1484749e+00  -5.5720428e+06
   1.1313771e-09  -1.3968735e-03   1.2806421e+00   1.1487377e+00  -5.5499563e+06
   1.1323775e-09  -1.3913327e-03   1.2803817e+00   1.1489995e+00  -5.5279572e+06
   1.1333778e-09  -1.3858139e-03   1.2801225e+00   1.1492603e+00  -5.5060452e+06
   1.1343781e-09  -1.3803169e-03   1.2798643e+00   1.1495200e+00  -5.4842200e+06
   1.1353785e-09  -1.3748417e-03   1.2796071e+00   1.1497788e+00  -5.4624811e+06
   1.1363788e-09  -1.3693883e-03   1.2793510e+00   1.1500367e+00  -5.4408284e+06
   1.1373791e-09  -1.3639564e-03   1.2790960e+00   1.1502935e+00  -5.4192614e+06
   1.1383795e-09  -1.3585461e-03   1.2788420e+00   1.1505494e+00  -5.3977798e+06
   1.1393798e-09  -1.3531572e-03   1.2785890e+00   1.1508042e+00  -5.3763832e+06
   1.1403801e-09  -1.3477897e-03   1.2783371e+00   1.1510581e+00  -5.3550714e+06
   1.1413805e-09  -1.3424435e-03   1.2780862e+00   1.1513111e+00  -5.3338439e+06
   1.1423808e-09  -1.3371184e-03   1.2778363e+00   1.1515631e+00  -5.3127005e+06
   1.1433811e-09  -1.3318145e-03   1.2775874e+00   1.1518141e+00  -5.2916409e+06
   1.1443815e-09  -1.3265316e-03   1.2773396e+00   1.1520641e+00  -5.2706646e+06
   1.1453818e-09  -1.3212696e-03   1.2770927e+00   1.1523132e+00  -5.2497714e+06
   1.1463821e-09  -1.3160285e-03   1.2768469e+00   1.1525614e+00  -5.2289609e+06
   1.1473825e-09  -1.3108082e-03   1.2766021e+00   1.1528086e+00  -5.2082328e+06
   1.1483828e-09  -1.3056086e-03   1.2763583e+00   1.1530549e+00  -5.1875868e+06
   1.1493831e-09  -1.3004295e-03   1.2761155e+00   1.1533002e+00  -5.1670225e+06
   1.1503835e-09  -1.2952711e-03   1.2758736e+00   1.1535446e+00  -5.1465397e+06
   1.1513838e-09  -1.2901330e-03   1.2756328e+00   1.1537880e+00  -5.1261380e+06
   1.1523841e-09  -1.2850153e-03   1.2753929e+00   1.1540306e+00  -5.1058170e+06
   1.1533845e-09  -1.2799179e-03   1.2751540e+00   1.1542722e+00  -5.0855766e+06
   1.1543848e-09  -1.2748408e-03   1.2749161e+00   1.1545129e+00  -5.0654163e+06
   1.1553851e-09  -1.2697837e-03   1.2746792e+00   1.1547526e+00  -5.0453358e+06
   1.1563855e-09  -1.2647467e-03   1.2744432e+00   1.1549915e+00  -5.0253348e+06
   1.1573858e-09  -1.2597297e-03   1.2742082e+00   1.1552294e+00  -5.0054131e+06
   1.1583861e-09  -1.2547325e-03   1.2739741e+00   1.1554664e+00  -4.9855702e+06
   1.1593865e-09  -1.2497552e-03   1.2737410e+00   1.1557025e+00  -4.9658059e+06
   1.1603868e-09  -1.2447976e-03   1.2735089e+00   1.1559377e+00  -4.9461199e+06
   1.1613871e-09  -1.2398596e-03   1.2732777e+00   1.1561720e+00  -4.9265119e+06
   1.1623875e-09  -1.2349412e-03   1.2730474e+00   1.1564055e+00  -4.9069814e+06
   1.1633878e-09  -1.2300423e-03   1.2728181e+00   1.1566380e+00  -4.8875284e+06
   1.1643881e-09  -1.2251629e-03   1.2725897e+00   1.1568696e+00  -4.8681524e+06
   1.1653885e-09  -1.2203028e-03   1.2723622e+00   1.1571004e+00  -4.8488531e+06
   1.1663888e-09  -1.2154619e-03   1.2721357e+00   1.1573302e+00  -4.8296302e+06
   1.1673891e-09  -1.2106403e-03   1.2719101e+00   1.1575592e+00  -4.8104834e+06
   1.1683895e-09  -1.2058377e-03   1.2716854e+00   1.1577873e+00  -4.7914125e+06
   1.1693898e-09  -1.2010542e-03   1.2714616e+00   1.1580145e+00  -4.7724171e+06
   1.1703901e-09  -1.1962897e-03   1.2712388e+00   1.1582409e+00  -4.7534970e+06
   1.1713905e-09  -1.1915440e-03   1.2710168e+00   1.1584664e+00  -4.7346518e+06
   1.1723908e-09  -1.1868172e-03   1.2707957e+00   1.1586910e+00  -4.7158812e+06
   1.1733911e-09  -1.1821091e-03   1.2705756e+00   1.1589148e+00  -4.6971849e+06
   1.1743915e-09  -1.1774197e-03   1.2703563e+00   1.1591377e+00  -4.6785627e+06
   1.1753918e-09  -1.1727488e-03   1.2701380e+00   1.1593598e+00  -4.6600142e+06
   1.1763921e-09  -1.1680965e-03   1.2699205e+00   1.1595810e+00  -4.6415392e+06
   1.1773925e-09  -1.1634626e-03   1.2697039e+00   1.1598014e+00  -4.6231374e+06
   1.1783928e-09  -1.1588471e-03   1.2694882e+00   1.1600209e+00  -4.6048084e+06
   1.1793931e-09  -1.1542499e-03   1.2692734e+00   1.1602396e+00  -4.5865521e+06
   1.1803935e-09  -1.1496709e-03   1.2690594e+00   1.1604574e+00  -4.5683680e+06
   1.1813938e-09  -1.1451101e-03   1.2688463e+00   1.1606744e+00  -4.5502560e+06
   1.1823941e-09  -1.1405674e-03   1.2686341e+00   1.1608906e+00  -4.5322157e+06
   1.1833945e-09  -1.1360426e-03   1.2684228e+00   1.1611059e+00  -4.5142468e+06
   1.1843948e-09  -1.1315358e-03   1.2682123e+00   1.1613204e+00  -4.4963491e+06
   1.1853951e-09  -1.1270469e-03   1.2680026e+00   1.1615341e+00  -4.4785224e+06
   1.1863955e-09  -1.1225758e-03   1.2677938e+00   1.1617470e+00  -4.4607662e+06
   1.1873958e-09  -1.1181224e-03   1.2675859e+00   1.1619590e+00  -4.4430803e+06
   1.1883961e-09  -1.1136866e-03   1.2673788e+00   1.1621703e+00  -4.4254645e+06
   1.1893965e-09  -1.1092685e-03   1.2671726e+00   1.1623807e+00  -4.4079184e+06
   1.1903968e-09  -1.1048678e-03   1.2669672e+00   1.1625903e+00  -4.3904419e+06
   1.1913971e-09  -1.1004846e-03   1.2667626e+00   1.1627991e+00  -4.3730346e+06
   1.1923975e-09  -1.0961188e-03   1.2665588e+00   1.1630071e+00  -4.3556962e+06
   1.1933978e-09  -1.0917703e-03   1.2663559e+00   1.1632144e+00  -4.3384265e+06
   1.1943981e-09  -1.0874391e-03   1.2661538e+00   1.1634208e+00  -4.3212252e+06
   1.1953985e-09  -1.0831250e-03   1.2659525e+00   1.1636264e+00  -4.3040920e+06
   1.1963988e-09  -1.0788280e-03   1.2657521e+00   1.1638312e+00  -4.2870267e+06
   1.1973991e-09  -1.0745480e-03   1.2655525e+00   1.1640353e+00  -4.2700290e+06
   1.1983995e-09  -1.0702851e-03   1.2653536e+00   1.1642385e+00  -4.2530986e+06
   1.1993998e-09  -1.0660390e-03   1.2651556e+00   1.1644410e+00  -4.2362353e+06
   1.2004001e-09  -1.0618097e-03   1.2649584e+00   1.1646427e+00  -4.2194388e+06
   1.2014005e-09  -1.0575973e-03   1.2647620e+00   1.1648437e+00  -4.2027088e+06
   1.2024008e-09  -1.0534015e-03   1.2645664e+00   1.1650438e+00  -4.1860451e+06
   1.2034011e-09  -1.0492224e-03   1.2643715e+00   1.1652432e+00  -4.1694474e+06
   1.2044015e-09  -1.0450598e-03   1.2641775e+00   1.1654418e+00  -4.1529154e+06
   1.2054018e-09  -1.0409137e-03   1.2639843e+00   1.1656397e+00  -4.1364489e+06
   1.2064021e-09  -1.0367841e-03   1.2637918e+00   1.1658368e+00  -4.1200476e+06
   1.2074025e-09  -1.0326709e-03   1.2636001e+00   1.1660331e+00  -4.1037113e+06
   1.2084028e-09  -1.0285739e-03   1.2634092e+00   1.1662287e+00  -4.0874398e+06
   1.2094031e-09  -1.0244932e-03   1.2632191e+00   1.1664235e+00  -4.0712326e+06
   1.2104035e-09  -1.0204287e-03   1.2630297e+00   1.1666176e+00  -4.0550897e+06
   1.2114038e-09  -1.0163803e-03   1.2628411e+00   1.1668109e+00  -4.0390107e+06
   1.2124041e-09  -1.0123480e-03   1.2626533e+00   1.1670035e+00  -4.0229955e+06
   1.2134045e-09  -1.0083316e-03   1.2624663e+00   1.1671953e+00  -4.0070436e+06
   1.2144048e-09  -1.0043312e-03   1.2622800e+00   1.1673864e+00  -3.9911550e+06
   1.2154051e-09  -1.0003467e-03   1.2620944e+00   1.1675768e+00  -3.9753293e+06
   1.2164055e-09  -9.9637788e-04   1.2619096e+00   1.1677664e+00  -3.9595663e+06
   1.2174058e-09  -9.9242486e-04   1.2617256e+00   1.1679553e+00  -3.9438657e+06
   1.2184061e-09  -9.8848750e-04   1.2615423e+00   1.1681435e+00  -3.9282273e+06
   1.2194065e-09  -9.8456576e-04   1.2613597e+00   1.1683309e+00  -3.9126509e+06
   1.2204068e-09  -9.8065957e-04   1.2611779e+00   1.1685177e+00  -3.8971362e+06
   1.2214071e-09  -9.7676887e-04   1.2609968e+00   1.1687037e+00  -3.8816829e+06
   1.2224075e-09  -9.7289360e-04   1.2608165e+00   1.1688890e+00  -3.8662909e+06
   1.2234078e-09  -9.6903369e-04   1.2606369e+00   1.1690735e+00  -3.8509598e+06
   1.2244081e-09  -9.6518909e-04   1.2604580e+00   1.1692574e+00  -3.8356895e+06
   1.2254085e-09  -9.6135973e-04   1.2602798e+00   1.1694406e+00  -3.8204797e+06
   1.2264088e-09  -9.5754556e-04   1.2601024e+00   1.1696230e+00  -3.8053301e+06
   1.2274091e-09  -9.5374651e-04   1.2599257e+00   1.1698047e+00  -3.7902405e+06
   1.2284095e-09  -9.4996253e-04   1.2597497e+00   1.1699858e+00  -3.7752107e+06
   1.2294098e-09  -9.4619356e-04   1.2595744e+00   1.1701661e+00  -3.7602405e+06
   1.2304101e-09  -9.4243952e-04   1.2593998e+00   1.1703458e+00  -3.7453296e+06
   1.2314105e-09  -9.3870038e-04   1.2592260e+00   1.1705247e+00  -3.7304777e+06
   1.2324108e-09  -9.3497606e-04   1.2590528e+00   1.1707030e+00  -3.7156847e+06
   1.2334111e-09  -9.3126651e-04   1.2588803e+00   1.1708806e+00  -3.7009503e+06
   1.2344115e-09  -9.2757167e-04   1.2587086e+00   1.1710574e+00  -3.6862743e+06
   1.2354118e-09  -9.2389149e-04   1.2585375e+00   1.1712337e+00  -3.6716564e+06
   1.2364121e-09  -9.2022589e-04   1.2583671e+00   1.1714092e+00  -3.6570964e+06
   1.2374125e-09  -9.1657483e-04   1.2581974e+00   1.1715840e+00  -3.6425942e+06
   1.2384128e-09  -9.1293825e-04   1.2580284e+00   1.1717582e+00  -3.6281493e+06
   1.2394131e-09  -9.0931610e-04   1.2578601e+00   1.1719317e+00  -3.6137617e+06
   1.2404135e-09  -9.0570830e-04   1.2576925e+00   1.1721045e+00  -3.5994311e+06
   1.2414138e-09  -9.0211482e-04   1.2575255e+00   1.1722767e+00  -3.5851573e+06
   1.2424141e-09  -8.9853558e-04   1.2573592e+00   1.1724482e+00  -3.5709401e+06
   1.2434145e-09  -8.9497053e-04   1.2571936e+00   1.1726190e+00  -3.5567791e+06
   1.2444148e-09  -8.9141963e-04   1.2570287e+00   1.1727892e+00  -3.5426743e+06
   1.2454151e-09  -8.8788281e-04   1.2568644e+00   1.1729587e+00  -3.5286254e+06
   1.2464155e-09  -8.8436001e-04   1.2567008e+00   1.1731276e+00  -3.5146321e+06
   1.2474158e-09  -8.8085118e-04   1.2565379e+00   1.1732958e+00  -3.5006942e+06
   1.2484161e-09  -8.7735627e-04   1.2563756e+00   1.1734633e+00  -3.4868116e+06
   1.2494165e-09  -8.7387521e-04   1.2562140e+00   1.1736302e+00  -3.4729840e+06
   1.2504168e-09  -8.7040796e-04   1.2560530e+00   1.1737965e+00  -3.4592112e+06
   1.2514171e-09  -8.6695446e-04   1.2558927e+00   1.1739621e+00  -3.4454930e+06
   1.2524175e-09  -8.6351466e-04   1.2557330e+00   1.1741271e+00  -3.4318291e+06
   1.2534178e-09  -8.6008850e-04   1.2555740e+00   1.1742914e+00  -3.4182193e+06
   1.2544181e-09  -8.5667592e-04   1.2554156e+00   1.1744551e+00  -3.4046635e+06
   1.2554185e-09  -8.5327688e-04   1.2552578e+00   1.1746182e+00  -3.3911614e+06
   1.2564188e-09  -8.4989132e-04   1.2551007e+00   1.1747806e+00  -3.3777128e+06
   1.2574191e-09  -8.4651919e-04   1.2549443e+00   1.1749424e+00  -3.3643174e+06
   1.2584195e-09  -8.4316043e-04   1.2547884e+00   1.1751036e+00  -3.3509752e+06
   1.2594198e-09  -8.3981499e-04   1.2546332e+00   1.1752642e+00  -3.3376858e+06
   1.2604201e-09  -8.3648281e-04   1.2544786e+00   1.1754241e+00  -3.3244491e+06
   1.2614205e-09  -8.3316385e-04   1.2543247e+00   1.1755834e+00  -3.3112648e+06
   1.2624208e-09  -8.2985806e-04   1.2541713e+00   1.1757421e+00  -3.2981328e+06
   1.2634211e-09  -8.2656537e-04   1.2540186e+00   1.1759002e+00  -3.2850528e+06
   1.2644215e-09  -8.2328574e-04   1.2538665e+00   1.1760577e+00  -3.2720246e+06
   1.2654218e-09  -8.2001912e-04   1.2537150e+00   1.1762146e+00  -3.2590481e+06
   1.2664221e-09  -8.1676546e-04   1.2535642e+00   1.1763708e+00  -3.2461229e+06
   1.2674225e-09  -8.1352469e-04   1.2534139e+00   1.1765265e+00  -3.2332490e+06
   1.2684228e-09  -8.1029678e-04   1.2532643e+00   1.1766815e+00  -3.2204262e+06
   1.2694231e-09  -8.0708168e-04   1.2531152e+00   1.1768360e+00  -3.2076541e+06
   1.2704235e-09  -8.0387932e-04   1.2529668e+00   1.1769898e+00  -3.1949326e+06
   1.2714238e-09  -8.0068966e-04   1.2528189e+00   1.1771431e+00  -3.1822616e+06
   1.2724241e-09  -7.9751266e-04   1.2526717e+00   1.1772957e+00  -3.1696407e+06
   1.2734245e-09  -7.9434825e-04   1.2525250e+00   1.1774478e+00  -3.1570699e+06
   1.2744248e-09  -7.9119640e-04   1.2523789e+00   1.1775993e+00  -3.1445489e+06
   1.2754251e-09  -7.8805704e-04   1.2522335e+00   1.1777502e+00  -3.1320775e+06
   1.2764255e-09  -7.8493014e-04   1.2520886e+00   1.1779005e+00  -3.1196555e+06
   1.2774258e-09  -7.8181563e-04   1.2519443e+00   1.1780502e+00  -3.1072828e+06
   1.2784261e-09  -7.7871348e-04   1.2518006e+00   1.1781993e+00  -3.0949590e+06
   1.2794265e-09  -7.7562363e-04   1.2516574e+00   1.1783479e+00  -3.0826842e+06
   1.2804268e-09  -7.7254604e-04   1.2515149e+00   1.1784959e+00  -3.0704579e+06
   1.2814271e-09  -7.6948066e-04   1.2513729e+00   1.1786433e+00  -3.0582801e+06
   1.2824275e-09  -7.6642743e-04   1.2512315e+00   1.1787901e+00  -3.0461506e+06
   1.2834278e-09  -7.6338631e-04   1.2510906e+00   1.1789364e+00  -3.0340692e+06
   1.2844281e-09  -7.6035725e-04   1.2509504e+00   1.1790821e+00  -3.0220356e+06
   1.2854285e-09  -7.5734020e-04   1.2508107e+00   1.1792272e+00  -3.0100497e+06
   1.2864288e-09  -7.5433513e-04   1.2506715e+00   1.1793718e+00  -2.9981113e+06
   1.2874291e-09  -7.5134197e-04   1.2505329e+00   1.1795158e+00  -2.9862202e+06
   1.2884295e-09  -7.4836068e-04   1.2503949e+00   1.1796593e+00  -2.9743763e+06
   1.2894298e-09  -7.4539121e-04   1.2502574e+00   1.1798022e+00  -2.9625793e+06
   1.2904301e-09  -7.4243353e-04   1.2501205e+00   1.1799445e+00  -2.9508290e+06
   1.2914305e-09  -7.3948757e-04   1.2499842e+00   1.1800863e+00  -2.9391253e+06
   1.2924308e-09  -7.3655330e-04   1.2498484e+00   1.1802275e+00  -2.9274680e+06
   1.2934311e-09  -7.3363067e-04   1.2497131e+00   1.1803682e+00  -2.9158569e+06
   1.2944315e-09  -7.3071963e-04   1.2495784e+00   1.1805084e+00  -2.9042918e+06
   1.2954318e-09  -7.2782013e-04   1.2494442e+00   1.1806480e+00  -2.8927725e+06
   1.2964321e-09  -7.2493214e-04   1.2493106e+00   1.1807870e+00  -2.8812989e+06
   1.2974325e-09  -7.2205560e-04   1.2491775e+00   1.1809255e+00  -2.8698708e+06
   1.2984328e-09  -7.1919047e-04   1.2490449e+00   1.1810635e+00  -2.8584880e+06
   1.2994331e-09  -7.1633670e-04   1.2489129e+00   1.1812010e+00  -2.8471502e+06
   1.3004335e-09  -7.1349425e-04   1.2487814e+00   1.1813379e+00  -2.8358574e+06
   1.3014338e-09  -7.1066308e-04   1.2486505e+00   1.1814742e+00  -2.8246094e+06
   1.3024341e-09  -7.0784314e-04   1.2485200e+00   1.1816101e+00  -2.8134059e+06
   1.3034345e-09  -7.0503438e-04   1.2483901e+00   1.1817454e+00  -2.8022469e+06
   1.3044348e-09  -7.0223676e-04   1.2482608e+00   1.1818802e+00  -2.7911321e+06
   1.3054351e-09  -6.9945024e-04   1.2481319e+00   1.1820145e+00  -2.7800613e+06
   1.3064355e-09  -6.9667477e-04   1.2480036e+00   1.1821482e+00  -2.7690344e+06
   1.3074358e-09  -6.9391031e-04   1.2478757e+00   1.1822814e+00  -2.7580512e+06
   1.3084361e-09  -6.9115681e-04   1.2477484e+00   1.1824141e+00  -2.7471116e+06
   1.3094365e-09  -6.8841424e-04   1.2476216e+00   1.1825463e+00  -2.7362153e+06
   1.3104368e-09  -6.8568254e-04   1.2474954e+00   1.1826780e+00  -2.7253622e+06
   1.3114371e-09  -6.8296168e-04   1.2473696e+00   1.1828092e+00  -2.7145521e+06
   1.3124375e-09  -6.8025161e-04   1.2472443e+00   1.1829398e+00  -2.7037848e+06
   1.3134378e-09  -6.7755229e-04   1.2471196e+00   1.1830700e+00  -2.6930603e+06
   1.3144381e-09  -6.7486368e-04   1.2469953e+00   1.1831996e+00  -2.6823782e+06
   1.3154385e-09  -6.7218574e-04   1.2468715e+00   1.1833287e+00  -2.6717385e+06
   1.3164388e-09  -6.6951841e-04   1.2467483e+00   1.1834574e+00  -2.6611409e+06
   1.3174391e-09  -6.6686166e-04   1.2466255e+00   1.1835855e+00  -2.6505854e+06
   1.3184395e-09  -6.6421546e-04   1.2465032e+00   1.1837131e+00  -2.6400717e+06
   1.3194398e-09  -6.6157975e-04   1.2463815e+00   1.1838403e+00  -2.6295996e+06
   1.3204401e-09  -6.5895449e-04   1.2462602e+00   1.1839669e+00  -2.6191691e+06
   1.3214405e-09  -6.5633965e-04   1.2461394e+00   1.1840930e+00  -2.6087799e+06
   1.3224408e-09  -6.5373518e-04   1.2460191e+00   1.1842187e+00  -2.5984319e+06
   1.3234411e-09  -6.5114104e-04   1.2458992e+00   1.1843439e+00  -2.5881250e+06
   1.3244415e-09  -6.4855719e-04   1.2457799e+00   1.1844685e+00  -2.5778588e+06
   1.3254418e-09  -6.4598359e-04   1.2456610e+00   1.1845927e+00  -2.5676334e+06
   1.3264421e-09  -6.4342020e-04   1.2455426e+00   1.1847164e+00  -2.5574485e+06
   1.3274425e-09  -6.4086697e-04   1.2454247e+00   1.1848397e+00  -2.5473040e+06
   1.3284428e-09  -6.3832388e-04   1.2453073e+00   1.1849624e+00  -2.5371996e+06
   1.3294431e-09  -6.3579087e-04   1.2451903e+00   1.1850847e+00  -2.5271354e+06
   1.3304435e-09  -6.3326791e-04   1.2450738e+00   1.1852065e+00  -2.5171110e+06
   1.3314438e-09  -6.3075495e-04   1.2449578e+00   1.1853278e+00  -2.5071264e+06
   1.3324441e-09  -6.2825197e-04   1.2448423e+00   1.1854487e+00  -2.4971813e+06
   1.3334445e-09  -6.2575891e-04   1.2447272e+00   1.1855690e+00  -2.4872757e+06
   1.3344448e-09  -6.2327574e-04   1.2446125e+00   1.1856889e+00  -2.4774093e+06
   1.3354451e-09  -6.2080243e-04   1.2444984e+00   1.1858084e+00  -2.4675820e+06
   1.3364455e-09  -6.1833892e-04   1.2443847e+00   1.1859273e+00  -2.4577937e+06
   1.3374458e-09  -6.1588519e-04   1.2442714e+00   1.1860459e+00  -2.4480442e+06
   1.3384461e-09  -6.1344119e-04   1.2441586e+00   1.1861639e+00  -2.4383334e+06
   1.3394465e-09  -6.1100688e-04   1.2440463e+00   1.1862815e+00  -2.4286610e+06
   1.3404468e-09  -6.0858223e-04   1.2439344e+00   1.1863986e+00  -2.4190270e+06
   1.3414471e-09  -6.0616720e-04   1.2438230e+00   1.1865153e+00  -2.4094312e+06
   1.3424475e-09  -6.0376175e-04   1.2437120e+00   1.1866315e+00  -2.3998734e+06
   1.3434478e-09  -6.0136584e-04   1.2436014e+00   1.1867473e+00  -2.3903535e+06
   1.3444481e-09  -5.9897944e-04   1.2434913e+00   1.1868626e+00  -2.3808713e+06
   1.3454485e-09  -5.9660250e-04   1.2433817e+00   1.1869774e+00  -2.3714268e+06
   1.3464488e-09  -5.9423499e-04   1.2432724e+00   1.1870919e+00  -2.3620196e+06
   1.3474491e-09  -5.9187687e-04   1.2431637e+00   1.1872058e+00  -2.3526498e+06
   1.3484495e-09  -5.8952811e-04   1.2430553e+00   1.1873194e+00  -2.3433171e+06
   1.3494498e-09  -5.8718866e-04   1.2429474e+00   1.1874324e+00  -2.3340214e+06
   1.3504502e-09  -5.8485850e-04   1.2428400e+00   1.1875451e+00  -2.3247626e+06
   1.3514505e-09  -5.8253758e-04   1.2427329e+00   1.1876573e+00  -2.3155404e+06
   1.3524508e-09  -5.8022586e-04   1.2426263e+00   1.1877690e+00  -2.3063548e+06
   1.3534512e-09  -5.7792332e-04   1.2425201e+00   1.1878804e+00  -2.2972057e+06
   1.3544515e-09  -5.7562991e-04   1.2424144e+00   1.1879913e+00  -2.2880928e+06
   1.3554518e-09  -5.7334559e-04   1.2423091e+00   1.1881017e+00  -2.2790160e+06
   1.3564522e-09  -5.7107034e-04   1.2422042e+00   1.1882117e+00  -2.2699752e+06
   1.3574525e-09  -5.6880412e-04   1.2420997e+00   1.1883213e+00  -2.2609703e+06
   1.3584528e-09  -5.6654688e-04   1.2419956e+00   1.1884305e+00  -2.2520010e+06
   1.3594532e-09  -5.6429860e-04   1.2418920e+00   1.1885393e+00  -2.2430674e+06
   1.3604535e-09  -5.6205924e-04   1.2417887e+00   1.1886476e+00  -2.2341691e+06
   1.3614538e-09  -5.5982876e-04   1.2416859e+00   1.1887555e+00  -2.2253061e+06
   1.3624542e-09  -5.5760713e-04   1.2415835e+00   1.1888629e+00  -2.2164782e+06
   1.3634545e-09  -5.5539431e-04   1.2414816e+00   1.1889700e+00  -2.2076854e+06
   1.3644548e-09  -5.5319028e-04   1.2413800e+00   1.1890766e+00  -2.1989274e+06
   1.3654552e-09  -5.5099498e-04   1.2412788e+00   1.1891829e+00  -2.1902041e+06
   1.3664555e-09  -5.4880840e-04   1.2411780e+00   1.1892887e+00  -2.1815154e+06
   1.3674558e-09  -5.4663048e-04   1.2410777e+00   1.1893941e+00  -2.1728612e+06
   1.3684562e-09  -5.4446121e-04   1.2409777e+00   1.1894990e+00  -2.1642413e+06
   1.3694565e-09  -5.4230055e-04   1.2408782e+00   1.1896036e+00  -2.1556555e+06
   1.3704568e-09  -5.4014845e-04   1.2407790e+00   1.1897078e+00  -2.1471038e+06
   1.3714572e-09  -5.3800490e-04   1.2406803e+00   1.1898115e+00  -2.1385860e+06
   1.3724575e-09  -5.3586984e-04   1.2405819e+00   1.1899149e+00  -2.1301020e+06
   1.3734578e-09  -5.3374326e-04   1.2404840e+00   1.1900178e+00  -2.1216516e+06
   1.3744582e-09  -5.3162511e-04   1.2403864e+00   1.1901204e+00  -2.1132347e+06
   1.3754585e-09  -5.2951537e-04   1.2402892e+00   1.1902225e+00  -2.1048511e+06
   1.3764588e-09  -5.2741400e-04   1.2401924e+00   1.1903243e+00  -2.0965008e+06
   1.3774592e-09  -5.2532096e-04   1.2400960e+00   1.1904256e+00  -2.0881837e+06
   1.3784595e-09  -5.2323623e-04   1.2400000e+00   1.1905266e+00  -2.0798995e+06
   1.3794598e-09  -5.2115976e-04   1.2399044e+00   1.1906271e+00  -2.0716481e+06
   1.3804602e-09  -5.1909154e-04   1.2398091e+00   1.1907273e+00  -2.0634295e+06
   1.3814605e-09  -5.1703152e-04   1.2397143e+00   1.1908270e+00  -2.0552434e+06
   1.3824608e-09  -5.1497967e-04   1.2396198e+00   1.1909264e+00  -2.0470898e+06
   1.3834612e-09  -5.1293596e-04   1.2395257e+00   1.1910254e+00  -2.0389685e+06
   1.3844615e-09  -5.1090036e-04   1.2394320e+00   1.1911240e+00  -2.0308794e+06
   1.3854618e-09  -5.0887284e-04   1.2393386e+00   1.1912222e+00  -2.0228224e+06
   1.3864622e-09  -5.0685336e-04   1.2392457e+00   1.1913201e+00  -2.0147974e+06
   1.3874625e-09  -5.0484189e-04   1.2391531e+00   1.1914175e+00  -2.0068042e+06
   1.3884628e-09  -5.0283840e-04   1.2390608e+00   1.1915146e+00  -1.9988426e+06
   1.3894632e-09  -5.0084286e-04   1.2389690e+00   1.1916113e+00  -1.9909126e+06
   1.3904635e-09  -4.9885524e-04   1.2388775e+00   1.1917076e+00  -1.9830141e+06
   1.3914638e-09  -4.9687550e-04   1.2387864e+00   1.1918035e+00  -1.9751469e+06
   1.3924642e-09  -4.9490362e-04   1.2386956e+00   1.1918991e+00  -1.9673109e+06
   1.3934645e-09  -4.9293956e-04   1.2386052e+00   1.1919943e+00  -1.9595059e+06
   1.3944648e-09  -4.9098329e-04   1.2385152e+00   1.1920891e+00  -1.9517319e+06
   1.3954652e-09  -4.8903478e-04   1.2384255e+00   1.1921836e+00  -1.9439887e+06
   1.3964655e-09  -4.8709400e-04   1.2383362e+00   1.1922776e+00  -1.9362763e+06
   1.3974658e-09  -4.8516093e-04   1.2382473e+00   1.1923713e+00  -1.9285944e+06
   1.3984662e-09  -4.8323552e-04   1.2381587e+00   1.1924647e+00  -1.9209429e+06
   1.3994665e-09  -4.8131775e-04   1.2380705e+00   1.1925576e+00  -1.9133218e+06
   1.4004668e-09  -4.7940759e-04   1.2379826e+00   1.1926503e+00  -1.9057310e+06
   1.4014672e-09  -4.7750501e-04   1.2378950e+00   1.1927425e+00  -1.8981702e+06
   1.4024675e-09  -4.7560997e-04   1.2378079e+00   1.1928344e+00  -1.8906394e+06
   1.4034678e-09  -4.7372246e-04   1.2377210e+00   1.1929259e+00  -1.8831385e+06
   1.4044682e-09  -4.7184243e-04   1.2376346e+00   1.1930171e+00  -1.8756673e+06
   1.4054685e-09  -4.6996986e-04   1.2375484e+00   1.1931079e+00  -1.8682257e+06
   1.4064688e-09  -4.6810472e-04   1.2374626e+00   1.1931984e+00  -1.8608136e+06
   1.4074692e-09  -4.6624698e-04   1.2373772e+00   1.1932885e+00  -1.8534310e+06
   1.4084695e-09  -4.6439661e-04   1.2372921e+00   1.1933782e+00  -1.8460776e+06
   1.4094698e-09  -4.6255359e-04   1.2372073e+00   1.1934676e+00  -1.8387533e+06
   1.4104702e-09  -4.6071787e-04   1.2371229e+00   1.1935567e+00  -1.8314581e+06
   1.4114705e-09  -4.5888944e-04   1.2370388e+00   1.1936454e+00  -1.8241919e+06
   1.4124708e-09  -4.5706826e-04   1.2369551e+00   1.1937337e+00  -1.8169544e+06
   1.4134712e-09  -4.5525431e-04   1.2368717e+00   1.1938217e+00  -1.8097457e+06
   1.4144715e-09  -4.5344755e-04   1.2367886e+00   1.1939094e+00  -1.8025655e+06
   1.4154718e-09  -4.5164797e-04   1.2367059e+00   1.1939967e+00  -1.7954138e+06
   1.4164722e-09  -4.4985552e-04   1.2366235e+00   1.1940837e+00  -1.7882905e+06
   1.4174725e-09  -4.4807018e-04   1.2365414e+00   1.1941703e+00  -1.7811954e+06
   1.4184728e-09  -4.4629193e-04   1.2364596e+00   1.1942566e+00  -1.7741285e+06
   1.4194732e-09  -4.4452073e-04   1.2363782e+00   1.1943425e+00  -1.7670895e+06
   1.4204735e-09  -4.4275656e-04   1.2362971e+00   1.1944282e+00  -1.7600785e+06
   1.4214738e-09  -4.4099939e-04   1.2362163e+00   1.1945135e+00  -1.7530953e+06
   1.4224742e-09  -4.3924920e-04   1.2361359e+00   1.1945984e+00  -1.7461398e+06
   1.4234745e-09  -4.3750594e-04   1.2360558e+00   1.1946830e+00  -1.7392118e+06
   1.4244748e-09  -4.3576960e-04   1.2359760e+00   1.1947673e+00  -1.7323114e+06
   1.4254752e-09  -4.3404015e-04   1.2358965e+00   1.1948513e+00  -1.7254383e+06
   1.4264755e-09  -4.3231757e-04   1.2358173e+00   1.1949349e+00  -1.7185924e+06
   1.4274758e-09  -4.3060181e-04   1.2357385e+00   1.1950182e+00  -1.7117737e+06
   1.4284762e-09  -4.2889287e-04   1.2356599e+00   1.1951012e+00  -1.7049821e+06
   1.4294765e-09  -4.2719070e-04   1.2355817e+00   1.1951838e+00  -1.6982174e+06
   1.4304768e-09  -4.2549529e-04   1.2355038e+00   1.1952661e+00  -1.6914795e+06
   1.4314772e-09  -4.2380661e-04   1.2354262e+00   1.1953481e+00  -1.6847683e+06
   1.4324775e-09  -4.2212462e-04   1.2353489e+00   1.1954298e+00  -1.6780837e+06
   1.4334778e-09  -4.2044931e-04   1.2352720e+00   1.1955112e+00  -1.6714257e+06
   1.4344782e-09  -4.1878065e-04   1.2351953e+00   1.1955922e+00  -1.6647940e+06
   1.4354785e-09  -4.1711861e-04   1.2351190e+00   1.1956729e+00  -1.6581887e+06
   1.4364788e-09  -4.1546316e-04   1.2350429e+00   1.1957533e+00  -1.6516095e+06
   1.4374792e-09  -4.1381428e-04   1.2349672e+00   1.1958334e+00  -1.6450565e+06
   1.4384795e-09  -4.1217194e-04   1.2348917e+00   1.1959132e+00  -1.6385294e+06
   1.4394798e-09  -4.1053612e-04   1.2348166e+00   1.1959927e+00  -1.6320282e+06
   1.4404802e-09  -4.0890678e-04   1.2347417e+00   1.1960718e+00  -1.6255528e+06
   1.4414805e-09  -4.0728392e-04   1.2346672e+00   1.1961507e+00  -1.6191031e+06
   1.4424808e-09  -4.0566749e-04   1.2345930e+00   1.1962292e+00  -1.6126790e+06
   1.4434812e-09  -4.0405748e-04   1.2345190e+00   1.1963074e+00  -1.6062803e+06
   1.4444815e-09  -4.0245385e-04   1.2344454e+00   1.1963853e+00  -1.5999070e+06
   1.4454818e-09  -4.0085659e-04   1.2343720e+00   1.1964629e+00  -1.5935590e+06
   1.4464822e-09  -3.9926566e-04   1.2342990e+00   1.1965402e+00  -1.5872361e+06
   1.4474825e-09  -3.9768105e-04   1.2342262e+00   1.1966172e+00  -1.5809384e+06
   1.4484828e-09  -3.9610272e-04   1.2341537e+00   1.1966939e+00  -1.5746656e+06
   1.4494832e-09  -3.9453066e-04   1.2340815e+00   1.1967703e+00  -1.5684177e+06
   1.4504835e-09  -3.9296483e-04   1.2340096e+00   1.1968464e+00  -1.5621945e+06
   1.4514838e-09  -3.9140522e-04   1.2339380e+00   1.1969222e+00  -1.5559961e+06
   1.4524842e-09  -3.8985179e-04   1.2338667e+00   1.1969978e+00  -1.5498222e+06
   1.4534845e-09  -3.8830453e-04   1.2337957e+00   1.1970730e+00  -1.5436728e+06
   1.4544848e-09  -3.8676341e-04   1.2337249e+00   1.1971479e+00  -1.5375478e+06
   1.4554852e-09  -3.8522840e-04   1.2336545e+00   1.1972225e+00  -1.5314471e+06
   1.4564855e-09  -3.8369949e-04   1.2335843e+00   1.1972968e+00  -1.5253706e+06
   1.4574858e-09  -3.8217664e-04   1.2335144e+00   1.1973709e+00  -1.5193182e+06
   1.4584862e-09  -3.8065983e-04   1.2334448e+00   1.1974446e+00  -1.5132898e+06
   1.4594865e-09  -3.7914904e-04   1.2333754e+00   1.1975180e+00  -1.5072853e+06
   1.4604868e-09  -3.7764425e-04   1.2333063e+00   1.1975912e+00  -1.5013046e+06
   1.4614872e-09  -3.7614542e-04   1.2332376e+00   1.1976641e+00  -1.4953477e+06
   1.4624875e-09  -3.7465254e-04   1.2331690e+00   1.1977367e+00  -1.4894143e+06
