   0.0000000e+00  -1.4127177e-01   6.2598129e+00   1.0527551e-04  -5.1886586e+08
   2.6675559e-12  -1.3989279e-01   6.2525906e+00   1.1706528e-04  -5.1508463e+08
   5.3351117e-12  -1.3852390e-01   6.2450448e+00   1.3006630e-04  -5.1130159e+08
   8.0026676e-12  -1.3716511e-01   6.2371654e+00   1.4438977e-04  -5.0751683e+08
   1.0670223e-11  -1.3581642e-01   6.2289422e+00   1.6015560e-04  -5.0373043e+08
   1.3337779e-11  -1.3447783e-01   6.2203650e+00   1.7749286e-04  -4.9994252e+08
   1.6005335e-11  -1.3314934e-01   6.2114238e+00   1.9654038e-04  -4.9615320e+08
   1.8672891e-11  -1.3183097e-01   6.2021084e+00   2.1744725e-04  -4.9236260e+08
   2.1340447e-11  -1.3052272e-01   6.1924087e+00   2.4037333e-04  -4.8857088e+08
   2.4008003e-11  -1.2922458e-01   6.1823148e+00   2.6548990e-04  -4.8477818e+08
   2.6675559e-11  -1.2793656e-01   6.1718168e+00   2.9298012e-04  -4.8098468e+08
   2.9343114e-11  -1.2665866e-01   6.1609050e+00   3.2303965e-04  -4.7719057e+08
   3.2010670e-11  -1.2539088e-01   6.1495697e+00   3.5587719e-04  -4.7339605e+08
   3.4678226e-11  -1.2413323e-01   6.1378018e+00   3.9171507e-04  -4.6960133e+08
   3.7345782e-11  -1.2288570e-01   6.1255919e+00   4.3078975e-04  -4.6580664e+08
   4.0013338e-11  -1.2164829e-01   6.1129312e+00   4.7335240e-04  -4.6201223e+08
   4.2680894e-11  -1.2042100e-01   6.0998111e+00   5.1966944e-04  -4.5821836e+08
   4.5348449e-11  -1.1920384e-01   6.0862233e+00   5.7002301e-04  -4.5442532e+08
   4.8016005e-11  -1.1799679e-01   6.0721598e+00   6.2471151e-04  -4.5063340e+08
   5.0683561e-11  -1.1679986e-01   6.0576131e+00   6.8405002e-04  -4.4684290e+08
   5.3351117e-11  -1.1561303e-01   6.0425760e+00   7.4837077e-04  -4.4305418e+08
   5.6018673e-11  -1.1443631e-01   6.0270418e+00   8.1802352e-04  -4.3926756e+08
   5.8686229e-11  -1.1326969e-01   6.0110042e+00   8.9337594e-04  -4.3548341e+08
   6.1353785e-11  -1.1211316e-01   5.9944575e+00   9.7481391e-04  -4.3170212e+08
   6.4021340e-11  -1.1096671e-01   5.9773965e+00   1.0627418e-03  -4.2792408e+08
   6.6688896e-11  -1.0983033e-01   5.9598164e+00   1.1575827e-03  -4.2414972e+08
   6.9356452e-11  -1.0870402e-01   5.9417132e+00   1.2597785e-03  -4.2037945e+08
   7.2024008e-11  -1.0758776e-01   5.9230835e+00   1.3697902e-03  -4.1661373e+08
   7.4691564e-11  -1.0648154e-01   5.9039244e+00   1.4880975e-03  -4.1285302e+08
   7.7359120e-11  -1.0538534e-01   5.8842336e+00   1.6151995e-03  -4.0909780e+08
   8.0026676e-11  -1.0429915e-01   5.8640099e+00   1.7516138e-03  -4.0534858e+08
   8.2694231e-11  -1.0322295e-01   5.8432522e+00   1.8978767e-03  -4.0160585e+08
   8.5361787e-11  -1.0215673e-01   5.8219607e+00   2.0545431e-03  -3.9787015e+08
   8.8029343e-11  -1.0110047e-01   5.8001358e+00   2.2221857e-03  -3.9414200e+08
   9.0696899e-11  -1.0005413e-01   5.7777790e+00   2.4013950e-03  -3.9042197e+08
   9.3364455e-11  -9.9017711e-02   5.7548925e+00   2.5927786e-03  -3.8671062e+08
   9.6032011e-11  -9.7991177e-02   5.7314792e+00   2.7969605e-03  -3.8300851e+08
   9.8699567e-11  -9.6974505e-02   5.7075426e+00   3.0145805e-03  -3.7931624e+08
   1.0136712e-10  -9.5967668e-02   5.6830874e+00   3.2462937e-03  -3.7563440e+08
   1.0403468e-10  -9.4970637e-02   5.6581187e+00   3.4927691e-03  -3.7196360e+08
   1.0670223e-10  -9.3983381e-02   5.6326425e+00   3.7546891e-03  -3.6830443e+08
   1.0936979e-10  -9.3005870e-02   5.6066654e+00   4.0327483e-03  -3.6465753e+08
   1.1203735e-10  -9.2038069e-02   5.5801951e+00   4.3276525e-03  -3.6102350e+08
   1.1470490e-10  -9.1079943e-02   5.5532397e+00   4.6401174e-03  -3.5740299e+08
   1.1737246e-10  -9.0131455e-02   5.5258081e+00   4.9708675e-03  -3.5379662e+08
   1.2004001e-10  -8.9192567e-02   5.4979100e+00   5.3206346e-03  -3.5020501e+08
   1.2270757e-10  -8.8263239e-02   5.4695557e+00   5.6901566e-03  -3.4662881e+08
   1.2537513e-10  -8.7343427e-02   5.4407562e+00   6.0801762e-03  -3.4306864e+08
   1.2804268e-10  -8.6433090e-02   5.4115231e+00   6.4914391e-03  -3.3952513e+08
   1.3071024e-10  -8.5532180e-02   5.3818687e+00   6.9246928e-03  -3.3599890e+08
   1.3337779e-10  -8.4640653e-02   5.3518057e+00   7.3806846e-03  -3.3249058e+08
   1.3604535e-10  -8.3758458e-02   5.3213476e+00   7.8601609e-03  -3.2900079e+08
   1.3871290e-10  -8.2885545e-02   5.2905081e+00   8.3638646e-03  -3.2553013e+08
   1.4138046e-10  -8.2021863e-02   5.2593016e+00   8.8925341e-03  -3.2207919e+08
   1.4404802e-10  -8.1167358e-02   5.2277430e+00   9.4469018e-03  -3.1864858e+08
   1.4671557e-10  -8.0321976e-02   5.1958474e+00   1.0027692e-02  -3.1523886e+08
   1.4938313e-10  -7.9485659e-02   5.1636303e+00   1.0635620e-02  -3.1185062e+08
   1.5205068e-10  -7.8658350e-02   5.1311078e+00   1.1271389e-02  -3.0848440e+08
   1.5471824e-10  -7.7839989e-02   5.0982958e+00   1.1935691e-02  -3.0514074e+08
   1.5738580e-10  -7.7030516e-02   5.0652110e+00   1.2629204e-02  -3.0182016e+08
   1.6005335e-10  -7.6229867e-02   5.0318698e+00   1.3352589e-02  -2.9852319e+08
   1.6272091e-10  -7.5437980e-02   4.9982892e+00   1.4106493e-02  -2.9525031e+08
   1.6538846e-10  -7.4654789e-02   4.9644859e+00   1.4891541e-02  -2.9200199e+08
   1.6805602e-10  -7.3880229e-02   4.9304772e+00   1.5708341e-02  -2.8877869e+08
   1.7072357e-10  -7.3114231e-02   4.8962799e+00   1.6557480e-02  -2.8558086e+08
   1.7339113e-10  -7.2356729e-02   4.8619113e+00   1.7439523e-02  -2.8240890e+08
   1.7605869e-10  -7.1607650e-02   4.8273883e+00   1.8355012e-02  -2.7926321e+08
   1.7872624e-10  -7.0866927e-02   4.7927279e+00   1.9304463e-02  -2.7614418e+08
   1.8139380e-10  -7.0134486e-02   4.7579471e+00   2.0288370e-02  -2.7305214e+08
   1.8406135e-10  -6.9410255e-02   4.7230626e+00   2.1307201e-02  -2.6998745e+08
   1.8672891e-10  -6.8694162e-02   4.6880910e+00   2.2361394e-02  -2.6695040e+08
   1.8939647e-10  -6.7986131e-02   4.6530487e+00   2.3451364e-02  -2.6394128e+08
   1.9206402e-10  -6.7286088e-02   4.6179519e+00   2.4577496e-02  -2.6096037e+08
   1.9473158e-10  -6.6593958e-02   4.5828166e+00   2.5740147e-02  -2.5800790e+08
   1.9739913e-10  -6.5909664e-02   4.5476584e+00   2.6939646e-02  -2.5508410e+08
   2.0006669e-10  -6.5233130e-02   4.5124927e+00   2.8176291e-02  -2.5218916e+08
   2.0273424e-10  -6.4564278e-02   4.4773345e+00   2.9450353e-02  -2.4932326e+08
   2.0540180e-10  -6.3903030e-02   4.4421987e+00   3.0762071e-02  -2.4648655e+08
   2.0806936e-10  -6.3249310e-02   4.4070994e+00   3.2111658e-02  -2.4367916e+08
   2.1073691e-10  -6.2603037e-02   4.3720508e+00   3.3499293e-02  -2.4090121e+08
   2.1340447e-10  -6.1964135e-02   4.3370664e+00   3.4925130e-02  -2.3815279e+08
   2.1607202e-10  -6.1332523e-02   4.3021595e+00   3.6389290e-02  -2.3543395e+08
   2.1873958e-10  -6.0708123e-02   4.2673428e+00   3.7891867e-02  -2.3274476e+08
   2.2140714e-10  -6.0090856e-02   4.2326287e+00   3.9432925e-02  -2.3008522e+08
   2.2407469e-10  -5.9480642e-02   4.1980292e+00   4.1012500e-02  -2.2745536e+08
   2.2674225e-10  -5.8877403e-02   4.1635557e+00   4.2630599e-02  -2.2485516e+08
   2.2940980e-10  -5.8281060e-02   4.1292194e+00   4.4287203e-02  -2.2228458e+08
   2.3207736e-10  -5.7691533e-02   4.0950309e+00   4.5982264e-02  -2.1974359e+08
   2.3474491e-10  -5.7108744e-02   4.0610005e+00   4.7715708e-02  -2.1723211e+08
   2.3741247e-10  -5.6532614e-02   4.0271377e+00   4.9487435e-02  -2.1475006e+08
   2.4008003e-10  -5.5963064e-02   3.9934521e+00   5.1297320e-02  -2.1229734e+08
   2.4274758e-10  -5.5400018e-02   3.9599524e+00   5.3145211e-02  -2.0987385e+08
   2.4541514e-10  -5.4843397e-02   3.9266471e+00   5.5030934e-02  -2.0747944e+08
   2.4808269e-10  -5.4293123e-02   3.8935442e+00   5.6954291e-02  -2.0511399e+08
   2.5075025e-10  -5.3749119e-02   3.8606513e+00   5.8915062e-02  -2.0277732e+08
   2.5341781e-10  -5.3211310e-02   3.8279755e+00   6.0913002e-02  -2.0046927e+08
   2.5608536e-10  -5.2679619e-02   3.7955237e+00   6.2947849e-02  -1.9818967e+08
   2.5875292e-10  -5.2153970e-02   3.7633021e+00   6.5019317e-02  -1.9593831e+08
   2.6142047e-10  -5.1634288e-02   3.7313167e+00   6.7127103e-02  -1.9371500e+08
   2.6408803e-10  -5.1120500e-02   3.6995730e+00   6.9270883e-02  -1.9151953e+08
   2.6675559e-10  -5.0612530e-02   3.6680762e+00   7.1450315e-02  -1.8935166e+08
   2.6942314e-10  -5.0110305e-02   3.6368311e+00   7.3665043e-02  -1.8721117e+08
   2.7209070e-10  -4.9613754e-02   3.6058421e+00   7.5914690e-02  -1.8509781e+08
   2.7475825e-10  -4.9122803e-02   3.5751134e+00   7.8198865e-02  -1.8301135e+08
   2.7742581e-10  -4.8637382e-02   3.5446486e+00   8.0517164e-02  -1.8095153e+08
   2.8009336e-10  -4.8157419e-02   3.5144511e+00   8.2869167e-02  -1.7891809e+08
   2.8276092e-10  -4.7682846e-02   3.4845241e+00   8.5254440e-02  -1.7691075e+08
   2.8542848e-10  -4.7213592e-02   3.4548704e+00   8.7672538e-02  -1.7492926e+08
   2.8809603e-10  -4.6749588e-02   3.4254923e+00   9.0123003e-02  -1.7297333e+08
   2.9076359e-10  -4.6290768e-02   3.3963921e+00   9.2605367e-02  -1.7104269e+08
   2.9343114e-10  -4.5837064e-02   3.3675716e+00   9.5119150e-02  -1.6913705e+08
   2.9609870e-10  -4.5388410e-02   3.3390326e+00   9.7663865e-02  -1.6725613e+08
   2.9876626e-10  -4.4944740e-02   3.3107764e+00   1.0023901e-01  -1.6539963e+08
   3.0143381e-10  -4.4505990e-02   3.2828041e+00   1.0284409e-01  -1.6356726e+08
   3.0410137e-10  -4.4072095e-02   3.2551167e+00   1.0547857e-01  -1.6175873e+08
   3.0676892e-10  -4.3642993e-02   3.2277148e+00   1.0814195e-01  -1.5997375e+08
   3.0943648e-10  -4.3218620e-02   3.2005988e+00   1.1083370e-01  -1.5821202e+08
   3.1210403e-10  -4.2798916e-02   3.1737690e+00   1.1355328e-01  -1.5647324e+08
   3.1477159e-10  -4.2383820e-02   3.1472256e+00   1.1630015e-01  -1.5475711e+08
   3.1743915e-10  -4.1973271e-02   3.1209682e+00   1.1907377e-01  -1.5306334e+08
   3.2010670e-10  -4.1567210e-02   3.0949967e+00   1.2187360e-01  -1.5139163e+08
   3.2277426e-10  -4.1165580e-02   3.0693105e+00   1.2469909e-01  -1.4974168e+08
   3.2544181e-10  -4.0768321e-02   3.0439091e+00   1.2754967e-01  -1.4811320e+08
   3.2810937e-10  -4.0375378e-02   3.0187915e+00   1.3042480e-01  -1.4650589e+08
   3.3077693e-10  -3.9986695e-02   2.9939570e+00   1.3332391e-01  -1.4491946e+08
   3.3344448e-10  -3.9602215e-02   2.9694044e+00   1.3624645e-01  -1.4335362e+08
   3.3611204e-10  -3.9221885e-02   2.9451325e+00   1.3919186e-01  -1.4180807e+08
   3.3877959e-10  -3.8845650e-02   2.9211401e+00   1.4215957e-01  -1.4028253e+08
   3.4144715e-10  -3.8473459e-02   2.8974256e+00   1.4514902e-01  -1.3877672e+08
   3.4411470e-10  -3.8105258e-02   2.8739876e+00   1.4815965e-01  -1.3729033e+08
   3.4678226e-10  -3.7740996e-02   2.8508245e+00   1.5119089e-01  -1.3582311e+08
   3.4944982e-10  -3.7380622e-02   2.8279344e+00   1.5424220e-01  -1.3437476e+08
   3.5211737e-10  -3.7024087e-02   2.8053157e+00   1.5731300e-01  -1.3294500e+08
   3.5478493e-10  -3.6671341e-02   2.7829665e+00   1.6040273e-01  -1.3153358e+08
   3.5745248e-10  -3.6322336e-02   2.7608847e+00   1.6351085e-01  -1.3014020e+08
   3.6012004e-10  -3.5977024e-02   2.7390683e+00   1.6663679e-01  -1.2876461e+08
   3.6278760e-10  -3.5635357e-02   2.7175154e+00   1.6978001e-01  -1.2740654e+08
   3.6545515e-10  -3.5297290e-02   2.6962236e+00   1.7293994e-01  -1.2606573e+08
   3.6812271e-10  -3.4962777e-02   2.6751909e+00   1.7611605e-01  -1.2474192e+08
   3.7079026e-10  -3.4631772e-02   2.6544149e+00   1.7930780e-01  -1.2343485e+08
   3.7345782e-10  -3.4304232e-02   2.6338934e+00   1.8251463e-01  -1.2214427e+08
   3.7612538e-10  -3.3980113e-02   2.6136241e+00   1.8573601e-01  -1.2086994e+08
   3.7879293e-10  -3.3659372e-02   2.5936045e+00   1.8897141e-01  -1.1961159e+08
   3.8146049e-10  -3.3341966e-02   2.5738323e+00   1.9222029e-01  -1.1836901e+08
   3.8412804e-10  -3.3027853e-02   2.5543051e+00   1.9548213e-01  -1.1714193e+08
   3.8679560e-10  -3.2716994e-02   2.5350204e+00   1.9875642e-01  -1.1593014e+08
   3.8946315e-10  -3.2409346e-02   2.5159757e+00   2.0204262e-01  -1.1473339e+08
   3.9213071e-10  -3.2104872e-02   2.4971686e+00   2.0534023e-01  -1.1355146e+08
   3.9479827e-10  -3.1803530e-02   2.4785965e+00   2.0864873e-01  -1.1238412e+08
   3.9746582e-10  -3.1505283e-02   2.4602570e+00   2.1196763e-01  -1.1123115e+08
   4.0013338e-10  -3.1210092e-02   2.4421474e+00   2.1529642e-01  -1.1009233e+08
   4.0280093e-10  -3.0917921e-02   2.4242653e+00   2.1863461e-01  -1.0896745e+08
   4.0546849e-10  -3.0628732e-02   2.4066081e+00   2.2198171e-01  -1.0785629e+08
   4.0813605e-10  -3.0342489e-02   2.3891732e+00   2.2533724e-01  -1.0675865e+08
   4.1080360e-10  -3.0059156e-02   2.3719583e+00   2.2870072e-01  -1.0567432e+08
   4.1347116e-10  -2.9778697e-02   2.3549606e+00   2.3207166e-01  -1.0460310e+08
   4.1613871e-10  -2.9501079e-02   2.3381776e+00   2.3544962e-01  -1.0354479e+08
   4.1880627e-10  -2.9226267e-02   2.3216069e+00   2.3883411e-01  -1.0249920e+08
   4.2147382e-10  -2.8954227e-02   2.3052458e+00   2.4222470e-01  -1.0146613e+08
   4.2414138e-10  -2.8684927e-02   2.2890919e+00   2.4562091e-01  -1.0044540e+08
   4.2680894e-10  -2.8418333e-02   2.2731427e+00   2.4902231e-01  -9.9436815e+07
   4.2947649e-10  -2.8154413e-02   2.2573957e+00   2.5242846e-01  -9.8440199e+07
   4.3214405e-10  -2.7893136e-02   2.2418483e+00   2.5583893e-01  -9.7455371e+07
   4.3481160e-10  -2.7634471e-02   2.2264981e+00   2.5925327e-01  -9.6482156e+07
   4.3747916e-10  -2.7378386e-02   2.2113426e+00   2.6267108e-01  -9.5520379e+07
   4.4014672e-10  -2.7124852e-02   2.1963795e+00   2.6609193e-01  -9.4569872e+07
   4.4281427e-10  -2.6873838e-02   2.1816062e+00   2.6951542e-01  -9.3630465e+07
   4.4548183e-10  -2.6625316e-02   2.1670203e+00   2.7294113e-01  -9.2701996e+07
   4.4814938e-10  -2.6379256e-02   2.1526196e+00   2.7636866e-01  -9.1784303e+07
   4.5081694e-10  -2.6135629e-02   2.1384015e+00   2.7979763e-01  -9.0877226e+07
   4.5348449e-10  -2.5894409e-02   2.1243637e+00   2.8322765e-01  -8.9980611e+07
   4.5615205e-10  -2.5655566e-02   2.1105040e+00   2.8665832e-01  -8.9094304e+07
   4.5881961e-10  -2.5419074e-02   2.0968199e+00   2.9008929e-01  -8.8218155e+07
   4.6148716e-10  -2.5184905e-02   2.0833092e+00   2.9352017e-01  -8.7352015e+07
   4.6415472e-10  -2.4953034e-02   2.0699697e+00   2.9695060e-01  -8.6495741e+07
   4.6682227e-10  -2.4723434e-02   2.0567990e+00   3.0038022e-01  -8.5649188e+07
   4.6948983e-10  -2.4496080e-02   2.0437950e+00   3.0380868e-01  -8.4812218e+07
   4.7215739e-10  -2.4270945e-02   2.0309553e+00   3.0723563e-01  -8.3984692e+07
   4.7482494e-10  -2.4048005e-02   2.0182780e+00   3.1066073e-01  -8.3166475e+07
   4.7749250e-10  -2.3827236e-02   2.0057607e+00   3.1408365e-01  -8.2357435e+07
   4.8016005e-10  -2.3608613e-02   1.9934014e+00   3.1750405e-01  -8.1557441e+07
   4.8282761e-10  -2.3392111e-02   1.9811980e+00   3.2092162e-01  -8.0766365e+07
   4.8549517e-10  -2.3177709e-02   1.9691483e+00   3.2433602e-01  -7.9984082e+07
   4.8816272e-10  -2.2965381e-02   1.9572502e+00   3.2774696e-01  -7.9210467e+07
   4.9083028e-10  -2.2755106e-02   1.9455019e+00   3.3115412e-01  -7.8445399e+07
   4.9349783e-10  -2.2546860e-02   1.9339011e+00   3.3455720e-01  -7.7688759e+07
   4.9616539e-10  -2.2340621e-02   1.9224460e+00   3.3795590e-01  -7.6940430e+07
   4.9883294e-10  -2.2136368e-02   1.9111346e+00   3.4134994e-01  -7.6200297e+07
   5.0150050e-10  -2.1934078e-02   1.8999649e+00   3.4473903e-01  -7.5468246e+07
   5.0416806e-10  -2.1733730e-02   1.8889350e+00   3.4812288e-01  -7.4744166e+07
   5.0683561e-10  -2.1535304e-02   1.8780430e+00   3.5150123e-01  -7.4027949e+07
   5.0950317e-10  -2.1338777e-02   1.8672870e+00   3.5487381e-01  -7.3319487e+07
   5.1217072e-10  -2.1144130e-02   1.8566652e+00   3.5824036e-01  -7.2618675e+07
   5.1483828e-10  -2.0951342e-02   1.8461757e+00   3.6160060e-01  -7.1925409e+07
   5.1750584e-10  -2.0760394e-02   1.8358168e+00   3.6495430e-01  -7.1239588e+07
   5.2017339e-10  -2.0571265e-02   1.8255867e+00   3.6830121e-01  -7.0561111e+07
   5.2284095e-10  -2.0383937e-02   1.8154836e+00   3.7164108e-01  -6.9889880e+07
   5.2550850e-10  -2.0198390e-02   1.8055057e+00   3.7497367e-01  -6.9225800e+07
   5.2817606e-10  -2.0014604e-02   1.7956514e+00   3.7829876e-01  -6.8568774e+07
   5.3084361e-10  -1.9832562e-02   1.7859190e+00   3.8161611e-01  -6.7918710e+07
   5.3351117e-10  -1.9652245e-02   1.7763068e+00   3.8492550e-01  -6.7275517e+07
   5.3617873e-10  -1.9473634e-02   1.7668132e+00   3.8822672e-01  -6.6639103e+07
   5.3884628e-10  -1.9296712e-02   1.7574366e+00   3.9151956e-01  -6.6009382e+07
   5.4151384e-10  -1.9121461e-02   1.7481753e+00   3.9480380e-01  -6.5386264e+07
   5.4418139e-10  -1.8947864e-02   1.7390277e+00   3.9807924e-01  -6.4769666e+07
   5.4684895e-10  -1.8775903e-02   1.7299925e+00   4.0134569e-01  -6.4159504e+07
   5.4951651e-10  -1.8605561e-02   1.7210679e+00   4.0460295e-01  -6.3555693e+07
   5.5218406e-10  -1.8436821e-02   1.7122525e+00   4.0785083e-01  -6.2958154e+07
   5.5485162e-10  -1.8269667e-02   1.7035447e+00   4.1108915e-01  -6.2366805e+07
   5.5751917e-10  -1.8104082e-02   1.6949433e+00   4.1431773e-01  -6.1781570e+07
   5.6018673e-10  -1.7940050e-02   1.6864465e+00   4.1753640e-01  -6.1202369e+07
   5.6285428e-10  -1.7777556e-02   1.6780532e+00   4.2074497e-01  -6.0629129e+07
   5.6552184e-10  -1.7616582e-02   1.6697618e+00   4.2394329e-01  -6.0061772e+07
   5.6818940e-10  -1.7457115e-02   1.6615709e+00   4.2713120e-01  -5.9500227e+07
   5.7085695e-10  -1.7299137e-02   1.6534792e+00   4.3030853e-01  -5.8944421e+07
   5.7352451e-10  -1.7142635e-02   1.6454854e+00   4.3347514e-01  -5.8394283e+07
   5.7619206e-10  -1.6987592e-02   1.6375881e+00   4.3663087e-01  -5.7849742e+07
   5.7885962e-10  -1.6833995e-02   1.6297860e+00   4.3977558e-01  -5.7310730e+07
   5.8152718e-10  -1.6681829e-02   1.6220778e+00   4.4290913e-01  -5.6777180e+07
   5.8419473e-10  -1.6531078e-02   1.6144622e+00   4.4603137e-01  -5.6249024e+07
   5.8686229e-10  -1.6381729e-02   1.6069380e+00   4.4914218e-01  -5.5726197e+07
   5.8952984e-10  -1.6233768e-02   1.5995040e+00   4.5224143e-01  -5.5208634e+07
   5.9219740e-10  -1.6087181e-02   1.5921589e+00   4.5532899e-01  -5.4696273e+07
   5.9486495e-10  -1.5941953e-02   1.5849016e+00   4.5840474e-01  -5.4189050e+07
   5.9753251e-10  -1.5798072e-02   1.5777308e+00   4.6146857e-01  -5.3686905e+07
   6.0020007e-10  -1.5655523e-02   1.5706453e+00   4.6452035e-01  -5.3189776e+07
   6.0286762e-10  -1.5514294e-02   1.5636441e+00   4.6755997e-01  -5.2697603e+07
   6.0553518e-10  -1.5374372e-02   1.5567261e+00   4.7058734e-01  -5.2210330e+07
   6.0820273e-10  -1.5235742e-02   1.5498900e+00   4.7360235e-01  -5.1727896e+07
   6.1087029e-10  -1.5098393e-02   1.5431348e+00   4.7660489e-01  -5.1250247e+07
   6.1353785e-10  -1.4962312e-02   1.5364594e+00   4.7959487e-01  -5.0777325e+07
   6.1620540e-10  -1.4827487e-02   1.5298627e+00   4.8257221e-01  -5.0309075e+07
   6.1887296e-10  -1.4693904e-02   1.5233437e+00   4.8553679e-01  -4.9845444e+07
   6.2154051e-10  -1.4561552e-02   1.5169014e+00   4.8848855e-01  -4.9386377e+07
   6.2420807e-10  -1.4430418e-02   1.5105347e+00   4.9142740e-01  -4.8931823e+07
   6.2687563e-10  -1.4300491e-02   1.5042427e+00   4.9435326e-01  -4.8481729e+07
   6.2954318e-10  -1.4171759e-02   1.4980243e+00   4.9726604e-01  -4.8036044e+07
   6.3221074e-10  -1.4044210e-02   1.4918785e+00   5.0016569e-01  -4.7594718e+07
   6.3487829e-10  -1.3917832e-02   1.4858044e+00   5.0305212e-01  -4.7157701e+07
   6.3754585e-10  -1.3792614e-02   1.4798011e+00   5.0592527e-01  -4.6724945e+07
   6.4021340e-10  -1.3668546e-02   1.4738676e+00   5.0878508e-01  -4.6296400e+07
   6.4288096e-10  -1.3545614e-02   1.4680030e+00   5.1163148e-01  -4.5872021e+07
   6.4554852e-10  -1.3423810e-02   1.4622064e+00   5.1446441e-01  -4.5451759e+07
   6.4821607e-10  -1.3303121e-02   1.4564769e+00   5.1728382e-01  -4.5035570e+07
   6.5088363e-10  -1.3183536e-02   1.4508135e+00   5.2008966e-01  -4.4623407e+07
   6.5355118e-10  -1.3065046e-02   1.4452156e+00   5.2288187e-01  -4.4215226e+07
   6.5621874e-10  -1.2947640e-02   1.4396821e+00   5.2566041e-01  -4.3810982e+07
   6.5888630e-10  -1.2831306e-02   1.4342122e+00   5.2842522e-01  -4.3410633e+07
   6.6155385e-10  -1.2716036e-02   1.4288052e+00   5.3117628e-01  -4.3014135e+07
   6.6422141e-10  -1.2601818e-02   1.4234602e+00   5.3391353e-01  -4.2621447e+07
   6.6688896e-10  -1.2488642e-02   1.4181763e+00   5.3663695e-01  -4.2232525e+07
   6.6955652e-10  -1.2376499e-02   1.4129529e+00   5.3934649e-01  -4.1847330e+07
   6.7222407e-10  -1.2265379e-02   1.4077891e+00   5.4204212e-01  -4.1465821e+07
   6.7489163e-10  -1.2155272e-02   1.4026841e+00   5.4472381e-01  -4.1087957e+07
   6.7755919e-10  -1.2046167e-02   1.3976371e+00   5.4739154e-01  -4.0713700e+07
   6.8022674e-10  -1.1938056e-02   1.3926476e+00   5.5004528e-01  -4.0343010e+07
   6.8289430e-10  -1.1830930e-02   1.3877146e+00   5.5268500e-01  -3.9975850e+07
   6.8556185e-10  -1.1724778e-02   1.3828374e+00   5.5531069e-01  -3.9612181e+07
   6.8822941e-10  -1.1619591e-02   1.3780155e+00   5.5792232e-01  -3.9251966e+07
   6.9089697e-10  -1.1515361e-02   1.3732479e+00   5.6051988e-01  -3.8895169e+07
   6.9356452e-10  -1.1412078e-02   1.3685341e+00   5.6310336e-01  -3.8541752e+07
   6.9623208e-10  -1.1309733e-02   1.3638734e+00   5.6567273e-01  -3.8191681e+07
   6.9889963e-10  -1.1208318e-02   1.3592650e+00   5.6822799e-01  -3.7844919e+07
   7.0156719e-10  -1.1107824e-02   1.3547084e+00   5.7076914e-01  -3.7501432e+07
   7.0423474e-10  -1.1008241e-02   1.3502028e+00   5.7329615e-01  -3.7161186e+07
   7.0690230e-10  -1.0909562e-02   1.3457476e+00   5.7580904e-01  -3.6824146e+07
   7.0956986e-10  -1.0811777e-02   1.3413422e+00   5.7830779e-01  -3.6490279e+07
   7.1223741e-10  -1.0714879e-02   1.3369859e+00   5.8079241e-01  -3.6159552e+07
   7.1490497e-10  -1.0618859e-02   1.3326782e+00   5.8326289e-01  -3.5831932e+07
   7.1757252e-10  -1.0523709e-02   1.3284184e+00   5.8571924e-01  -3.5507388e+07
   7.2024008e-10  -1.0429421e-02   1.3242058e+00   5.8816146e-01  -3.5185886e+07
   7.2290764e-10  -1.0335986e-02   1.3200400e+00   5.9058955e-01  -3.4867396e+07
   7.2557519e-10  -1.0243397e-02   1.3159203e+00   5.9300353e-01  -3.4551887e+07
   7.2824275e-10  -1.0151645e-02   1.3118462e+00   5.9540340e-01  -3.4239328e+07
   7.3091030e-10  -1.0060724e-02   1.3078170e+00   5.9778918e-01  -3.3929688e+07
   7.3357786e-10  -9.9706240e-03   1.3038322e+00   6.0016087e-01  -3.3622939e+07
   7.3624542e-10  -9.8813389e-03   1.2998914e+00   6.0251849e-01  -3.3319050e+07
   7.3891297e-10  -9.7928607e-03   1.2959938e+00   6.0486206e-01  -3.3017993e+07
   7.4158053e-10  -9.7051818e-03   1.2921390e+00   6.0719158e-01  -3.2719737e+07
   7.4424808e-10  -9.6182948e-03   1.2883265e+00   6.0950708e-01  -3.2424257e+07
   7.4691564e-10  -9.5321923e-03   1.2845557e+00   6.1180858e-01  -3.2131522e+07
   7.4958319e-10  -9.4468671e-03   1.2808261e+00   6.1409610e-01  -3.1841505e+07
   7.5225075e-10  -9.3623120e-03   1.2771373e+00   6.1636966e-01  -3.1554180e+07
   7.5491831e-10  -9.2785197e-03   1.2734886e+00   6.1862928e-01  -3.1269518e+07
   7.5758586e-10  -9.1954833e-03   1.2698797e+00   6.2087498e-01  -3.0987494e+07
   7.6025342e-10  -9.1131957e-03   1.2663099e+00   6.2310680e-01  -3.0708080e+07
   7.6292097e-10  -9.0316499e-03   1.2627790e+00   6.2532477e-01  -3.0431252e+07
   7.6558853e-10  -8.9508393e-03   1.2592863e+00   6.2752889e-01  -3.0156982e+07
   7.6825609e-10  -8.8707568e-03   1.2558314e+00   6.2971922e-01  -2.9885245e+07
   7.7092364e-10  -8.7913959e-03   1.2524138e+00   6.3189578e-01  -2.9616017e+07
   7.7359120e-10  -8.7127499e-03   1.2490332e+00   6.3405859e-01  -2.9349273e+07
   7.7625875e-10  -8.6348121e-03   1.2456890e+00   6.3620769e-01  -2.9084987e+07
   7.7892631e-10  -8.5575761e-03   1.2423808e+00   6.3834312e-01  -2.8823136e+07
   7.8159386e-10  -8.4810353e-03   1.2391081e+00   6.4046492e-01  -2.8563695e+07
   7.8426142e-10  -8.4051835e-03   1.2358707e+00   6.4257310e-01  -2.8306641e+07
   7.8692898e-10  -8.3300141e-03   1.2326679e+00   6.4466772e-01  -2.8051951e+07
   7.8959653e-10  -8.2555211e-03   1.2294994e+00   6.4674880e-01  -2.7799601e+07
   7.9226409e-10  -8.1816981e-03   1.2263648e+00   6.4881640e-01  -2.7549568e+07
   7.9493164e-10  -8.1085390e-03   1.2232637e+00   6.5087054e-01  -2.7301830e+07
   7.9759920e-10  -8.0360378e-03   1.2201957e+00   6.5291127e-01  -2.7056364e+07
   8.0026676e-10  -7.9641883e-03   1.2171603e+00   6.5493862e-01  -2.6813148e+07
   8.0293431e-10  -7.8929847e-03   1.2141573e+00   6.5695265e-01  -2.6572161e+07
   8.0560187e-10  -7.8224209e-03   1.2111862e+00   6.5895339e-01  -2.6333380e+07
   8.0826942e-10  -7.7524912e-03   1.2082466e+00   6.6094088e-01  -2.6096784e+07
   8.1093698e-10  -7.6831897e-03   1.2053381e+00   6.6291517e-01  -2.5862353e+07
   8.1360453e-10  -7.6145108e-03   1.2024605e+00   6.6487631e-01  -2.5630064e+07
   8.1627209e-10  -7.5464486e-03   1.1996132e+00   6.6682433e-01  -2.5399898e+07
   8.1893965e-10  -7.4789976e-03   1.1967961e+00   6.6875929e-01  -2.5171834e+07
   8.2160720e-10  -7.4121522e-03   1.1940086e+00   6.7068124e-01  -2.4945852e+07
   8.2427476e-10  -7.3459069e-03   1.1912505e+00   6.7259021e-01  -2.4721932e+07
   8.2694231e-10  -7.2802561e-03   1.1885215e+00   6.7448626e-01  -2.4500053e+07
   8.2960987e-10  -7.2151946e-03   1.1858211e+00   6.7636944e-01  -2.4280197e+07
   8.3227743e-10  -7.1507168e-03   1.1831490e+00   6.7823980e-01  -2.4062344e+07
   8.3494498e-10  -7.0868175e-03   1.1805050e+00   6.8009738e-01  -2.3846475e+07
   8.3761254e-10  -7.0234914e-03   1.1778886e+00   6.8194224e-01  -2.3632570e+07
   8.4028009e-10  -6.9607334e-03   1.1752996e+00   6.8377442e-01  -2.3420612e+07
   8.4294765e-10  -6.8985382e-03   1.1727377e+00   6.8559399e-01  -2.3210582e+07
   8.4561521e-10  -6.8369006e-03   1.1702025e+00   6.8740098e-01  -2.3002461e+07
   8.4828276e-10  -6.7758158e-03   1.1676937e+00   6.8919546e-01  -2.2796231e+07
   8.5095032e-10  -6.7152785e-03   1.1652110e+00   6.9097747e-01  -2.2591875e+07
   8.5361787e-10  -6.6552840e-03   1.1627541e+00   6.9274708e-01  -2.2389374e+07
   8.5628543e-10  -6.5958271e-03   1.1603228e+00   6.9450432e-01  -2.2188711e+07
   8.5895298e-10  -6.5369031e-03   1.1579166e+00   6.9624926e-01  -2.1989868e+07
   8.6162054e-10  -6.4785071e-03   1.1555354e+00   6.9798196e-01  -2.1792829e+07
   8.6428810e-10  -6.4206343e-03   1.1531789e+00   6.9970246e-01  -2.1597577e+07
   8.6695565e-10  -6.3632800e-03   1.1508467e+00   7.0141082e-01  -2.1404094e+07
   8.6962321e-10  -6.3064395e-03   1.1485386e+00   7.0310710e-01  -2.1212364e+07
   8.7229076e-10  -6.2501082e-03   1.1462543e+00   7.0479135e-01  -2.1022370e+07
   8.7495832e-10  -6.1942813e-03   1.1439935e+00   7.0646363e-01  -2.0834096e+07
   8.7762588e-10  -6.1389544e-03   1.1417560e+00   7.0812399e-01  -2.0647527e+07
   8.8029343e-10  -6.0841230e-03   1.1395415e+00   7.0977250e-01  -2.0462645e+07
   8.8296099e-10  -6.0297824e-03   1.1373498e+00   7.1140921e-01  -2.0279436e+07
   8.8562854e-10  -5.9759284e-03   1.1351805e+00   7.1303418e-01  -2.0097883e+07
   8.8829610e-10  -5.9225565e-03   1.1330335e+00   7.1464746e-01  -1.9917971e+07
   8.9096365e-10  -5.8696624e-03   1.1309085e+00   7.1624911e-01  -1.9739685e+07
   8.9363121e-10  -5.8172417e-03   1.1288051e+00   7.1783919e-01  -1.9563009e+07
   8.9629877e-10  -5.7652901e-03   1.1267233e+00   7.1941776e-01  -1.9387930e+07
   8.9896632e-10  -5.7138035e-03   1.1246627e+00   7.2098487e-01  -1.9214430e+07
   9.0163388e-10  -5.6627776e-03   1.1226232e+00   7.2254060e-01  -1.9042497e+07
   9.0430143e-10  -5.6122083e-03   1.1206044e+00   7.2408498e-01  -1.8872116e+07
   9.0696899e-10  -5.5620914e-03   1.1186061e+00   7.2561809e-01  -1.8703271e+07
   9.0963655e-10  -5.5124229e-03   1.1166282e+00   7.2713998e-01  -1.8535949e+07
   9.1230410e-10  -5.4631987e-03   1.1146703e+00   7.2865071e-01  -1.8370136e+07
   9.1497166e-10  -5.4144148e-03   1.1127323e+00   7.3015035e-01  -1.8205817e+07
   9.1763921e-10  -5.3660673e-03   1.1108140e+00   7.3163894e-01  -1.8042980e+07
   9.2030677e-10  -5.3181522e-03   1.1089150e+00   7.3311655e-01  -1.7881609e+07
   9.2297432e-10  -5.2706656e-03   1.1070353e+00   7.3458324e-01  -1.7721692e+07
   9.2564188e-10  -5.2236037e-03   1.1051746e+00   7.3603907e-01  -1.7563215e+07
   9.2830944e-10  -5.1769627e-03   1.1033326e+00   7.3748410e-01  -1.7406165e+07
   9.3097699e-10  -5.1307386e-03   1.1015092e+00   7.3891839e-01  -1.7250529e+07
   9.3364455e-10  -5.0849279e-03   1.0997042e+00   7.4034199e-01  -1.7096293e+07
   9.3631210e-10  -5.0395268e-03   1.0979174e+00   7.4175498e-01  -1.6943446e+07
   9.3897966e-10  -4.9945315e-03   1.0961485e+00   7.4315740e-01  -1.6791973e+07
   9.4164722e-10  -4.9499385e-03   1.0943974e+00   7.4454932e-01  -1.6641862e+07
   9.4431477e-10  -4.9057441e-03   1.0926639e+00   7.4593080e-01  -1.6493102e+07
   9.4698233e-10  -4.8619448e-03   1.0909477e+00   7.4730189e-01  -1.6345678e+07
   9.4964988e-10  -4.8185369e-03   1.0892488e+00   7.4866267e-01  -1.6199580e+07
   9.5231744e-10  -4.7755171e-03   1.0875668e+00   7.5001318e-01  -1.6054795e+07
   9.5498499e-10  -4.7328817e-03   1.0859017e+00   7.5135349e-01  -1.5911311e+07
   9.5765255e-10  -4.6906273e-03   1.0842532e+00   7.5268366e-01  -1.5769116e+07
   9.6032011e-10  -4.6487505e-03   1.0826212e+00   7.5400374e-01  -1.5628198e+07
   9.6298766e-10  -4.6072480e-03   1.0810055e+00   7.5531381e-01  -1.5488546e+07
   9.6565522e-10  -4.5661163e-03   1.0794058e+00   7.5661391e-01  -1.5350148e+07
   9.6832277e-10  -4.5253521e-03   1.0778221e+00   7.5790411e-01  -1.5212992e+07
   9.7099033e-10  -4.4849522e-03   1.0762541e+00   7.5918447e-01  -1.5077067e+07
   9.7365789e-10  -4.4449132e-03   1.0747018e+00   7.6045504e-01  -1.4942362e+07
   9.7632544e-10  -4.4052319e-03   1.0731648e+00   7.6171590e-01  -1.4808866e+07
   9.7899300e-10  -4.3659052e-03   1.0716431e+00   7.6296708e-01  -1.4676568e+07
   9.8166055e-10  -4.3269298e-03   1.0701365e+00   7.6420867e-01  -1.4545456e+07
   9.8432811e-10  -4.2883025e-03   1.0686448e+00   7.6544070e-01  -1.4415521e+07
   9.8699567e-10  -4.2500203e-03   1.0671678e+00   7.6666326e-01  -1.4286750e+07
   9.8966322e-10  -4.2120801e-03   1.0657055e+00   7.6787638e-01  -1.4159135e+07
   9.9233078e-10  -4.1744787e-03   1.0642576e+00   7.6908014e-01  -1.4032663e+07
   9.9499833e-10  -4.1372132e-03   1.0628240e+00   7.7027459e-01  -1.3907325e+07
   9.9766589e-10  -4.1002806e-03   1.0614046e+00   7.7145979e-01  -1.3783111e+07
   1.0003334e-09  -4.0636778e-03   1.0599991e+00   7.7263579e-01  -1.3660010e+07
   1.0030010e-09  -4.0274019e-03   1.0586075e+00   7.7380267e-01  -1.3538012e+07
   1.0056686e-09  -3.9914500e-03   1.0572296e+00   7.7496047e-01  -1.3417107e+07
   1.0083361e-09  -3.9558192e-03   1.0558653e+00   7.7610925e-01  -1.3297286e+07
   1.0110037e-09  -3.9205066e-03   1.0545143e+00   7.7724908e-01  -1.3178537e+07
   1.0136712e-09  -3.8855093e-03   1.0531766e+00   7.7838000e-01  -1.3060853e+07
   1.0163388e-09  -3.8508245e-03   1.0518521e+00   7.7950208e-01  -1.2944222e+07
   1.0190063e-09  -3.8164495e-03   1.0505405e+00   7.8061538e-01  -1.2828636e+07
   1.0216739e-09  -3.7823814e-03   1.0492418e+00   7.8171995e-01  -1.2714084e+07
   1.0243414e-09  -3.7486175e-03   1.0479557e+00   7.8281585e-01  -1.2600558e+07
   1.0270090e-09  -3.7151551e-03   1.0466823e+00   7.8390314e-01  -1.2488049e+07
   1.0296766e-09  -3.6819915e-03   1.0454213e+00   7.8498188e-01  -1.2376546e+07
   1.0323441e-09  -3.6491240e-03   1.0441726e+00   7.8605211e-01  -1.2266042e+07
   1.0350117e-09  -3.6165499e-03   1.0429362e+00   7.8711390e-01  -1.2156526e+07
   1.0376792e-09  -3.5842667e-03   1.0417117e+00   7.8816731e-01  -1.2047991e+07
   1.0403468e-09  -3.5522717e-03   1.0404992e+00   7.8921238e-01  -1.1940427e+07
   1.0430143e-09  -3.5205623e-03   1.0392986e+00   7.9024918e-01  -1.1833825e+07
   1.0456819e-09  -3.4891360e-03   1.0381096e+00   7.9127777e-01  -1.1728176e+07
   1.0483494e-09  -3.4579903e-03   1.0369321e+00   7.9229819e-01  -1.1623473e+07
   1.0510170e-09  -3.4271227e-03   1.0357662e+00   7.9331050e-01  -1.1519707e+07
   1.0536846e-09  -3.3965306e-03   1.0346115e+00   7.9431477e-01  -1.1416868e+07
   1.0563521e-09  -3.3662116e-03   1.0334680e+00   7.9531104e-01  -1.1314949e+07
   1.0590197e-09  -3.3361633e-03   1.0323357e+00   7.9629936e-01  -1.1213942e+07
   1.0616872e-09  -3.3063832e-03   1.0312143e+00   7.9727980e-01  -1.1113838e+07
   1.0643548e-09  -3.2768689e-03   1.0301037e+00   7.9825240e-01  -1.1014629e+07
   1.0670223e-09  -3.2476181e-03   1.0290040e+00   7.9921723e-01  -1.0916307e+07
   1.0696899e-09  -3.2186284e-03   1.0279148e+00   8.0017433e-01  -1.0818864e+07
   1.0723575e-09  -3.1898975e-03   1.0268362e+00   8.0112377e-01  -1.0722292e+07
   1.0750250e-09  -3.1614230e-03   1.0257680e+00   8.0206558e-01  -1.0626583e+07
   1.0776926e-09  -3.1332027e-03   1.0247101e+00   8.0299983e-01  -1.0531730e+07
   1.0803601e-09  -3.1052343e-03   1.0236625e+00   8.0392657e-01  -1.0437724e+07
   1.0830277e-09  -3.0775155e-03   1.0226249e+00   8.0484585e-01  -1.0344559e+07
   1.0856952e-09  -3.0500442e-03   1.0215973e+00   8.0575773e-01  -1.0252226e+07
   1.0883628e-09  -3.0228180e-03   1.0205796e+00   8.0666225e-01  -1.0160718e+07
   1.0910303e-09  -2.9958349e-03   1.0195717e+00   8.0755947e-01  -1.0070029e+07
   1.0936979e-09  -2.9690926e-03   1.0185736e+00   8.0844944e-01  -9.9801489e+06
   1.0963655e-09  -2.9425890e-03   1.0175850e+00   8.0933222e-01  -9.8910724e+06
   1.0990330e-09  -2.9163219e-03   1.0166059e+00   8.1020784e-01  -9.8027917e+06
   1.1017006e-09  -2.8902893e-03   1.0156362e+00   8.1107638e-01  -9.7152996e+06
   1.1043681e-09  -2.8644890e-03   1.0146758e+00   8.1193787e-01  -9.6285892e+06
   1.1070357e-09  -2.8389190e-03   1.0137246e+00   8.1279236e-01  -9.5426533e+06
   1.1097032e-09  -2.8135772e-03   1.0127825e+00   8.1363991e-01  -9.4574851e+06
   1.1123708e-09  -2.7884616e-03   1.0118494e+00   8.1448057e-01  -9.3730776e+06
   1.1150383e-09  -2.7635701e-03   1.0109253e+00   8.1531439e-01  -9.2894240e+06
   1.1177059e-09  -2.7389008e-03   1.0100100e+00   8.1614141e-01  -9.2065175e+06
   1.1203735e-09  -2.7144516e-03   1.0091035e+00   8.1696169e-01  -9.1243515e+06
   1.1230410e-09  -2.6902207e-03   1.0082056e+00   8.1777528e-01  -9.0429193e+06
   1.1257086e-09  -2.6662060e-03   1.0073163e+00   8.1858221e-01  -8.9622142e+06
   1.1283761e-09  -2.6424057e-03   1.0064355e+00   8.1938256e-01  -8.8822299e+06
   1.1310437e-09  -2.6188177e-03   1.0055631e+00   8.2017635e-01  -8.8029598e+06
   1.1337112e-09  -2.5954402e-03   1.0046991e+00   8.2096364e-01  -8.7243974e+06
   1.1363788e-09  -2.5722714e-03   1.0038432e+00   8.2174448e-01  -8.6465366e+06
   1.1390463e-09  -2.5493094e-03   1.0029955e+00   8.2251892e-01  -8.5693710e+06
   1.1417139e-09  -2.5265523e-03   1.0021559e+00   8.2328699e-01  -8.4928943e+06
   1.1443815e-09  -2.5039982e-03   1.0013242e+00   8.2404876e-01  -8.4171004e+06
   1.1470490e-09  -2.4816455e-03   1.0005005e+00   8.2480426e-01  -8.3419831e+06
   1.1497166e-09  -2.4594922e-03   9.9968459e-01   8.2555355e-01  -8.2675365e+06
   1.1523841e-09  -2.4375367e-03   9.9887644e-01   8.2629666e-01  -8.1937544e+06
   1.1550517e-09  -2.4157771e-03   9.9807596e-01   8.2703366e-01  -8.1206311e+06
   1.1577192e-09  -2.3942116e-03   9.9728307e-01   8.2776457e-01  -8.0481604e+06
   1.1603868e-09  -2.3728386e-03   9.9649770e-01   8.2848945e-01  -7.9763367e+06
   1.1630544e-09  -2.3516564e-03   9.9571978e-01   8.2920834e-01  -7.9051540e+06
   1.1657219e-09  -2.3306632e-03   9.9494923e-01   8.2992129e-01  -7.8346068e+06
   1.1683895e-09  -2.3098573e-03   9.9418597e-01   8.3062834e-01  -7.7646892e+06
   1.1710570e-09  -2.2892372e-03   9.9342994e-01   8.3132953e-01  -7.6953957e+06
   1.1737246e-09  -2.2688010e-03   9.9268106e-01   8.3202492e-01  -7.6267206e+06
   1.1763921e-09  -2.2485472e-03   9.9193927e-01   8.3271455e-01  -7.5586585e+06
   1.1790597e-09  -2.2284742e-03   9.9120448e-01   8.3339845e-01  -7.4912038e+06
   1.1817272e-09  -2.2085803e-03   9.9047664e-01   8.3407667e-01  -7.4243511e+06
   1.1843948e-09  -2.1888639e-03   9.8975567e-01   8.3474926e-01  -7.3580951e+06
   1.1870624e-09  -2.1693235e-03   9.8904150e-01   8.3541626e-01  -7.2924303e+06
   1.1897299e-09  -2.1499574e-03   9.8833407e-01   8.3607771e-01  -7.2273516e+06
   1.1923975e-09  -2.1307642e-03   9.8763331e-01   8.3673365e-01  -7.1628536e+06
   1.1950650e-09  -2.1117423e-03   9.8693916e-01   8.3738413e-01  -7.0989312e+06
   1.1977326e-09  -2.0928901e-03   9.8625155e-01   8.3802919e-01  -7.0355792e+06
   1.2004001e-09  -2.0742062e-03   9.8557041e-01   8.3866887e-01  -6.9727926e+06
   1.2030677e-09  -2.0556890e-03   9.8489568e-01   8.3930320e-01  -6.9105662e+06
   1.2057352e-09  -2.0373371e-03   9.8422730e-01   8.3993224e-01  -6.8488951e+06
   1.2084028e-09  -2.0191489e-03   9.8356520e-01   8.4055603e-01  -6.7877743e+06
   1.2110704e-09  -2.0011231e-03   9.8290933e-01   8.4117459e-01  -6.7271989e+06
   1.2137379e-09  -1.9832581e-03   9.8225962e-01   8.4178798e-01  -6.6671639e+06
   1.2164055e-09  -1.9655525e-03   9.8161602e-01   8.4239624e-01  -6.6076647e+06
   1.2190730e-09  -1.9480050e-03   9.8097845e-01   8.4299940e-01  -6.5486964e+06
   1.2217406e-09  -1.9306140e-03   9.8034687e-01   8.4359750e-01  -6.4902542e+06
   1.2244081e-09  -1.9133783e-03   9.7972121e-01   8.4419059e-01  -6.4323334e+06
   1.2270757e-09  -1.8962963e-03   9.7910142e-01   8.4477870e-01  -6.3749295e+06
   1.2297432e-09  -1.8793669e-03   9.7848744e-01   8.4536187e-01  -6.3180377e+06
   1.2324108e-09  -1.8625885e-03   9.7787921e-01   8.4594014e-01  -6.2616535e+06
   1.2350784e-09  -1.8459598e-03   9.7727667e-01   8.4651355e-01  -6.2057724e+06
   1.2377459e-09  -1.8294795e-03   9.7667978e-01   8.4708214e-01  -6.1503899e+06
   1.2404135e-09  -1.8131463e-03   9.7608847e-01   8.4764594e-01  -6.0955015e+06
   1.2430810e-09  -1.7969589e-03   9.7550269e-01   8.4820499e-01  -6.0411028e+06
   1.2457486e-09  -1.7809159e-03   9.7492239e-01   8.4875933e-01  -5.9871894e+06
   1.2484161e-09  -1.7650162e-03   9.7434751e-01   8.4930900e-01  -5.9337570e+06
   1.2510837e-09  -1.7492583e-03   9.7377800e-01   8.4985403e-01  -5.8808014e+06
   1.2537513e-09  -1.7336410e-03   9.7321381e-01   8.5039446e-01  -5.8283182e+06
   1.2564188e-09  -1.7181631e-03   9.7265489e-01   8.5093033e-01  -5.7763032e+06
   1.2590864e-09  -1.7028234e-03   9.7210118e-01   8.5146167e-01  -5.7247523e+06
   1.2617539e-09  -1.6876205e-03   9.7155264e-01   8.5198852e-01  -5.6736613e+06
   1.2644215e-09  -1.6725533e-03   9.7100922e-01   8.5251092e-01  -5.6230261e+06
   1.2670890e-09  -1.6576206e-03   9.7047085e-01   8.5302889e-01  -5.5728426e+06
   1.2697566e-09  -1.6428212e-03   9.6993751e-01   8.5354248e-01  -5.5231068e+06
   1.2724241e-09  -1.6281539e-03   9.6940913e-01   8.5405172e-01  -5.4738148e+06
   1.2750917e-09  -1.6136174e-03   9.6888568e-01   8.5455664e-01  -5.4249625e+06
   1.2777593e-09  -1.5992107e-03   9.6836709e-01   8.5505728e-01  -5.3765460e+06
   1.2804268e-09  -1.5849325e-03   9.6785333e-01   8.5555368e-01  -5.3285615e+06
   1.2830944e-09  -1.5707818e-03   9.6734435e-01   8.5604586e-01  -5.2810050e+06
   1.2857619e-09  -1.5567574e-03   9.6684011e-01   8.5653387e-01  -5.2338728e+06
   1.2884295e-09  -1.5428582e-03   9.6634054e-01   8.5701773e-01  -5.1871611e+06
   1.2910970e-09  -1.5290830e-03   9.6584563e-01   8.5749747e-01  -5.1408661e+06
   1.2937646e-09  -1.5154307e-03   9.6535530e-01   8.5797314e-01  -5.0949841e+06
   1.2964321e-09  -1.5019003e-03   9.6486954e-01   8.5844476e-01  -5.0495114e+06
   1.2990997e-09  -1.4884906e-03   9.6438828e-01   8.5891237e-01  -5.0044443e+06
   1.3017673e-09  -1.4752007e-03   9.6391148e-01   8.5937600e-01  -4.9597794e+06
   1.3044348e-09  -1.4620293e-03   9.6343911e-01   8.5983568e-01  -4.9155129e+06
   1.3071024e-09  -1.4489755e-03   9.6297112e-01   8.6029144e-01  -4.8716413e+06
   1.3097699e-09  -1.4360382e-03   9.6250747e-01   8.6074331e-01  -4.8281610e+06
   1.3124375e-09  -1.4232164e-03   9.6204811e-01   8.6119133e-01  -4.7850687e+06
   1.3151050e-09  -1.4105090e-03   9.6159301e-01   8.6163553e-01  -4.7423608e+06
   1.3177726e-09  -1.3979150e-03   9.6114213e-01   8.6207594e-01  -4.7000339e+06
   1.3204401e-09  -1.3854334e-03   9.6069542e-01   8.6251259e-01  -4.6580846e+06
   1.3231077e-09  -1.3730633e-03   9.6025284e-01   8.6294550e-01  -4.6165095e+06
   1.3257753e-09  -1.3608035e-03   9.5981436e-01   8.6337472e-01  -4.5753054e+06
   1.3284428e-09  -1.3486532e-03   9.5937994e-01   8.6380026e-01  -4.5344688e+06
   1.3311104e-09  -1.3366113e-03   9.5894953e-01   8.6422217e-01  -4.4939965e+06
   1.3337779e-09  -1.3246769e-03   9.5852310e-01   8.6464046e-01  -4.4538853e+06
   1.3364455e-09  -1.3128490e-03   9.5810062e-01   8.6505518e-01  -4.4141319e+06
   1.3391130e-09  -1.3011267e-03   9.5768203e-01   8.6546634e-01  -4.3747332e+06
   1.3417806e-09  -1.2895090e-03   9.5726732e-01   8.6587398e-01  -4.3356859e+06
   1.3444481e-09  -1.2779950e-03   9.5685643e-01   8.6627813e-01  -4.2969870e+06
   1.3471157e-09  -1.2665838e-03   9.5644933e-01   8.6667881e-01  -4.2586334e+06
   1.3497833e-09  -1.2552744e-03   9.5604600e-01   8.6707605e-01  -4.2206219e+06
   1.3524508e-09  -1.2440660e-03   9.5564638e-01   8.6746989e-01  -4.1829495e+06
   1.3551184e-09  -1.2329576e-03   9.5525045e-01   8.6786034e-01  -4.1456132e+06
   1.3577859e-09  -1.2219484e-03   9.5485817e-01   8.6824745e-01  -4.1086100e+06
   1.3604535e-09  -1.2110374e-03   9.5446951e-01   8.6863122e-01  -4.0719369e+06
   1.3631210e-09  -1.2002239e-03   9.5408442e-01   8.6901170e-01  -4.0355910e+06
   1.3657886e-09  -1.1895068e-03   9.5370289e-01   8.6938891e-01  -3.9995694e+06
   1.3684562e-09  -1.1788854e-03   9.5332487e-01   8.6976288e-01  -3.9638691e+06
   1.3711237e-09  -1.1683588e-03   9.5295033e-01   8.7013363e-01  -3.9284873e+06
   1.3737913e-09  -1.1579262e-03   9.5257924e-01   8.7050119e-01  -3.8934212e+06
   1.3764588e-09  -1.1475867e-03   9.5221156e-01   8.7086558e-01  -3.8586679e+06
   1.3791264e-09  -1.1373395e-03   9.5184727e-01   8.7122684e-01  -3.8242247e+06
   1.3817939e-09  -1.1271838e-03   9.5148633e-01   8.7158498e-01  -3.7900887e+06
   1.3844615e-09  -1.1171187e-03   9.5112871e-01   8.7194004e-01  -3.7562573e+06
   1.3871290e-09  -1.1071435e-03   9.5077437e-01   8.7229204e-01  -3.7227278e+06
   1.3897966e-09  -1.0972573e-03   9.5042330e-01   8.7264100e-01  -3.6894974e+06
   1.3924642e-09  -1.0874593e-03   9.5007545e-01   8.7298696e-01  -3.6565634e+06
   1.3951317e-09  -1.0777488e-03   9.4973079e-01   8.7332993e-01  -3.6239233e+06
   1.3977993e-09  -1.0681250e-03   9.4938930e-01   8.7366994e-01  -3.5915744e+06
   1.4004668e-09  -1.0585871e-03   9.4905095e-01   8.7400701e-01  -3.5595141e+06
   1.4031344e-09  -1.0491344e-03   9.4871570e-01   8.7434117e-01  -3.5277399e+06
   1.4058019e-09  -1.0397660e-03   9.4838353e-01   8.7467245e-01  -3.4962491e+06
   1.4084695e-09  -1.0304812e-03   9.4805441e-01   8.7500086e-01  -3.4650394e+06
   1.4111370e-09  -1.0212794e-03   9.4772831e-01   8.7532644e-01  -3.4341080e+06
   1.4138046e-09  -1.0121596e-03   9.4740520e-01   8.7564919e-01  -3.4034527e+06
   1.4164722e-09  -1.0031213e-03   9.4708505e-01   8.7596916e-01  -3.3730708e+06
   1.4191397e-09  -9.9416370e-04   9.4676784e-01   8.7628636e-01  -3.3429600e+06
   1.4218073e-09  -9.8528603e-04   9.4645353e-01   8.7660082e-01  -3.3131179e+06
   1.4244748e-09  -9.7648761e-04   9.4614210e-01   8.7691255e-01  -3.2835420e+06
   1.4271424e-09  -9.6776773e-04   9.4583353e-01   8.7722158e-01  -3.2542301e+06
   1.4298099e-09  -9.5912569e-04   9.4552779e-01   8.7752794e-01  -3.2251796e+06
   1.4324775e-09  -9.5056081e-04   9.4522484e-01   8.7783164e-01  -3.1963884e+06
   1.4351450e-09  -9.4207238e-04   9.4492467e-01   8.7813271e-01  -3.1678540e+06
   1.4378126e-09  -9.3365972e-04   9.4462724e-01   8.7843117e-01  -3.1395743e+06
   1.4404802e-09  -9.2532217e-04   9.4433254e-01   8.7872704e-01  -3.1115469e+06
   1.4431477e-09  -9.1705905e-04   9.4404053e-01   8.7902034e-01  -3.0837695e+06
   1.4458153e-09  -9.0886970e-04   9.4375120e-01   8.7931110e-01  -3.0562400e+06
   1.4484828e-09  -9.0075345e-04   9.4346451e-01   8.7959934e-01  -3.0289562e+06
   1.4511504e-09  -8.9270966e-04   9.4318044e-01   8.7988507e-01  -3.0019158e+06
   1.4538179e-09  -8.8473768e-04   9.4289897e-01   8.8016833e-01  -2.9751166e+06
   1.4564855e-09  -8.7683687e-04   9.4262008e-01   8.8044912e-01  -2.9485566e+06
   1.4591531e-09  -8.6900659e-04   9.4234373e-01   8.8072748e-01  -2.9222336e+06
   1.4618206e-09  -8.6124622e-04   9.4206990e-01   8.8100341e-01  -2.8961455e+06
   1.4644882e-09  -8.5355513e-04   9.4179858e-01   8.8127695e-01  -2.8702901e+06
   1.4671557e-09  -8.4593269e-04   9.4152974e-01   8.8154811e-01  -2.8446655e+06
   1.4698233e-09  -8.3837831e-04   9.4126335e-01   8.8181691e-01  -2.8192695e+06
   1.4724908e-09  -8.3089138e-04   9.4099939e-01   8.8208337e-01  -2.7941002e+06
   1.4751584e-09  -8.2347128e-04   9.4073784e-01   8.8234752e-01  -2.7691554e+06
   1.4778259e-09  -8.1611742e-04   9.4047868e-01   8.8260936e-01  -2.7444332e+06
   1.4804935e-09  -8.0882922e-04   9.4022189e-01   8.8286893e-01  -2.7199316e+06
   1.4831611e-09  -8.0160609e-04   9.3996743e-01   8.8312623e-01  -2.6956487e+06
   1.4858286e-09  -7.9444744e-04   9.3971530e-01   8.8338130e-01  -2.6715825e+06
   1.4884962e-09  -7.8735271e-04   9.3946547e-01   8.8363414e-01  -2.6477310e+06
   1.4911637e-09  -7.8032131e-04   9.3921791e-01   8.8388478e-01  -2.6240923e+06
   1.4938313e-09  -7.7335270e-04   9.3897261e-01   8.8413324e-01  -2.6006646e+06
   1.4964988e-09  -7.6644629e-04   9.3872955e-01   8.8437953e-01  -2.5774460e+06
   1.4991664e-09  -7.5960155e-04   9.3848870e-01   8.8462368e-01  -2.5544345e+06
   1.5018339e-09  -7.5281792e-04   9.3825005e-01   8.8486569e-01  -2.5316284e+06
   1.5045015e-09  -7.4609485e-04   9.3801357e-01   8.8510559e-01  -2.5090258e+06
   1.5071691e-09  -7.3943180e-04   9.3777925e-01   8.8534341e-01  -2.4866250e+06
   1.5098366e-09  -7.3282825e-04   9.3754705e-01   8.8557914e-01  -2.4644240e+06
   1.5125042e-09  -7.2628365e-04   9.3731698e-01   8.8581282e-01  -2.4424211e+06
   1.5151717e-09  -7.1979748e-04   9.3708900e-01   8.8604446e-01  -2.4206146e+06
   1.5178393e-09  -7.1336923e-04   9.3686309e-01   8.8627407e-01  -2.3990028e+06
   1.5205068e-09  -7.0699836e-04   9.3663924e-01   8.8650168e-01  -2.3775837e+06
   1.5231744e-09  -7.0068438e-04   9.3641742e-01   8.8672730e-01  -2.3563559e+06
   1.5258419e-09  -6.9442677e-04   9.3619763e-01   8.8695095e-01  -2.3353174e+06
   1.5285095e-09  -6.8822504e-04   9.3597983e-01   8.8717265e-01  -2.3144668e+06
   1.5311771e-09  -6.8207867e-04   9.3576401e-01   8.8739241e-01  -2.2938022e+06
   1.5338446e-09  -6.7598718e-04   9.3555016e-01   8.8761025e-01  -2.2733220e+06
   1.5365122e-09  -6.6995008e-04   9.3533825e-01   8.8782618e-01  -2.2530246e+06
   1.5391797e-09  -6.6396688e-04   9.3512827e-01   8.8804022e-01  -2.2329084e+06
   1.5418473e-09  -6.5803711e-04   9.3492019e-01   8.8825239e-01  -2.2129717e+06
   1.5445148e-09  -6.5216027e-04   9.3471401e-01   8.8846271e-01  -2.1932129e+06
   1.5471824e-09  -6.4633591e-04   9.3450970e-01   8.8867118e-01  -2.1736304e+06
   1.5498499e-09  -6.4056356e-04   9.3430724e-01   8.8887783e-01  -2.1542227e+06
   1.5525175e-09  -6.3484274e-04   9.3410663e-01   8.8908267e-01  -2.1349883e+06
   1.5551851e-09  -6.2917300e-04   9.3390784e-01   8.8928572e-01  -2.1159255e+06
   1.5578526e-09  -6.2355389e-04   9.3371085e-01   8.8948699e-01  -2.0970328e+06
   1.5605202e-09  -6.1798495e-04   9.3351565e-01   8.8968650e-01  -2.0783088e+06
   1.5631877e-09  -6.1246573e-04   9.3332222e-01   8.8988426e-01  -2.0597518e+06
   1.5658553e-09  -6.0699580e-04   9.3313055e-01   8.9008028e-01  -2.0413605e+06
   1.5685228e-09  -6.0157470e-04   9.3294062e-01   8.9027459e-01  -2.0231334e+06
   1.5711904e-09  -5.9620201e-04   9.3275241e-01   8.9046720e-01  -2.0050689e+06
   1.5738580e-09  -5.9087729e-04   9.3256591e-01   8.9065811e-01  -1.9871656e+06
   1.5765255e-09  -5.8560012e-04   9.3238110e-01   8.9084735e-01  -1.9694222e+06
   1.5791931e-09  -5.8037006e-04   9.3219797e-01   8.9103494e-01  -1.9518371e+06
   1.5818606e-09  -5.7518671e-04   9.3201650e-01   8.9122088e-01  -1.9344089e+06
   1.5845282e-09  -5.7004964e-04   9.3183667e-01   8.9140518e-01  -1.9171364e+06
   1.5871957e-09  -5.6495843e-04   9.3165848e-01   8.9158787e-01  -1.9000179e+06
   1.5898633e-09  -5.5991269e-04   9.3148190e-01   8.9176896e-01  -1.8830523e+06
   1.5925308e-09  -5.5491200e-04   9.3130692e-01   8.9194845e-01  -1.8662381e+06
   1.5951984e-09  -5.4995597e-04   9.3113353e-01   8.9212638e-01  -1.8495740e+06
   1.5978660e-09  -5.4504419e-04   9.3096171e-01   8.9230274e-01  -1.8330587e+06
   1.6005335e-09  -5.4017627e-04   9.3079144e-01   8.9247755e-01  -1.8166907e+06
   1.6032011e-09  -5.3535181e-04   9.3062272e-01   8.9265082e-01  -1.8004688e+06
   1.6058686e-09  -5.3057043e-04   9.3045553e-01   8.9282258e-01  -1.7843918e+06
   1.6085362e-09  -5.2583175e-04   9.3028985e-01   8.9299282e-01  -1.7684582e+06
   1.6112037e-09  -5.2113539e-04   9.3012567e-01   8.9316157e-01  -1.7526669e+06
   1.6138713e-09  -5.1648095e-04   9.2996298e-01   8.9332883e-01  -1.7370165e+06
   1.6165388e-09  -5.1186809e-04   9.2980176e-01   8.9349463e-01  -1.7215058e+06
   1.6192064e-09  -5.0729641e-04   9.2964200e-01   8.9365897e-01  -1.7061336e+06
   1.6218740e-09  -5.0276555e-04   9.2948369e-01   8.9382186e-01  -1.6908985e+06
   1.6245415e-09  -4.9827515e-04   9.2932681e-01   8.9398332e-01  -1.6757995e+06
   1.6272091e-09  -4.9382485e-04   9.2917135e-01   8.9414337e-01  -1.6608353e+06
   1.6298766e-09  -4.8941429e-04   9.2901730e-01   8.9430200e-01  -1.6460046e+06
   1.6325442e-09  -4.8504312e-04   9.2886464e-01   8.9445924e-01  -1.6313063e+06
   1.6352117e-09  -4.8071097e-04   9.2871336e-01   8.9461509e-01  -1.6167392e+06
   1.6378793e-09  -4.7641752e-04   9.2856345e-01   8.9476958e-01  -1.6023022e+06
   1.6405468e-09  -4.7216240e-04   9.2841490e-01   8.9492270e-01  -1.5879940e+06
   1.6432144e-09  -4.6794528e-04   9.2826769e-01   8.9507448e-01  -1.5738135e+06
   1.6458820e-09  -4.6376581e-04   9.2812181e-01   8.9522492e-01  -1.5597597e+06
   1.6485495e-09  -4.5962367e-04   9.2797725e-01   8.9537403e-01  -1.5458313e+06
   1.6512171e-09  -4.5551852e-04   9.2783400e-01   8.9552184e-01  -1.5320272e+06
   1.6538846e-09  -4.5145003e-04   9.2769204e-01   8.9566834e-01  -1.5183463e+06
   1.6565522e-09  -4.4741787e-04   9.2755137e-01   8.9581355e-01  -1.5047876e+06
   1.6592197e-09  -4.4342171e-04   9.2741197e-01   8.9595748e-01  -1.4913499e+06
   1.6618873e-09  -4.3946124e-04   9.2727382e-01   8.9610015e-01  -1.4780322e+06
   1.6645549e-09  -4.3553614e-04   9.2713693e-01   8.9624155e-01  -1.4648334e+06
   1.6672224e-09  -4.3164609e-04   9.2700127e-01   8.9638172e-01  -1.4517523e+06
   1.6698900e-09  -4.2779077e-04   9.2686684e-01   8.9652064e-01  -1.4387881e+06
   1.6725575e-09  -4.2396989e-04   9.2673362e-01   8.9665834e-01  -1.4259396e+06
   1.6752251e-09  -4.2018312e-04   9.2660161e-01   8.9679483e-01  -1.4132058e+06
   1.6778926e-09  -4.1643018e-04   9.2647079e-01   8.9693012e-01  -1.4005857e+06
   1.6805602e-09  -4.1271074e-04   9.2634115e-01   8.9706421e-01  -1.3880782e+06
   1.6832277e-09  -4.0902453e-04   9.2621268e-01   8.9719712e-01  -1.3756824e+06
   1.6858953e-09  -4.0537123e-04   9.2608537e-01   8.9732886e-01  -1.3633973e+06
   1.6885629e-09  -4.0175055e-04   9.2595921e-01   8.9745943e-01  -1.3512218e+06
   1.6912304e-09  -3.9816221e-04   9.2583419e-01   8.9758885e-01  -1.3391550e+06
   1.6938980e-09  -3.9460591e-04   9.2571030e-01   8.9771714e-01  -1.3271960e+06
   1.6965655e-09  -3.9108138e-04   9.2558752e-01   8.9784429e-01  -1.3153437e+06
   1.6992331e-09  -3.8758831e-04   9.2546586e-01   8.9797031e-01  -1.3035972e+06
   1.7019006e-09  -3.8412645e-04   9.2534529e-01   8.9809523e-01  -1.2919556e+06
   1.7045682e-09  -3.8069549e-04   9.2522581e-01   8.9821904e-01  -1.2804179e+06
   1.7072357e-09  -3.7729518e-04   9.2510741e-01   8.9834176e-01  -1.2689833e+06
   1.7099033e-09  -3.7392524e-04   9.2499008e-01   8.9846340e-01  -1.2576507e+06
   1.7125709e-09  -3.7058538e-04   9.2487380e-01   8.9858396e-01  -1.2464193e+06
   1.7152384e-09  -3.6727536e-04   9.2475858e-01   8.9870346e-01  -1.2352882e+06
   1.7179060e-09  -3.6399490e-04   9.2464439e-01   8.9882190e-01  -1.2242564e+06
   1.7205735e-09  -3.6074373e-04   9.2453123e-01   8.9893930e-01  -1.2133232e+06
   1.7232411e-09  -3.5752159e-04   9.2441909e-01   8.9905566e-01  -1.2024875e+06
   1.7259086e-09  -3.5432824e-04   9.2430797e-01   8.9917099e-01  -1.1917486e+06
   1.7285762e-09  -3.5116340e-04   9.2419785e-01   8.9928531e-01  -1.1811056e+06
   1.7312437e-09  -3.4802682e-04   9.2408872e-01   8.9939861e-01  -1.1705576e+06
   1.7339113e-09  -3.4491826e-04   9.2398057e-01   8.9951091e-01  -1.1601037e+06
   1.7365789e-09  -3.4183746e-04   9.2387340e-01   8.9962222e-01  -1.1497432e+06
   1.7392464e-09  -3.3878417e-04   9.2376719e-01   8.9973255e-01  -1.1394752e+06
   1.7419140e-09  -3.3575815e-04   9.2366194e-01   8.9984190e-01  -1.1292989e+06
   1.7445815e-09  -3.3275915e-04   9.2355764e-01   8.9995028e-01  -1.1192134e+06
   1.7472491e-09  -3.2978694e-04   9.2345428e-01   9.0005771e-01  -1.1092180e+06
   1.7499166e-09  -3.2684127e-04   9.2335186e-01   9.0016419e-01  -1.0993118e+06
   1.7525842e-09  -3.2392191e-04   9.2325035e-01   9.0026972e-01  -1.0894941e+06
   1.7552518e-09  -3.2102862e-04   9.2314976e-01   9.0037432e-01  -1.0797640e+06
   1.7579193e-09  -3.1816117e-04   9.2305007e-01   9.0047800e-01  -1.0701208e+06
   1.7605869e-09  -3.1531933e-04   9.2295129e-01   9.0058076e-01  -1.0605637e+06
   1.7632544e-09  -3.1250287e-04   9.2285339e-01   9.0068261e-01  -1.0510920e+06
   1.7659220e-09  -3.0971156e-04   9.2275638e-01   9.0078356e-01  -1.0417048e+06
   1.7685895e-09  -3.0694518e-04   9.2266023e-01   9.0088362e-01  -1.0324014e+06
   1.7712571e-09  -3.0420351e-04   9.2256496e-01   9.0098279e-01  -1.0231811e+06
   1.7739246e-09  -3.0148632e-04   9.2247054e-01   9.0108108e-01  -1.0140431e+06
   1.7765922e-09  -2.9879340e-04   9.2237697e-01   9.0117851e-01  -1.0049867e+06
   1.7792598e-09  -2.9612453e-04   9.2228425e-01   9.0127507e-01  -9.9601115e+05
   1.7819273e-09  -2.9347950e-04   9.2219236e-01   9.0137078e-01  -9.8711576e+05
   1.7845949e-09  -2.9085809e-04   9.2210129e-01   9.0146564e-01  -9.7829979e+05
   1.7872624e-09  -2.8826009e-04   9.2201105e-01   9.0155966e-01  -9.6956253e+05
   1.7899300e-09  -2.8568530e-04   9.2192162e-01   9.0165284e-01  -9.6090329e+05
   1.7925975e-09  -2.8313350e-04   9.2183299e-01   9.0174521e-01  -9.5232137e+05
   1.7952651e-09  -2.8060449e-04   9.2174517e-01   9.0183675e-01  -9.4381608e+05
   1.7979326e-09  -2.7809807e-04   9.2165813e-01   9.0192749e-01  -9.3538673e+05
   1.8006002e-09  -2.7561403e-04   9.2157187e-01   9.0201742e-01  -9.2703265e+05
   1.8032678e-09  -2.7315218e-04   9.2148639e-01   9.0210655e-01  -9.1875316e+05
   1.8059353e-09  -2.7071231e-04   9.2140169e-01   9.0219490e-01  -9.1054760e+05
   1.8086029e-09  -2.6829424e-04   9.2131774e-01   9.0228246e-01  -9.0241531e+05
   1.8112704e-09  -2.6589776e-04   9.2123455e-01   9.0236925e-01  -8.9435563e+05
   1.8139380e-09  -2.6352269e-04   9.2115210e-01   9.0245526e-01  -8.8636793e+05
   1.8166055e-09  -2.6116883e-04   9.2107040e-01   9.0254052e-01  -8.7845154e+05
   1.8192731e-09  -2.5883599e-04   9.2098943e-01   9.0262502e-01  -8.7060584e+05
   1.8219406e-09  -2.5652398e-04   9.2090919e-01   9.0270877e-01  -8.6283021e+05
   1.8246082e-09  -2.5423263e-04   9.2082968e-01   9.0279178e-01  -8.5512400e+05
   1.8272758e-09  -2.5196174e-04   9.2075087e-01   9.0287406e-01  -8.4748660e+05
   1.8299433e-09  -2.4971113e-04   9.2067278e-01   9.0295560e-01  -8.3991740e+05
   1.8326109e-09  -2.4748063e-04   9.2059539e-01   9.0303642e-01  -8.3241579e+05
   1.8352784e-09  -2.4527004e-04   9.2051869e-01   9.0311653e-01  -8.2498117e+05
   1.8379460e-09  -2.4307920e-04   9.2044269e-01   9.0319592e-01  -8.1761293e+05
   1.8406135e-09  -2.4090793e-04   9.2036737e-01   9.0327462e-01  -8.1031049e+05
   1.8432811e-09  -2.3875605e-04   9.2029272e-01   9.0335261e-01  -8.0307326e+05
   1.8459486e-09  -2.3662338e-04   9.2021875e-01   9.0342991e-01  -7.9590065e+05
   1.8486162e-09  -2.3450977e-04   9.2014544e-01   9.0350653e-01  -7.8879210e+05
   1.8512838e-09  -2.3241503e-04   9.2007279e-01   9.0358247e-01  -7.8174701e+05
   1.8539513e-09  -2.3033901e-04   9.2000079e-01   9.0365773e-01  -7.7476484e+05
   1.8566189e-09  -2.2828152e-04   9.1992944e-01   9.0373233e-01  -7.6784502e+05
   1.8592864e-09  -2.2624241e-04   9.1985873e-01   9.0380626e-01  -7.6098699e+05
   1.8619540e-09  -2.2422152e-04   9.1978866e-01   9.0387954e-01  -7.5419020e+05
   1.8646215e-09  -2.2221867e-04   9.1971921e-01   9.0395217e-01  -7.4745411e+05
   1.8672891e-09  -2.2023371e-04   9.1965039e-01   9.0402415e-01  -7.4077817e+05
   1.8699567e-09  -2.1826648e-04   9.1958219e-01   9.0409550e-01  -7.3416184e+05
   1.8726242e-09  -2.1631682e-04   9.1951460e-01   9.0416621e-01  -7.2760460e+05
   1.8752918e-09  -2.1438458e-04   9.1944762e-01   9.0423630e-01  -7.2110591e+05
   1.8779593e-09  -2.1246959e-04   9.1938124e-01   9.0430576e-01  -7.1466526e+05
   1.8806269e-09  -2.1057171e-04   9.1931546e-01   9.0437461e-01  -7.0828212e+05
   1.8832944e-09  -2.0869078e-04   9.1925027e-01   9.0444284e-01  -7.0195598e+05
   1.8859620e-09  -2.0682665e-04   9.1918566e-01   9.0451047e-01  -6.9568634e+05
   1.8886295e-09  -2.0497916e-04   9.1912163e-01   9.0457750e-01  -6.8947268e+05
   1.8912971e-09  -2.0314818e-04   9.1905818e-01   9.0464394e-01  -6.8331452e+05
   1.8939647e-09  -2.0133355e-04   9.1899530e-01   9.0470978e-01  -6.7721134e+05
   1.8966322e-09  -1.9953514e-04   9.1893298e-01   9.0477505e-01  -6.7116267e+05
   1.8992998e-09  -1.9775278e-04   9.1887123e-01   9.0483973e-01  -6.6516801e+05
   1.9019673e-09  -1.9598634e-04   9.1881002e-01   9.0490384e-01  -6.5922689e+05
   1.9046349e-09  -1.9423568e-04   9.1874937e-01   9.0496737e-01  -6.5333883e+05
   1.9073024e-09  -1.9250066e-04   9.1868926e-01   9.0503035e-01  -6.4750334e+05
   1.9099700e-09  -1.9078113e-04   9.1862969e-01   9.0509276e-01  -6.4171997e+05
   1.9126375e-09  -1.8907697e-04   9.1857066e-01   9.0515462e-01  -6.3598825e+05
   1.9153051e-09  -1.8738802e-04   9.1851216e-01   9.0521593e-01  -6.3030771e+05
   1.9179727e-09  -1.8571416e-04   9.1845418e-01   9.0527670e-01  -6.2467790e+05
   1.9206402e-09  -1.8405525e-04   9.1839672e-01   9.0533693e-01  -6.1909837e+05
   1.9233078e-09  -1.8241116e-04   9.1833978e-01   9.0539662e-01  -6.1356866e+05
   1.9259753e-09  -1.8078175e-04   9.1828334e-01   9.0545578e-01  -6.0808834e+05
   1.9286429e-09  -1.7916689e-04   9.1822742e-01   9.0551442e-01  -6.0265696e+05
   1.9313104e-09  -1.7756646e-04   9.1817200e-01   9.0557253e-01  -5.9727408e+05
   1.9339780e-09  -1.7598033e-04   9.1811707e-01   9.0563013e-01  -5.9193928e+05
   1.9366455e-09  -1.7440836e-04   9.1806264e-01   9.0568722e-01  -5.8665212e+05
   1.9393131e-09  -1.7285043e-04   9.1800870e-01   9.0574380e-01  -5.8141218e+05
   1.9419807e-09  -1.7130642e-04   9.1795524e-01   9.0579988e-01  -5.7621903e+05
   1.9446482e-09  -1.6977620e-04   9.1790226e-01   9.0585546e-01  -5.7107226e+05
   1.9473158e-09  -1.6825964e-04   9.1784975e-01   9.0591054e-01  -5.6597145e+05
   1.9499833e-09  -1.6675663e-04   9.1779772e-01   9.0596514e-01  -5.6091620e+05
   1.9526509e-09  -1.6526705e-04   9.1774615e-01   9.0601925e-01  -5.5590610e+05
   1.9553184e-09  -1.6379077e-04   9.1769505e-01   9.0607288e-01  -5.5094073e+05
   1.9579860e-09  -1.6232768e-04   9.1764440e-01   9.0612603e-01  -5.4601972e+05
   1.9606536e-09  -1.6087766e-04   9.1759421e-01   9.0617871e-01  -5.4114265e+05
   1.9633211e-09  -1.5944059e-04   9.1754447e-01   9.0623093e-01  -5.3630914e+05
   1.9659887e-09  -1.5801635e-04   9.1749517e-01   9.0628267e-01  -5.3151879e+05
   1.9686562e-09  -1.5660484e-04   9.1744632e-01   9.0633396e-01  -5.2677123e+05
   1.9713238e-09  -1.5520593e-04   9.1739791e-01   9.0638479e-01  -5.2206606e+05
   1.9739913e-09  -1.5381952e-04   9.1734993e-01   9.0643517e-01  -5.1740292e+05
   1.9766589e-09  -1.5244549e-04   9.1730238e-01   9.0648511e-01  -5.1278142e+05
   1.9793264e-09  -1.5108374e-04   9.1725526e-01   9.0653460e-01  -5.0820120e+05
   1.9819940e-09  -1.4973414e-04   9.1720856e-01   9.0658364e-01  -5.0366188e+05
   1.9846616e-09  -1.4839661e-04   9.1716227e-01   9.0663226e-01  -4.9916310e+05
   1.9873291e-09  -1.4707102e-04   9.1711641e-01   9.0668044e-01  -4.9470451e+05
   1.9899967e-09  -1.4575727e-04   9.1707095e-01   9.0672819e-01  -4.9028573e+05
   1.9926642e-09  -1.4445525e-04   9.1702590e-01   9.0677552e-01  -4.8590641e+05
   1.9953318e-09  -1.4316487e-04   9.1698126e-01   9.0682242e-01  -4.8156621e+05
   1.9979993e-09  -1.4188601e-04   9.1693702e-01   9.0686891e-01  -4.7726477e+05
   2.0006669e-09  -1.4061857e-04   9.1689317e-01   9.0691499e-01  -4.7300174e+05
   2.0033344e-09  -1.3936246e-04   9.1684972e-01   9.0696065e-01  -4.6877679e+05
   2.0060020e-09  -1.3811756e-04   9.1680665e-01   9.0700591e-01  -4.6458958e+05
   2.0086696e-09  -1.3688379e-04   9.1676398e-01   9.0705077e-01  -4.6043976e+05
   2.0113371e-09  -1.3566103e-04   9.1672168e-01   9.0709523e-01  -4.5632700e+05
   2.0140047e-09  -1.3444920e-04   9.1667977e-01   9.0713929e-01  -4.5225097e+05
   2.0166722e-09  -1.3324819e-04   9.1663823e-01   9.0718296e-01  -4.4821135e+05
   2.0193398e-09  -1.3205791e-04   9.1659706e-01   9.0722624e-01  -4.4420780e+05
   2.0220073e-09  -1.3087826e-04   9.1655626e-01   9.0726914e-01  -4.4024002e+05
   2.0246749e-09  -1.2970915e-04   9.1651583e-01   9.0731166e-01  -4.3630767e+05
   2.0273424e-09  -1.2855048e-04   9.1647576e-01   9.0735379e-01  -4.3241044e+05
   2.0300100e-09  -1.2740216e-04   9.1643605e-01   9.0739556e-01  -4.2854802e+05
   2.0326776e-09  -1.2626410e-04   9.1639669e-01   9.0743695e-01  -4.2472009e+05
   2.0353451e-09  -1.2513620e-04   9.1635769e-01   9.0747797e-01  -4.2092635e+05
   2.0380127e-09  -1.2401838e-04   9.1631903e-01   9.0751863e-01  -4.1716650e+05
   2.0406802e-09  -1.2291054e-04   9.1628073e-01   9.0755892e-01  -4.1344022e+05
   2.0433478e-09  -1.2181260e-04   9.1624277e-01   9.0759886e-01  -4.0974723e+05
   2.0460153e-09  -1.2072446e-04   9.1620514e-01   9.0763844e-01  -4.0608722e+05
   2.0486829e-09  -1.1964605e-04   9.1616786e-01   9.0767767e-01  -4.0245990e+05
   2.0513505e-09  -1.1857727e-04   9.1613090e-01   9.0771655e-01  -3.9886498e+05
   2.0540180e-09  -1.1751803e-04   9.1609428e-01   9.0775508e-01  -3.9530216e+05
   2.0566856e-09  -1.1646826e-04   9.1605799e-01   9.0779327e-01  -3.9177117e+05
   2.0593531e-09  -1.1542786e-04   9.1602202e-01   9.0783112e-01  -3.8827171e+05
   2.0620207e-09  -1.1439676e-04   9.1598638e-01   9.0786864e-01  -3.8480351e+05
   2.0646882e-09  -1.1337486e-04   9.1595105e-01   9.0790582e-01  -3.8136628e+05
   2.0673558e-09  -1.1236210e-04   9.1591605e-01   9.0794267e-01  -3.7795975e+05
   2.0700233e-09  -1.1135838e-04   9.1588135e-01   9.0797919e-01  -3.7458365e+05
   2.0726909e-09  -1.1036362e-04   9.1584697e-01   9.0801539e-01  -3.7123770e+05
   2.0753585e-09  -1.0937776e-04   9.1581289e-01   9.0805126e-01  -3.6792164e+05
   2.0780260e-09  -1.0840069e-04   9.1577912e-01   9.0808681e-01  -3.6463520e+05
   2.0806936e-09  -1.0743236e-04   9.1574565e-01   9.0812205e-01  -3.6137810e+05
   2.0833611e-09  -1.0647268e-04   9.1571248e-01   9.0815698e-01  -3.5815010e+05
   2.0860287e-09  -1.0552156e-04   9.1567961e-01   9.0819159e-01  -3.5495093e+05
   2.0886962e-09  -1.0457895e-04   9.1564703e-01   9.0822590e-01  -3.5178034e+05
   2.0913638e-09  -1.0364475e-04   9.1561475e-01   9.0825989e-01  -3.4863806e+05
   2.0940313e-09  -1.0271890e-04   9.1558275e-01   9.0829359e-01  -3.4552385e+05
   2.0966989e-09  -1.0180132e-04   9.1555104e-01   9.0832699e-01  -3.4243745e+05
   2.0993665e-09  -1.0089193e-04   9.1551962e-01   9.0836009e-01  -3.3937862e+05
   2.1020340e-09  -9.9990672e-05   9.1548847e-01   9.0839289e-01  -3.3634711e+05
   2.1047016e-09  -9.9097460e-05   9.1545761e-01   9.0842541e-01  -3.3334268e+05
   2.1073691e-09  -9.8212227e-05   9.1542702e-01   9.0845763e-01  -3.3036508e+05
   2.1100367e-09  -9.7334902e-05   9.1539670e-01   9.0848956e-01  -3.2741408e+05
   2.1127042e-09  -9.6465413e-05   9.1536666e-01   9.0852122e-01  -3.2448943e+05
   2.1153718e-09  -9.5603691e-05   9.1533689e-01   9.0855259e-01  -3.2159091e+05
   2.1180393e-09  -9.4749667e-05   9.1530738e-01   9.0858368e-01  -3.1871828e+05
   2.1207069e-09  -9.3903271e-05   9.1527814e-01   9.0861449e-01  -3.1587130e+05
   2.1233745e-09  -9.3064436e-05   9.1524916e-01   9.0864503e-01  -3.1304975e+05
   2.1260420e-09  -9.2233093e-05   9.1522043e-01   9.0867529e-01  -3.1025341e+05
   2.1287096e-09  -9.1409177e-05   9.1519197e-01   9.0870529e-01  -3.0748204e+05
   2.1313771e-09  -9.0592620e-05   9.1516376e-01   9.0873502e-01  -3.0473542e+05
   2.1340447e-09  -8.9783357e-05   9.1513580e-01   9.0876449e-01  -3.0201334e+05
   2.1367122e-09  -8.8981324e-05   9.1510810e-01   9.0879369e-01  -2.9931557e+05
   2.1393798e-09  -8.8186454e-05   9.1508064e-01   9.0882263e-01  -2.9664190e+05
   2.1420473e-09  -8.7398685e-05   9.1505343e-01   9.0885132e-01  -2.9399210e+05
   2.1447149e-09  -8.6617952e-05   9.1502646e-01   9.0887975e-01  -2.9136598e+05
   2.1473825e-09  -8.5844194e-05   9.1499973e-01   9.0890792e-01  -2.8876331e+05
   2.1500500e-09  -8.5077347e-05   9.1497324e-01   9.0893585e-01  -2.8618389e+05
   2.1527176e-09  -8.4317350e-05   9.1494699e-01   9.0896352e-01  -2.8362750e+05
   2.1553851e-09  -8.3564142e-05   9.1492098e-01   9.0899095e-01  -2.8109396e+05
   2.1580527e-09  -8.2817663e-05   9.1489519e-01   9.0901814e-01  -2.7858304e+05
   2.1607202e-09  -8.2077851e-05   9.1486964e-01   9.0904508e-01  -2.7609454e+05
   2.1633878e-09  -8.1344648e-05   9.1484432e-01   9.0907178e-01  -2.7362828e+05
   2.1660554e-09  -8.0617994e-05   9.1481922e-01   9.0909825e-01  -2.7118404e+05
   2.1687229e-09  -7.9897831e-05   9.1479435e-01   9.0912448e-01  -2.6876164e+05
   2.1713905e-09  -7.9184101e-05   9.1476970e-01   9.0915047e-01  -2.6636087e+05
   2.1740580e-09  -7.8476747e-05   9.1474527e-01   9.0917624e-01  -2.6398155e+05
   2.1767256e-09  -7.7775711e-05   9.1472106e-01   9.0920177e-01  -2.6162348e+05
   2.1793931e-09  -7.7080938e-05   9.1469707e-01   9.0922708e-01  -2.5928647e+05
   2.1820607e-09  -7.6392370e-05   9.1467329e-01   9.0925216e-01  -2.5697034e+05
   2.1847282e-09  -7.5709954e-05   9.1464972e-01   9.0927702e-01  -2.5467489e+05
   2.1873958e-09  -7.5033633e-05   9.1462637e-01   9.0930165e-01  -2.5239995e+05
   2.1900634e-09  -7.4363354e-05   9.1460322e-01   9.0932607e-01  -2.5014532e+05
   2.1927309e-09  -7.3699062e-05   9.1458028e-01   9.0935027e-01  -2.4791084e+05
   2.1953985e-09  -7.3040704e-05   9.1455755e-01   9.0937425e-01  -2.4569631e+05
   2.1980660e-09  -7.2388227e-05   9.1453502e-01   9.0939802e-01  -2.4350157e+05
   2.2007336e-09  -7.1741579e-05   9.1451269e-01   9.0942158e-01  -2.4132643e+05
   2.2034011e-09  -7.1100706e-05   9.1449056e-01   9.0944492e-01  -2.3917071e+05
   2.2060687e-09  -7.0465559e-05   9.1446863e-01   9.0946806e-01  -2.3703426e+05
   2.2087362e-09  -6.9836085e-05   9.1444690e-01   9.0949100e-01  -2.3491688e+05
   2.2114038e-09  -6.9212234e-05   9.1442536e-01   9.0951372e-01  -2.3281842e+05
   2.2140714e-09  -6.8593956e-05   9.1440401e-01   9.0953625e-01  -2.3073870e+05
   2.2167389e-09  -6.7981201e-05   9.1438286e-01   9.0955858e-01  -2.2867756e+05
   2.2194065e-09  -6.7373920e-05   9.1436189e-01   9.0958070e-01  -2.2663483e+05
   2.2220740e-09  -6.6772063e-05   9.1434111e-01   9.0960263e-01  -2.2461035e+05
   2.2247416e-09  -6.6175582e-05   9.1432052e-01   9.0962436e-01  -2.2260395e+05
   2.2274091e-09  -6.5584430e-05   9.1430011e-01   9.0964590e-01  -2.2061547e+05
   2.2300767e-09  -6.4998558e-05   9.1427989e-01   9.0966725e-01  -2.1864475e+05
   2.2327442e-09  -6.4417920e-05   9.1425984e-01   9.0968841e-01  -2.1669164e+05
   2.2354118e-09  -6.3842469e-05   9.1423998e-01   9.0970938e-01  -2.1475597e+05
   2.2380794e-09  -6.3272158e-05   9.1422029e-01   9.0973016e-01  -2.1283759e+05
   2.2407469e-09  -6.2706941e-05   9.1420078e-01   9.0975076e-01  -2.1093634e+05
   2.2434145e-09  -6.2146774e-05   9.1418144e-01   9.0977117e-01  -2.0905208e+05
   2.2460820e-09  -6.1591610e-05   9.1416228e-01   9.0979140e-01  -2.0718465e+05
   2.2487496e-09  -6.1041405e-05   9.1414328e-01   9.0981145e-01  -2.0533390e+05
   2.2514171e-09  -6.0496116e-05   9.1412446e-01   9.0983132e-01  -2.0349969e+05
   2.2540847e-09  -5.9955697e-05   9.1410581e-01   9.0985102e-01  -2.0168185e+05
   2.2567523e-09  -5.9420106e-05   9.1408732e-01   9.0987054e-01  -1.9988026e+05
   2.2594198e-09  -5.8889300e-05   9.1406900e-01   9.0988988e-01  -1.9809475e+05
   2.2620874e-09  -5.8363234e-05   9.1405084e-01   9.0990905e-01  -1.9632520e+05
   2.2647549e-09  -5.7841869e-05   9.1403285e-01   9.0992805e-01  -1.9457145e+05
   2.2674225e-09  -5.7325160e-05   9.1401501e-01   9.0994689e-01  -1.9283336e+05
   2.2700900e-09  -5.6813067e-05   9.1399734e-01   9.0996555e-01  -1.9111081e+05
   2.2727576e-09  -5.6305549e-05   9.1397982e-01   9.0998405e-01  -1.8940363e+05
   2.2754251e-09  -5.5802564e-05   9.1396246e-01   9.1000238e-01  -1.8771171e+05
   2.2780927e-09  -5.5304073e-05   9.1394526e-01   9.1002055e-01  -1.8603490e+05
   2.2807603e-09  -5.4810034e-05   9.1392821e-01   9.1003856e-01  -1.8437307e+05
   2.2834278e-09  -5.4320408e-05   9.1391131e-01   9.1005640e-01  -1.8272608e+05
   2.2860954e-09  -5.3835157e-05   9.1389456e-01   9.1007409e-01  -1.8109381e+05
   2.2887629e-09  -5.3354240e-05   9.1387796e-01   9.1009162e-01  -1.7947611e+05
   2.2914305e-09  -5.2877619e-05   9.1386152e-01   9.1010899e-01  -1.7787287e+05
   2.2940980e-09  -5.2405255e-05   9.1384521e-01   9.1012621e-01  -1.7628394e+05
   2.2967656e-09  -5.1937112e-05   9.1382906e-01   9.1014328e-01  -1.7470921e+05
   2.2994331e-09  -5.1473150e-05   9.1381305e-01   9.1016019e-01  -1.7314854e+05
   2.3021007e-09  -5.1013332e-05   9.1379718e-01   9.1017695e-01  -1.7160182e+05
   2.3047683e-09  -5.0557623e-05   9.1378145e-01   9.1019356e-01  -1.7006891e+05
   2.3074358e-09  -5.0105984e-05   9.1376587e-01   9.1021003e-01  -1.6854970e+05
   2.3101034e-09  -4.9658379e-05   9.1375042e-01   9.1022635e-01  -1.6704405e+05
   2.3127709e-09  -4.9214773e-05   9.1373511e-01   9.1024252e-01  -1.6555186e+05
   2.3154385e-09  -4.8775130e-05   9.1371994e-01   9.1025854e-01  -1.6407299e+05
   2.3181060e-09  -4.8339414e-05   9.1370491e-01   9.1027443e-01  -1.6260733e+05
   2.3207736e-09  -4.7907590e-05   9.1369001e-01   9.1029017e-01  -1.6115477e+05
   2.3234411e-09  -4.7479623e-05   9.1367524e-01   9.1030577e-01  -1.5971518e+05
   2.3261087e-09  -4.7055480e-05   9.1366061e-01   9.1032124e-01  -1.5828845e+05
   2.3287763e-09  -4.6635125e-05   9.1364610e-01   9.1033656e-01  -1.5687446e+05
   2.3314438e-09  -4.6218526e-05   9.1363173e-01   9.1035175e-01  -1.5547310e+05
   2.3341114e-09  -4.5805648e-05   9.1361748e-01   9.1036680e-01  -1.5408427e+05
   2.3367789e-09  -4.5396458e-05   9.1360336e-01   9.1038172e-01  -1.5270784e+05
   2.3394465e-09  -4.4990924e-05   9.1358937e-01   9.1039651e-01  -1.5134370e+05
   2.3421140e-09  -4.4589012e-05   9.1357550e-01   9.1041116e-01  -1.4999175e+05
   2.3447816e-09  -4.4190690e-05   9.1356176e-01   9.1042569e-01  -1.4865187e+05
   2.3474491e-09  -4.3795927e-05   9.1354814e-01   9.1044008e-01  -1.4732397e+05
   2.3501167e-09  -4.3404690e-05   9.1353464e-01   9.1045434e-01  -1.4600792e+05
   2.3527843e-09  -4.3016948e-05   9.1352126e-01   9.1046848e-01  -1.4470363e+05
   2.3554518e-09  -4.2632669e-05   9.1350800e-01   9.1048249e-01  -1.4341099e+05
   2.3581194e-09  -4.2251824e-05   9.1349487e-01   9.1049638e-01  -1.4212990e+05
   2.3607869e-09  -4.1874380e-05   9.1348184e-01   9.1051014e-01  -1.4086025e+05
   2.3634545e-09  -4.1500309e-05   9.1346894e-01   9.1052378e-01  -1.3960195e+05
   2.3661220e-09  -4.1129578e-05   9.1345615e-01   9.1053730e-01  -1.3835488e+05
   2.3687896e-09  -4.0762160e-05   9.1344347e-01   9.1055070e-01  -1.3711895e+05
   2.3714572e-09  -4.0398024e-05   9.1343091e-01   9.1056398e-01  -1.3589407e+05
   2.3741247e-09  -4.0037140e-05   9.1341846e-01   9.1057714e-01  -1.3468012e+05
   2.3767923e-09  -3.9679480e-05   9.1340612e-01   9.1059018e-01  -1.3347702e+05
   2.3794598e-09  -3.9325016e-05   9.1339389e-01   9.1060311e-01  -1.3228467e+05
   2.3821274e-09  -3.8973718e-05   9.1338177e-01   9.1061592e-01  -1.3110296e+05
   2.3847949e-09  -3.8625557e-05   9.1336976e-01   9.1062861e-01  -1.2993181e+05
   2.3874625e-09  -3.8280507e-05   9.1335786e-01   9.1064120e-01  -1.2877113e+05
   2.3901300e-09  -3.7938540e-05   9.1334606e-01   9.1065367e-01  -1.2762081e+05
   2.3927976e-09  -3.7599627e-05   9.1333437e-01   9.1066603e-01  -1.2648077e+05
   2.3954652e-09  -3.7263742e-05   9.1332279e-01   9.1067828e-01  -1.2535091e+05
   2.3981327e-09  -3.6930857e-05   9.1331130e-01   9.1069042e-01  -1.2423114e+05
   2.4008003e-09  -3.6600946e-05   9.1329992e-01   9.1070245e-01  -1.2312138e+05
   2.4034678e-09  -3.6273982e-05   9.1328864e-01   9.1071437e-01  -1.2202153e+05
   2.4061354e-09  -3.5949939e-05   9.1327747e-01   9.1072619e-01  -1.2093150e+05
   2.4088029e-09  -3.5628790e-05   9.1326639e-01   9.1073790e-01  -1.1985121e+05
   2.4114705e-09  -3.5310510e-05   9.1325541e-01   9.1074951e-01  -1.1878058e+05
   2.4141380e-09  -3.4995074e-05   9.1324453e-01   9.1076101e-01  -1.1771950e+05
   2.4168056e-09  -3.4682455e-05   9.1323374e-01   9.1077241e-01  -1.1666790e+05
   2.4194732e-09  -3.4372629e-05   9.1322306e-01   9.1078371e-01  -1.1562570e+05
   2.4221407e-09  -3.4065571e-05   9.1321247e-01   9.1079491e-01  -1.1459281e+05
   2.4248083e-09  -3.3761256e-05   9.1320197e-01   9.1080601e-01  -1.1356914e+05
   2.4274758e-09  -3.3459659e-05   9.1319157e-01   9.1081701e-01  -1.1255462e+05
   2.4301434e-09  -3.3160756e-05   9.1318126e-01   9.1082791e-01  -1.1154916e+05
   2.4328109e-09  -3.2864524e-05   9.1317104e-01   9.1083872e-01  -1.1055268e+05
   2.4354785e-09  -3.2570937e-05   9.1316091e-01   9.1084943e-01  -1.0956510e+05
   2.4381460e-09  -3.2279974e-05   9.1315088e-01   9.1086004e-01  -1.0858635e+05
   2.4408136e-09  -3.1991609e-05   9.1314093e-01   9.1087056e-01  -1.0761634e+05
   2.4434812e-09  -3.1705821e-05   9.1313107e-01   9.1088098e-01  -1.0665499e+05
   2.4461487e-09  -3.1422585e-05   9.1312131e-01   9.1089131e-01  -1.0570223e+05
   2.4488163e-09  -3.1141880e-05   9.1311162e-01   9.1090155e-01  -1.0475798e+05
   2.4514838e-09  -3.0863682e-05   9.1310203e-01   9.1091170e-01  -1.0382217e+05
   2.4541514e-09  -3.0587970e-05   9.1309252e-01   9.1092176e-01  -1.0289471e+05
   2.4568189e-09  -3.0314720e-05   9.1308310e-01   9.1093172e-01  -1.0197554e+05
   2.4594865e-09  -3.0043912e-05   9.1307376e-01   9.1094160e-01  -1.0106458e+05
   2.4621541e-09  -2.9775522e-05   9.1306450e-01   9.1095139e-01  -1.0016176e+05
   2.4648216e-09  -2.9509530e-05   9.1305533e-01   9.1096109e-01  -9.9267006e+04
   2.4674892e-09  -2.9245914e-05   9.1304623e-01   9.1097071e-01  -9.8380242e+04
   2.4701567e-09  -2.8984654e-05   9.1303722e-01   9.1098024e-01  -9.7501399e+04
   2.4728243e-09  -2.8725727e-05   9.1302829e-01   9.1098968e-01  -9.6630408e+04
   2.4754918e-09  -2.8469113e-05   9.1301944e-01   9.1099905e-01  -9.5767196e+04
   2.4781594e-09  -2.8214791e-05   9.1301067e-01   9.1100832e-01  -9.4911696e+04
   2.4808269e-09  -2.7962741e-05   9.1300198e-01   9.1101752e-01  -9.4063837e+04
   2.4834945e-09  -2.7712943e-05   9.1299337e-01   9.1102663e-01  -9.3223553e+04
   2.4861621e-09  -2.7465377e-05   9.1298483e-01   9.1103566e-01  -9.2390775e+04
   2.4888296e-09  -2.7220022e-05   9.1297637e-01   9.1104461e-01  -9.1565435e+04
   2.4914972e-09  -2.6976858e-05   9.1296798e-01   9.1105348e-01  -9.0747469e+04
   2.4941647e-09  -2.6735867e-05   9.1295967e-01   9.1106227e-01  -8.9936809e+04
   2.4968323e-09  -2.6497029e-05   9.1295143e-01   9.1107099e-01  -8.9133391e+04
   2.4994998e-09  -2.6260324e-05   9.1294327e-01   9.1107962e-01  -8.8337150e+04
   2.5021674e-09  -2.6025734e-05   9.1293518e-01   9.1108818e-01  -8.7548021e+04
   2.5048349e-09  -2.5793239e-05   9.1292716e-01   9.1109666e-01  -8.6765942e+04
   2.5075025e-09  -2.5562822e-05   9.1291922e-01   9.1110507e-01  -8.5990849e+04
   2.5101701e-09  -2.5334463e-05   9.1291134e-01   9.1111340e-01  -8.5222679e+04
   2.5128376e-09  -2.5108143e-05   9.1290354e-01   9.1112165e-01  -8.4461372e+04
   2.5155052e-09  -2.4883846e-05   9.1289580e-01   9.1112984e-01  -8.3706866e+04
   2.5181727e-09  -2.4661552e-05   9.1288814e-01   9.1113795e-01  -8.2959099e+04
   2.5208403e-09  -2.4441244e-05   9.1288054e-01   9.1114598e-01  -8.2218013e+04
   2.5235078e-09  -2.4222904e-05   9.1287301e-01   9.1115395e-01  -8.1483546e+04
   2.5261754e-09  -2.4006514e-05   9.1286555e-01   9.1116184e-01  -8.0755640e+04
   2.5288429e-09  -2.3792057e-05   9.1285815e-01   9.1116967e-01  -8.0034237e+04
   2.5315105e-09  -2.3579517e-05   9.1285083e-01   9.1117742e-01  -7.9319278e+04
   2.5341781e-09  -2.3368875e-05   9.1284356e-01   9.1118511e-01  -7.8610705e+04
   2.5368456e-09  -2.3160114e-05   9.1283636e-01   9.1119272e-01  -7.7908463e+04
   2.5395132e-09  -2.2953219e-05   9.1282923e-01   9.1120027e-01  -7.7212493e+04
   2.5421807e-09  -2.2748171e-05   9.1282216e-01   9.1120775e-01  -7.6522741e+04
   2.5448483e-09  -2.2544956e-05   9.1281515e-01   9.1121517e-01  -7.5839150e+04
   2.5475158e-09  -2.2343556e-05   9.1280821e-01   9.1122252e-01  -7.5161665e+04
   2.5501834e-09  -2.2143954e-05   9.1280132e-01   9.1122980e-01  -7.4490233e+04
   2.5528510e-09  -2.1946136e-05   9.1279450e-01   9.1123702e-01  -7.3824798e+04
   2.5555185e-09  -2.1750086e-05   9.1278774e-01   9.1124417e-01  -7.3165308e+04
   2.5581861e-09  -2.1555786e-05   9.1278104e-01   9.1125126e-01  -7.2511709e+04
   2.5608536e-09  -2.1363222e-05   9.1277440e-01   9.1125828e-01  -7.1863948e+04
   2.5635212e-09  -2.1172379e-05   9.1276782e-01   9.1126525e-01  -7.1221974e+04
   2.5661887e-09  -2.0983240e-05   9.1276130e-01   9.1127215e-01  -7.0585735e+04
   2.5688563e-09  -2.0795791e-05   9.1275484e-01   9.1127899e-01  -6.9955179e+04
   2.5715238e-09  -2.0610016e-05   9.1274843e-01   9.1128577e-01  -6.9330256e+04
   2.5741914e-09  -2.0425901e-05   9.1274208e-01   9.1129248e-01  -6.8710916e+04
   2.5768590e-09  -2.0243431e-05   9.1273579e-01   9.1129914e-01  -6.8097108e+04
   2.5795265e-09  -2.0062591e-05   9.1272956e-01   9.1130574e-01  -6.7488783e+04
   2.5821941e-09  -1.9883366e-05   9.1272338e-01   9.1131228e-01  -6.6885893e+04
   2.5848616e-09  -1.9705742e-05   9.1271725e-01   9.1131876e-01  -6.6288388e+04
   2.5875292e-09  -1.9529705e-05   9.1271118e-01   9.1132518e-01  -6.5696220e+04
   2.5901967e-09  -1.9355241e-05   9.1270517e-01   9.1133155e-01  -6.5109343e+04
   2.5928643e-09  -1.9182335e-05   9.1269921e-01   9.1133786e-01  -6.4527708e+04
   2.5955318e-09  -1.9010974e-05   9.1269330e-01   9.1134411e-01  -6.3951268e+04
   2.5981994e-09  -1.8841143e-05   9.1268744e-01   9.1135031e-01  -6.3379979e+04
   2.6008670e-09  -1.8672830e-05   9.1268164e-01   9.1135645e-01  -6.2813792e+04
   2.6035345e-09  -1.8506020e-05   9.1267589e-01   9.1136254e-01  -6.2252663e+04
   2.6062021e-09  -1.8340701e-05   9.1267019e-01   9.1136857e-01  -6.1696547e+04
   2.6088696e-09  -1.8176858e-05   9.1266454e-01   9.1137455e-01  -6.1145399e+04
   2.6115372e-09  -1.8014479e-05   9.1265894e-01   9.1138047e-01  -6.0599174e+04
   2.6142047e-09  -1.7853550e-05   9.1265339e-01   9.1138635e-01  -6.0057829e+04
   2.6168723e-09  -1.7694059e-05   9.1264789e-01   9.1139217e-01  -5.9521319e+04
   2.6195398e-09  -1.7535993e-05   9.1264244e-01   9.1139793e-01  -5.8989602e+04
   2.6222074e-09  -1.7379339e-05   9.1263704e-01   9.1140365e-01  -5.8462635e+04
   2.6248750e-09  -1.7224084e-05   9.1263169e-01   9.1140932e-01  -5.7940376e+04
   2.6275425e-09  -1.7070216e-05   9.1262639e-01   9.1141493e-01  -5.7422782e+04
   2.6302101e-09  -1.6917723e-05   9.1262113e-01   9.1142049e-01  -5.6909811e+04
   2.6328776e-09  -1.6766592e-05   9.1261592e-01   9.1142601e-01  -5.6401423e+04
   2.6355452e-09  -1.6616811e-05   9.1261075e-01   9.1143148e-01  -5.5897577e+04
   2.6382127e-09  -1.6468368e-05   9.1260564e-01   9.1143689e-01  -5.5398231e+04
   2.6408803e-09  -1.6321251e-05   9.1260056e-01   9.1144226e-01  -5.4903346e+04
   2.6435478e-09  -1.6175449e-05   9.1259554e-01   9.1144758e-01  -5.4412882e+04
   2.6462154e-09  -1.6030949e-05   9.1259056e-01   9.1145285e-01  -5.3926799e+04
   2.6488830e-09  -1.5887739e-05   9.1258562e-01   9.1145808e-01  -5.3445059e+04
   2.6515505e-09  -1.5745810e-05   9.1258073e-01   9.1146326e-01  -5.2967621e+04
   2.6542181e-09  -1.5605147e-05   9.1257588e-01   9.1146839e-01  -5.2494449e+04
   2.6568856e-09  -1.5465742e-05   9.1257107e-01   9.1147348e-01  -5.2025504e+04
   2.6595532e-09  -1.5327582e-05   9.1256631e-01   9.1147852e-01  -5.1560748e+04
   2.6622207e-09  -1.5190656e-05   9.1256159e-01   9.1148352e-01  -5.1100144e+04
   2.6648883e-09  -1.5054953e-05   9.1255691e-01   9.1148847e-01  -5.0643654e+04
   2.6675559e-09  -1.4920463e-05   9.1255227e-01   9.1149338e-01  -5.0191242e+04
   2.6702234e-09  -1.4787174e-05   9.1254768e-01   9.1149824e-01  -4.9742872e+04
   2.6728910e-09  -1.4655075e-05   9.1254312e-01   9.1150306e-01  -4.9298507e+04
   2.6755585e-09  -1.4524157e-05   9.1253861e-01   9.1150784e-01  -4.8858111e+04
   2.6782261e-09  -1.4394408e-05   9.1253414e-01   9.1151258e-01  -4.8421650e+04
   2.6808936e-09  -1.4265819e-05   9.1252970e-01   9.1151727e-01  -4.7989087e+04
   2.6835612e-09  -1.4138378e-05   9.1252531e-01   9.1152192e-01  -4.7560389e+04
   2.6862287e-09  -1.4012075e-05   9.1252096e-01   9.1152653e-01  -4.7135520e+04
   2.6888963e-09  -1.3886901e-05   9.1251664e-01   9.1153110e-01  -4.6714447e+04
   2.6915639e-09  -1.3762845e-05   9.1251236e-01   9.1153563e-01  -4.6297135e+04
   2.6942314e-09  -1.3639898e-05   9.1250813e-01   9.1154011e-01  -4.5883551e+04
   2.6968990e-09  -1.3518048e-05   9.1250393e-01   9.1154456e-01  -4.5473662e+04
   2.6995665e-09  -1.3397287e-05   9.1249976e-01   9.1154897e-01  -4.5067434e+04
   2.7022341e-09  -1.3277605e-05   9.1249564e-01   9.1155333e-01  -4.4664835e+04
   2.7049016e-09  -1.3158992e-05   9.1249155e-01   9.1155766e-01  -4.4265833e+04
   2.7075692e-09  -1.3041439e-05   9.1248749e-01   9.1156195e-01  -4.3870395e+04
   2.7102367e-09  -1.2924936e-05   9.1248348e-01   9.1156620e-01  -4.3478490e+04
   2.7129043e-09  -1.2809473e-05   9.1247950e-01   9.1157042e-01  -4.3090085e+04
   2.7155719e-09  -1.2695042e-05   9.1247555e-01   9.1157459e-01  -4.2705150e+04
   2.7182394e-09  -1.2581633e-05   9.1247164e-01   9.1157873e-01  -4.2323654e+04
   2.7209070e-09  -1.2469238e-05   9.1246777e-01   9.1158284e-01  -4.1945566e+04
   2.7235745e-09  -1.2357846e-05   9.1246393e-01   9.1158690e-01  -4.1570855e+04
   2.7262421e-09  -1.2247449e-05   9.1246012e-01   9.1159093e-01  -4.1199492e+04
   2.7289096e-09  -1.2138039e-05   9.1245635e-01   9.1159492e-01  -4.0831446e+04
   2.7315772e-09  -1.2029606e-05   9.1245261e-01   9.1159888e-01  -4.0466688e+04
   2.7342447e-09  -1.1922142e-05   9.1244891e-01   9.1160280e-01  -4.0105188e+04
   2.7369123e-09  -1.1815638e-05   9.1244524e-01   9.1160669e-01  -3.9746918e+04
   2.7395799e-09  -1.1710085e-05   9.1244160e-01   9.1161054e-01  -3.9391848e+04
   2.7422474e-09  -1.1605475e-05   9.1243799e-01   9.1161436e-01  -3.9039950e+04
   2.7449150e-09  -1.1501800e-05   9.1243442e-01   9.1161814e-01  -3.8691196e+04
   2.7475825e-09  -1.1399050e-05   9.1243088e-01   9.1162189e-01  -3.8345557e+04
   2.7502501e-09  -1.1297219e-05   9.1242737e-01   9.1162561e-01  -3.8003006e+04
   2.7529176e-09  -1.1196297e-05   9.1242389e-01   9.1162929e-01  -3.7663515e+04
   2.7555852e-09  -1.1096277e-05   9.1242044e-01   9.1163294e-01  -3.7327056e+04
   2.7582528e-09  -1.0997151e-05   9.1241702e-01   9.1163656e-01  -3.6993604e+04
   2.7609203e-09  -1.0898910e-05   9.1241364e-01   9.1164015e-01  -3.6663130e+04
   2.7635879e-09  -1.0801546e-05   9.1241028e-01   9.1164370e-01  -3.6335608e+04
   2.7662554e-09  -1.0705052e-05   9.1240696e-01   9.1164722e-01  -3.6011012e+04
   2.7689230e-09  -1.0609421e-05   9.1240366e-01   9.1165071e-01  -3.5689316e+04
   2.7715905e-09  -1.0514643e-05   9.1240039e-01   9.1165417e-01  -3.5370493e+04
   2.7742581e-09  -1.0420713e-05   9.1239715e-01   9.1165760e-01  -3.5054519e+04
   2.7769256e-09  -1.0327621e-05   9.1239395e-01   9.1166100e-01  -3.4741367e+04
   2.7795932e-09  -1.0235361e-05   9.1239077e-01   9.1166437e-01  -3.4431012e+04
   2.7822608e-09  -1.0143925e-05   9.1238761e-01   9.1166770e-01  -3.4123431e+04
   2.7849283e-09  -1.0053306e-05   9.1238449e-01   9.1167101e-01  -3.3818596e+04
   2.7875959e-09  -9.9634969e-06   9.1238139e-01   9.1167429e-01  -3.3516485e+04
   2.7902634e-09  -9.8744898e-06   9.1237833e-01   9.1167754e-01  -3.3217073e+04
   2.7929310e-09  -9.7862778e-06   9.1237529e-01   9.1168076e-01  -3.2920336e+04
   2.7955985e-09  -9.6988538e-06   9.1237227e-01   9.1168395e-01  -3.2626249e+04
   2.7982661e-09  -9.6122108e-06   9.1236929e-01   9.1168711e-01  -3.2334789e+04
   2.8009336e-09  -9.5263417e-06   9.1236633e-01   9.1169024e-01  -3.2045934e+04
   2.8036012e-09  -9.4412398e-06   9.1236339e-01   9.1169335e-01  -3.1759658e+04
   2.8062688e-09  -9.3568981e-06   9.1236048e-01   9.1169643e-01  -3.1475940e+04
   2.8089363e-09  -9.2733099e-06   9.1235760e-01   9.1169948e-01  -3.1194756e+04
   2.8116039e-09  -9.1904684e-06   9.1235475e-01   9.1170250e-01  -3.0916085e+04
   2.8142714e-09  -9.1083669e-06   9.1235192e-01   9.1170550e-01  -3.0639902e+04
   2.8169390e-09  -9.0269989e-06   9.1234911e-01   9.1170847e-01  -3.0366187e+04
   2.8196065e-09  -8.9463578e-06   9.1234633e-01   9.1171141e-01  -3.0094917e+04
   2.8222741e-09  -8.8664370e-06   9.1234358e-01   9.1171433e-01  -2.9826071e+04
   2.8249416e-09  -8.7872302e-06   9.1234085e-01   9.1171722e-01  -2.9559626e+04
   2.8276092e-09  -8.7087310e-06   9.1233814e-01   9.1172009e-01  -2.9295561e+04
   2.8302768e-09  -8.6309330e-06   9.1233546e-01   9.1172293e-01  -2.9033855e+04
   2.8329443e-09  -8.5538300e-06   9.1233280e-01   9.1172574e-01  -2.8774487e+04
   2.8356119e-09  -8.4774159e-06   9.1233017e-01   9.1172853e-01  -2.8517436e+04
   2.8382794e-09  -8.4016843e-06   9.1232756e-01   9.1173129e-01  -2.8262681e+04
   2.8409470e-09  -8.3266293e-06   9.1232497e-01   9.1173403e-01  -2.8010203e+04
   2.8436145e-09  -8.2522447e-06   9.1232241e-01   9.1173675e-01  -2.7759979e+04
   2.8462821e-09  -8.1785247e-06   9.1231987e-01   9.1173944e-01  -2.7511991e+04
   2.8489496e-09  -8.1054632e-06   9.1231735e-01   9.1174211e-01  -2.7266218e+04
   2.8516172e-09  -8.0330544e-06   9.1231485e-01   9.1174475e-01  -2.7022641e+04
   2.8542848e-09  -7.9612925e-06   9.1231238e-01   9.1174737e-01  -2.6781240e+04
   2.8569523e-09  -7.8901716e-06   9.1230993e-01   9.1174997e-01  -2.6541995e+04
   2.8596199e-09  -7.8196861e-06   9.1230750e-01   9.1175254e-01  -2.6304887e+04
   2.8622874e-09  -7.7498302e-06   9.1230509e-01   9.1175509e-01  -2.6069898e+04
   2.8649550e-09  -7.6805984e-06   9.1230271e-01   9.1175762e-01  -2.5837008e+04
   2.8676225e-09  -7.6119850e-06   9.1230034e-01   9.1176012e-01  -2.5606198e+04
   2.8702901e-09  -7.5439846e-06   9.1229800e-01   9.1176260e-01  -2.5377450e+04
   2.8729577e-09  -7.4765917e-06   9.1229567e-01   9.1176506e-01  -2.5150745e+04
   2.8756252e-09  -7.4098008e-06   9.1229337e-01   9.1176750e-01  -2.4926066e+04
   2.8782928e-09  -7.3436066e-06   9.1229109e-01   9.1176992e-01  -2.4703394e+04
   2.8809603e-09  -7.2780037e-06   9.1228883e-01   9.1177231e-01  -2.4482711e+04
   2.8836279e-09  -7.2129868e-06   9.1228659e-01   9.1177468e-01  -2.4264000e+04
   2.8862954e-09  -7.1485508e-06   9.1228437e-01   9.1177704e-01  -2.4047242e+04
   2.8889630e-09  -7.0846904e-06   9.1228217e-01   9.1177937e-01  -2.3832420e+04
   2.8916305e-09  -7.0214004e-06   9.1227998e-01   9.1178168e-01  -2.3619518e+04
   2.8942981e-09  -6.9586759e-06   9.1227782e-01   9.1178397e-01  -2.3408518e+04
   2.8969657e-09  -6.8965117e-06   9.1227568e-01   9.1178624e-01  -2.3199402e+04
   2.8996332e-09  -6.8349028e-06   9.1227356e-01   9.1178848e-01  -2.2992155e+04
   2.9023008e-09  -6.7738443e-06   9.1227145e-01   9.1179071e-01  -2.2786759e+04
   2.9049683e-09  -6.7133313e-06   9.1226937e-01   9.1179292e-01  -2.2583198e+04
   2.9076359e-09  -6.6533588e-06   9.1226730e-01   9.1179511e-01  -2.2381455e+04
   2.9103034e-09  -6.5939221e-06   9.1226525e-01   9.1179728e-01  -2.2181515e+04
   2.9129710e-09  -6.5350164e-06   9.1226322e-01   9.1179943e-01  -2.1983360e+04
   2.9156385e-09  -6.4766369e-06   9.1226121e-01   9.1180156e-01  -2.1786976e+04
   2.9183061e-09  -6.4187789e-06   9.1225921e-01   9.1180367e-01  -2.1592346e+04
   2.9209737e-09  -6.3614378e-06   9.1225724e-01   9.1180577e-01  -2.1399455e+04
   2.9236412e-09  -6.3046089e-06   9.1225528e-01   9.1180784e-01  -2.1208287e+04
   2.9263088e-09  -6.2482877e-06   9.1225334e-01   9.1180990e-01  -2.1018827e+04
   2.9289763e-09  -6.1924696e-06   9.1225141e-01   9.1181193e-01  -2.0831059e+04
   2.9316439e-09  -6.1371501e-06   9.1224951e-01   9.1181395e-01  -2.0644968e+04
   2.9343114e-09  -6.0823249e-06   9.1224762e-01   9.1181596e-01  -2.0460540e+04
   2.9369790e-09  -6.0279894e-06   9.1224574e-01   9.1181794e-01  -2.0277760e+04
   2.9396465e-09  -5.9741393e-06   9.1224389e-01   9.1181990e-01  -2.0096612e+04
   2.9423141e-09  -5.9207703e-06   9.1224205e-01   9.1182185e-01  -1.9917083e+04
   2.9449817e-09  -5.8678780e-06   9.1224023e-01   9.1182378e-01  -1.9739157e+04
   2.9476492e-09  -5.8154583e-06   9.1223842e-01   9.1182570e-01  -1.9562821e+04
   2.9503168e-09  -5.7635068e-06   9.1223663e-01   9.1182759e-01  -1.9388060e+04
   2.9529843e-09  -5.7120194e-06   9.1223485e-01   9.1182947e-01  -1.9214861e+04
   2.9556519e-09  -5.6609920e-06   9.1223310e-01   9.1183134e-01  -1.9043208e+04
   2.9583194e-09  -5.6104204e-06   9.1223135e-01   9.1183318e-01  -1.8873089e+04
   2.9609870e-09  -5.5603006e-06   9.1222963e-01   9.1183501e-01  -1.8704490e+04
   2.9636546e-09  -5.5106285e-06   9.1222791e-01   9.1183682e-01  -1.8537397e+04
   2.9663221e-09  -5.4614002e-06   9.1222622e-01   9.1183862e-01  -1.8371796e+04
   2.9689897e-09  -5.4126116e-06   9.1222454e-01   9.1184040e-01  -1.8207675e+04
   2.9716572e-09  -5.3642589e-06   9.1222287e-01   9.1184217e-01  -1.8045020e+04
   2.9743248e-09  -5.3163381e-06   9.1222122e-01   9.1184392e-01  -1.7883818e+04
   2.9769923e-09  -5.2688455e-06   9.1221958e-01   9.1184565e-01  -1.7724056e+04
   2.9796599e-09  -5.2217771e-06   9.1221796e-01   9.1184737e-01  -1.7565721e+04
   2.9823274e-09  -5.1751291e-06   9.1221635e-01   9.1184907e-01  -1.7408801e+04
   2.9849950e-09  -5.1288979e-06   9.1221476e-01   9.1185076e-01  -1.7253283e+04
   2.9876626e-09  -5.0830797e-06   9.1221318e-01   9.1185243e-01  -1.7099154e+04
   2.9903301e-09  -5.0376708e-06   9.1221161e-01   9.1185409e-01  -1.6946401e+04
   2.9929977e-09  -4.9926675e-06   9.1221006e-01   9.1185573e-01  -1.6795014e+04
   2.9956652e-09  -4.9480663e-06   9.1220852e-01   9.1185736e-01  -1.6644978e+04
   2.9983328e-09  -4.9038635e-06   9.1220700e-01   9.1185897e-01  -1.6496283e+04
   3.0010003e-09  -4.8600556e-06   9.1220549e-01   9.1186057e-01  -1.6348917e+04
   3.0036679e-09  -4.8166391e-06   9.1220399e-01   9.1186216e-01  -1.6202867e+04
   3.0063354e-09  -4.7736104e-06   9.1220251e-01   9.1186373e-01  -1.6058121e+04
   3.0090030e-09  -4.7309660e-06   9.1220104e-01   9.1186529e-01  -1.5914669e+04
   3.0116706e-09  -4.6887027e-06   9.1219959e-01   9.1186683e-01  -1.5772498e+04
   3.0143381e-09  -4.6468169e-06   9.1219814e-01   9.1186836e-01  -1.5631597e+04
   3.0170057e-09  -4.6053052e-06   9.1219671e-01   9.1186987e-01  -1.5491955e+04
   3.0196732e-09  -4.5641645e-06   9.1219529e-01   9.1187137e-01  -1.5353560e+04
   3.0223408e-09  -4.5233912e-06   9.1219389e-01   9.1187286e-01  -1.5216402e+04
   3.0250083e-09  -4.4829822e-06   9.1219250e-01   9.1187434e-01  -1.5080468e+04
   3.0276759e-09  -4.4429341e-06   9.1219111e-01   9.1187580e-01  -1.4945750e+04
   3.0303434e-09  -4.4032438e-06   9.1218975e-01   9.1187725e-01  -1.4812234e+04
   3.0330110e-09  -4.3639081e-06   9.1218839e-01   9.1187868e-01  -1.4679912e+04
   3.0356786e-09  -4.3249238e-06   9.1218705e-01   9.1188011e-01  -1.4548771e+04
   3.0383461e-09  -4.2862878e-06   9.1218572e-01   9.1188152e-01  -1.4418802e+04
   3.0410137e-09  -4.2479969e-06   9.1218440e-01   9.1188292e-01  -1.4289994e+04
   3.0436812e-09  -4.2100480e-06   9.1218309e-01   9.1188430e-01  -1.4162337e+04
   3.0463488e-09  -4.1724382e-06   9.1218179e-01   9.1188567e-01  -1.4035820e+04
   3.0490163e-09  -4.1351644e-06   9.1218051e-01   9.1188704e-01  -1.3910434e+04
   3.0516839e-09  -4.0982235e-06   9.1217923e-01   9.1188838e-01  -1.3786167e+04
   3.0543515e-09  -4.0616126e-06   9.1217797e-01   9.1188972e-01  -1.3663011e+04
   3.0570190e-09  -4.0253288e-06   9.1217672e-01   9.1189104e-01  -1.3540955e+04
   3.0596866e-09  -3.9893692e-06   9.1217548e-01   9.1189236e-01  -1.3419989e+04
   3.0623541e-09  -3.9537307e-06   9.1217425e-01   9.1189366e-01  -1.3300103e+04
   3.0650217e-09  -3.9184107e-06   9.1217304e-01   9.1189495e-01  -1.3181289e+04
   3.0676892e-09  -3.8834061e-06   9.1217183e-01   9.1189623e-01  -1.3063536e+04
   3.0703568e-09  -3.8487143e-06   9.1217064e-01   9.1189749e-01  -1.2946835e+04
   3.0730243e-09  -3.8143324e-06   9.1216945e-01   9.1189875e-01  -1.2831177e+04
   3.0756919e-09  -3.7802576e-06   9.1216828e-01   9.1189999e-01  -1.2716552e+04
   3.0783595e-09  -3.7464873e-06   9.1216711e-01   9.1190122e-01  -1.2602951e+04
   3.0810270e-09  -3.7130186e-06   9.1216596e-01   9.1190245e-01  -1.2490364e+04
   3.0836946e-09  -3.6798489e-06   9.1216482e-01   9.1190366e-01  -1.2378784e+04
   3.0863621e-09  -3.6469755e-06   9.1216368e-01   9.1190486e-01  -1.2268200e+04
   3.0890297e-09  -3.6143958e-06   9.1216256e-01   9.1190605e-01  -1.2158604e+04
   3.0916972e-09  -3.5821071e-06   9.1216145e-01   9.1190722e-01  -1.2049987e+04
   3.0943648e-09  -3.5501069e-06   9.1216034e-01   9.1190839e-01  -1.1942340e+04
   3.0970323e-09  -3.5183925e-06   9.1215925e-01   9.1190955e-01  -1.1835655e+04
   3.0996999e-09  -3.4869615e-06   9.1215817e-01   9.1191070e-01  -1.1729924e+04
   3.1023675e-09  -3.4558112e-06   9.1215709e-01   9.1191184e-01  -1.1625136e+04
   3.1050350e-09  -3.4249393e-06   9.1215603e-01   9.1191296e-01  -1.1521285e+04
   3.1077026e-09  -3.3943431e-06   9.1215498e-01   9.1191408e-01  -1.1418361e+04
   3.1103701e-09  -3.3640202e-06   9.1215393e-01   9.1191519e-01  -1.1316357e+04
   3.1130377e-09  -3.3339682e-06   9.1215290e-01   9.1191628e-01  -1.1215264e+04
   3.1157052e-09  -3.3041847e-06   9.1215187e-01   9.1191737e-01  -1.1115075e+04
   3.1183728e-09  -3.2746673e-06   9.1215085e-01   9.1191845e-01  -1.1015780e+04
   3.1210403e-09  -3.2454135e-06   9.1214984e-01   9.1191952e-01  -1.0917372e+04
   3.1237079e-09  -3.2164211e-06   9.1214884e-01   9.1192057e-01  -1.0819844e+04
   3.1263755e-09  -3.1876877e-06   9.1214785e-01   9.1192162e-01  -1.0723186e+04
   3.1290430e-09  -3.1592109e-06   9.1214687e-01   9.1192266e-01  -1.0627393e+04
   3.1317106e-09  -3.1309886e-06   9.1214590e-01   9.1192369e-01  -1.0532454e+04
   3.1343781e-09  -3.1030184e-06   9.1214494e-01   9.1192471e-01  -1.0438364e+04
   3.1370457e-09  -3.0752980e-06   9.1214398e-01   9.1192573e-01  -1.0345115e+04
   3.1397132e-09  -3.0478253e-06   9.1214303e-01   9.1192673e-01  -1.0252699e+04
   3.1423808e-09  -3.0205980e-06   9.1214210e-01   9.1192772e-01  -1.0161108e+04
   3.1450483e-09  -2.9936139e-06   9.1214117e-01   9.1192871e-01  -1.0070335e+04
   3.1477159e-09  -2.9668709e-06   9.1214024e-01   9.1192968e-01  -9.9803733e+03
   3.1503835e-09  -2.9403668e-06   9.1213933e-01   9.1193065e-01  -9.8912152e+03
   3.1530510e-09  -2.9140994e-06   9.1213843e-01   9.1193161e-01  -9.8028536e+03
   3.1557186e-09  -2.8880668e-06   9.1213753e-01   9.1193256e-01  -9.7152814e+03
   3.1583861e-09  -2.8622666e-06   9.1213664e-01   9.1193350e-01  -9.6284915e+03
   3.1610537e-09  -2.8366970e-06   9.1213576e-01   9.1193444e-01  -9.5424768e+03
   3.1637212e-09  -2.8113558e-06   9.1213488e-01   9.1193536e-01  -9.4572306e+03
   3.1663888e-09  -2.7862409e-06   9.1213402e-01   9.1193628e-01  -9.3727459e+03
   3.1690564e-09  -2.7613505e-06   9.1213316e-01   9.1193719e-01  -9.2890160e+03
   3.1717239e-09  -2.7366823e-06   9.1213231e-01   9.1193809e-01  -9.2060340e+03
   3.1743915e-09  -2.7122346e-06   9.1213147e-01   9.1193898e-01  -9.1237934e+03
   3.1770590e-09  -2.6880052e-06   9.1213063e-01   9.1193987e-01  -9.0422874e+03
   3.1797266e-09  -2.6639923e-06   9.1212981e-01   9.1194074e-01  -8.9615095e+03
   3.1823941e-09  -2.6401939e-06   9.1212899e-01   9.1194161e-01  -8.8814533e+03
   3.1850617e-09  -2.6166081e-06   9.1212817e-01   9.1194247e-01  -8.8021122e+03
   3.1877292e-09  -2.5932330e-06   9.1212737e-01   9.1194333e-01  -8.7234799e+03
   3.1903968e-09  -2.5700668e-06   9.1212657e-01   9.1194417e-01  -8.6455500e+03
   3.1930644e-09  -2.5471074e-06   9.1212578e-01   9.1194501e-01  -8.5683164e+03
   3.1957319e-09  -2.5243532e-06   9.1212499e-01   9.1194584e-01  -8.4917726e+03
   3.1983995e-09  -2.5018023e-06   9.1212422e-01   9.1194666e-01  -8.4159127e+03
   3.2010670e-09  -2.4794528e-06   9.1212345e-01   9.1194748e-01  -8.3407304e+03
   3.2037346e-09  -2.4573030e-06   9.1212268e-01   9.1194829e-01  -8.2662198e+03
   3.2064021e-09  -2.4353510e-06   9.1212193e-01   9.1194909e-01  -8.1923748e+03
   3.2090697e-09  -2.4135951e-06   9.1212118e-01   9.1194988e-01  -8.1191895e+03
   3.2117372e-09  -2.3920336e-06   9.1212043e-01   9.1195067e-01  -8.0466580e+03
   3.2144048e-09  -2.3706647e-06   9.1211970e-01   9.1195145e-01  -7.9747744e+03
   3.2170724e-09  -2.3494867e-06   9.1211897e-01   9.1195222e-01  -7.9035330e+03
   3.2197399e-09  -2.3284979e-06   9.1211824e-01   9.1195299e-01  -7.8329280e+03
   3.2224075e-09  -2.3076966e-06   9.1211753e-01   9.1195375e-01  -7.7629537e+03
   3.2250750e-09  -2.2870812e-06   9.1211682e-01   9.1195450e-01  -7.6936045e+03
   3.2277426e-09  -2.2666498e-06   9.1211611e-01   9.1195525e-01  -7.6248749e+03
   3.2304101e-09  -2.2464011e-06   9.1211541e-01   9.1195599e-01  -7.5567592e+03
   3.2330777e-09  -2.2263332e-06   9.1211472e-01   9.1195672e-01  -7.4892521e+03
   3.2357452e-09  -2.2064445e-06   9.1211404e-01   9.1195745e-01  -7.4223480e+03
   3.2384128e-09  -2.1867336e-06   9.1211336e-01   9.1195817e-01  -7.3560416e+03
   3.2410804e-09  -2.1671987e-06   9.1211268e-01   9.1195888e-01  -7.2903275e+03
   3.2437479e-09  -2.1478383e-06   9.1211202e-01   9.1195959e-01  -7.2252004e+03
   3.2464155e-09  -2.1286509e-06   9.1211136e-01   9.1196029e-01  -7.1606552e+03
   3.2490830e-09  -2.1096349e-06   9.1211070e-01   9.1196098e-01  -7.0966866e+03
   3.2517506e-09  -2.0907888e-06   9.1211005e-01   9.1196167e-01  -7.0332894e+03
   3.2544181e-09  -2.0721110e-06   9.1210941e-01   9.1196235e-01  -6.9704586e+03
   3.2570857e-09  -2.0536001e-06   9.1210877e-01   9.1196303e-01  -6.9081890e+03
   3.2597533e-09  -2.0352546e-06   9.1210814e-01   9.1196370e-01  -6.8464758e+03
   3.2624208e-09  -2.0170729e-06   9.1210751e-01   9.1196436e-01  -6.7853138e+03
   3.2650884e-09  -1.9990537e-06   9.1210689e-01   9.1196502e-01  -6.7246982e+03
   3.2677559e-09  -1.9811954e-06   9.1210627e-01   9.1196567e-01  -6.6646242e+03
   3.2704235e-09  -1.9634967e-06   9.1210566e-01   9.1196632e-01  -6.6050867e+03
   3.2730910e-09  -1.9459561e-06   9.1210506e-01   9.1196696e-01  -6.5460812e+03
   3.2757586e-09  -1.9285722e-06   9.1210446e-01   9.1196759e-01  -6.4876027e+03
   3.2784261e-09  -1.9113435e-06   9.1210387e-01   9.1196822e-01  -6.4296467e+03
   3.2810937e-09  -1.8942688e-06   9.1210328e-01   9.1196884e-01  -6.3722084e+03
   3.2837613e-09  -1.8773466e-06   9.1210270e-01   9.1196946e-01  -6.3152833e+03
   3.2864288e-09  -1.8605756e-06   9.1210212e-01   9.1197007e-01  -6.2588666e+03
   3.2890964e-09  -1.8439544e-06   9.1210155e-01   9.1197068e-01  -6.2029540e+03
   3.2917639e-09  -1.8274817e-06   9.1210098e-01   9.1197128e-01  -6.1475408e+03
   3.2944315e-09  -1.8111562e-06   9.1210041e-01   9.1197188e-01  -6.0926227e+03
   3.2970990e-09  -1.7949765e-06   9.1209986e-01   9.1197247e-01  -6.0381951e+03
   3.2997666e-09  -1.7789413e-06   9.1209930e-01   9.1197305e-01  -5.9842538e+03
   3.3024341e-09  -1.7630494e-06   9.1209876e-01   9.1197363e-01  -5.9307944e+03
   3.3051017e-09  -1.7472994e-06   9.1209821e-01   9.1197421e-01  -5.8778125e+03
   3.3077693e-09  -1.7316902e-06   9.1209768e-01   9.1197478e-01  -5.8253039e+03
   3.3104368e-09  -1.7162204e-06   9.1209714e-01   9.1197534e-01  -5.7732644e+03
   3.3131044e-09  -1.7008887e-06   9.1209661e-01   9.1197590e-01  -5.7216898e+03
   3.3157719e-09  -1.6856941e-06   9.1209609e-01   9.1197646e-01  -5.6705760e+03
   3.3184395e-09  -1.6706352e-06   9.1209557e-01   9.1197701e-01  -5.6199187e+03
   3.3211070e-09  -1.6557108e-06   9.1209506e-01   9.1197755e-01  -5.5697140e+03
   3.3237746e-09  -1.6409197e-06   9.1209455e-01   9.1197809e-01  -5.5199578e+03
   3.3264421e-09  -1.6262608e-06   9.1209404e-01   9.1197863e-01  -5.4706460e+03
   3.3291097e-09  -1.6117328e-06   9.1209354e-01   9.1197916e-01  -5.4217748e+03
   3.3317773e-09  -1.5973346e-06   9.1209305e-01   9.1197968e-01  -5.3733402e+03
   3.3344448e-09  -1.5830651e-06   9.1209255e-01   9.1198020e-01  -5.3253383e+03
   3.3371124e-09  -1.5689230e-06   9.1209207e-01   9.1198072e-01  -5.2777651e+03
   3.3397799e-09  -1.5549072e-06   9.1209158e-01   9.1198123e-01  -5.2306170e+03
   3.3424475e-09  -1.5410167e-06   9.1209111e-01   9.1198174e-01  -5.1838901e+03
   3.3451150e-09  -1.5272502e-06   9.1209063e-01   9.1198224e-01  -5.1375805e+03
   3.3477826e-09  -1.5136068e-06   9.1209016e-01   9.1198274e-01  -5.0916847e+03
   3.3504502e-09  -1.5000852e-06   9.1208969e-01   9.1198323e-01  -5.0461989e+03
   3.3531177e-09  -1.4866844e-06   9.1208923e-01   9.1198372e-01  -5.0011194e+03
   3.3557853e-09  -1.4734033e-06   9.1208878e-01   9.1198421e-01  -4.9564426e+03
   3.3584528e-09  -1.4602408e-06   9.1208832e-01   9.1198469e-01  -4.9121650e+03
   3.3611204e-09  -1.4471960e-06   9.1208787e-01   9.1198516e-01  -4.8682829e+03
   3.3637879e-09  -1.4342676e-06   9.1208743e-01   9.1198564e-01  -4.8247928e+03
   3.3664555e-09  -1.4214548e-06   9.1208698e-01   9.1198610e-01  -4.7816913e+03
   3.3691230e-09  -1.4087564e-06   9.1208655e-01   9.1198657e-01  -4.7389747e+03
   3.3717906e-09  -1.3961715e-06   9.1208611e-01   9.1198703e-01  -4.6966398e+03
   3.3744582e-09  -1.3836990e-06   9.1208568e-01   9.1198748e-01  -4.6546830e+03
   3.3771257e-09  -1.3713379e-06   9.1208526e-01   9.1198793e-01  -4.6131011e+03
   3.3797933e-09  -1.3590873e-06   9.1208484e-01   9.1198838e-01  -4.5718906e+03
   3.3824608e-09  -1.3469461e-06   9.1208442e-01   9.1198882e-01  -4.5310483e+03
   3.3851284e-09  -1.3349133e-06   9.1208400e-01   9.1198926e-01  -4.4905708e+03
   3.3877959e-09  -1.3229880e-06   9.1208359e-01   9.1198970e-01  -4.4504549e+03
   3.3904635e-09  -1.3111693e-06   9.1208318e-01   9.1199013e-01  -4.4106974e+03
   3.3931310e-09  -1.2994562e-06   9.1208278e-01   9.1199056e-01  -4.3712951e+03
   3.3957986e-09  -1.2878476e-06   9.1208238e-01   9.1199098e-01  -4.3322448e+03
   3.3984662e-09  -1.2763428e-06   9.1208198e-01   9.1199140e-01  -4.2935433e+03
   3.4011337e-09  -1.2649408e-06   9.1208159e-01   9.1199182e-01  -4.2551875e+03
   3.4038013e-09  -1.2536406e-06   9.1208120e-01   9.1199223e-01  -4.2171744e+03
   3.4064688e-09  -1.2424414e-06   9.1208082e-01   9.1199264e-01  -4.1795009e+03
   3.4091364e-09  -1.2313422e-06   9.1208043e-01   9.1199304e-01  -4.1421639e+03
   3.4118039e-09  -1.2203422e-06   9.1208005e-01   9.1199345e-01  -4.1051605e+03
   3.4144715e-09  -1.2094404e-06   9.1207968e-01   9.1199384e-01  -4.0684876e+03
   3.4171390e-09  -1.1986361e-06   9.1207931e-01   9.1199424e-01  -4.0321424e+03
   3.4198066e-09  -1.1879282e-06   9.1207894e-01   9.1199463e-01  -3.9961218e+03
   3.4224742e-09  -1.1773160e-06   9.1207857e-01   9.1199502e-01  -3.9604231e+03
   3.4251417e-09  -1.1667986e-06   9.1207821e-01   9.1199540e-01  -3.9250432e+03
   3.4278093e-09  -1.1563752e-06   9.1207785e-01   9.1199578e-01  -3.8899794e+03
   3.4304768e-09  -1.1460449e-06   9.1207749e-01   9.1199616e-01  -3.8552288e+03
   3.4331444e-09  -1.1358069e-06   9.1207714e-01   9.1199653e-01  -3.8207887e+03
   3.4358119e-09  -1.1256603e-06   9.1207679e-01   9.1199690e-01  -3.7866562e+03
   3.4384795e-09  -1.1156043e-06   9.1207644e-01   9.1199727e-01  -3.7528287e+03
   3.4411470e-09  -1.1056383e-06   9.1207610e-01   9.1199763e-01  -3.7193033e+03
   3.4438146e-09  -1.0957612e-06   9.1207576e-01   9.1199799e-01  -3.6860774e+03
   3.4464822e-09  -1.0859724e-06   9.1207542e-01   9.1199835e-01  -3.6531484e+03
   3.4491497e-09  -1.0762710e-06   9.1207509e-01   9.1199871e-01  -3.6205135e+03
   3.4518173e-09  -1.0666562e-06   9.1207476e-01   9.1199906e-01  -3.5881702e+03
   3.4544848e-09  -1.0571274e-06   9.1207443e-01   9.1199941e-01  -3.5561158e+03
   3.4571524e-09  -1.0476837e-06   9.1207410e-01   9.1199975e-01  -3.5243477e+03
   3.4598199e-09  -1.0383244e-06   9.1207378e-01   9.1200009e-01  -3.4928635e+03
   3.4624875e-09  -1.0290487e-06   9.1207346e-01   9.1200043e-01  -3.4616605e+03
   3.4651551e-09  -1.0198558e-06   9.1207315e-01   9.1200077e-01  -3.4307362e+03
   3.4678226e-09  -1.0107450e-06   9.1207283e-01   9.1200110e-01  -3.4000882e+03
   3.4704902e-09  -1.0017157e-06   9.1207252e-01   9.1200143e-01  -3.3697140e+03
   3.4731577e-09  -9.9276700e-07   9.1207221e-01   9.1200175e-01  -3.3396111e+03
   3.4758253e-09  -9.8389826e-07   9.1207191e-01   9.1200208e-01  -3.3097772e+03
   3.4784928e-09  -9.7510874e-07   9.1207160e-01   9.1200240e-01  -3.2802098e+03
   3.4811604e-09  -9.6639774e-07   9.1207130e-01   9.1200272e-01  -3.2509065e+03
   3.4838279e-09  -9.5776455e-07   9.1207101e-01   9.1200303e-01  -3.2218649e+03
   3.4864955e-09  -9.4920850e-07   9.1207071e-01   9.1200335e-01  -3.1930829e+03
   3.4891631e-09  -9.4072887e-07   9.1207042e-01   9.1200365e-01  -3.1645579e+03
   3.4918306e-09  -9.3232500e-07   9.1207013e-01   9.1200396e-01  -3.1362878e+03
   3.4944982e-09  -9.2399620e-07   9.1206984e-01   9.1200427e-01  -3.1082702e+03
   3.4971657e-09  -9.1574181e-07   9.1206956e-01   9.1200457e-01  -3.0805029e+03
   3.4998333e-09  -9.0756115e-07   9.1206928e-01   9.1200487e-01  -3.0529837e+03
   3.5025008e-09  -8.9945358e-07   9.1206900e-01   9.1200516e-01  -3.0257103e+03
   3.5051684e-09  -8.9141844e-07   9.1206872e-01   9.1200545e-01  -2.9986805e+03
   3.5078359e-09  -8.8345507e-07   9.1206844e-01   9.1200575e-01  -2.9718922e+03
   3.5105035e-09  -8.7556285e-07   9.1206817e-01   9.1200603e-01  -2.9453432e+03
   3.5131711e-09  -8.6774113e-07   9.1206790e-01   9.1200632e-01  -2.9190314e+03
   3.5158386e-09  -8.5998928e-07   9.1206764e-01   9.1200660e-01  -2.8929547e+03
   3.5185062e-09  -8.5230668e-07   9.1206737e-01   9.1200688e-01  -2.8671109e+03
   3.5211737e-09  -8.4469272e-07   9.1206711e-01   9.1200716e-01  -2.8414979e+03
   3.5238413e-09  -8.3714677e-07   9.1206685e-01   9.1200744e-01  -2.8161138e+03
   3.5265088e-09  -8.2966823e-07   9.1206659e-01   9.1200771e-01  -2.7909564e+03
   3.5291764e-09  -8.2225651e-07   9.1206634e-01   9.1200798e-01  -2.7660238e+03
   3.5318439e-09  -8.1491099e-07   9.1206608e-01   9.1200825e-01  -2.7413139e+03
   3.5345115e-09  -8.0763109e-07   9.1206583e-01   9.1200851e-01  -2.7168248e+03
   3.5371791e-09  -8.0041623e-07   9.1206558e-01   9.1200878e-01  -2.6925544e+03
   3.5398466e-09  -7.9326582e-07   9.1206534e-01   9.1200904e-01  -2.6685008e+03
   3.5425142e-09  -7.8617929e-07   9.1206509e-01   9.1200930e-01  -2.6446621e+03
   3.5451817e-09  -7.7915606e-07   9.1206485e-01   9.1200955e-01  -2.6210364e+03
   3.5478493e-09  -7.7219558e-07   9.1206461e-01   9.1200981e-01  -2.5976217e+03
   3.5505168e-09  -7.6529728e-07   9.1206437e-01   9.1201006e-01  -2.5744162e+03
   3.5531844e-09  -7.5846060e-07   9.1206414e-01   9.1201031e-01  -2.5514180e+03
   3.5558520e-09  -7.5168499e-07   9.1206390e-01   9.1201056e-01  -2.5286253e+03
   3.5585195e-09  -7.4496992e-07   9.1206367e-01   9.1201080e-01  -2.5060362e+03
   3.5611871e-09  -7.3831483e-07   9.1206344e-01   9.1201104e-01  -2.4836488e+03
   3.5638546e-09  -7.3171920e-07   9.1206322e-01   9.1201129e-01  -2.4614615e+03
   3.5665222e-09  -7.2518248e-07   9.1206299e-01   9.1201152e-01  -2.4394724e+03
   3.5691897e-09  -7.1870416e-07   9.1206277e-01   9.1201176e-01  -2.4176797e+03
   3.5718573e-09  -7.1228372e-07   9.1206255e-01   9.1201199e-01  -2.3960817e+03
   3.5745248e-09  -7.0592063e-07   9.1206233e-01   9.1201223e-01  -2.3746766e+03
   3.5771924e-09  -6.9961438e-07   9.1206211e-01   9.1201246e-01  -2.3534628e+03
   3.5798600e-09  -6.9336447e-07   9.1206189e-01   9.1201269e-01  -2.3324384e+03
   3.5825275e-09  -6.8717040e-07   9.1206168e-01   9.1201291e-01  -2.3116019e+03
   3.5851951e-09  -6.8103165e-07   9.1206147e-01   9.1201314e-01  -2.2909516e+03
   3.5878626e-09  -6.7494775e-07   9.1206126e-01   9.1201336e-01  -2.2704857e+03
   3.5905302e-09  -6.6891820e-07   9.1206105e-01   9.1201358e-01  -2.2502026e+03
   3.5931977e-09  -6.6294251e-07   9.1206085e-01   9.1201380e-01  -2.2301007e+03
   3.5958653e-09  -6.5702020e-07   9.1206064e-01   9.1201401e-01  -2.2101785e+03
   3.5985328e-09  -6.5115080e-07   9.1206044e-01   9.1201423e-01  -2.1904341e+03
   3.6012004e-09  -6.4533383e-07   9.1206024e-01   9.1201444e-01  -2.1708662e+03
   3.6038680e-09  -6.3956883e-07   9.1206004e-01   9.1201465e-01  -2.1514730e+03
   3.6065355e-09  -6.3385533e-07   9.1205984e-01   9.1201486e-01  -2.1322532e+03
   3.6092031e-09  -6.2819287e-07   9.1205965e-01   9.1201506e-01  -2.1132050e+03
   3.6118706e-09  -6.2258099e-07   9.1205945e-01   9.1201527e-01  -2.0943269e+03
   3.6145382e-09  -6.1701925e-07   9.1205926e-01   9.1201547e-01  -2.0756176e+03
   3.6172057e-09  -6.1150719e-07   9.1205907e-01   9.1201567e-01  -2.0570753e+03
   3.6198733e-09  -6.0604438e-07   9.1205888e-01   9.1201587e-01  -2.0386987e+03
   3.6225408e-09  -6.0063036e-07   9.1205870e-01   9.1201607e-01  -2.0204863e+03
   3.6252084e-09  -5.9526471e-07   9.1205851e-01   9.1201627e-01  -2.0024366e+03
   3.6278760e-09  -5.8994700e-07   9.1205833e-01   9.1201646e-01  -1.9845481e+03
   3.6305435e-09  -5.8467678e-07   9.1205815e-01   9.1201665e-01  -1.9668194e+03
   3.6332111e-09  -5.7945365e-07   9.1205797e-01   9.1201684e-01  -1.9492491e+03
   3.6358786e-09  -5.7427718e-07   9.1205779e-01   9.1201703e-01  -1.9318357e+03
   3.6385462e-09  -5.6914696e-07   9.1205761e-01   9.1201722e-01  -1.9145779e+03
   3.6412137e-09  -5.6406256e-07   9.1205744e-01   9.1201741e-01  -1.8974743e+03
   3.6438813e-09  -5.5902358e-07   9.1205726e-01   9.1201759e-01  -1.8805235e+03
   3.6465488e-09  -5.5402962e-07   9.1205709e-01   9.1201777e-01  -1.8637241e+03
   3.6492164e-09  -5.4908027e-07   9.1205692e-01   9.1201795e-01  -1.8470748e+03
   3.6518840e-09  -5.4417514e-07   9.1205675e-01   9.1201813e-01  -1.8305742e+03
   3.6545515e-09  -5.3931382e-07   9.1205659e-01   9.1201831e-01  -1.8142210e+03
   3.6572191e-09  -5.3449594e-07   9.1205642e-01   9.1201849e-01  -1.7980139e+03
   3.6598866e-09  -5.2972109e-07   9.1205625e-01   9.1201866e-01  -1.7819516e+03
   3.6625542e-09  -5.2498890e-07   9.1205609e-01   9.1201883e-01  -1.7660328e+03
   3.6652217e-09  -5.2029898e-07   9.1205593e-01   9.1201900e-01  -1.7502562e+03
   3.6678893e-09  -5.1565096e-07   9.1205577e-01   9.1201917e-01  -1.7346205e+03
   3.6705569e-09  -5.1104446e-07   9.1205561e-01   9.1201934e-01  -1.7191245e+03
   3.6732244e-09  -5.0647912e-07   9.1205545e-01   9.1201951e-01  -1.7037670e+03
   3.6758920e-09  -5.0195455e-07   9.1205530e-01   9.1201967e-01  -1.6885466e+03
   3.6785595e-09  -4.9747041e-07   9.1205514e-01   9.1201984e-01  -1.6734622e+03
   3.6812271e-09  -4.9302633e-07   9.1205499e-01   9.1202000e-01  -1.6585126e+03
   3.6838946e-09  -4.8862194e-07   9.1205484e-01   9.1202016e-01  -1.6436965e+03
   3.6865622e-09  -4.8425691e-07   9.1205469e-01   9.1202032e-01  -1.6290127e+03
   3.6892297e-09  -4.7993086e-07   9.1205454e-01   9.1202048e-01  -1.6144602e+03
   3.6918973e-09  -4.7564346e-07   9.1205439e-01   9.1202063e-01  -1.6000376e+03
   3.6945649e-09  -4.7139437e-07   9.1205424e-01   9.1202079e-01  -1.5857439e+03
   3.6972324e-09  -4.6718323e-07   9.1205410e-01   9.1202094e-01  -1.5715779e+03
   3.6999000e-09  -4.6300971e-07   9.1205396e-01   9.1202110e-01  -1.5575384e+03
   3.7025675e-09  -4.5887348e-07   9.1205381e-01   9.1202125e-01  -1.5436243e+03
   3.7052351e-09  -4.5477419e-07   9.1205367e-01   9.1202140e-01  -1.5298346e+03
   3.7079026e-09  -4.5071153e-07   9.1205353e-01   9.1202154e-01  -1.5161680e+03
   3.7105702e-09  -4.4668516e-07   9.1205339e-01   9.1202169e-01  -1.5026235e+03
   3.7132377e-09  -4.4269476e-07   9.1205326e-01   9.1202184e-01  -1.4892001e+03
   3.7159053e-09  -4.3874000e-07   9.1205312e-01   9.1202198e-01  -1.4758965e+03
   3.7185729e-09  -4.3482058e-07   9.1205298e-01   9.1202212e-01  -1.4627118e+03
   3.7212404e-09  -4.3093617e-07   9.1205285e-01   9.1202227e-01  -1.4496448e+03
   3.7239080e-09  -4.2708646e-07   9.1205272e-01   9.1202241e-01  -1.4366946e+03
   3.7265755e-09  -4.2327114e-07   9.1205259e-01   9.1202255e-01  -1.4238601e+03
   3.7292431e-09  -4.1948990e-07   9.1205246e-01   9.1202268e-01  -1.4111402e+03
   3.7319106e-09  -4.1574245e-07   9.1205233e-01   9.1202282e-01  -1.3985340e+03
   3.7345782e-09  -4.1202847e-07   9.1205220e-01   9.1202296e-01  -1.3860404e+03
   3.7372457e-09  -4.0834767e-07   9.1205207e-01   9.1202309e-01  -1.3736584e+03
   3.7399133e-09  -4.0469975e-07   9.1205195e-01   9.1202322e-01  -1.3613870e+03
   3.7425809e-09  -4.0108442e-07   9.1205182e-01   9.1202336e-01  -1.3492252e+03
   3.7452484e-09  -3.9750138e-07   9.1205170e-01   9.1202349e-01  -1.3371721e+03
   3.7479160e-09  -3.9395036e-07   9.1205158e-01   9.1202362e-01  -1.3252267e+03
   3.7505835e-09  -3.9043106e-07   9.1205145e-01   9.1202375e-01  -1.3133879e+03
   3.7532511e-09  -3.8694319e-07   9.1205133e-01   9.1202387e-01  -1.3016550e+03
   3.7559186e-09  -3.8348649e-07   9.1205122e-01   9.1202400e-01  -1.2900268e+03
   3.7585862e-09  -3.8006067e-07   9.1205110e-01   9.1202412e-01  -1.2785025e+03
   3.7612538e-09  -3.7666544e-07   9.1205098e-01   9.1202425e-01  -1.2670812e+03
   3.7639213e-09  -3.7330055e-07   9.1205086e-01   9.1202437e-01  -1.2557619e+03
   3.7665889e-09  -3.6996572e-07   9.1205075e-01   9.1202449e-01  -1.2445437e+03
   3.7692564e-09  -3.6666069e-07   9.1205064e-01   9.1202461e-01  -1.2334257e+03
   3.7719240e-09  -3.6338517e-07   9.1205052e-01   9.1202473e-01  -1.2224071e+03
   3.7745915e-09  -3.6013892e-07   9.1205041e-01   9.1202485e-01  -1.2114869e+03
   3.7772591e-09  -3.5692167e-07   9.1205030e-01   9.1202497e-01  -1.2006642e+03
   3.7799266e-09  -3.5373316e-07   9.1205019e-01   9.1202509e-01  -1.1899383e+03
   3.7825942e-09  -3.5057313e-07   9.1205008e-01   9.1202520e-01  -1.1793081e+03
   3.7852618e-09  -3.4744133e-07   9.1204997e-01   9.1202532e-01  -1.1687729e+03
   3.7879293e-09  -3.4433751e-07   9.1204987e-01   9.1202543e-01  -1.1583319e+03
   3.7905969e-09  -3.4126142e-07   9.1204976e-01   9.1202554e-01  -1.1479841e+03
   3.7932644e-09  -3.3821281e-07   9.1204966e-01   9.1202565e-01  -1.1377287e+03
   3.7959320e-09  -3.3519143e-07   9.1204955e-01   9.1202576e-01  -1.1275650e+03
   3.7985995e-09  -3.3219704e-07   9.1204945e-01   9.1202587e-01  -1.1174920e+03
   3.8012671e-09  -3.2922940e-07   9.1204935e-01   9.1202598e-01  -1.1075091e+03
   3.8039346e-09  -3.2628828e-07   9.1204924e-01   9.1202609e-01  -1.0976153e+03
   3.8066022e-09  -3.2337342e-07   9.1204914e-01   9.1202619e-01  -1.0878099e+03
   3.8092698e-09  -3.2048461e-07   9.1204904e-01   9.1202630e-01  -1.0780921e+03
   3.8119373e-09  -3.1762160e-07   9.1204895e-01   9.1202640e-01  -1.0684611e+03
   3.8146049e-09  -3.1478417e-07   9.1204885e-01   9.1202651e-01  -1.0589162e+03
   3.8172724e-09  -3.1197209e-07   9.1204875e-01   9.1202661e-01  -1.0494565e+03
   3.8199400e-09  -3.0918513e-07   9.1204865e-01   9.1202671e-01  -1.0400813e+03
   3.8226075e-09  -3.0642307e-07   9.1204856e-01   9.1202681e-01  -1.0307899e+03
   3.8252751e-09  -3.0368568e-07   9.1204847e-01   9.1202691e-01  -1.0215815e+03
   3.8279426e-09  -3.0097274e-07   9.1204837e-01   9.1202701e-01  -1.0124553e+03
   3.8306102e-09  -2.9828404e-07   9.1204828e-01   9.1202711e-01  -1.0034106e+03
   3.8332778e-09  -2.9561936e-07   9.1204819e-01   9.1202721e-01  -9.9444682e+02
   3.8359453e-09  -2.9297849e-07   9.1204810e-01   9.1202730e-01  -9.8556308e+02
   3.8386129e-09  -2.9036120e-07   9.1204801e-01   9.1202740e-01  -9.7675869e+02
   3.8412804e-09  -2.8776730e-07   9.1204792e-01   9.1202749e-01  -9.6803294e+02
   3.8439480e-09  -2.8519657e-07   9.1204783e-01   9.1202759e-01  -9.5938514e+02
   3.8466155e-09  -2.8264881e-07   9.1204774e-01   9.1202768e-01  -9.5081460e+02
   3.8492831e-09  -2.8012380e-07   9.1204765e-01   9.1202777e-01  -9.4232063e+02
   3.8519507e-09  -2.7762135e-07   9.1204757e-01   9.1202786e-01  -9.3390253e+02
   3.8546182e-09  -2.7514126e-07   9.1204748e-01   9.1202795e-01  -9.2555964e+02
   3.8572858e-09  -2.7268332e-07   9.1204740e-01   9.1202804e-01  -9.1729129e+02
   3.8599533e-09  -2.7024734e-07   9.1204731e-01   9.1202813e-01  -9.0909679e+02
   3.8626209e-09  -2.6783312e-07   9.1204723e-01   9.1202822e-01  -9.0097550e+02
   3.8652884e-09  -2.6544047e-07   9.1204715e-01   9.1202831e-01  -8.9292676e+02
   3.8679560e-09  -2.6306920e-07   9.1204707e-01   9.1202840e-01  -8.8494991e+02
   3.8706235e-09  -2.6071910e-07   9.1204698e-01   9.1202848e-01  -8.7704433e+02
   3.8732911e-09  -2.5839000e-07   9.1204690e-01   9.1202857e-01  -8.6920937e+02
   3.8759587e-09  -2.5608171e-07   9.1204682e-01   9.1202865e-01  -8.6144441e+02
   3.8786262e-09  -2.5379404e-07   9.1204675e-01   9.1202873e-01  -8.5374882e+02
   3.8812938e-09  -2.5152681e-07   9.1204667e-01   9.1202882e-01  -8.4612196e+02
   3.8839613e-09  -2.4927982e-07   9.1204659e-01   9.1202890e-01  -8.3856324e+02
   3.8866289e-09  -2.4705292e-07   9.1204651e-01   9.1202898e-01  -8.3107204e+02
   3.8892964e-09  -2.4484590e-07   9.1204644e-01   9.1202906e-01  -8.2364777e+02
   3.8919640e-09  -2.4265861e-07   9.1204636e-01   9.1202914e-01  -8.1628983e+02
   3.8946315e-09  -2.4049085e-07   9.1204629e-01   9.1202922e-01  -8.0899761e+02
   3.8972991e-09  -2.3834245e-07   9.1204621e-01   9.1202930e-01  -8.0177054e+02
   3.8999667e-09  -2.3621325e-07   9.1204614e-01   9.1202938e-01  -7.9460802e+02
