   0.0000000e+00  -1.1240045e-01   6.4205524e+00   1.0210226e-03  -5.2322696e+08
   6.6688896e-13  -1.1205183e-01   6.4209091e+00   1.0491579e-03  -5.2230932e+08
   1.3337779e-12  -1.1170383e-01   6.4212698e+00   1.0780177e-03  -5.2139171e+08
   2.0006669e-12  -1.1135644e-01   6.4216345e+00   1.1076194e-03  -5.2047414e+08
   2.6675559e-12  -1.1100966e-01   6.4220032e+00   1.1379803e-03  -5.1955662e+08
   3.3344448e-12  -1.1066349e-01   6.4223760e+00   1.1691186e-03  -5.1863914e+08
   4.0013338e-12  -1.1031794e-01   6.4227529e+00   1.2010524e-03  -5.1772170e+08
   4.6682227e-12  -1.0997299e-01   6.4231338e+00   1.2338006e-03  -5.1680429e+08
   5.3351117e-12  -1.0962866e-01   6.4235189e+00   1.2673821e-03  -5.1588694e+08
   6.0020007e-12  -1.0928494e-01   6.4239082e+00   1.3018165e-03  -5.1496962e+08
   6.6688896e-12  -1.0894184e-01   6.4243017e+00   1.3371236e-03  -5.1405234e+08
   7.3357786e-12  -1.0859934e-01   6.4246995e+00   1.3733238e-03  -5.1313511e+08
   8.0026676e-12  -1.0825746e-01   6.4251015e+00   1.4104379e-03  -5.1221792e+08
   8.6695565e-12  -1.0791619e-01   6.4255078e+00   1.4484870e-03  -5.1130077e+08
   9.3364455e-12  -1.0757553e-01   6.4259184e+00   1.4874927e-03  -5.1038366e+08
   1.0003334e-11  -1.0723548e-01   6.4263334e+00   1.5274770e-03  -5.0946659e+08
   1.0670223e-11  -1.0689604e-01   6.4267528e+00   1.5684626e-03  -5.0854957e+08
   1.1337112e-11  -1.0655722e-01   6.4271766e+00   1.6104723e-03  -5.0763258e+08
   1.2004001e-11  -1.0621900e-01   6.4276048e+00   1.6535297e-03  -5.0671565e+08
   1.2670890e-11  -1.0588140e-01   6.4280375e+00   1.6976586e-03  -5.0579875e+08
   1.3337779e-11  -1.0554441e-01   6.4284748e+00   1.7428834e-03  -5.0488189e+08
   1.4004668e-11  -1.0520804e-01   6.4289166e+00   1.7892291e-03  -5.0396508e+08
   1.4671557e-11  -1.0487227e-01   6.4293629e+00   1.8367211e-03  -5.0304831e+08
   1.5338446e-11  -1.0453712e-01   6.4298139e+00   1.8853853e-03  -5.0213158e+08
   1.6005335e-11  -1.0420257e-01   6.4302694e+00   1.9352481e-03  -5.0121490e+08
   1.6672224e-11  -1.0386864e-01   6.4307297e+00   1.9863366e-03  -5.0029826e+08
   1.7339113e-11  -1.0353532e-01   6.4311946e+00   2.0386782e-03  -4.9938166e+08
   1.8006002e-11  -1.0320261e-01   6.4316642e+00   2.0923010e-03  -4.9846511e+08
   1.8672891e-11  -1.0287052e-01   6.4321386e+00   2.1472337e-03  -4.9754859e+08
   1.9339780e-11  -1.0253903e-01   6.4326177e+00   2.2035054e-03  -4.9663212e+08
   2.0006669e-11  -1.0220816e-01   6.4331017e+00   2.2611458e-03  -4.9571570e+08
   2.0673558e-11  -1.0187789e-01   6.4335905e+00   2.3201854e-03  -4.9479932e+08
   2.1340447e-11  -1.0154824e-01   6.4340841e+00   2.3806551e-03  -4.9388298e+08
   2.2007336e-11  -1.0121920e-01   6.4345826e+00   2.4425864e-03  -4.9296668e+08
   2.2674225e-11  -1.0089077e-01   6.4350860e+00   2.5060115e-03  -4.9205043e+08
   2.3341114e-11  -1.0056296e-01   6.4355944e+00   2.5709632e-03  -4.9113422e+08
   2.4008003e-11  -1.0023575e-01   6.4361078e+00   2.6374749e-03  -4.9021805e+08
   2.4674892e-11  -9.9909154e-02   6.4366261e+00   2.7055807e-03  -4.8930193e+08
   2.5341781e-11  -9.9583170e-02   6.4371494e+00   2.7753153e-03  -4.8838585e+08
   2.6008670e-11  -9.9257797e-02   6.4376778e+00   2.8467141e-03  -4.8746981e+08
   2.6675559e-11  -9.8933035e-02   6.4382113e+00   2.9198131e-03  -4.8655382e+08
   2.7342447e-11  -9.8608885e-02   6.4387499e+00   2.9946491e-03  -4.8563787e+08
   2.8009336e-11  -9.8285345e-02   6.4392936e+00   3.0712597e-03  -4.8472196e+08
   2.8676225e-11  -9.7962417e-02   6.4398424e+00   3.1496828e-03  -4.8380610e+08
   2.9343114e-11  -9.7640099e-02   6.4403964e+00   3.2299574e-03  -4.8289028e+08
   3.0010003e-11  -9.7318392e-02   6.4409557e+00   3.3121231e-03  -4.8197451e+08
   3.0676892e-11  -9.6997297e-02   6.4415201e+00   3.3962203e-03  -4.8105878e+08
   3.1343781e-11  -9.6676812e-02   6.4420898e+00   3.4822900e-03  -4.8014309e+08
   3.2010670e-11  -9.6356939e-02   6.4426648e+00   3.5703741e-03  -4.7922745e+08
   3.2677559e-11  -9.6037676e-02   6.4432450e+00   3.6605152e-03  -4.7831185e+08
   3.3344448e-11  -9.5719024e-02   6.4438306e+00   3.7527568e-03  -4.7739629e+08
   3.4011337e-11  -9.5400983e-02   6.4444215e+00   3.8471432e-03  -4.7648078e+08
   3.4678226e-11  -9.5083552e-02   6.4450178e+00   3.9437192e-03  -4.7556531e+08
   3.5345115e-11  -9.4766733e-02   6.4456194e+00   4.0425309e-03  -4.7464989e+08
   3.6012004e-11  -9.4450524e-02   6.4462265e+00   4.1436248e-03  -4.7373450e+08
   3.6678893e-11  -9.4134926e-02   6.4468390e+00   4.2470485e-03  -4.7281917e+08
   3.7345782e-11  -9.3819938e-02   6.4474569e+00   4.3528504e-03  -4.7190387e+08
   3.8012671e-11  -9.3505562e-02   6.4480803e+00   4.4610798e-03  -4.7098862e+08
   3.8679560e-11  -9.3191795e-02   6.4487092e+00   4.5717868e-03  -4.7007342e+08
   3.9346449e-11  -9.2878640e-02   6.4493435e+00   4.6850225e-03  -4.6915825e+08
   4.0013338e-11  -9.2566095e-02   6.4499834e+00   4.8008389e-03  -4.6824314e+08
   4.0680227e-11  -9.2254161e-02   6.4506289e+00   4.9192887e-03  -4.6732806e+08
   4.1347116e-11  -9.1942837e-02   6.4512799e+00   5.0404258e-03  -4.6641303e+08
   4.2014005e-11  -9.1632123e-02   6.4519364e+00   5.1643050e-03  -4.6549804e+08
   4.2680894e-11  -9.1322020e-02   6.4525986e+00   5.2909819e-03  -4.6458310e+08
   4.3347783e-11  -9.1012528e-02   6.4532664e+00   5.4205133e-03  -4.6366820e+08
   4.4014672e-11  -9.0703646e-02   6.4539397e+00   5.5529569e-03  -4.6275334e+08
   4.4681561e-11  -9.0395374e-02   6.4546187e+00   5.6883712e-03  -4.6183853e+08
   4.5348449e-11  -9.0087713e-02   6.4553034e+00   5.8268160e-03  -4.6092376e+08
   4.6015338e-11  -8.9780662e-02   6.4559937e+00   5.9683521e-03  -4.6000903e+08
   4.6682227e-11  -8.9474222e-02   6.4566897e+00   6.1130411e-03  -4.5909435e+08
   4.7349116e-11  -8.9168391e-02   6.4573914e+00   6.2609458e-03  -4.5817971e+08
   4.8016005e-11  -8.8863171e-02   6.4580988e+00   6.4121302e-03  -4.5726512e+08
   4.8682894e-11  -8.8558561e-02   6.4588118e+00   6.5666592e-03  -4.5635057e+08
   4.9349783e-11  -8.8254562e-02   6.4595306e+00   6.7245988e-03  -4.5543606e+08
   5.0016672e-11  -8.7951172e-02   6.4602552e+00   6.8860161e-03  -4.5452160e+08
   5.0683561e-11  -8.7648393e-02   6.4609854e+00   7.0509796e-03  -4.5360718e+08
   5.1350450e-11  -8.7346224e-02   6.4617214e+00   7.2195585e-03  -4.5269280e+08
   5.2017339e-11  -8.7044664e-02   6.4624632e+00   7.3918234e-03  -4.5177847e+08
   5.2684228e-11  -8.6743715e-02   6.4632107e+00   7.5678461e-03  -4.5086418e+08
   5.3351117e-11  -8.6443376e-02   6.4639639e+00   7.7476994e-03  -4.4994993e+08
   5.4018006e-11  -8.6143647e-02   6.4647229e+00   7.9314575e-03  -4.4903573e+08
   5.4684895e-11  -8.5844528e-02   6.4654877e+00   8.1191957e-03  -4.4812157e+08
   5.5351784e-11  -8.5546019e-02   6.4662583e+00   8.3109905e-03  -4.4720745e+08
   5.6018673e-11  -8.5248120e-02   6.4670346e+00   8.5069196e-03  -4.4629338e+08
   5.6685562e-11  -8.4950831e-02   6.4678167e+00   8.7070621e-03  -4.4537935e+08
   5.7352451e-11  -8.4654151e-02   6.4686046e+00   8.9114983e-03  -4.4446536e+08
   5.8019340e-11  -8.4358082e-02   6.4693983e+00   9.1203097e-03  -4.4355142e+08
   5.8686229e-11  -8.4062622e-02   6.4701977e+00   9.3335791e-03  -4.4263752e+08
   5.9353118e-11  -8.3767772e-02   6.4710029e+00   9.5513908e-03  -4.4172367e+08
   6.0020007e-11  -8.3473532e-02   6.4718138e+00   9.7738302e-03  -4.4080985e+08
   6.0686896e-11  -8.3179902e-02   6.4726305e+00   1.0000984e-02  -4.3989609e+08
   6.1353785e-11  -8.2886881e-02   6.4734530e+00   1.0232941e-02  -4.3898236e+08
   6.2020674e-11  -8.2594470e-02   6.4742812e+00   1.0469790e-02  -4.3806868e+08
   6.2687563e-11  -8.2302668e-02   6.4751152e+00   1.0711622e-02  -4.3715504e+08
   6.3354451e-11  -8.2011477e-02   6.4759548e+00   1.0958529e-02  -4.3624144e+08
   6.4021340e-11  -8.1720894e-02   6.4768003e+00   1.1210606e-02  -4.3532789e+08
   6.4688229e-11  -8.1430922e-02   6.4776514e+00   1.1467948e-02  -4.3441438e+08
   6.5355118e-11  -8.1141559e-02   6.4785082e+00   1.1730650e-02  -4.3350092e+08
   6.6022007e-11  -8.0852805e-02   6.4793707e+00   1.1998811e-02  -4.3258750e+08
   6.6688896e-11  -8.0564661e-02   6.4802389e+00   1.2272531e-02  -4.3167412e+08
   6.7355785e-11  -8.0277126e-02   6.4811127e+00   1.2551911e-02  -4.3076079e+08
   6.8022674e-11  -7.9990201e-02   6.4819921e+00   1.2837053e-02  -4.2984750e+08
   6.8689563e-11  -7.9703885e-02   6.4828772e+00   1.3128060e-02  -4.2893425e+08
   6.9356452e-11  -7.9418179e-02   6.4837679e+00   1.3425040e-02  -4.2802105e+08
   7.0023341e-11  -7.9133082e-02   6.4846642e+00   1.3728098e-02  -4.2710789e+08
   7.0690230e-11  -7.8848594e-02   6.4855660e+00   1.4037344e-02  -4.2619477e+08
   7.1357119e-11  -7.8564716e-02   6.4864734e+00   1.4352888e-02  -4.2528170e+08
   7.2024008e-11  -7.8281446e-02   6.4873863e+00   1.4674841e-02  -4.2436867e+08
   7.2690897e-11  -7.7998786e-02   6.4883047e+00   1.5003317e-02  -4.2345568e+08
   7.3357786e-11  -7.7716736e-02   6.4892285e+00   1.5338431e-02  -4.2254274e+08
   7.4024675e-11  -7.7435294e-02   6.4901578e+00   1.5680299e-02  -4.2162985e+08
   7.4691564e-11  -7.7154462e-02   6.4910924e+00   1.6029041e-02  -4.2071699e+08
   7.5358453e-11  -7.6874238e-02   6.4920325e+00   1.6384775e-02  -4.1980419e+08
   7.6025342e-11  -7.6594624e-02   6.4929779e+00   1.6747624e-02  -4.1889142e+08
   7.6692231e-11  -7.6315619e-02   6.4939286e+00   1.7117710e-02  -4.1797870e+08
   7.7359120e-11  -7.6037222e-02   6.4948846e+00   1.7495159e-02  -4.1706603e+08
   7.8026009e-11  -7.5759435e-02   6.4958458e+00   1.7880098e-02  -4.1615340e+08
   7.8692898e-11  -7.5482257e-02   6.4968122e+00   1.8272655e-02  -4.1524081e+08
   7.9359787e-11  -7.5205688e-02   6.4977837e+00   1.8672960e-02  -4.1432827e+08
   8.0026676e-11  -7.4929727e-02   6.4987604e+00   1.9081145e-02  -4.1341578e+08
   8.0693565e-11  -7.4654376e-02   6.4997422e+00   1.9497344e-02  -4.1250333e+08
   8.1360453e-11  -7.4379633e-02   6.5007290e+00   1.9921692e-02  -4.1159092e+08
   8.2027342e-11  -7.4105499e-02   6.5017208e+00   2.0354327e-02  -4.1067856e+08
   8.2694231e-11  -7.3831974e-02   6.5027175e+00   2.0795387e-02  -4.0976625e+08
   8.3361120e-11  -7.3559058e-02   6.5037191e+00   2.1245014e-02  -4.0885398e+08
   8.4028009e-11  -7.3286750e-02   6.5047255e+00   2.1703350e-02  -4.0794176e+08
   8.4694898e-11  -7.3015051e-02   6.5057368e+00   2.2170539e-02  -4.0702958e+08
   8.5361787e-11  -7.2743961e-02   6.5067527e+00   2.2646729e-02  -4.0611745e+08
   8.6028676e-11  -7.2473480e-02   6.5077734e+00   2.3132067e-02  -4.0520537e+08
   8.6695565e-11  -7.2203606e-02   6.5087987e+00   2.3626703e-02  -4.0429333e+08
   8.7362454e-11  -7.1934342e-02   6.5098285e+00   2.4130790e-02  -4.0338134e+08
   8.8029343e-11  -7.1665686e-02   6.5108628e+00   2.4644481e-02  -4.0246940e+08
   8.8696232e-11  -7.1397639e-02   6.5119016e+00   2.5167933e-02  -4.0155751e+08
   8.9363121e-11  -7.1130200e-02   6.5129447e+00   2.5701302e-02  -4.0064566e+08
   9.0030010e-11  -7.0863369e-02   6.5139922e+00   2.6244748e-02  -3.9973387e+08
   9.0696899e-11  -7.0597147e-02   6.5150438e+00   2.6798434e-02  -3.9882212e+08
   9.1363788e-11  -7.0331533e-02   6.5160997e+00   2.7362522e-02  -3.9791042e+08
   9.2030677e-11  -7.0066528e-02   6.5171597e+00   2.7937178e-02  -3.9699877e+08
   9.2697566e-11  -6.9802131e-02   6.5182236e+00   2.8522570e-02  -3.9608717e+08
   9.3364455e-11  -6.9538342e-02   6.5192916e+00   2.9118866e-02  -3.9517561e+08
   9.4031344e-11  -6.9275161e-02   6.5203634e+00   2.9726239e-02  -3.9426411e+08
   9.4698233e-11  -6.9012589e-02   6.5214390e+00   3.0344861e-02  -3.9335266e+08
   9.5365122e-11  -6.8750624e-02   6.5225183e+00   3.0974907e-02  -3.9244126e+08
   9.6032011e-11  -6.8489268e-02   6.5236012e+00   3.1616556e-02  -3.9152991e+08
   9.6698900e-11  -6.8228520e-02   6.5246877e+00   3.2269987e-02  -3.9061862e+08
   9.7365789e-11  -6.7968380e-02   6.5257776e+00   3.2935380e-02  -3.8970738e+08
   9.8032678e-11  -6.7708848e-02   6.5268709e+00   3.3612920e-02  -3.8879618e+08
   9.8699567e-11  -6.7449924e-02   6.5279675e+00   3.4302791e-02  -3.8788505e+08
   9.9366455e-11  -6.7191608e-02   6.5290672e+00   3.5005181e-02  -3.8697396e+08
   1.0003334e-10  -6.6933899e-02   6.5301701e+00   3.5720279e-02  -3.8606293e+08
   1.0070023e-10  -6.6676799e-02   6.5312759e+00   3.6448277e-02  -3.8515196e+08
   1.0136712e-10  -6.6420306e-02   6.5323846e+00   3.7189369e-02  -3.8424104e+08
   1.0203401e-10  -6.6164422e-02   6.5334961e+00   3.7943750e-02  -3.8333018e+08
   1.0270090e-10  -6.5909144e-02   6.5346103e+00   3.8711617e-02  -3.8241937e+08
   1.0336779e-10  -6.5654475e-02   6.5357271e+00   3.9493170e-02  -3.8150862e+08
   1.0403468e-10  -6.5400413e-02   6.5368463e+00   4.0288611e-02  -3.8059793e+08
   1.0470157e-10  -6.5146959e-02   6.5379679e+00   4.1098144e-02  -3.7968730e+08
   1.0536846e-10  -6.4894113e-02   6.5390918e+00   4.1921974e-02  -3.7877673e+08
   1.0603535e-10  -6.4641873e-02   6.5402177e+00   4.2760309e-02  -3.7786621e+08
   1.0670223e-10  -6.4390242e-02   6.5413457e+00   4.3613360e-02  -3.7695576e+08
   1.0736912e-10  -6.4139218e-02   6.5424756e+00   4.4481337e-02  -3.7604537e+08
   1.0803601e-10  -6.3888801e-02   6.5436072e+00   4.5364455e-02  -3.7513504e+08
   1.0870290e-10  -6.3638991e-02   6.5447405e+00   4.6262931e-02  -3.7422478e+08
   1.0936979e-10  -6.3389789e-02   6.5458754e+00   4.7176981e-02  -3.7331458e+08
   1.1003668e-10  -6.3141194e-02   6.5470116e+00   4.8106827e-02  -3.7240444e+08
   1.1070357e-10  -6.2893207e-02   6.5481491e+00   4.9052689e-02  -3.7149437e+08
   1.1137046e-10  -6.2645826e-02   6.5492877e+00   5.0014793e-02  -3.7058436e+08
   1.1203735e-10  -6.2399053e-02   6.5504273e+00   5.0993365e-02  -3.6967443e+08
   1.1270423e-10  -6.2152886e-02   6.5515678e+00   5.1988632e-02  -3.6876456e+08
   1.1337112e-10  -6.1907327e-02   6.5527090e+00   5.3000826e-02  -3.6785476e+08
   1.1403801e-10  -6.1662374e-02   6.5538507e+00   5.4030177e-02  -3.6694503e+08
   1.1470490e-10  -6.1418029e-02   6.5549929e+00   5.5076921e-02  -3.6603537e+08
   1.1537179e-10  -6.1174290e-02   6.5561354e+00   5.6141294e-02  -3.6512579e+08
   1.1603868e-10  -6.0931158e-02   6.5572780e+00   5.7223533e-02  -3.6421628e+08
   1.1670557e-10  -6.0688633e-02   6.5584206e+00   5.8323879e-02  -3.6330684e+08
   1.1737246e-10  -6.0446714e-02   6.5595630e+00   5.9442573e-02  -3.6239748e+08
   1.1803935e-10  -6.0205402e-02   6.5607051e+00   6.0579861e-02  -3.6148820e+08
   1.1870624e-10  -5.9964697e-02   6.5618467e+00   6.1735987e-02  -3.6057899e+08
   1.1937312e-10  -5.9724598e-02   6.5629877e+00   6.2911200e-02  -3.5966986e+08
   1.2004001e-10  -5.9485105e-02   6.5641278e+00   6.4105749e-02  -3.5876082e+08
   1.2070690e-10  -5.9246219e-02   6.5652670e+00   6.5319886e-02  -3.5785186e+08
   1.2137379e-10  -5.9007940e-02   6.5664050e+00   6.6553865e-02  -3.5694298e+08
   1.2204068e-10  -5.8770266e-02   6.5675417e+00   6.7807941e-02  -3.5603419e+08
   1.2270757e-10  -5.8533199e-02   6.5686769e+00   6.9082371e-02  -3.5512548e+08
   1.2337446e-10  -5.8296737e-02   6.5698104e+00   7.0377414e-02  -3.5421686e+08
   1.2404135e-10  -5.8060882e-02   6.5709421e+00   7.1693331e-02  -3.5330833e+08
   1.2470824e-10  -5.7825633e-02   6.5720717e+00   7.3030384e-02  -3.5239989e+08
   1.2537513e-10  -5.7590990e-02   6.5731992e+00   7.4388838e-02  -3.5149154e+08
   1.2604201e-10  -5.7356952e-02   6.5743242e+00   7.5768959e-02  -3.5058329e+08
   1.2670890e-10  -5.7123521e-02   6.5754467e+00   7.7171015e-02  -3.4967514e+08
   1.2737579e-10  -5.6890695e-02   6.5765664e+00   7.8595275e-02  -3.4876708e+08
   1.2804268e-10  -5.6658474e-02   6.5776831e+00   8.0042010e-02  -3.4785912e+08
   1.2870957e-10  -5.6426860e-02   6.5787966e+00   8.1511493e-02  -3.4695126e+08
   1.2937646e-10  -5.6195850e-02   6.5799068e+00   8.3003999e-02  -3.4604350e+08
   1.3004335e-10  -5.5965446e-02   6.5810134e+00   8.4519803e-02  -3.4513585e+08
   1.3071024e-10  -5.5735648e-02   6.5821163e+00   8.6059183e-02  -3.4422831e+08
   1.3137713e-10  -5.5506454e-02   6.5832151e+00   8.7622418e-02  -3.4332087e+08
   1.3204401e-10  -5.5277866e-02   6.5843098e+00   8.9209788e-02  -3.4241355e+08
   1.3271090e-10  -5.5049883e-02   6.5854001e+00   9.0821576e-02  -3.4150633e+08
   1.3337779e-10  -5.4822505e-02   6.5864858e+00   9.2458065e-02  -3.4059924e+08
   1.3404468e-10  -5.4595732e-02   6.5875667e+00   9.4119539e-02  -3.3969226e+08
   1.3471157e-10  -5.4369563e-02   6.5886426e+00   9.5806286e-02  -3.3878539e+08
   1.3537846e-10  -5.4144000e-02   6.5897131e+00   9.7518591e-02  -3.3787865e+08
   1.3604535e-10  -5.3919041e-02   6.5907783e+00   9.9256745e-02  -3.3697204e+08
   1.3671224e-10  -5.3694686e-02   6.5918377e+00   1.0102104e-01  -3.3606555e+08
   1.3737913e-10  -5.3470936e-02   6.5928912e+00   1.0281176e-01  -3.3515918e+08
   1.3804602e-10  -5.3247790e-02   6.5939385e+00   1.0462920e-01  -3.3425295e+08
   1.3871290e-10  -5.3025249e-02   6.5949795e+00   1.0647366e-01  -3.3334685e+08
   1.3937979e-10  -5.2803311e-02   6.5960138e+00   1.0834543e-01  -3.3244089e+08
   1.4004668e-10  -5.2581978e-02   6.5970413e+00   1.1024481e-01  -3.3153507e+08
   1.4071357e-10  -5.2361248e-02   6.5980616e+00   1.1217208e-01  -3.3062938e+08
   1.4138046e-10  -5.2141123e-02   6.5990747e+00   1.1412756e-01  -3.2972384e+08
   1.4204735e-10  -5.1921601e-02   6.6000802e+00   1.1611153e-01  -3.2881845e+08
   1.4271424e-10  -5.1702683e-02   6.6010778e+00   1.1812431e-01  -3.2791320e+08
   1.4338113e-10  -5.1484368e-02   6.6020674e+00   1.2016618e-01  -3.2700811e+08
   1.4404802e-10  -5.1266657e-02   6.6030487e+00   1.2223745e-01  -3.2610317e+08
   1.4471490e-10  -5.1049549e-02   6.6040214e+00   1.2433842e-01  -3.2519839e+08
   1.4538179e-10  -5.0833044e-02   6.6049853e+00   1.2646940e-01  -3.2429378e+08
   1.4604868e-10  -5.0617142e-02   6.6059401e+00   1.2863068e-01  -3.2338932e+08
   1.4671557e-10  -5.0401843e-02   6.6068855e+00   1.3082257e-01  -3.2248503e+08
   1.4738246e-10  -5.0187147e-02   6.6078214e+00   1.3304537e-01  -3.2158092e+08
   1.4804935e-10  -4.9973053e-02   6.6087475e+00   1.3529940e-01  -3.2067697e+08
   1.4871624e-10  -4.9759562e-02   6.6096634e+00   1.3758494e-01  -3.1977321e+08
   1.4938313e-10  -4.9546674e-02   6.6105690e+00   1.3990232e-01  -3.1886962e+08
   1.5005002e-10  -4.9334387e-02   6.6114639e+00   1.4225182e-01  -3.1796622e+08
   1.5071691e-10  -4.9122703e-02   6.6123478e+00   1.4463377e-01  -3.1706300e+08
   1.5138379e-10  -4.8911621e-02   6.6132207e+00   1.4704846e-01  -3.1615998e+08
   1.5205068e-10  -4.8701141e-02   6.6140820e+00   1.4949620e-01  -3.1525715e+08
   1.5271757e-10  -4.8491262e-02   6.6149316e+00   1.5197730e-01  -3.1435452e+08
   1.5338446e-10  -4.8281985e-02   6.6157693e+00   1.5449206e-01  -3.1345209e+08
   1.5405135e-10  -4.8073309e-02   6.6165946e+00   1.5704079e-01  -3.1254987e+08
   1.5471824e-10  -4.7865235e-02   6.6174074e+00   1.5962379e-01  -3.1164785e+08
   1.5538513e-10  -4.7657761e-02   6.6182073e+00   1.6224137e-01  -3.1074605e+08
   1.5605202e-10  -4.7450889e-02   6.6189942e+00   1.6489384e-01  -3.0984447e+08
   1.5671891e-10  -4.7244617e-02   6.6197676e+00   1.6758149e-01  -3.0894311e+08
   1.5738580e-10  -4.7038947e-02   6.6205273e+00   1.7030464e-01  -3.0804198e+08
   1.5805268e-10  -4.6833876e-02   6.6212731e+00   1.7306358e-01  -3.0714108e+08
   1.5871957e-10  -4.6629406e-02   6.6220046e+00   1.7585862e-01  -3.0624041e+08
   1.5938646e-10  -4.6425536e-02   6.6227215e+00   1.7869007e-01  -3.0533998e+08
   1.6005335e-10  -4.6222266e-02   6.6234236e+00   1.8155821e-01  -3.0443979e+08
   1.6072024e-10  -4.6019595e-02   6.6241106e+00   1.8446336e-01  -3.0353985e+08
   1.6138713e-10  -4.5817525e-02   6.6247821e+00   1.8740581e-01  -3.0264017e+08
   1.6205402e-10  -4.5616053e-02   6.6254380e+00   1.9038587e-01  -3.0174074e+08
   1.6272091e-10  -4.5415181e-02   6.6260778e+00   1.9340383e-01  -3.0084158e+08
   1.6338780e-10  -4.5214908e-02   6.6267013e+00   1.9645998e-01  -2.9994268e+08
   1.6405468e-10  -4.5015234e-02   6.6273082e+00   1.9955462e-01  -2.9904405e+08
   1.6472157e-10  -4.4816158e-02   6.6278982e+00   2.0268805e-01  -2.9814570e+08
   1.6538846e-10  -4.4617681e-02   6.6284710e+00   2.0586056e-01  -2.9724763e+08
   1.6605535e-10  -4.4419802e-02   6.6290263e+00   2.0907244e-01  -2.9634985e+08
   1.6672224e-10  -4.4222521e-02   6.6295638e+00   2.1232398e-01  -2.9545236e+08
   1.6738913e-10  -4.4025838e-02   6.6300833e+00   2.1561547e-01  -2.9455517e+08
   1.6805602e-10  -4.3829753e-02   6.6305843e+00   2.1894719e-01  -2.9365829e+08
   1.6872291e-10  -4.3634265e-02   6.6310666e+00   2.2231943e-01  -2.9276171e+08
   1.6938980e-10  -4.3439374e-02   6.6315299e+00   2.2573247e-01  -2.9186544e+08
   1.7005669e-10  -4.3245080e-02   6.6319739e+00   2.2918660e-01  -2.9096949e+08
   1.7072357e-10  -4.3051383e-02   6.6323984e+00   2.3268208e-01  -2.9007387e+08
   1.7139046e-10  -4.2858282e-02   6.6328029e+00   2.3621921e-01  -2.8917858e+08
   1.7205735e-10  -4.2665777e-02   6.6331872e+00   2.3979824e-01  -2.8828363e+08
   1.7272424e-10  -4.2473869e-02   6.6335509e+00   2.4341946e-01  -2.8738902e+08
   1.7339113e-10  -4.2282556e-02   6.6338939e+00   2.4708313e-01  -2.8649476e+08
   1.7405802e-10  -4.2091839e-02   6.6342158e+00   2.5078953e-01  -2.8560086e+08
   1.7472491e-10  -4.1901717e-02   6.6345162e+00   2.5453890e-01  -2.8470731e+08
   1.7539180e-10  -4.1712191e-02   6.6347949e+00   2.5833153e-01  -2.8381413e+08
   1.7605869e-10  -4.1523258e-02   6.6350516e+00   2.6216765e-01  -2.8292133e+08
   1.7672558e-10  -4.1334921e-02   6.6352859e+00   2.6604754e-01  -2.8202891e+08
   1.7739246e-10  -4.1147178e-02   6.6354976e+00   2.6997145e-01  -2.8113687e+08
   1.7805935e-10  -4.0960028e-02   6.6356864e+00   2.7393962e-01  -2.8024522e+08
   1.7872624e-10  -4.0773473e-02   6.6358520e+00   2.7795230e-01  -2.7935398e+08
   1.7939313e-10  -4.0587510e-02   6.6359940e+00   2.8200973e-01  -2.7846314e+08
   1.8006002e-10  -4.0402141e-02   6.6361121e+00   2.8611216e-01  -2.7757272e+08
   1.8072691e-10  -4.0217365e-02   6.6362062e+00   2.9025983e-01  -2.7668272e+08
   1.8139380e-10  -4.0033181e-02   6.6362758e+00   2.9445296e-01  -2.7579314e+08
   1.8206069e-10  -3.9849590e-02   6.6363207e+00   2.9869178e-01  -2.7490400e+08
   1.8272758e-10  -3.9666590e-02   6.6363405e+00   3.0297653e-01  -2.7401530e+08
   1.8339446e-10  -3.9484182e-02   6.6363351e+00   3.0730742e-01  -2.7312705e+08
   1.8406135e-10  -3.9302365e-02   6.6363040e+00   3.1168467e-01  -2.7223926e+08
   1.8472824e-10  -3.9121140e-02   6.6362470e+00   3.1610850e-01  -2.7135193e+08
   1.8539513e-10  -3.8940505e-02   6.6361638e+00   3.2057912e-01  -2.7046507e+08
   1.8606202e-10  -3.8760460e-02   6.6360542e+00   3.2509674e-01  -2.6957869e+08
   1.8672891e-10  -3.8581006e-02   6.6359177e+00   3.2966154e-01  -2.6869279e+08
   1.8739580e-10  -3.8402141e-02   6.6357542e+00   3.3427375e-01  -2.6780740e+08
   1.8806269e-10  -3.8223865e-02   6.6355634e+00   3.3893353e-01  -2.6692250e+08
   1.8872958e-10  -3.8046179e-02   6.6353449e+00   3.4364110e-01  -2.6603811e+08
   1.8939647e-10  -3.7869081e-02   6.6350985e+00   3.4839662e-01  -2.6515424e+08
   1.9006335e-10  -3.7692571e-02   6.6348239e+00   3.5320029e-01  -2.6427090e+08
   1.9073024e-10  -3.7516650e-02   6.6345208e+00   3.5805226e-01  -2.6338810e+08
   1.9139713e-10  -3.7341316e-02   6.6341890e+00   3.6295272e-01  -2.6250583e+08
   1.9206402e-10  -3.7166569e-02   6.6338281e+00   3.6790183e-01  -2.6162412e+08
   1.9273091e-10  -3.6992409e-02   6.6334380e+00   3.7289975e-01  -2.6074296e+08
   1.9339780e-10  -3.6818835e-02   6.6330183e+00   3.7794663e-01  -2.5986238e+08
   1.9406469e-10  -3.6645848e-02   6.6325688e+00   3.8304263e-01  -2.5898237e+08
   1.9473158e-10  -3.6473446e-02   6.6320891e+00   3.8818788e-01  -2.5810295e+08
   1.9539847e-10  -3.6301629e-02   6.6315791e+00   3.9338252e-01  -2.5722412e+08
   1.9606536e-10  -3.6130397e-02   6.6310385e+00   3.9862669e-01  -2.5634589e+08
   1.9673224e-10  -3.5959750e-02   6.6304671e+00   4.0392052e-01  -2.5546828e+08
   1.9739913e-10  -3.5789686e-02   6.6298644e+00   4.0926413e-01  -2.5459128e+08
   1.9806602e-10  -3.5620207e-02   6.6292305e+00   4.1465764e-01  -2.5371492e+08
   1.9873291e-10  -3.5451310e-02   6.6285648e+00   4.2010115e-01  -2.5283920e+08
   1.9939980e-10  -3.5282996e-02   6.6278674e+00   4.2559477e-01  -2.5196412e+08
   2.0006669e-10  -3.5115265e-02   6.6271378e+00   4.3113859e-01  -2.5108970e+08
   2.0073358e-10  -3.4948115e-02   6.6263758e+00   4.3673273e-01  -2.5021595e+08
   2.0140047e-10  -3.4781547e-02   6.6255813e+00   4.4237725e-01  -2.4934288e+08
   2.0206736e-10  -3.4615559e-02   6.6247539e+00   4.4807224e-01  -2.4847049e+08
   2.0273424e-10  -3.4450152e-02   6.6238935e+00   4.5381777e-01  -2.4759880e+08
   2.0340113e-10  -3.4285326e-02   6.6229998e+00   4.5961392e-01  -2.4672781e+08
   2.0406802e-10  -3.4121078e-02   6.6220727e+00   4.6546074e-01  -2.4585754e+08
   2.0473491e-10  -3.3957410e-02   6.6211118e+00   4.7135829e-01  -2.4498800e+08
   2.0540180e-10  -3.3794320e-02   6.6201170e+00   4.7730662e-01  -2.4411919e+08
   2.0606869e-10  -3.3631809e-02   6.6190880e+00   4.8330577e-01  -2.4325112e+08
   2.0673558e-10  -3.3469875e-02   6.6180247e+00   4.8935577e-01  -2.4238381e+08
   2.0740247e-10  -3.3308518e-02   6.6169269e+00   4.9545667e-01  -2.4151727e+08
   2.0806936e-10  -3.3147737e-02   6.6157943e+00   5.0160847e-01  -2.4065150e+08
   2.0873625e-10  -3.2987533e-02   6.6146268e+00   5.0781119e-01  -2.3978652e+08
   2.0940313e-10  -3.2827904e-02   6.6134242e+00   5.1406485e-01  -2.3892233e+08
   2.1007002e-10  -3.2668850e-02   6.6121862e+00   5.2036944e-01  -2.3805895e+08
   2.1073691e-10  -3.2510370e-02   6.6109128e+00   5.2672496e-01  -2.3719639e+08
   2.1140380e-10  -3.2352465e-02   6.6096037e+00   5.3313140e-01  -2.3633465e+08
   2.1207069e-10  -3.2195132e-02   6.6082588e+00   5.3958874e-01  -2.3547375e+08
   2.1273758e-10  -3.2038373e-02   6.6068778e+00   5.4609695e-01  -2.3461371e+08
   2.1340447e-10  -3.1882185e-02   6.6054607e+00   5.5265601e-01  -2.3375452e+08
   2.1407136e-10  -3.1726569e-02   6.6040072e+00   5.5926586e-01  -2.3289620e+08
   2.1473825e-10  -3.1571525e-02   6.6025173e+00   5.6592646e-01  -2.3203876e+08
   2.1540514e-10  -3.1417050e-02   6.6009907e+00   5.7263776e-01  -2.3118222e+08
   2.1607202e-10  -3.1263146e-02   6.5994274e+00   5.7939970e-01  -2.3032657e+08
   2.1673891e-10  -3.1109811e-02   6.5978271e+00   5.8621221e-01  -2.2947185e+08
   2.1740580e-10  -3.0957044e-02   6.5961898e+00   5.9307520e-01  -2.2861804e+08
   2.1807269e-10  -3.0804846e-02   6.5945154e+00   5.9998861e-01  -2.2776518e+08
   2.1873958e-10  -3.0653215e-02   6.5928036e+00   6.0695232e-01  -2.2691326e+08
   2.1940647e-10  -3.0502151e-02   6.5910544e+00   6.1396626e-01  -2.2606230e+08
   2.2007336e-10  -3.0351652e-02   6.5892677e+00   6.2103031e-01  -2.2521230e+08
   2.2074025e-10  -3.0201720e-02   6.5874433e+00   6.2814436e-01  -2.2436329e+08
   2.2140714e-10  -3.0052352e-02   6.5855812e+00   6.3530829e-01  -2.2351528e+08
   2.2207402e-10  -2.9903548e-02   6.5836813e+00   6.4252197e-01  -2.2266826e+08
   2.2274091e-10  -2.9755308e-02   6.5817434e+00   6.4978526e-01  -2.2182226e+08
   2.2340780e-10  -2.9607631e-02   6.5797675e+00   6.5709803e-01  -2.2097729e+08
   2.2407469e-10  -2.9460516e-02   6.5777535e+00   6.6446013e-01  -2.2013336e+08
   2.2474158e-10  -2.9313962e-02   6.5757014e+00   6.7187138e-01  -2.1929047e+08
   2.2540847e-10  -2.9167969e-02   6.5736110e+00   6.7933164e-01  -2.1844865e+08
   2.2607536e-10  -2.9022536e-02   6.5714823e+00   6.8684073e-01  -2.1760790e+08
   2.2674225e-10  -2.8877663e-02   6.5693152e+00   6.9439847e-01  -2.1676823e+08
   2.2740914e-10  -2.8733348e-02   6.5671097e+00   7.0200466e-01  -2.1592966e+08
   2.2807603e-10  -2.8589591e-02   6.5648658e+00   7.0965913e-01  -2.1509220e+08
   2.2874291e-10  -2.8446391e-02   6.5625833e+00   7.1736166e-01  -2.1425586e+08
   2.2940980e-10  -2.8303748e-02   6.5602623e+00   7.2511205e-01  -2.1342065e+08
   2.3007669e-10  -2.8161660e-02   6.5579028e+00   7.3291008e-01  -2.1258658e+08
   2.3074358e-10  -2.8020128e-02   6.5555046e+00   7.4075553e-01  -2.1175367e+08
   2.3141047e-10  -2.7879149e-02   6.5530678e+00   7.4864816e-01  -2.1092192e+08
   2.3207736e-10  -2.7738724e-02   6.5505924e+00   7.5658774e-01  -2.1009135e+08
   2.3274425e-10  -2.7598852e-02   6.5480784e+00   7.6457402e-01  -2.0926198e+08
   2.3341114e-10  -2.7459531e-02   6.5455258e+00   7.7260675e-01  -2.0843380e+08
   2.3407803e-10  -2.7320761e-02   6.5429345e+00   7.8068567e-01  -2.0760684e+08
   2.3474491e-10  -2.7182542e-02   6.5403046e+00   7.8881052e-01  -2.0678110e+08
   2.3541180e-10  -2.7044872e-02   6.5376361e+00   7.9698101e-01  -2.0595660e+08
   2.3607869e-10  -2.6907751e-02   6.5349290e+00   8.0519688e-01  -2.0513336e+08
   2.3674558e-10  -2.6771177e-02   6.5321834e+00   8.1345782e-01  -2.0431137e+08
   2.3741247e-10  -2.6635150e-02   6.5293993e+00   8.2176355e-01  -2.0349066e+08
   2.3807936e-10  -2.6499670e-02   6.5265767e+00   8.3011376e-01  -2.0267123e+08
   2.3874625e-10  -2.6364734e-02   6.5237157e+00   8.3850816e-01  -2.0185310e+08
   2.3941314e-10  -2.6230344e-02   6.5208164e+00   8.4694641e-01  -2.0103627e+08
   2.4008003e-10  -2.6096496e-02   6.5178787e+00   8.5542820e-01  -2.0022077e+08
   2.4074692e-10  -2.5963191e-02   6.5149028e+00   8.6395320e-01  -1.9940660e+08
   2.4141380e-10  -2.5830428e-02   6.5118887e+00   8.7252108e-01  -1.9859378e+08
   2.4208069e-10  -2.5698206e-02   6.5088365e+00   8.8113150e-01  -1.9778231e+08
   2.4274758e-10  -2.5566524e-02   6.5057463e+00   8.8978410e-01  -1.9697221e+08
   2.4341447e-10  -2.5435381e-02   6.5026182e+00   8.9847854e-01  -1.9616349e+08
   2.4408136e-10  -2.5304776e-02   6.4994522e+00   9.0721445e-01  -1.9535617e+08
   2.4474825e-10  -2.5174709e-02   6.4962486e+00   9.1599146e-01  -1.9455024e+08
   2.4541514e-10  -2.5045178e-02   6.4930073e+00   9.2480921e-01  -1.9374574e+08
   2.4608203e-10  -2.4916182e-02   6.4897284e+00   9.3366731e-01  -1.9294266e+08
   2.4674892e-10  -2.4787721e-02   6.4864122e+00   9.4256538e-01  -1.9214101e+08
   2.4741581e-10  -2.4659793e-02   6.4830588e+00   9.5150304e-01  -1.9134082e+08
   2.4808269e-10  -2.4532397e-02   6.4796681e+00   9.6047987e-01  -1.9054209e+08
   2.4874958e-10  -2.4405534e-02   6.4762405e+00   9.6949549e-01  -1.8974484e+08
   2.4941647e-10  -2.4279200e-02   6.4727760e+00   9.7854948e-01  -1.8894907e+08
   2.5008336e-10  -2.4153397e-02   6.4692748e+00   9.8764143e-01  -1.8815480e+08
   2.5075025e-10  -2.4028122e-02   6.4657370e+00   9.9677092e-01  -1.8736204e+08
   2.5141714e-10  -2.3903375e-02   6.4621628e+00   1.0059375e+00  -1.8657079e+08
   2.5208403e-10  -2.3779154e-02   6.4585523e+00   1.0151408e+00  -1.8578108e+08
   2.5275092e-10  -2.3655459e-02   6.4549058e+00   1.0243804e+00  -1.8499291e+08
   2.5341781e-10  -2.3532289e-02   6.4512234e+00   1.0336557e+00  -1.8420630e+08
   2.5408469e-10  -2.3409642e-02   6.4475052e+00   1.0429665e+00  -1.8342125e+08
   2.5475158e-10  -2.3287518e-02   6.4437515e+00   1.0523121e+00  -1.8263777e+08
   2.5541847e-10  -2.3165915e-02   6.4399624e+00   1.0616923e+00  -1.8185589e+08
   2.5608536e-10  -2.3044833e-02   6.4361381e+00   1.0711064e+00  -1.8107561e+08
   2.5675225e-10  -2.2924270e-02   6.4322789e+00   1.0805541e+00  -1.8029693e+08
   2.5741914e-10  -2.2804226e-02   6.4283850e+00   1.0900349e+00  -1.7951988e+08
   2.5808603e-10  -2.2684698e-02   6.4244564e+00   1.0995482e+00  -1.7874446e+08
   2.5875292e-10  -2.2565687e-02   6.4204936e+00   1.1090937e+00  -1.7797068e+08
   2.5941981e-10  -2.2447191e-02   6.4164966e+00   1.1186709e+00  -1.7719856e+08
   2.6008670e-10  -2.2329210e-02   6.4124657e+00   1.1282792e+00  -1.7642810e+08
   2.6075358e-10  -2.2211741e-02   6.4084012e+00   1.1379182e+00  -1.7565931e+08
   2.6142047e-10  -2.2094783e-02   6.4043032e+00   1.1475874e+00  -1.7489222e+08
   2.6208736e-10  -2.1978337e-02   6.4001721e+00   1.1572863e+00  -1.7412682e+08
   2.6275425e-10  -2.1862400e-02   6.3960080e+00   1.1670144e+00  -1.7336313e+08
   2.6342114e-10  -2.1746971e-02   6.3918112e+00   1.1767712e+00  -1.7260115e+08
   2.6408803e-10  -2.1632050e-02   6.3875819e+00   1.1865562e+00  -1.7184091e+08
   2.6475492e-10  -2.1517635e-02   6.3833205e+00   1.1963688e+00  -1.7108240e+08
   2.6542181e-10  -2.1403725e-02   6.3790271e+00   1.2062086e+00  -1.7032564e+08
   2.6608870e-10  -2.1290319e-02   6.3747020e+00   1.2160751e+00  -1.6957064e+08
   2.6675559e-10  -2.1177415e-02   6.3703456e+00   1.2259677e+00  -1.6881741e+08
   2.6742247e-10  -2.1065013e-02   6.3659580e+00   1.2358860e+00  -1.6806596e+08
   2.6808936e-10  -2.0953112e-02   6.3615396e+00   1.2458293e+00  -1.6731630e+08
   2.6875625e-10  -2.0841709e-02   6.3570905e+00   1.2557973e+00  -1.6656844e+08
   2.6942314e-10  -2.0730804e-02   6.3526112e+00   1.2657892e+00  -1.6582239e+08
   2.7009003e-10  -2.0620397e-02   6.3481020e+00   1.2758047e+00  -1.6507815e+08
   2.7075692e-10  -2.0510485e-02   6.3435630e+00   1.2858432e+00  -1.6433574e+08
   2.7142381e-10  -2.0401067e-02   6.3389945e+00   1.2959041e+00  -1.6359517e+08
   2.7209070e-10  -2.0292142e-02   6.3343970e+00   1.3059870e+00  -1.6285645e+08
   2.7275759e-10  -2.0183709e-02   6.3297707e+00   1.3160912e+00  -1.6211958e+08
   2.7342447e-10  -2.0075767e-02   6.3251158e+00   1.3262163e+00  -1.6138458e+08
   2.7409136e-10  -1.9968315e-02   6.3204328e+00   1.3363617e+00  -1.6065145e+08
   2.7475825e-10  -1.9861350e-02   6.3157219e+00   1.3465269e+00  -1.5992021e+08
   2.7542514e-10  -1.9754873e-02   6.3109834e+00   1.3567113e+00  -1.5919086e+08
   2.7609203e-10  -1.9648881e-02   6.3062176e+00   1.3669144e+00  -1.5846341e+08
   2.7675892e-10  -1.9543374e-02   6.3014250e+00   1.3771356e+00  -1.5773787e+08
   2.7742581e-10  -1.9438350e-02   6.2966057e+00   1.3873745e+00  -1.5701424e+08
   2.7809270e-10  -1.9333808e-02   6.2917601e+00   1.3976304e+00  -1.5629255e+08
   2.7875959e-10  -1.9229746e-02   6.2868886e+00   1.4079028e+00  -1.5557279e+08
   2.7942648e-10  -1.9126164e-02   6.2819915e+00   1.4181911e+00  -1.5485497e+08
   2.8009336e-10  -1.9023060e-02   6.2770690e+00   1.4284949e+00  -1.5413910e+08
   2.8076025e-10  -1.8920433e-02   6.2721217e+00   1.4388135e+00  -1.5342520e+08
   2.8142714e-10  -1.8818281e-02   6.2671497e+00   1.4491465e+00  -1.5271326e+08
   2.8209403e-10  -1.8716604e-02   6.2621534e+00   1.4594933e+00  -1.5200330e+08
   2.8276092e-10  -1.8615399e-02   6.2571332e+00   1.4698532e+00  -1.5129532e+08
   2.8342781e-10  -1.8514666e-02   6.2520895e+00   1.4802259e+00  -1.5058933e+08
   2.8409470e-10  -1.8414403e-02   6.2470224e+00   1.4906107e+00  -1.4988534e+08
   2.8476159e-10  -1.8314609e-02   6.2419326e+00   1.5010071e+00  -1.4918336e+08
   2.8542848e-10  -1.8215282e-02   6.2368201e+00   1.5114146e+00  -1.4848339e+08
   2.8609537e-10  -1.8116422e-02   6.2316855e+00   1.5218325e+00  -1.4778544e+08
   2.8676225e-10  -1.8018027e-02   6.2265290e+00   1.5322604e+00  -1.4708952e+08
   2.8742914e-10  -1.7920095e-02   6.2213511e+00   1.5426978e+00  -1.4639563e+08
   2.8809603e-10  -1.7822625e-02   6.2161521e+00   1.5531440e+00  -1.4570378e+08
   2.8876292e-10  -1.7725617e-02   6.2109322e+00   1.5635986e+00  -1.4501398e+08
   2.8942981e-10  -1.7629067e-02   6.2056920e+00   1.5740609e+00  -1.4432624e+08
   2.9009670e-10  -1.7532976e-02   6.2004317e+00   1.5845306e+00  -1.4364056e+08
   2.9076359e-10  -1.7437342e-02   6.1951518e+00   1.5950069e+00  -1.4295694e+08
   2.9143048e-10  -1.7342163e-02   6.1898525e+00   1.6054895e+00  -1.4227540e+08
   2.9209737e-10  -1.7247438e-02   6.1845343e+00   1.6159777e+00  -1.4159594e+08
   2.9276425e-10  -1.7153166e-02   6.1791974e+00   1.6264711e+00  -1.4091856e+08
   2.9343114e-10  -1.7059345e-02   6.1738424e+00   1.6369690e+00  -1.4024328e+08
   2.9409803e-10  -1.6965974e-02   6.1684694e+00   1.6474710e+00  -1.3957009e+08
   2.9476492e-10  -1.6873051e-02   6.1630790e+00   1.6579766e+00  -1.3889901e+08
   2.9543181e-10  -1.6780575e-02   6.1576714e+00   1.6684852e+00  -1.3823003e+08
   2.9609870e-10  -1.6688545e-02   6.1522471e+00   1.6789963e+00  -1.3756317e+08
   2.9676559e-10  -1.6596959e-02   6.1468063e+00   1.6895094e+00  -1.3689843e+08
   2.9743248e-10  -1.6505816e-02   6.1413495e+00   1.7000240e+00  -1.3623581e+08
   2.9809937e-10  -1.6415115e-02   6.1358771e+00   1.7105395e+00  -1.3557532e+08
   2.9876626e-10  -1.6324853e-02   6.1303893e+00   1.7210555e+00  -1.3491696e+08
   2.9943314e-10  -1.6235030e-02   6.1248866e+00   1.7315714e+00  -1.3426075e+08
   3.0010003e-10  -1.6145645e-02   6.1193694e+00   1.7420868e+00  -1.3360667e+08
   3.0076692e-10  -1.6056695e-02   6.1138379e+00   1.7526011e+00  -1.3295475e+08
   3.0143381e-10  -1.5968179e-02   6.1082926e+00   1.7631138e+00  -1.3230498e+08
   3.0210070e-10  -1.5880097e-02   6.1027338e+00   1.7736244e+00  -1.3165736e+08
   3.0276759e-10  -1.5792445e-02   6.0971619e+00   1.7841325e+00  -1.3101191e+08
   3.0343448e-10  -1.5705224e-02   6.0915773e+00   1.7946376e+00  -1.3036862e+08
   3.0410137e-10  -1.5618431e-02   6.0859802e+00   1.8051391e+00  -1.2972750e+08
   3.0476826e-10  -1.5532066e-02   6.0803712e+00   1.8156365e+00  -1.2908855e+08
   3.0543515e-10  -1.5446126e-02   6.0747505e+00   1.8261295e+00  -1.2845178e+08
   3.0610203e-10  -1.5360610e-02   6.0691185e+00   1.8366175e+00  -1.2781719e+08
   3.0676892e-10  -1.5275518e-02   6.0634756e+00   1.8471001e+00  -1.2718478e+08
   3.0743581e-10  -1.5190846e-02   6.0578222e+00   1.8575767e+00  -1.2655456e+08
   3.0810270e-10  -1.5106595e-02   6.0521585e+00   1.8680469e+00  -1.2592652e+08
   3.0876959e-10  -1.5022761e-02   6.0464849e+00   1.8785103e+00  -1.2530068e+08
   3.0943648e-10  -1.4939345e-02   6.0408019e+00   1.8889663e+00  -1.2467704e+08
   3.1010337e-10  -1.4856345e-02   6.0351097e+00   1.8994146e+00  -1.2405559e+08
   3.1077026e-10  -1.4773758e-02   6.0294088e+00   1.9098547e+00  -1.2343635e+08
   3.1143715e-10  -1.4691584e-02   6.0236994e+00   1.9202860e+00  -1.2281931e+08
   3.1210403e-10  -1.4609821e-02   6.0179819e+00   1.9307083e+00  -1.2220447e+08
   3.1277092e-10  -1.4528468e-02   6.0122567e+00   1.9411210e+00  -1.2159184e+08
   3.1343781e-10  -1.4447523e-02   6.0065242e+00   1.9515237e+00  -1.2098142e+08
   3.1410470e-10  -1.4366984e-02   6.0007846e+00   1.9619160e+00  -1.2037322e+08
   3.1477159e-10  -1.4286851e-02   5.9950383e+00   1.9722975e+00  -1.1976723e+08
   3.1543848e-10  -1.4207122e-02   5.9892857e+00   1.9826676e+00  -1.1916345e+08
   3.1610537e-10  -1.4127795e-02   5.9835270e+00   1.9930261e+00  -1.1856190e+08
   3.1677226e-10  -1.4048868e-02   5.9777628e+00   2.0033724e+00  -1.1796256e+08
   3.1743915e-10  -1.3970341e-02   5.9719932e+00   2.0137062e+00  -1.1736544e+08
   3.1810604e-10  -1.3892212e-02   5.9662186e+00   2.0240271e+00  -1.1677055e+08
   3.1877292e-10  -1.3814479e-02   5.9604394e+00   2.0343346e+00  -1.1617788e+08
   3.1943981e-10  -1.3737141e-02   5.9546558e+00   2.0446284e+00  -1.1558743e+08
   3.2010670e-10  -1.3660197e-02   5.9488683e+00   2.0549081e+00  -1.1499921e+08
   3.2077359e-10  -1.3583644e-02   5.9430771e+00   2.0651732e+00  -1.1441321e+08
   3.2144048e-10  -1.3507482e-02   5.9372826e+00   2.0754234e+00  -1.1382944e+08
   3.2210737e-10  -1.3431708e-02   5.9314852e+00   2.0856584e+00  -1.1324790e+08
   3.2277426e-10  -1.3356322e-02   5.9256850e+00   2.0958777e+00  -1.1266859e+08
   3.2344115e-10  -1.3281323e-02   5.9198825e+00   2.1060809e+00  -1.1209151e+08
   3.2410804e-10  -1.3206707e-02   5.9140779e+00   2.1162677e+00  -1.1151665e+08
   3.2477492e-10  -1.3132475e-02   5.9082717e+00   2.1264378e+00  -1.1094403e+08
   3.2544181e-10  -1.3058624e-02   5.9024640e+00   2.1365907e+00  -1.1037363e+08
   3.2610870e-10  -1.2985153e-02   5.8966552e+00   2.1467262e+00  -1.0980546e+08
   3.2677559e-10  -1.2912061e-02   5.8908457e+00   2.1568438e+00  -1.0923952e+08
   3.2744248e-10  -1.2839346e-02   5.8850357e+00   2.1669432e+00  -1.0867581e+08
   3.2810937e-10  -1.2767006e-02   5.8792255e+00   2.1770241e+00  -1.0811433e+08
   3.2877626e-10  -1.2695040e-02   5.8734154e+00   2.1870862e+00  -1.0755508e+08
   3.2944315e-10  -1.2623447e-02   5.8676058e+00   2.1971291e+00  -1.0699805e+08
   3.3011004e-10  -1.2552226e-02   5.8617969e+00   2.2071524e+00  -1.0644325e+08
   3.3077693e-10  -1.2481373e-02   5.8559890e+00   2.2171560e+00  -1.0589068e+08
   3.3144381e-10  -1.2410889e-02   5.8501825e+00   2.2271394e+00  -1.0534033e+08
   3.3211070e-10  -1.2340772e-02   5.8443775e+00   2.2371023e+00  -1.0479220e+08
   3.3277759e-10  -1.2271020e-02   5.8385745e+00   2.2470444e+00  -1.0424630e+08
   3.3344448e-10  -1.2201631e-02   5.8327736e+00   2.2569655e+00  -1.0370262e+08
   3.3411137e-10  -1.2132605e-02   5.8269751e+00   2.2668651e+00  -1.0316116e+08
   3.3477826e-10  -1.2063939e-02   5.8211794e+00   2.2767431e+00  -1.0262192e+08
   3.3544515e-10  -1.1995633e-02   5.8153868e+00   2.2865992e+00  -1.0208489e+08
   3.3611204e-10  -1.1927684e-02   5.8095974e+00   2.2964330e+00  -1.0155009e+08
   3.3677893e-10  -1.1860092e-02   5.8038115e+00   2.3062443e+00  -1.0101749e+08
   3.3744582e-10  -1.1792854e-02   5.7980295e+00   2.3160327e+00  -1.0048711e+08
   3.3811270e-10  -1.1725970e-02   5.7922516e+00   2.3257981e+00  -9.9958939e+07
   3.3877959e-10  -1.1659438e-02   5.7864780e+00   2.3355402e+00  -9.9432976e+07
   3.3944648e-10  -1.1593256e-02   5.7807091e+00   2.3452587e+00  -9.8909219e+07
   3.4011337e-10  -1.1527423e-02   5.7749450e+00   2.3549532e+00  -9.8387667e+07
   3.4078026e-10  -1.1461938e-02   5.7691861e+00   2.3646237e+00  -9.7868317e+07
   3.4144715e-10  -1.1396798e-02   5.7634325e+00   2.3742698e+00  -9.7351166e+07
   3.4211404e-10  -1.1332003e-02   5.7576845e+00   2.3838914e+00  -9.6836213e+07
   3.4278093e-10  -1.1267551e-02   5.7519424e+00   2.3934880e+00  -9.6323454e+07
   3.4344782e-10  -1.1203441e-02   5.7462064e+00   2.4030596e+00  -9.5812888e+07
   3.4411470e-10  -1.1139670e-02   5.7404768e+00   2.4126059e+00  -9.5304510e+07
   3.4478159e-10  -1.1076239e-02   5.7347538e+00   2.4221266e+00  -9.4798320e+07
   3.4544848e-10  -1.1013144e-02   5.7290375e+00   2.4316216e+00  -9.4294313e+07
   3.4611537e-10  -1.0950386e-02   5.7233284e+00   2.4410906e+00  -9.3792487e+07
   3.4678226e-10  -1.0887961e-02   5.7176265e+00   2.4505334e+00  -9.3292839e+07
   3.4744915e-10  -1.0825870e-02   5.7119321e+00   2.4599498e+00  -9.2795365e+07
   3.4811604e-10  -1.0764110e-02   5.7062455e+00   2.4693396e+00  -9.2300063e+07
   3.4878293e-10  -1.0702679e-02   5.7005668e+00   2.4787026e+00  -9.1806929e+07
   3.4944982e-10  -1.0641578e-02   5.6948962e+00   2.4880386e+00  -9.1315960e+07
   3.5011671e-10  -1.0580803e-02   5.6892341e+00   2.4973474e+00  -9.0827153e+07
   3.5078359e-10  -1.0520354e-02   5.6835805e+00   2.5066289e+00  -9.0340503e+07
   3.5145048e-10  -1.0460229e-02   5.6779357e+00   2.5158828e+00  -8.9856008e+07
   3.5211737e-10  -1.0400427e-02   5.6723000e+00   2.5251089e+00  -8.9373663e+07
   3.5278426e-10  -1.0340946e-02   5.6666734e+00   2.5343071e+00  -8.8893466e+07
   3.5345115e-10  -1.0281784e-02   5.6610563e+00   2.5434773e+00  -8.8415412e+07
   3.5411804e-10  -1.0222942e-02   5.6554487e+00   2.5526192e+00  -8.7939497e+07
   3.5478493e-10  -1.0164416e-02   5.6498510e+00   2.5617327e+00  -8.7465717e+07
   3.5545182e-10  -1.0106206e-02   5.6442632e+00   2.5708176e+00  -8.6994069e+07
   3.5611871e-10  -1.0048310e-02   5.6386856e+00   2.5798738e+00  -8.6524548e+07
   3.5678560e-10  -9.9907268e-03   5.6331184e+00   2.5889012e+00  -8.6057150e+07
   3.5745248e-10  -9.9334549e-03   5.6275617e+00   2.5978995e+00  -8.5591871e+07
   3.5811937e-10  -9.8764928e-03   5.6220158e+00   2.6068687e+00  -8.5128707e+07
   3.5878626e-10  -9.8198393e-03   5.6164807e+00   2.6158085e+00  -8.4667653e+07
   3.5945315e-10  -9.7634928e-03   5.6109567e+00   2.6247190e+00  -8.4208706e+07
   3.6012004e-10  -9.7074520e-03   5.6054440e+00   2.6335999e+00  -8.3751859e+07
   3.6078693e-10  -9.6517154e-03   5.5999426e+00   2.6424511e+00  -8.3297110e+07
   3.6145382e-10  -9.5962818e-03   5.5944529e+00   2.6512724e+00  -8.2844453e+07
   3.6212071e-10  -9.5411496e-03   5.5889749e+00   2.6600639e+00  -8.2393884e+07
   3.6278760e-10  -9.4863174e-03   5.5835088e+00   2.6688253e+00  -8.1945398e+07
   3.6345448e-10  -9.4317840e-03   5.5780547e+00   2.6775566e+00  -8.1498990e+07
   3.6412137e-10  -9.3775479e-03   5.5726129e+00   2.6862576e+00  -8.1054656e+07
   3.6478826e-10  -9.3236077e-03   5.5671834e+00   2.6949282e+00  -8.0612391e+07
   3.6545515e-10  -9.2699620e-03   5.5617664e+00   2.7035684e+00  -8.0172189e+07
   3.6612204e-10  -9.2166094e-03   5.5563621e+00   2.7121780e+00  -7.9734046e+07
   3.6678893e-10  -9.1635487e-03   5.5509706e+00   2.7207569e+00  -7.9297957e+07
   3.6745582e-10  -9.1107784e-03   5.5455921e+00   2.7293051e+00  -7.8863916e+07
   3.6812271e-10  -9.0582971e-03   5.5402266e+00   2.7378225e+00  -7.8431919e+07
   3.6878960e-10  -9.0061035e-03   5.5348743e+00   2.7463089e+00  -7.8001960e+07
   3.6945649e-10  -8.9541962e-03   5.5295354e+00   2.7547644e+00  -7.7574035e+07
   3.7012337e-10  -8.9025739e-03   5.5242100e+00   2.7631888e+00  -7.7148137e+07
   3.7079026e-10  -8.8512352e-03   5.5188982e+00   2.7715820e+00  -7.6724262e+07
   3.7145715e-10  -8.8001788e-03   5.5136001e+00   2.7799440e+00  -7.6302404e+07
   3.7212404e-10  -8.7494033e-03   5.5083159e+00   2.7882748e+00  -7.5882558e+07
   3.7279093e-10  -8.6989073e-03   5.5030457e+00   2.7965741e+00  -7.5464718e+07
   3.7345782e-10  -8.6486896e-03   5.4977896e+00   2.8048421e+00  -7.5048879e+07
   3.7412471e-10  -8.5987488e-03   5.4925477e+00   2.8130787e+00  -7.4635036e+07
   3.7479160e-10  -8.5490836e-03   5.4873201e+00   2.8212837e+00  -7.4223182e+07
   3.7545849e-10  -8.4996926e-03   5.4821069e+00   2.8294571e+00  -7.3813312e+07
   3.7612538e-10  -8.4505745e-03   5.4769083e+00   2.8375990e+00  -7.3405421e+07
   3.7679226e-10  -8.4017280e-03   5.4717243e+00   2.8457091e+00  -7.2999502e+07
   3.7745915e-10  -8.3531518e-03   5.4665551e+00   2.8537876e+00  -7.2595551e+07
   3.7812604e-10  -8.3048445e-03   5.4614008e+00   2.8618343e+00  -7.2193561e+07
   3.7879293e-10  -8.2568049e-03   5.4562614e+00   2.8698493e+00  -7.1793527e+07
   3.7945982e-10  -8.2090317e-03   5.4511370e+00   2.8778324e+00  -7.1395442e+07
   3.8012671e-10  -8.1615235e-03   5.4460278e+00   2.8857838e+00  -7.0999301e+07
   3.8079360e-10  -8.1142791e-03   5.4409338e+00   2.8937032e+00  -7.0605097e+07
   3.8146049e-10  -8.0672971e-03   5.4358552e+00   2.9015908e+00  -7.0212826e+07
   3.8212738e-10  -8.0205763e-03   5.4307919e+00   2.9094464e+00  -6.9822481e+07
   3.8279426e-10  -7.9741154e-03   5.4257442e+00   2.9172701e+00  -6.9434056e+07
   3.8346115e-10  -7.9279131e-03   5.4207120e+00   2.9250618e+00  -6.9047545e+07
   3.8412804e-10  -7.8819682e-03   5.4156955e+00   2.9328216e+00  -6.8662941e+07
   3.8479493e-10  -7.8362793e-03   5.4106947e+00   2.9405494e+00  -6.8280240e+07
   3.8546182e-10  -7.7908451e-03   5.4057097e+00   2.9482453e+00  -6.7899434e+07
   3.8612871e-10  -7.7456645e-03   5.4007406e+00   2.9559091e+00  -6.7520518e+07
   3.8679560e-10  -7.7007362e-03   5.3957875e+00   2.9635409e+00  -6.7143485e+07
   3.8746249e-10  -7.6560589e-03   5.3908504e+00   2.9711408e+00  -6.6768330e+07
   3.8812938e-10  -7.6116313e-03   5.3859294e+00   2.9787086e+00  -6.6395046e+07
   3.8879627e-10  -7.5674522e-03   5.3810246e+00   2.9862445e+00  -6.6023626e+07
   3.8946315e-10  -7.5235204e-03   5.3761359e+00   2.9937483e+00  -6.5654065e+07
   3.9013004e-10  -7.4798346e-03   5.3712636e+00   3.0012202e+00  -6.5286356e+07
   3.9079693e-10  -7.4363936e-03   5.3664076e+00   3.0086601e+00  -6.4920494e+07
   3.9146382e-10  -7.3931961e-03   5.3615680e+00   3.0160680e+00  -6.4556471e+07
   3.9213071e-10  -7.3502410e-03   5.3567449e+00   3.0234440e+00  -6.4194281e+07
   3.9279760e-10  -7.3075270e-03   5.3519382e+00   3.0307880e+00  -6.3833918e+07
   3.9346449e-10  -7.2650529e-03   5.3471482e+00   3.0381002e+00  -6.3475376e+07
   3.9413138e-10  -7.2228174e-03   5.3423747e+00   3.0453804e+00  -6.3118648e+07
   3.9479827e-10  -7.1808194e-03   5.3376179e+00   3.0526288e+00  -6.2763728e+07
   3.9546516e-10  -7.1390576e-03   5.3328778e+00   3.0598453e+00  -6.2410609e+07
   3.9613204e-10  -7.0975309e-03   5.3281545e+00   3.0670300e+00  -6.2059286e+07
   3.9679893e-10  -7.0562381e-03   5.3234480e+00   3.0741830e+00  -6.1709750e+07
   3.9746582e-10  -7.0151779e-03   5.3187582e+00   3.0813041e+00  -6.1361997e+07
   3.9813271e-10  -6.9743492e-03   5.3140854e+00   3.0883935e+00  -6.1016019e+07
   3.9879960e-10  -6.9337508e-03   5.3094295e+00   3.0954513e+00  -6.0671810e+07
   3.9946649e-10  -6.8933815e-03   5.3047905e+00   3.1024773e+00  -6.0329364e+07
   4.0013338e-10  -6.8532402e-03   5.3001685e+00   3.1094718e+00  -5.9988673e+07
   4.0080027e-10  -6.8133256e-03   5.2955635e+00   3.1164347e+00  -5.9649732e+07
   4.0146716e-10  -6.7736366e-03   5.2909755e+00   3.1233660e+00  -5.9312534e+07
   4.0213404e-10  -6.7341720e-03   5.2864046e+00   3.1302658e+00  -5.8977073e+07
   4.0280093e-10  -6.6949307e-03   5.2818508e+00   3.1371342e+00  -5.8643341e+07
   4.0346782e-10  -6.6559115e-03   5.2773142e+00   3.1439712e+00  -5.8311332e+07
   4.0413471e-10  -6.6171134e-03   5.2727946e+00   3.1507768e+00  -5.7981040e+07
   4.0480160e-10  -6.5785350e-03   5.2682923e+00   3.1575511e+00  -5.7652458e+07
   4.0546849e-10  -6.5401753e-03   5.2638071e+00   3.1642941e+00  -5.7325580e+07
   4.0613538e-10  -6.5020332e-03   5.2593391e+00   3.1710059e+00  -5.7000398e+07
   4.0680227e-10  -6.4641075e-03   5.2548884e+00   3.1776866e+00  -5.6676907e+07
   4.0746916e-10  -6.4263971e-03   5.2504549e+00   3.1843361e+00  -5.6355099e+07
   4.0813605e-10  -6.3889009e-03   5.2460387e+00   3.1909547e+00  -5.6034968e+07
   4.0880293e-10  -6.3516178e-03   5.2416397e+00   3.1975422e+00  -5.5716508e+07
   4.0946982e-10  -6.3145465e-03   5.2372581e+00   3.2040988e+00  -5.5399712e+07
   4.1013671e-10  -6.2776861e-03   5.2328937e+00   3.2106246e+00  -5.5084572e+07
   4.1080360e-10  -6.2410355e-03   5.2285466e+00   3.2171195e+00  -5.4771084e+07
   4.1147049e-10  -6.2045934e-03   5.2242168e+00   3.2235837e+00  -5.4459239e+07
   4.1213738e-10  -6.1683589e-03   5.2199044e+00   3.2300172e+00  -5.4149031e+07
   4.1280427e-10  -6.1323309e-03   5.2156093e+00   3.2364201e+00  -5.3840454e+07
   4.1347116e-10  -6.0965082e-03   5.2113315e+00   3.2427925e+00  -5.3533501e+07
   4.1413805e-10  -6.0608897e-03   5.2070710e+00   3.2491344e+00  -5.3228166e+07
   4.1480493e-10  -6.0254745e-03   5.2028279e+00   3.2554459e+00  -5.2924441e+07
   4.1547182e-10  -5.9902613e-03   5.1986021e+00   3.2617271e+00  -5.2622320e+07
   4.1613871e-10  -5.9552492e-03   5.1943936e+00   3.2679780e+00  -5.2321797e+07
   4.1680560e-10  -5.9204371e-03   5.1902025e+00   3.2741987e+00  -5.2022864e+07
   4.1747249e-10  -5.8858240e-03   5.1860287e+00   3.2803893e+00  -5.1725516e+07
   4.1813938e-10  -5.8514087e-03   5.1818722e+00   3.2865498e+00  -5.1429746e+07
   4.1880627e-10  -5.8171902e-03   5.1777330e+00   3.2926804e+00  -5.1135546e+07
   4.1947316e-10  -5.7831675e-03   5.1736112e+00   3.2987811e+00  -5.0842911e+07
   4.2014005e-10  -5.7493395e-03   5.1695066e+00   3.3048520e+00  -5.0551833e+07
   4.2080694e-10  -5.7157052e-03   5.1654194e+00   3.3108931e+00  -5.0262307e+07
   4.2147382e-10  -5.6822635e-03   5.1613494e+00   3.3169046e+00  -4.9974325e+07
   4.2214071e-10  -5.6490135e-03   5.1572967e+00   3.3228866e+00  -4.9687881e+07
   4.2280760e-10  -5.6159541e-03   5.1532612e+00   3.3288390e+00  -4.9402968e+07
   4.2347449e-10  -5.5830842e-03   5.1492430e+00   3.3347620e+00  -4.9119580e+07
   4.2414138e-10  -5.5504030e-03   5.1452421e+00   3.3406557e+00  -4.8837710e+07
   4.2480827e-10  -5.5179093e-03   5.1412583e+00   3.3465202e+00  -4.8557352e+07
   4.2547516e-10  -5.4856021e-03   5.1372918e+00   3.3523555e+00  -4.8278499e+07
   4.2614205e-10  -5.4534805e-03   5.1333424e+00   3.3581618e+00  -4.8001144e+07
   4.2680894e-10  -5.4215434e-03   5.1294102e+00   3.3639390e+00  -4.7725281e+07
   4.2747583e-10  -5.3897898e-03   5.1254951e+00   3.3696874e+00  -4.7450903e+07
   4.2814271e-10  -5.3582189e-03   5.1215972e+00   3.3754069e+00  -4.7178004e+07
   4.2880960e-10  -5.3268295e-03   5.1177164e+00   3.3810977e+00  -4.6906577e+07
   4.2947649e-10  -5.2956207e-03   5.1138527e+00   3.3867599e+00  -4.6636616e+07
   4.3014338e-10  -5.2645915e-03   5.1100060e+00   3.3923936e+00  -4.6368114e+07
   4.3081027e-10  -5.2337409e-03   5.1061764e+00   3.3979988e+00  -4.6101065e+07
   4.3147716e-10  -5.2030681e-03   5.1023638e+00   3.4035756e+00  -4.5835463e+07
   4.3214405e-10  -5.1725720e-03   5.0985681e+00   3.4091242e+00  -4.5571299e+07
   4.3281094e-10  -5.1422516e-03   5.0947895e+00   3.4146446e+00  -4.5308569e+07
   4.3347783e-10  -5.1121060e-03   5.0910278e+00   3.4201369e+00  -4.5047266e+07
   4.3414471e-10  -5.0821343e-03   5.0872830e+00   3.4256012e+00  -4.4787383e+07
   4.3481160e-10  -5.0523354e-03   5.0835550e+00   3.4310376e+00  -4.4528914e+07
   4.3547849e-10  -5.0227086e-03   5.0798440e+00   3.4364462e+00  -4.4271853e+07
   4.3614538e-10  -4.9932527e-03   5.0761497e+00   3.4418271e+00  -4.4016192e+07
   4.3681227e-10  -4.9639670e-03   5.0724723e+00   3.4471804e+00  -4.3761927e+07
   4.3747916e-10  -4.9348504e-03   5.0688116e+00   3.4525062e+00  -4.3509049e+07
   4.3814605e-10  -4.9059021e-03   5.0651676e+00   3.4578045e+00  -4.3257553e+07
   4.3881294e-10  -4.8771211e-03   5.0615404e+00   3.4630755e+00  -4.3007433e+07
   4.3947983e-10  -4.8485064e-03   5.0579298e+00   3.4683193e+00  -4.2758682e+07
   4.4014672e-10  -4.8200573e-03   5.0543358e+00   3.4735360e+00  -4.2511293e+07
   4.4081360e-10  -4.7917728e-03   5.0507585e+00   3.4787256e+00  -4.2265261e+07
   4.4148049e-10  -4.7636519e-03   5.0471977e+00   3.4838883e+00  -4.2020580e+07
   4.4214738e-10  -4.7356939e-03   5.0436534e+00   3.4890242e+00  -4.1777242e+07
   4.4281427e-10  -4.7078977e-03   5.0401256e+00   3.4941333e+00  -4.1535241e+07
   4.4348116e-10  -4.6802625e-03   5.0366143e+00   3.4992158e+00  -4.1294572e+07
   4.4414805e-10  -4.6527874e-03   5.0331194e+00   3.5042718e+00  -4.1055228e+07
   4.4481494e-10  -4.6254715e-03   5.0296409e+00   3.5093013e+00  -4.0817202e+07
   4.4548183e-10  -4.5983140e-03   5.0261787e+00   3.5143044e+00  -4.0580490e+07
   4.4614872e-10  -4.5713140e-03   5.0227328e+00   3.5192814e+00  -4.0345083e+07
   4.4681561e-10  -4.5444706e-03   5.0193032e+00   3.5242322e+00  -4.0110977e+07
   4.4748249e-10  -4.5177829e-03   5.0158899e+00   3.5291569e+00  -3.9878164e+07
   4.4814938e-10  -4.4912501e-03   5.0124927e+00   3.5340557e+00  -3.9646639e+07
   4.4881627e-10  -4.4648713e-03   5.0091116e+00   3.5389287e+00  -3.9416396e+07
   4.4948316e-10  -4.4386457e-03   5.0057466e+00   3.5437760e+00  -3.9187429e+07
   4.5015005e-10  -4.4125724e-03   5.0023977e+00   3.5485976e+00  -3.8959730e+07
   4.5081694e-10  -4.3866506e-03   4.9990649e+00   3.5533937e+00  -3.8733295e+07
   4.5148383e-10  -4.3608794e-03   4.9957480e+00   3.5581643e+00  -3.8508118e+07
   4.5215072e-10  -4.3352580e-03   4.9924470e+00   3.5629097e+00  -3.8284191e+07
   4.5281761e-10  -4.3097856e-03   4.9891619e+00   3.5676298e+00  -3.8061509e+07
   4.5348449e-10  -4.2844613e-03   4.9858927e+00   3.5723247e+00  -3.7840067e+07
   4.5415138e-10  -4.2592843e-03   4.9826392e+00   3.5769947e+00  -3.7619857e+07
   4.5481827e-10  -4.2342538e-03   4.9794015e+00   3.5816397e+00  -3.7400874e+07
   4.5548516e-10  -4.2093690e-03   4.9761796e+00   3.5862600e+00  -3.7183113e+07
   4.5615205e-10  -4.1846290e-03   4.9729733e+00   3.5908555e+00  -3.6966566e+07
   4.5681894e-10  -4.1600331e-03   4.9697826e+00   3.5954264e+00  -3.6751229e+07
   4.5748583e-10  -4.1355804e-03   4.9666074e+00   3.5999728e+00  -3.6537095e+07
   4.5815272e-10  -4.1112702e-03   4.9634479e+00   3.6044948e+00  -3.6324158e+07
   4.5881961e-10  -4.0871017e-03   4.9603037e+00   3.6089925e+00  -3.6112412e+07
   4.5948650e-10  -4.0630740e-03   4.9571751e+00   3.6134660e+00  -3.5901852e+07
   4.6015338e-10  -4.0391863e-03   4.9540618e+00   3.6179154e+00  -3.5692471e+07
   4.6082027e-10  -4.0154380e-03   4.9509638e+00   3.6223409e+00  -3.5484264e+07
   4.6148716e-10  -3.9918281e-03   4.9478811e+00   3.6267424e+00  -3.5277226e+07
   4.6215405e-10  -3.9683560e-03   4.9448137e+00   3.6311201e+00  -3.5071349e+07
   4.6282094e-10  -3.9450208e-03   4.9417615e+00   3.6354742e+00  -3.4866629e+07
   4.6348783e-10  -3.9218218e-03   4.9387244e+00   3.6398047e+00  -3.4663059e+07
   4.6415472e-10  -3.8987582e-03   4.9357024e+00   3.6441117e+00  -3.4460634e+07
   4.6482161e-10  -3.8758293e-03   4.9326954e+00   3.6483953e+00  -3.4259349e+07
   4.6548850e-10  -3.8530342e-03   4.9297034e+00   3.6526557e+00  -3.4059196e+07
   4.6615539e-10  -3.8303724e-03   4.9267264e+00   3.6568929e+00  -3.3860172e+07
   4.6682227e-10  -3.8078429e-03   4.9237643e+00   3.6611071e+00  -3.3662270e+07
   4.6748916e-10  -3.7854450e-03   4.9208170e+00   3.6652982e+00  -3.3465484e+07
   4.6815605e-10  -3.7631781e-03   4.9178845e+00   3.6694666e+00  -3.3269808e+07
   4.6882294e-10  -3.7410413e-03   4.9149668e+00   3.6736121e+00  -3.3075238e+07
   4.6948983e-10  -3.7190339e-03   4.9120637e+00   3.6777350e+00  -3.2881768e+07
   4.7015672e-10  -3.6971553e-03   4.9091753e+00   3.6818354e+00  -3.2689391e+07
   4.7082361e-10  -3.6754046e-03   4.9063015e+00   3.6859133e+00  -3.2498103e+07
   4.7149050e-10  -3.6537811e-03   4.9034422e+00   3.6899689e+00  -3.2307898e+07
   4.7215739e-10  -3.6322842e-03   4.9005974e+00   3.6940022e+00  -3.2118771e+07
   4.7282427e-10  -3.6109131e-03   4.8977671e+00   3.6980134e+00  -3.1930715e+07
   4.7349116e-10  -3.5896671e-03   4.8949511e+00   3.7020025e+00  -3.1743726e+07
   4.7415805e-10  -3.5685455e-03   4.8921494e+00   3.7059697e+00  -3.1557797e+07
   4.7482494e-10  -3.5475476e-03   4.8893620e+00   3.7099151e+00  -3.1372924e+07
   4.7549183e-10  -3.5266726e-03   4.8865889e+00   3.7138387e+00  -3.1189102e+07
   4.7615872e-10  -3.5059199e-03   4.8838299e+00   3.7177407e+00  -3.1006324e+07
   4.7682561e-10  -3.4852888e-03   4.8810851e+00   3.7216211e+00  -3.0824585e+07
   4.7749250e-10  -3.4647786e-03   4.8783543e+00   3.7254802e+00  -3.0643881e+07
   4.7815939e-10  -3.4443886e-03   4.8756375e+00   3.7293179e+00  -3.0464205e+07
   4.7882628e-10  -3.4241181e-03   4.8729347e+00   3.7331343e+00  -3.0285552e+07
   4.7949316e-10  -3.4039665e-03   4.8702458e+00   3.7369297e+00  -3.0107918e+07
   4.8016005e-10  -3.3839330e-03   4.8675707e+00   3.7407040e+00  -2.9931296e+07
   4.8082694e-10  -3.3640171e-03   4.8649095e+00   3.7444573e+00  -2.9755682e+07
   4.8149383e-10  -3.3442179e-03   4.8622620e+00   3.7481899e+00  -2.9581070e+07
   4.8216072e-10  -3.3245349e-03   4.8596282e+00   3.7519017e+00  -2.9407456e+07
   4.8282761e-10  -3.3049674e-03   4.8570080e+00   3.7555929e+00  -2.9234833e+07
   4.8349450e-10  -3.2855147e-03   4.8544014e+00   3.7592635e+00  -2.9063197e+07
   4.8416139e-10  -3.2661762e-03   4.8518084e+00   3.7629138e+00  -2.8892542e+07
   4.8482828e-10  -3.2469513e-03   4.8492288e+00   3.7665436e+00  -2.8722864e+07
   4.8549517e-10  -3.2278392e-03   4.8466627e+00   3.7701533e+00  -2.8554157e+07
   4.8616205e-10  -3.2088393e-03   4.8441100e+00   3.7737428e+00  -2.8386417e+07
   4.8682894e-10  -3.1899510e-03   4.8415705e+00   3.7773123e+00  -2.8219638e+07
   4.8749583e-10  -3.1711737e-03   4.8390443e+00   3.7808618e+00  -2.8053814e+07
   4.8816272e-10  -3.1525066e-03   4.8365314e+00   3.7843915e+00  -2.7888942e+07
   4.8882961e-10  -3.1339493e-03   4.8340316e+00   3.7879015e+00  -2.7725016e+07
   4.8949650e-10  -3.1155010e-03   4.8315449e+00   3.7913918e+00  -2.7562031e+07
   4.9016339e-10  -3.0971611e-03   4.8290712e+00   3.7948625e+00  -2.7399983e+07
   4.9083028e-10  -3.0789291e-03   4.8266106e+00   3.7983138e+00  -2.7238865e+07
   4.9149717e-10  -3.0608042e-03   4.8241629e+00   3.8017457e+00  -2.7078674e+07
   4.9216405e-10  -3.0427859e-03   4.8217280e+00   3.8051584e+00  -2.6919404e+07
   4.9283094e-10  -3.0248735e-03   4.8193060e+00   3.8085519e+00  -2.6761050e+07
   4.9349783e-10  -3.0070665e-03   4.8168968e+00   3.8119263e+00  -2.6603608e+07
   4.9416472e-10  -2.9893642e-03   4.8145004e+00   3.8152818e+00  -2.6447073e+07
   4.9483161e-10  -2.9717661e-03   4.8121166e+00   3.8186184e+00  -2.6291440e+07
   4.9549850e-10  -2.9542715e-03   4.8097454e+00   3.8219361e+00  -2.6136703e+07
   4.9616539e-10  -2.9368799e-03   4.8073867e+00   3.8252352e+00  -2.5982860e+07
   4.9683228e-10  -2.9195906e-03   4.8050406e+00   3.8285157e+00  -2.5829903e+07
   4.9749917e-10  -2.9024030e-03   4.8027070e+00   3.8317777e+00  -2.5677830e+07
   4.9816606e-10  -2.8853166e-03   4.8003857e+00   3.8350213e+00  -2.5526635e+07
   4.9883294e-10  -2.8683308e-03   4.7980768e+00   3.8382466e+00  -2.5376313e+07
   4.9949983e-10  -2.8514451e-03   4.7957802e+00   3.8414537e+00  -2.5226859e+07
   5.0016672e-10  -2.8346587e-03   4.7934958e+00   3.8446426e+00  -2.5078270e+07
   5.0083361e-10  -2.8179712e-03   4.7912237e+00   3.8478135e+00  -2.4930540e+07
   5.0150050e-10  -2.8013820e-03   4.7889636e+00   3.8509664e+00  -2.4783665e+07
   5.0216739e-10  -2.7848905e-03   4.7867157e+00   3.8541015e+00  -2.4637640e+07
   5.0283428e-10  -2.7684962e-03   4.7844797e+00   3.8572188e+00  -2.4492461e+07
   5.0350117e-10  -2.7521985e-03   4.7822558e+00   3.8603185e+00  -2.4348123e+07
   5.0416806e-10  -2.7359968e-03   4.7800438e+00   3.8634006e+00  -2.4204621e+07
   5.0483494e-10  -2.7198905e-03   4.7778436e+00   3.8664652e+00  -2.4061952e+07
   5.0550183e-10  -2.7038792e-03   4.7756552e+00   3.8695123e+00  -2.3920109e+07
   5.0616872e-10  -2.6879623e-03   4.7734787e+00   3.8725422e+00  -2.3779090e+07
   5.0683561e-10  -2.6721392e-03   4.7713138e+00   3.8755549e+00  -2.3638889e+07
   5.0750250e-10  -2.6564093e-03   4.7691606e+00   3.8785504e+00  -2.3499503e+07
   5.0816939e-10  -2.6407722e-03   4.7670189e+00   3.8815289e+00  -2.3360926e+07
   5.0883628e-10  -2.6252273e-03   4.7648889e+00   3.8844905e+00  -2.3223154e+07
   5.0950317e-10  -2.6097741e-03   4.7627703e+00   3.8874352e+00  -2.3086183e+07
   5.1017006e-10  -2.5944120e-03   4.7606632e+00   3.8903631e+00  -2.2950009e+07
   5.1083695e-10  -2.5791406e-03   4.7585675e+00   3.8932743e+00  -2.2814627e+07
   5.1150383e-10  -2.5639592e-03   4.7564831e+00   3.8961689e+00  -2.2680033e+07
   5.1217072e-10  -2.5488673e-03   4.7544100e+00   3.8990470e+00  -2.2546222e+07
   5.1283761e-10  -2.5338645e-03   4.7523481e+00   3.9019087e+00  -2.2413191e+07
   5.1350450e-10  -2.5189503e-03   4.7502974e+00   3.9047541e+00  -2.2280934e+07
   5.1417139e-10  -2.5041240e-03   4.7482579e+00   3.9075832e+00  -2.2149448e+07
   5.1483828e-10  -2.4893852e-03   4.7462294e+00   3.9103961e+00  -2.2018729e+07
   5.1550517e-10  -2.4747334e-03   4.7442120e+00   3.9131930e+00  -2.1888773e+07
   5.1617206e-10  -2.4601681e-03   4.7422055e+00   3.9159738e+00  -2.1759574e+07
   5.1683895e-10  -2.4456887e-03   4.7402100e+00   3.9187388e+00  -2.1631129e+07
   5.1750584e-10  -2.4312948e-03   4.7382253e+00   3.9214879e+00  -2.1503434e+07
   5.1817272e-10  -2.4169859e-03   4.7362515e+00   3.9242213e+00  -2.1376485e+07
   5.1883961e-10  -2.4027615e-03   4.7342884e+00   3.9269390e+00  -2.1250278e+07
   5.1950650e-10  -2.3886210e-03   4.7323360e+00   3.9296412e+00  -2.1124808e+07
   5.2017339e-10  -2.3745641e-03   4.7303943e+00   3.9323278e+00  -2.1000071e+07
   5.2084028e-10  -2.3605902e-03   4.7284633e+00   3.9349991e+00  -2.0876064e+07
   5.2150717e-10  -2.3466987e-03   4.7265428e+00   3.9376550e+00  -2.0752782e+07
   5.2217406e-10  -2.3328894e-03   4.7246328e+00   3.9402957e+00  -2.0630221e+07
   5.2284095e-10  -2.3191616e-03   4.7227333e+00   3.9429212e+00  -2.0508378e+07
   5.2350784e-10  -2.3055148e-03   4.7208442e+00   3.9455317e+00  -2.0387248e+07
   5.2417472e-10  -2.2919487e-03   4.7189654e+00   3.9481271e+00  -2.0266828e+07
   5.2484161e-10  -2.2784627e-03   4.7170970e+00   3.9507076e+00  -2.0147113e+07
   5.2550850e-10  -2.2650564e-03   4.7152389e+00   3.9532733e+00  -2.0028100e+07
   5.2617539e-10  -2.2517294e-03   4.7133909e+00   3.9558243e+00  -1.9909784e+07
   5.2684228e-10  -2.2384810e-03   4.7115532e+00   3.9583605e+00  -1.9792162e+07
   5.2750917e-10  -2.2253109e-03   4.7097255e+00   3.9608822e+00  -1.9675230e+07
   5.2817606e-10  -2.2122187e-03   4.7079079e+00   3.9633893e+00  -1.9558984e+07
   5.2884295e-10  -2.1992038e-03   4.7061003e+00   3.9658821e+00  -1.9443421e+07
   5.2950984e-10  -2.1862659e-03   4.7043027e+00   3.9683604e+00  -1.9328535e+07
   5.3017673e-10  -2.1734044e-03   4.7025150e+00   3.9708245e+00  -1.9214325e+07
   5.3084361e-10  -2.1606189e-03   4.7007372e+00   3.9732743e+00  -1.9100785e+07
   5.3151050e-10  -2.1479090e-03   4.6989692e+00   3.9757101e+00  -1.8987913e+07
   5.3217739e-10  -2.1352742e-03   4.6972110e+00   3.9781318e+00  -1.8875703e+07
   5.3284428e-10  -2.1227141e-03   4.6954625e+00   3.9805395e+00  -1.8764154e+07
   5.3351117e-10  -2.1102283e-03   4.6937237e+00   3.9829333e+00  -1.8653260e+07
   5.3417806e-10  -2.0978163e-03   4.6919945e+00   3.9853133e+00  -1.8543019e+07
   5.3484495e-10  -2.0854776e-03   4.6902749e+00   3.9876796e+00  -1.8433427e+07
   5.3551184e-10  -2.0732119e-03   4.6885648e+00   3.9900321e+00  -1.8324479e+07
   5.3617873e-10  -2.0610187e-03   4.6868642e+00   3.9923711e+00  -1.8216173e+07
   5.3684562e-10  -2.0488976e-03   4.6851731e+00   3.9946966e+00  -1.8108505e+07
   5.3751250e-10  -2.0368482e-03   4.6834913e+00   3.9970086e+00  -1.8001470e+07
   5.3817939e-10  -2.0248701e-03   4.6818189e+00   3.9993073e+00  -1.7895067e+07
   5.3884628e-10  -2.0129627e-03   4.6801558e+00   4.0015927e+00  -1.7789290e+07
   5.3951317e-10  -2.0011258e-03   4.6785019e+00   4.0038648e+00  -1.7684137e+07
   5.4018006e-10  -1.9893589e-03   4.6768572e+00   4.0061238e+00  -1.7579604e+07
   5.4084695e-10  -1.9776616e-03   4.6752217e+00   4.0083697e+00  -1.7475687e+07
   5.4151384e-10  -1.9660334e-03   4.6735953e+00   4.0106026e+00  -1.7372384e+07
   5.4218073e-10  -1.9544741e-03   4.6719780e+00   4.0128226e+00  -1.7269690e+07
   5.4284762e-10  -1.9429831e-03   4.6703696e+00   4.0150297e+00  -1.7167602e+07
   5.4351450e-10  -1.9315600e-03   4.6687703e+00   4.0172241e+00  -1.7066116e+07
   5.4418139e-10  -1.9202045e-03   4.6671799e+00   4.0194057e+00  -1.6965230e+07
   5.4484828e-10  -1.9089162e-03   4.6655983e+00   4.0215746e+00  -1.6864940e+07
   5.4551517e-10  -1.8976947e-03   4.6640256e+00   4.0237310e+00  -1.6765242e+07
   5.4618206e-10  -1.8865395e-03   4.6624617e+00   4.0258749e+00  -1.6666134e+07
   5.4684895e-10  -1.8754503e-03   4.6609065e+00   4.0280063e+00  -1.6567611e+07
   5.4751584e-10  -1.8644268e-03   4.6593600e+00   4.0301254e+00  -1.6469670e+07
   5.4818273e-10  -1.8534684e-03   4.6578222e+00   4.0322322e+00  -1.6372309e+07
   5.4884962e-10  -1.8425749e-03   4.6562929e+00   4.0343268e+00  -1.6275523e+07
   5.4951651e-10  -1.8317458e-03   4.6547723e+00   4.0364091e+00  -1.6179310e+07
   5.5018339e-10  -1.8209807e-03   4.6532602e+00   4.0384794e+00  -1.6083667e+07
   5.5085028e-10  -1.8102794e-03   4.6517565e+00   4.0405377e+00  -1.5988589e+07
   5.5151717e-10  -1.7996413e-03   4.6502613e+00   4.0425840e+00  -1.5894074e+07
   5.5218406e-10  -1.7890662e-03   4.6487745e+00   4.0446184e+00  -1.5800119e+07
   5.5285095e-10  -1.7785537e-03   4.6472960e+00   4.0466410e+00  -1.5706720e+07
   5.5351784e-10  -1.7681033e-03   4.6458258e+00   4.0486519e+00  -1.5613874e+07
   5.5418473e-10  -1.7577148e-03   4.6443639e+00   4.0506510e+00  -1.5521578e+07
   5.5485162e-10  -1.7473877e-03   4.6429101e+00   4.0526385e+00  -1.5429829e+07
   5.5551851e-10  -1.7371218e-03   4.6414646e+00   4.0546145e+00  -1.5338624e+07
   5.5618540e-10  -1.7269165e-03   4.6400272e+00   4.0565790e+00  -1.5247959e+07
   5.5685228e-10  -1.7167717e-03   4.6385979e+00   4.0585320e+00  -1.5157832e+07
   5.5751917e-10  -1.7066869e-03   4.6371766e+00   4.0604737e+00  -1.5068240e+07
   5.5818606e-10  -1.6966617e-03   4.6357633e+00   4.0624041e+00  -1.4979179e+07
   5.5885295e-10  -1.6866958e-03   4.6343580e+00   4.0643232e+00  -1.4890646e+07
   5.5951984e-10  -1.6767890e-03   4.6329606e+00   4.0662312e+00  -1.4802638e+07
   5.6018673e-10  -1.6669407e-03   4.6315711e+00   4.0681280e+00  -1.4715153e+07
   5.6085362e-10  -1.6571507e-03   4.6301894e+00   4.0700138e+00  -1.4628187e+07
   5.6152051e-10  -1.6474186e-03   4.6288156e+00   4.0718887e+00  -1.4541737e+07
   5.6218740e-10  -1.6377441e-03   4.6274494e+00   4.0737526e+00  -1.4455801e+07
   5.6285428e-10  -1.6281268e-03   4.6260910e+00   4.0756056e+00  -1.4370375e+07
   5.6352117e-10  -1.6185664e-03   4.6247403e+00   4.0774478e+00  -1.4285456e+07
   5.6418806e-10  -1.6090626e-03   4.6233971e+00   4.0792793e+00  -1.4201041e+07
   5.6485495e-10  -1.5996150e-03   4.6220616e+00   4.0811002e+00  -1.4117129e+07
   5.6552184e-10  -1.5902233e-03   4.6207336e+00   4.0829104e+00  -1.4033715e+07
   5.6618873e-10  -1.5808872e-03   4.6194132e+00   4.0847100e+00  -1.3950796e+07
   5.6685562e-10  -1.5716063e-03   4.6181002e+00   4.0864992e+00  -1.3868371e+07
   5.6752251e-10  -1.5623803e-03   4.6167946e+00   4.0882779e+00  -1.3786435e+07
   5.6818940e-10  -1.5532088e-03   4.6154964e+00   4.0900463e+00  -1.3704987e+07
   5.6885629e-10  -1.5440917e-03   4.6142056e+00   4.0918043e+00  -1.3624023e+07
   5.6952317e-10  -1.5350284e-03   4.6129221e+00   4.0935521e+00  -1.3543541e+07
   5.7019006e-10  -1.5260188e-03   4.6116458e+00   4.0952897e+00  -1.3463538e+07
   5.7085695e-10  -1.5170625e-03   4.6103768e+00   4.0970171e+00  -1.3384010e+07
   5.7152384e-10  -1.5081592e-03   4.6091150e+00   4.0987345e+00  -1.3304956e+07
   5.7219073e-10  -1.4993085e-03   4.6078603e+00   4.1004418e+00  -1.3226372e+07
   5.7285762e-10  -1.4905102e-03   4.6066127e+00   4.1021392e+00  -1.3148256e+07
   5.7352451e-10  -1.4817639e-03   4.6053723e+00   4.1038266e+00  -1.3070606e+07
   5.7419140e-10  -1.4730693e-03   4.6041388e+00   4.1055042e+00  -1.2993417e+07
   5.7485829e-10  -1.4644262e-03   4.6029124e+00   4.1071721e+00  -1.2916688e+07
   5.7552518e-10  -1.4558342e-03   4.6016929e+00   4.1088301e+00  -1.2840416e+07
   5.7619206e-10  -1.4472930e-03   4.6004804e+00   4.1104785e+00  -1.2764598e+07
   5.7685895e-10  -1.4388023e-03   4.5992747e+00   4.1121173e+00  -1.2689232e+07
   5.7752584e-10  -1.4303618e-03   4.5980759e+00   4.1137464e+00  -1.2614315e+07
   5.7819273e-10  -1.4219713e-03   4.5968840e+00   4.1153661e+00  -1.2539844e+07
   5.7885962e-10  -1.4136304e-03   4.5956987e+00   4.1169763e+00  -1.2465818e+07
   5.7952651e-10  -1.4053388e-03   4.5945203e+00   4.1185771e+00  -1.2392232e+07
   5.8019340e-10  -1.3970962e-03   4.5933485e+00   4.1201685e+00  -1.2319085e+07
   5.8086029e-10  -1.3889023e-03   4.5921834e+00   4.1217507e+00  -1.2246374e+07
   5.8152718e-10  -1.3807570e-03   4.5910250e+00   4.1233236e+00  -1.2174096e+07
   5.8219406e-10  -1.3726597e-03   4.5898731e+00   4.1248872e+00  -1.2102249e+07
   5.8286095e-10  -1.3646104e-03   4.5887278e+00   4.1264418e+00  -1.2030831e+07
   5.8352784e-10  -1.3566086e-03   4.5875890e+00   4.1279873e+00  -1.1959839e+07
   5.8419473e-10  -1.3486542e-03   4.5864567e+00   4.1295237e+00  -1.1889270e+07
   5.8486162e-10  -1.3407468e-03   4.5853308e+00   4.1310511e+00  -1.1819122e+07
   5.8552851e-10  -1.3328861e-03   4.5842114e+00   4.1325696e+00  -1.1749393e+07
   5.8619540e-10  -1.3250719e-03   4.5830984e+00   4.1340793e+00  -1.1680079e+07
   5.8686229e-10  -1.3173038e-03   4.5819917e+00   4.1355801e+00  -1.1611179e+07
   5.8752918e-10  -1.3095817e-03   4.5808913e+00   4.1370721e+00  -1.1542691e+07
   5.8819607e-10  -1.3019053e-03   4.5797972e+00   4.1385554e+00  -1.1474610e+07
   5.8886295e-10  -1.2942742e-03   4.5787093e+00   4.1400300e+00  -1.1406937e+07
   5.8952984e-10  -1.2866882e-03   4.5776276e+00   4.1414960e+00  -1.1339667e+07
   5.9019673e-10  -1.2791471e-03   4.5765521e+00   4.1429534e+00  -1.1272799e+07
   5.9086362e-10  -1.2716505e-03   4.5754828e+00   4.1444023e+00  -1.1206329e+07
   5.9153051e-10  -1.2641982e-03   4.5744196e+00   4.1458427e+00  -1.1140257e+07
   5.9219740e-10  -1.2567899e-03   4.5733624e+00   4.1472747e+00  -1.1074579e+07
   5.9286429e-10  -1.2494254e-03   4.5723113e+00   4.1486983e+00  -1.1009294e+07
   5.9353118e-10  -1.2421045e-03   4.5712662e+00   4.1501136e+00  -1.0944398e+07
   5.9419807e-10  -1.2348268e-03   4.5702270e+00   4.1515206e+00  -1.0879890e+07
   5.9486495e-10  -1.2275921e-03   4.5691938e+00   4.1529194e+00  -1.0815767e+07
   5.9553184e-10  -1.2204001e-03   4.5681665e+00   4.1543099e+00  -1.0752026e+07
   5.9619873e-10  -1.2132506e-03   4.5671451e+00   4.1556924e+00  -1.0688667e+07
   5.9686562e-10  -1.2061434e-03   4.5661295e+00   4.1570667e+00  -1.0625686e+07
   5.9753251e-10  -1.1990781e-03   4.5651197e+00   4.1584330e+00  -1.0563081e+07
   5.9819940e-10  -1.1920545e-03   4.5641157e+00   4.1597913e+00  -1.0500851e+07
   5.9886629e-10  -1.1850725e-03   4.5631175e+00   4.1611417e+00  -1.0438992e+07
   5.9953318e-10  -1.1781316e-03   4.5621249e+00   4.1624842e+00  -1.0377502e+07
   6.0020007e-10  -1.1712318e-03   4.5611381e+00   4.1638187e+00  -1.0316380e+07
   6.0086696e-10  -1.1643727e-03   4.5601569e+00   4.1651455e+00  -1.0255624e+07
   6.0153384e-10  -1.1575541e-03   4.5591813e+00   4.1664645e+00  -1.0195230e+07
   6.0220073e-10  -1.1507758e-03   4.5582113e+00   4.1677758e+00  -1.0135197e+07
   6.0286762e-10  -1.1440375e-03   4.5572468e+00   4.1690795e+00  -1.0075523e+07
   6.0353451e-10  -1.1373390e-03   4.5562879e+00   4.1703754e+00  -1.0016205e+07
   6.0420140e-10  -1.1306800e-03   4.5553345e+00   4.1716638e+00  -9.9572420e+06
   6.0486829e-10  -1.1240603e-03   4.5543865e+00   4.1729447e+00  -9.8986313e+06
   6.0553518e-10  -1.1174797e-03   4.5534440e+00   4.1742180e+00  -9.8403708e+06
   6.0620207e-10  -1.1109379e-03   4.5525069e+00   4.1754839e+00  -9.7824586e+06
   6.0686896e-10  -1.1044348e-03   4.5515751e+00   4.1767424e+00  -9.7248925e+06
   6.0753585e-10  -1.0979700e-03   4.5506487e+00   4.1779936e+00  -9.6676704e+06
   6.0820273e-10  -1.0915434e-03   4.5497276e+00   4.1792373e+00  -9.6107903e+06
   6.0886962e-10  -1.0851547e-03   4.5488118e+00   4.1804739e+00  -9.5542502e+06
   6.0953651e-10  -1.0788037e-03   4.5479012e+00   4.1817031e+00  -9.4980481e+06
   6.1020340e-10  -1.0724901e-03   4.5469959e+00   4.1829252e+00  -9.4421819e+06
   6.1087029e-10  -1.0662138e-03   4.5460957e+00   4.1841401e+00  -9.3866496e+06
   6.1153718e-10  -1.0599746e-03   4.5452007e+00   4.1853479e+00  -9.3314492e+06
   6.1220407e-10  -1.0537721e-03   4.5443109e+00   4.1865487e+00  -9.2765788e+06
   6.1287096e-10  -1.0476062e-03   4.5434261e+00   4.1877424e+00  -9.2220363e+06
   6.1353785e-10  -1.0414767e-03   4.5425465e+00   4.1889291e+00  -9.1678199e+06
   6.1420473e-10  -1.0353834e-03   4.5416719e+00   4.1901089e+00  -9.1139276e+06
   6.1487162e-10  -1.0293259e-03   4.5408023e+00   4.1912817e+00  -9.0603573e+06
   6.1553851e-10  -1.0233042e-03   4.5399377e+00   4.1924477e+00  -9.0071073e+06
   6.1620540e-10  -1.0173180e-03   4.5390781e+00   4.1936069e+00  -8.9541756e+06
   6.1687229e-10  -1.0113671e-03   4.5382234e+00   4.1947593e+00  -8.9015602e+06
   6.1753918e-10  -1.0054513e-03   4.5373736e+00   4.1959049e+00  -8.8492594e+06
   6.1820607e-10  -9.9957036e-04   4.5365287e+00   4.1970438e+00  -8.7972711e+06
   6.1887296e-10  -9.9372408e-04   4.5356886e+00   4.1981761e+00  -8.7455936e+06
   6.1953985e-10  -9.8791225e-04   4.5348534e+00   4.1993017e+00  -8.6942249e+06
   6.2020674e-10  -9.8213468e-04   4.5340230e+00   4.2004207e+00  -8.6431633e+06
   6.2087362e-10  -9.7639116e-04   4.5331974e+00   4.2015332e+00  -8.5924068e+06
   6.2154051e-10  -9.7068148e-04   4.5323764e+00   4.2026392e+00  -8.5419536e+06
   6.2220740e-10  -9.6500545e-04   4.5315603e+00   4.2037387e+00  -8.4918020e+06
   6.2287429e-10  -9.5936286e-04   4.5307488e+00   4.2048317e+00  -8.4419501e+06
   6.2354118e-10  -9.5375351e-04   4.5299419e+00   4.2059184e+00  -8.3923961e+06
   6.2420807e-10  -9.4817721e-04   4.5291398e+00   4.2069987e+00  -8.3431382e+06
   6.2487496e-10  -9.4263375e-04   4.5283422e+00   4.2080727e+00  -8.2941747e+06
   6.2554185e-10  -9.3712295e-04   4.5275492e+00   4.2091404e+00  -8.2455037e+06
   6.2620874e-10  -9.3164460e-04   4.5267608e+00   4.2102018e+00  -8.1971235e+06
   6.2687563e-10  -9.2619851e-04   4.5259769e+00   4.2112570e+00  -8.1490324e+06
   6.2754251e-10  -9.2078449e-04   4.5251975e+00   4.2123061e+00  -8.1012286e+06
   6.2820940e-10  -9.1540236e-04   4.5244226e+00   4.2133490e+00  -8.0537104e+06
   6.2887629e-10  -9.1005191e-04   4.5236521e+00   4.2143858e+00  -8.0064761e+06
   6.2954318e-10  -9.0473296e-04   4.5228861e+00   4.2154165e+00  -7.9595239e+06
   6.3021007e-10  -8.9944532e-04   4.5221245e+00   4.2164412e+00  -7.9128522e+06
   6.3087696e-10  -8.9418880e-04   4.5213673e+00   4.2174599e+00  -7.8664592e+06
   6.3154385e-10  -8.8896322e-04   4.5206144e+00   4.2184727e+00  -7.8203433e+06
   6.3221074e-10  -8.8376840e-04   4.5198659e+00   4.2194795e+00  -7.7745029e+06
   6.3287763e-10  -8.7860415e-04   4.5191217e+00   4.2204804e+00  -7.7289362e+06
   6.3354451e-10  -8.7347028e-04   4.5183817e+00   4.2214755e+00  -7.6836416e+06
   6.3421140e-10  -8.6836662e-04   4.5176461e+00   4.2224647e+00  -7.6386174e+06
   6.3487829e-10  -8.6329299e-04   4.5169146e+00   4.2234482e+00  -7.5938621e+06
   6.3554518e-10  -8.5824920e-04   4.5161874e+00   4.2244259e+00  -7.5493740e+06
   6.3621207e-10  -8.5323508e-04   4.5154643e+00   4.2253979e+00  -7.5051515e+06
   6.3687896e-10  -8.4825045e-04   4.5147455e+00   4.2263642e+00  -7.4611929e+06
   6.3754585e-10  -8.4329514e-04   4.5140307e+00   4.2273248e+00  -7.4174968e+06
   6.3821274e-10  -8.3836897e-04   4.5133201e+00   4.2282799e+00  -7.3740614e+06
   6.3887963e-10  -8.3347177e-04   4.5126135e+00   4.2292293e+00  -7.3308853e+06
   6.3954652e-10  -8.2860335e-04   4.5119111e+00   4.2301732e+00  -7.2879668e+06
   6.4021340e-10  -8.2376357e-04   4.5112127e+00   4.2311115e+00  -7.2453044e+06
   6.4088029e-10  -8.1895223e-04   4.5105182e+00   4.2320444e+00  -7.2028966e+06
   6.4154718e-10  -8.1416917e-04   4.5098278e+00   4.2329718e+00  -7.1607418e+06
   6.4221407e-10  -8.0941423e-04   4.5091414e+00   4.2338938e+00  -7.1188384e+06
   6.4288096e-10  -8.0468723e-04   4.5084589e+00   4.2348104e+00  -7.0771850e+06
   6.4354785e-10  -7.9998800e-04   4.5077804e+00   4.2357217e+00  -7.0357801e+06
   6.4421474e-10  -7.9531639e-04   4.5071058e+00   4.2366276e+00  -6.9946220e+06
   6.4488163e-10  -7.9067223e-04   4.5064350e+00   4.2375282e+00  -6.9537094e+06
   6.4554852e-10  -7.8605535e-04   4.5057682e+00   4.2384235e+00  -6.9130407e+06
   6.4621541e-10  -7.8146560e-04   4.5051051e+00   4.2393136e+00  -6.8726145e+06
   6.4688229e-10  -7.7690280e-04   4.5044459e+00   4.2401986e+00  -6.8324293e+06
   6.4754918e-10  -7.7236680e-04   4.5037905e+00   4.2410783e+00  -6.7924837e+06
   6.4821607e-10  -7.6785744e-04   4.5031388e+00   4.2419529e+00  -6.7527761e+06
   6.4888296e-10  -7.6337456e-04   4.5024909e+00   4.2428224e+00  -6.7133052e+06
   6.4954985e-10  -7.5891800e-04   4.5018468e+00   4.2436868e+00  -6.6740694e+06
   6.5021674e-10  -7.5448761e-04   4.5012063e+00   4.2445461e+00  -6.6350674e+06
   6.5088363e-10  -7.5008322e-04   4.5005696e+00   4.2454004e+00  -6.5962978e+06
   6.5155052e-10  -7.4570469e-04   4.4999365e+00   4.2462498e+00  -6.5577591e+06
   6.5221741e-10  -7.4135186e-04   4.4993071e+00   4.2470941e+00  -6.5194500e+06
   6.5288429e-10  -7.3702457e-04   4.4986813e+00   4.2479335e+00  -6.4813690e+06
   6.5355118e-10  -7.3272268e-04   4.4980591e+00   4.2487681e+00  -6.4435147e+06
   6.5421807e-10  -7.2844603e-04   4.4974404e+00   4.2495977e+00  -6.4058859e+06
   6.5488496e-10  -7.2419448e-04   4.4968254e+00   4.2504225e+00  -6.3684810e+06
   6.5555185e-10  -7.1996786e-04   4.4962139e+00   4.2512425e+00  -6.3312988e+06
   6.5621874e-10  -7.1576604e-04   4.4956059e+00   4.2520577e+00  -6.2943379e+06
   6.5688563e-10  -7.1158887e-04   4.4950014e+00   4.2528681e+00  -6.2575969e+06
   6.5755252e-10  -7.0743619e-04   4.4944004e+00   4.2536738e+00  -6.2210745e+06
   6.5821941e-10  -7.0330787e-04   4.4938029e+00   4.2544748e+00  -6.1847695e+06
   6.5888630e-10  -6.9920376e-04   4.4932088e+00   4.2552711e+00  -6.1486803e+06
   6.5955318e-10  -6.9512371e-04   4.4926182e+00   4.2560628e+00  -6.1128058e+06
   6.6022007e-10  -6.9106758e-04   4.4920309e+00   4.2568498e+00  -6.0771447e+06
   6.6088696e-10  -6.8703523e-04   4.4914470e+00   4.2576323e+00  -6.0416956e+06
   6.6155385e-10  -6.8302651e-04   4.4908665e+00   4.2584101e+00  -6.0064572e+06
   6.6222074e-10  -6.7904130e-04   4.4902894e+00   4.2591835e+00  -5.9714283e+06
   6.6288763e-10  -6.7507943e-04   4.4897155e+00   4.2599523e+00  -5.9366076e+06
   6.6355452e-10  -6.7114079e-04   4.4891450e+00   4.2607166e+00  -5.9019939e+06
   6.6422141e-10  -6.6722522e-04   4.4885778e+00   4.2614765e+00  -5.8675857e+06
   6.6488830e-10  -6.6333259e-04   4.4880138e+00   4.2622319e+00  -5.8333820e+06
   6.6555519e-10  -6.5946277e-04   4.4874531e+00   4.2629829e+00  -5.7993815e+06
   6.6622207e-10  -6.5561562e-04   4.4868956e+00   4.2637295e+00  -5.7655828e+06
   6.6688896e-10  -6.5179100e-04   4.4863414e+00   4.2644718e+00  -5.7319849e+06
   6.6755585e-10  -6.4798878e-04   4.4857903e+00   4.2652098e+00  -5.6985864e+06
   6.6822274e-10  -6.4420882e-04   4.4852424e+00   4.2659434e+00  -5.6653862e+06
   6.6888963e-10  -6.4045100e-04   4.4846977e+00   4.2666728e+00  -5.6323831e+06
   6.6955652e-10  -6.3671518e-04   4.4841561e+00   4.2673979e+00  -5.5995757e+06
   6.7022341e-10  -6.3300124e-04   4.4836176e+00   4.2681187e+00  -5.5669631e+06
   6.7089030e-10  -6.2930903e-04   4.4830822e+00   4.2688354e+00  -5.5345439e+06
   6.7155719e-10  -6.2563844e-04   4.4825500e+00   4.2695479e+00  -5.5023170e+06
   6.7222407e-10  -6.2198933e-04   4.4820207e+00   4.2702562e+00  -5.4702812e+06
   6.7289096e-10  -6.1836157e-04   4.4814946e+00   4.2709604e+00  -5.4384353e+06
   6.7355785e-10  -6.1475504e-04   4.4809715e+00   4.2716605e+00  -5.4067782e+06
   6.7422474e-10  -6.1116962e-04   4.4804513e+00   4.2723565e+00  -5.3753088e+06
   6.7489163e-10  -6.0760517e-04   4.4799342e+00   4.2730484e+00  -5.3440259e+06
   6.7555852e-10  -6.0406157e-04   4.4794201e+00   4.2737364e+00  -5.3129283e+06
   6.7622541e-10  -6.0053870e-04   4.4789089e+00   4.2744203e+00  -5.2820150e+06
   6.7689230e-10  -5.9703644e-04   4.4784007e+00   4.2751002e+00  -5.2512847e+06
   6.7755919e-10  -5.9355466e-04   4.4778954e+00   4.2757761e+00  -5.2207364e+06
   6.7822608e-10  -5.9009324e-04   4.4773930e+00   4.2764481e+00  -5.1903690e+06
   6.7889296e-10  -5.8665206e-04   4.4768936e+00   4.2771162e+00  -5.1601814e+06
   6.7955985e-10  -5.8323100e-04   4.4763970e+00   4.2777804e+00  -5.1301725e+06
   6.8022674e-10  -5.7982994e-04   4.4759032e+00   4.2784407e+00  -5.1003411e+06
   6.8089363e-10  -5.7644876e-04   4.4754123e+00   4.2790972e+00  -5.0706863e+06
   6.8156052e-10  -5.7308734e-04   4.4749243e+00   4.2797499e+00  -5.0412068e+06
   6.8222741e-10  -5.6974557e-04   4.4744390e+00   4.2803987e+00  -5.0119018e+06
   6.8289430e-10  -5.6642333e-04   4.4739566e+00   4.2810438e+00  -4.9827700e+06
   6.8356119e-10  -5.6312050e-04   4.4734769e+00   4.2816851e+00  -4.9538104e+06
   6.8422808e-10  -5.5983697e-04   4.4730000e+00   4.2823227e+00  -4.9250220e+06
   6.8489496e-10  -5.5657263e-04   4.4725258e+00   4.2829565e+00  -4.8964038e+06
   6.8556185e-10  -5.5332735e-04   4.4720544e+00   4.2835867e+00  -4.8679547e+06
   6.8622874e-10  -5.5010103e-04   4.4715857e+00   4.2842132e+00  -4.8396736e+06
   6.8689563e-10  -5.4689356e-04   4.4711197e+00   4.2848360e+00  -4.8115596e+06
   6.8756252e-10  -5.4370481e-04   4.4706564e+00   4.2854552e+00  -4.7836116e+06
   6.8822941e-10  -5.4053469e-04   4.4701958e+00   4.2860708e+00  -4.7558286e+06
   6.8889630e-10  -5.3738308e-04   4.4697378e+00   4.2866829e+00  -4.7282096e+06
   6.8956319e-10  -5.3424987e-04   4.4692824e+00   4.2872913e+00  -4.7007537e+06
   6.9023008e-10  -5.3113495e-04   4.4688297e+00   4.2878963e+00  -4.6734597e+06
   6.9089697e-10  -5.2803821e-04   4.4683796e+00   4.2884977e+00  -4.6463268e+06
   6.9156385e-10  -5.2495955e-04   4.4679321e+00   4.2890955e+00  -4.6193539e+06
   6.9223074e-10  -5.2189886e-04   4.4674871e+00   4.2896900e+00  -4.5925400e+06
   6.9289763e-10  -5.1885603e-04   4.4670447e+00   4.2902809e+00  -4.5658843e+06
   6.9356452e-10  -5.1583096e-04   4.4666049e+00   4.2908684e+00  -4.5393857e+06
   6.9423141e-10  -5.1282354e-04   4.4661676e+00   4.2914525e+00  -4.5130432e+06
   6.9489830e-10  -5.0983366e-04   4.4657329e+00   4.2920332e+00  -4.4868560e+06
   6.9556519e-10  -5.0686123e-04   4.4653006e+00   4.2926105e+00  -4.4608231e+06
   6.9623208e-10  -5.0390614e-04   4.4648708e+00   4.2931845e+00  -4.4349434e+06
   6.9689897e-10  -5.0096828e-04   4.4644435e+00   4.2937551e+00  -4.4092162e+06
   6.9756586e-10  -4.9804756e-04   4.4640187e+00   4.2943224e+00  -4.3836405e+06
   6.9823274e-10  -4.9514387e-04   4.4635963e+00   4.2948864e+00  -4.3582153e+06
   6.9889963e-10  -4.9225711e-04   4.4631764e+00   4.2954471e+00  -4.3329397e+06
   6.9956652e-10  -4.8938719e-04   4.4627588e+00   4.2960046e+00  -4.3078129e+06
   7.0023341e-10  -4.8653400e-04   4.4623437e+00   4.2965588e+00  -4.2828338e+06
   7.0090030e-10  -4.8369744e-04   4.4619310e+00   4.2971098e+00  -4.2580017e+06
   7.0156719e-10  -4.8087742e-04   4.4615206e+00   4.2976576e+00  -4.2333156e+06
   7.0223408e-10  -4.7807383e-04   4.4611127e+00   4.2982022e+00  -4.2087746e+06
   7.0290097e-10  -4.7528659e-04   4.4607070e+00   4.2987436e+00  -4.1843779e+06
   7.0356786e-10  -4.7251559e-04   4.4603037e+00   4.2992819e+00  -4.1601245e+06
   7.0423474e-10  -4.6976074e-04   4.4599028e+00   4.2998170e+00  -4.1360136e+06
   7.0490163e-10  -4.6702194e-04   4.4595041e+00   4.3003491e+00  -4.1120444e+06
   7.0556852e-10  -4.6429909e-04   4.4591077e+00   4.3008780e+00  -4.0882159e+06
   7.0623541e-10  -4.6159211e-04   4.4587137e+00   4.3014039e+00  -4.0645273e+06
   7.0690230e-10  -4.5890090e-04   4.4583219e+00   4.3019267e+00  -4.0409778e+06
   7.0756919e-10  -4.5622537e-04   4.4579323e+00   4.3024465e+00  -4.0175664e+06
   7.0823608e-10  -4.5356542e-04   4.4575450e+00   4.3029633e+00  -3.9942925e+06
   7.0890297e-10  -4.5092096e-04   4.4571599e+00   4.3034770e+00  -3.9711551e+06
   7.0956986e-10  -4.4829190e-04   4.4567771e+00   4.3039878e+00  -3.9481533e+06
   7.1023675e-10  -4.4567816e-04   4.4563964e+00   4.3044956e+00  -3.9252865e+06
   7.1090363e-10  -4.4307963e-04   4.4560180e+00   4.3050004e+00  -3.9025537e+06
   7.1157052e-10  -4.4049623e-04   4.4556417e+00   4.3055023e+00  -3.8799542e+06
   7.1223741e-10  -4.3792787e-04   4.4552676e+00   4.3060013e+00  -3.8574871e+06
   7.1290430e-10  -4.3537446e-04   4.4548956e+00   4.3064974e+00  -3.8351516e+06
   7.1357119e-10  -4.3283591e-04   4.4545258e+00   4.3069907e+00  -3.8129469e+06
   7.1423808e-10  -4.3031214e-04   4.4541582e+00   4.3074810e+00  -3.7908723e+06
   7.1490497e-10  -4.2780306e-04   4.4537926e+00   4.3079685e+00  -3.7689270e+06
   7.1557186e-10  -4.2530858e-04   4.4534291e+00   4.3084532e+00  -3.7471100e+06
   7.1623875e-10  -4.2282862e-04   4.4530678e+00   4.3089351e+00  -3.7254208e+06
   7.1690564e-10  -4.2036309e-04   4.4527085e+00   4.3094141e+00  -3.7038585e+06
   7.1757252e-10  -4.1791190e-04   4.4523513e+00   4.3098904e+00  -3.6824223e+06
   7.1823941e-10  -4.1547497e-04   4.4519962e+00   4.3103639e+00  -3.6611115e+06
   7.1890630e-10  -4.1305222e-04   4.4516431e+00   4.3108347e+00  -3.6399253e+06
   7.1957319e-10  -4.1064356e-04   4.4512920e+00   4.3113027e+00  -3.6188629e+06
   7.2024008e-10  -4.0824892e-04   4.4509429e+00   4.3117680e+00  -3.5979237e+06
   7.2090697e-10  -4.0586820e-04   4.4505959e+00   4.3122306e+00  -3.5771068e+06
   7.2157386e-10  -4.0350132e-04   4.4502509e+00   4.3126905e+00  -3.5564115e+06
   7.2224075e-10  -4.0114821e-04   4.4499078e+00   4.3131478e+00  -3.5358371e+06
   7.2290764e-10  -3.9880879e-04   4.4495668e+00   4.3136024e+00  -3.5153828e+06
   7.2357452e-10  -3.9648297e-04   4.4492277e+00   4.3140544e+00  -3.4950480e+06
   7.2424141e-10  -3.9417067e-04   4.4488905e+00   4.3145037e+00  -3.4748319e+06
   7.2490830e-10  -3.9187181e-04   4.4485553e+00   4.3149504e+00  -3.4547337e+06
   7.2557519e-10  -3.8958632e-04   4.4482220e+00   4.3153946e+00  -3.4347528e+06
   7.2624208e-10  -3.8731411e-04   4.4478907e+00   4.3158361e+00  -3.4148885e+06
   7.2690897e-10  -3.8505511e-04   4.4475612e+00   4.3162751e+00  -3.3951400e+06
   7.2757586e-10  -3.8280924e-04   4.4472337e+00   4.3167116e+00  -3.3755066e+06
   7.2824275e-10  -3.8057643e-04   4.4469080e+00   4.3171455e+00  -3.3559878e+06
   7.2890964e-10  -3.7835659e-04   4.4465842e+00   4.3175769e+00  -3.3365826e+06
   7.2957653e-10  -3.7614965e-04   4.4462623e+00   4.3180058e+00  -3.3172906e+06
   7.3024341e-10  -3.7395553e-04   4.4459422e+00   4.3184322e+00  -3.2981109e+06
   7.3091030e-10  -3.7177416e-04   4.4456240e+00   4.3188562e+00  -3.2790430e+06
   7.3157719e-10  -3.6960547e-04   4.4453076e+00   4.3192776e+00  -3.2600861e+06
   7.3224408e-10  -3.6744938e-04   4.4449930e+00   4.3196967e+00  -3.2412395e+06
   7.3291097e-10  -3.6530581e-04   4.4446803e+00   4.3201133e+00  -3.2225027e+06
   7.3357786e-10  -3.6317470e-04   4.4443693e+00   4.3205275e+00  -3.2038749e+06
   7.3424475e-10  -3.6105596e-04   4.4440602e+00   4.3209392e+00  -3.1853555e+06
   7.3491164e-10  -3.5894953e-04   4.4437528e+00   4.3213486e+00  -3.1669438e+06
   7.3557853e-10  -3.5685534e-04   4.4434472e+00   4.3217557e+00  -3.1486392e+06
   7.3624542e-10  -3.5477330e-04   4.4431433e+00   4.3221603e+00  -3.1304411e+06
   7.3691230e-10  -3.5270336e-04   4.4428412e+00   4.3225626e+00  -3.1123487e+06
   7.3757919e-10  -3.5064544e-04   4.4425408e+00   4.3229626e+00  -3.0943615e+06
   7.3824608e-10  -3.4859947e-04   4.4422422e+00   4.3233603e+00  -3.0764788e+06
   7.3891297e-10  -3.4656538e-04   4.4419453e+00   4.3237556e+00  -3.0587000e+06
   7.3957986e-10  -3.4454310e-04   4.4416501e+00   4.3241487e+00  -3.0410245e+06
   7.4024675e-10  -3.4253257e-04   4.4413566e+00   4.3245395e+00  -3.0234516e+06
   7.4091364e-10  -3.4053370e-04   4.4410648e+00   4.3249280e+00  -3.0059808e+06
   7.4158053e-10  -3.3854644e-04   4.4407747e+00   4.3253143e+00  -2.9886114e+06
   7.4224742e-10  -3.3657071e-04   4.4404862e+00   4.3256983e+00  -2.9713428e+06
   7.4291430e-10  -3.3460646e-04   4.4401994e+00   4.3260801e+00  -2.9541744e+06
   7.4358119e-10  -3.3265360e-04   4.4399143e+00   4.3264597e+00  -2.9371056e+06
   7.4424808e-10  -3.3071208e-04   4.4396308e+00   4.3268371e+00  -2.9201358e+06
   7.4491497e-10  -3.2878183e-04   4.4393489e+00   4.3272123e+00  -2.9032644e+06
   7.4558186e-10  -3.2686278e-04   4.4390686e+00   4.3275853e+00  -2.8864909e+06
   7.4624875e-10  -3.2495487e-04   4.4387900e+00   4.3279562e+00  -2.8698146e+06
   7.4691564e-10  -3.2305803e-04   4.4385130e+00   4.3283249e+00  -2.8532349e+06
   7.4758253e-10  -3.2117220e-04   4.4382376e+00   4.3286915e+00  -2.8367513e+06
   7.4824942e-10  -3.1929731e-04   4.4379637e+00   4.3290559e+00  -2.8203632e+06
   7.4891631e-10  -3.1743330e-04   4.4376914e+00   4.3294183e+00  -2.8040700e+06
   7.4958319e-10  -3.1558011e-04   4.4374208e+00   4.3297785e+00  -2.7878712e+06
   7.5025008e-10  -3.1373766e-04   4.4371516e+00   4.3301367e+00  -2.7717662e+06
   7.5091697e-10  -3.1190591e-04   4.4368840e+00   4.3304928e+00  -2.7557544e+06
   7.5158386e-10  -3.1008478e-04   4.4366180e+00   4.3308468e+00  -2.7398353e+06
   7.5225075e-10  -3.0827422e-04   4.4363535e+00   4.3311987e+00  -2.7240084e+06
   7.5291764e-10  -3.0647416e-04   4.4360905e+00   4.3315487e+00  -2.7082729e+06
   7.5358453e-10  -3.0468455e-04   4.4358290e+00   4.3318966e+00  -2.6926286e+06
   7.5425142e-10  -3.0290531e-04   4.4355690e+00   4.3322425e+00  -2.6770746e+06
   7.5491831e-10  -3.0113640e-04   4.4353105e+00   4.3325863e+00  -2.6616107e+06
   7.5558520e-10  -2.9937775e-04   4.4350536e+00   4.3329282e+00  -2.6462361e+06
   7.5625208e-10  -2.9762929e-04   4.4347981e+00   4.3332681e+00  -2.6309504e+06
   7.5691897e-10  -2.9589098e-04   4.4345440e+00   4.3336061e+00  -2.6157531e+06
   7.5758586e-10  -2.9416275e-04   4.4342915e+00   4.3339421e+00  -2.6006436e+06
   7.5825275e-10  -2.9244454e-04   4.4340404e+00   4.3342761e+00  -2.5856213e+06
   7.5891964e-10  -2.9073630e-04   4.4337907e+00   4.3346082e+00  -2.5706858e+06
   7.5958653e-10  -2.8903796e-04   4.4335425e+00   4.3349384e+00  -2.5558366e+06
   7.6025342e-10  -2.8734947e-04   4.4332957e+00   4.3352666e+00  -2.5410732e+06
   7.6092031e-10  -2.8567077e-04   4.4330503e+00   4.3355930e+00  -2.5263949e+06
   7.6158720e-10  -2.8400181e-04   4.4328063e+00   4.3359175e+00  -2.5118014e+06
   7.6225408e-10  -2.8234253e-04   4.4325638e+00   4.3362401e+00  -2.4972921e+06
   7.6292097e-10  -2.8069286e-04   4.4323226e+00   4.3365608e+00  -2.4828666e+06
   7.6358786e-10  -2.7905277e-04   4.4320828e+00   4.3368796e+00  -2.4685242e+06
   7.6425475e-10  -2.7742218e-04   4.4318444e+00   4.3371967e+00  -2.4542646e+06
   7.6492164e-10  -2.7580104e-04   4.4316074e+00   4.3375118e+00  -2.4400872e+06
   7.6558853e-10  -2.7418931e-04   4.4313718e+00   4.3378252e+00  -2.4259916e+06
   7.6625542e-10  -2.7258692e-04   4.4311375e+00   4.3381367e+00  -2.4119773e+06
   7.6692231e-10  -2.7099382e-04   4.4309045e+00   4.3384465e+00  -2.3980437e+06
   7.6758920e-10  -2.6940995e-04   4.4306729e+00   4.3387544e+00  -2.3841905e+06
   7.6825609e-10  -2.6783527e-04   4.4304427e+00   4.3390606e+00  -2.3704170e+06
   7.6892297e-10  -2.6626972e-04   4.4302137e+00   4.3393650e+00  -2.3567230e+06
   7.6958986e-10  -2.6471324e-04   4.4299861e+00   4.3396676e+00  -2.3431078e+06
   7.7025675e-10  -2.6316579e-04   4.4297598e+00   4.3399685e+00  -2.3295710e+06
   7.7092364e-10  -2.6162730e-04   4.4295348e+00   4.3402676e+00  -2.3161122e+06
   7.7159053e-10  -2.6009774e-04   4.4293111e+00   4.3405650e+00  -2.3027309e+06
   7.7225742e-10  -2.5857704e-04   4.4290887e+00   4.3408607e+00  -2.2894267e+06
   7.7292431e-10  -2.5706516e-04   4.4288676e+00   4.3411547e+00  -2.2761990e+06
   7.7359120e-10  -2.5556204e-04   4.4286477e+00   4.3414469e+00  -2.2630475e+06
   7.7425809e-10  -2.5406764e-04   4.4284291e+00   4.3417375e+00  -2.2499716e+06
   7.7492497e-10  -2.5258189e-04   4.4282118e+00   4.3420264e+00  -2.2369710e+06
   7.7559186e-10  -2.5110476e-04   4.4279957e+00   4.3423136e+00  -2.2240452e+06
   7.7625875e-10  -2.4963619e-04   4.4277808e+00   4.3425991e+00  -2.2111937e+06
   7.7692564e-10  -2.4817614e-04   4.4275672e+00   4.3428830e+00  -2.1984161e+06
   7.7759253e-10  -2.4672455e-04   4.4273549e+00   4.3431653e+00  -2.1857121e+06
   7.7825942e-10  -2.4528137e-04   4.4271437e+00   4.3434459e+00  -2.1730810e+06
   7.7892631e-10  -2.4384655e-04   4.4269338e+00   4.3437249e+00  -2.1605226e+06
   7.7959320e-10  -2.4242006e-04   4.4267251e+00   4.3440023e+00  -2.1480364e+06
   7.8026009e-10  -2.4100183e-04   4.4265176e+00   4.3442780e+00  -2.1356220e+06
   7.8092698e-10  -2.3959182e-04   4.4263113e+00   4.3445522e+00  -2.1232788e+06
   7.8159386e-10  -2.3818999e-04   4.4261061e+00   4.3448248e+00  -2.1110067e+06
   7.8226075e-10  -2.3679628e-04   4.4259022e+00   4.3450958e+00  -2.0988050e+06
   7.8292764e-10  -2.3541065e-04   4.4256994e+00   4.3453653e+00  -2.0866734e+06
   7.8359453e-10  -2.3403305e-04   4.4254978e+00   4.3456331e+00  -2.0746115e+06
   7.8426142e-10  -2.3266343e-04   4.4252974e+00   4.3458995e+00  -2.0626189e+06
   7.8492831e-10  -2.3130176e-04   4.4250981e+00   4.3461642e+00  -2.0506951e+06
   7.8559520e-10  -2.2994798e-04   4.4249000e+00   4.3464275e+00  -2.0388398e+06
   7.8626209e-10  -2.2860204e-04   4.4247030e+00   4.3466892e+00  -2.0270526e+06
   7.8692898e-10  -2.2726391e-04   4.4245071e+00   4.3469494e+00  -2.0153330e+06
   7.8759587e-10  -2.2593353e-04   4.4243124e+00   4.3472081e+00  -2.0036807e+06
   7.8826275e-10  -2.2461086e-04   4.4241188e+00   4.3474653e+00  -1.9920953e+06
   7.8892964e-10  -2.2329586e-04   4.4239263e+00   4.3477211e+00  -1.9805764e+06
   7.8959653e-10  -2.2198849e-04   4.4237349e+00   4.3479753e+00  -1.9691235e+06
   7.9026342e-10  -2.2068869e-04   4.4235447e+00   4.3482281e+00  -1.9577364e+06
   7.9093031e-10  -2.1939642e-04   4.4233555e+00   4.3484794e+00  -1.9464146e+06
   7.9159720e-10  -2.1811165e-04   4.4231674e+00   4.3487292e+00  -1.9351577e+06
   7.9226409e-10  -2.1683432e-04   4.4229804e+00   4.3489776e+00  -1.9239654e+06
   7.9293098e-10  -2.1556440e-04   4.4227945e+00   4.3492246e+00  -1.9128373e+06
   7.9359787e-10  -2.1430184e-04   4.4226097e+00   4.3494701e+00  -1.9017730e+06
   7.9426475e-10  -2.1304660e-04   4.4224259e+00   4.3497142e+00  -1.8907722e+06
   7.9493164e-10  -2.1179864e-04   4.4222432e+00   4.3499569e+00  -1.8798344e+06
   7.9559853e-10  -2.1055791e-04   4.4220615e+00   4.3501982e+00  -1.8689593e+06
   7.9626542e-10  -2.0932437e-04   4.4218809e+00   4.3504380e+00  -1.8581466e+06
   7.9693231e-10  -2.0809799e-04   4.4217013e+00   4.3506765e+00  -1.8473958e+06
   7.9759920e-10  -2.0687871e-04   4.4215228e+00   4.3509137e+00  -1.8367067e+06
   7.9826609e-10  -2.0566651e-04   4.4213452e+00   4.3511494e+00  -1.8260788e+06
   7.9893298e-10  -2.0446133e-04   4.4211688e+00   4.3513838e+00  -1.8155118e+06
   7.9959987e-10  -2.0326313e-04   4.4209933e+00   4.3516168e+00  -1.8050053e+06
   8.0026676e-10  -2.0207189e-04   4.4208188e+00   4.3518485e+00  -1.7945591e+06
   8.0093364e-10  -2.0088755e-04   4.4206454e+00   4.3520788e+00  -1.7841727e+06
   8.0160053e-10  -1.9971008e-04   4.4204730e+00   4.3523078e+00  -1.7738458e+06
   8.0226742e-10  -1.9853944e-04   4.4203015e+00   4.3525354e+00  -1.7635780e+06
   8.0293431e-10  -1.9737558e-04   4.4201310e+00   4.3527618e+00  -1.7533691e+06
   8.0360120e-10  -1.9621848e-04   4.4199616e+00   4.3529868e+00  -1.7432186e+06
   8.0426809e-10  -1.9506808e-04   4.4197931e+00   4.3532106e+00  -1.7331263e+06
   8.0493498e-10  -1.9392435e-04   4.4196255e+00   4.3534330e+00  -1.7230917e+06
   8.0560187e-10  -1.9278726e-04   4.4194590e+00   4.3536541e+00  -1.7131147e+06
   8.0626876e-10  -1.9165676e-04   4.4192934e+00   4.3538740e+00  -1.7031947e+06
   8.0693565e-10  -1.9053282e-04   4.4191288e+00   4.3540926e+00  -1.6933315e+06
   8.0760253e-10  -1.8941539e-04   4.4189651e+00   4.3543099e+00  -1.6835248e+06
   8.0826942e-10  -1.8830445e-04   4.4188023e+00   4.3545260e+00  -1.6737743e+06
   8.0893631e-10  -1.8719994e-04   4.4186405e+00   4.3547408e+00  -1.6640795e+06
   8.0960320e-10  -1.8610185e-04   4.4184796e+00   4.3549543e+00  -1.6544403e+06
   8.1027009e-10  -1.8501012e-04   4.4183197e+00   4.3551667e+00  -1.6448562e+06
   8.1093698e-10  -1.8392473e-04   4.4181607e+00   4.3553778e+00  -1.6353270e+06
   8.1160387e-10  -1.8284563e-04   4.4180026e+00   4.3555876e+00  -1.6258523e+06
   8.1227076e-10  -1.8177279e-04   4.4178454e+00   4.3557963e+00  -1.6164318e+06
   8.1293765e-10  -1.8070618e-04   4.4176891e+00   4.3560037e+00  -1.6070653e+06
   8.1360453e-10  -1.7964575e-04   4.4175338e+00   4.3562100e+00  -1.5977523e+06
   8.1427142e-10  -1.7859148e-04   4.4173793e+00   4.3564150e+00  -1.5884927e+06
   8.1493831e-10  -1.7754332e-04   4.4172257e+00   4.3566189e+00  -1.5792860e+06
   8.1560520e-10  -1.7650124e-04   4.4170730e+00   4.3568216e+00  -1.5701320e+06
   8.1627209e-10  -1.7546521e-04   4.4169212e+00   4.3570231e+00  -1.5610303e+06
   8.1693898e-10  -1.7443519e-04   4.4167703e+00   4.3572234e+00  -1.5519808e+06
   8.1760587e-10  -1.7341114e-04   4.4166202e+00   4.3574226e+00  -1.5429830e+06
   8.1827276e-10  -1.7239304e-04   4.4164710e+00   4.3576206e+00  -1.5340367e+06
   8.1893965e-10  -1.7138085e-04   4.4163227e+00   4.3578175e+00  -1.5251416e+06
   8.1960654e-10  -1.7037453e-04   4.4161752e+00   4.3580132e+00  -1.5162973e+06
   8.2027342e-10  -1.6937405e-04   4.4160286e+00   4.3582078e+00  -1.5075037e+06
   8.2094031e-10  -1.6837938e-04   4.4158828e+00   4.3584013e+00  -1.4987603e+06
   8.2160720e-10  -1.6739048e-04   4.4157379e+00   4.3585936e+00  -1.4900670e+06
   8.2227409e-10  -1.6640732e-04   4.4155938e+00   4.3587848e+00  -1.4814233e+06
   8.2294098e-10  -1.6542986e-04   4.4154505e+00   4.3589749e+00  -1.4728292e+06
   8.2360787e-10  -1.6445808e-04   4.4153081e+00   4.3591640e+00  -1.4642842e+06
   8.2427476e-10  -1.6349194e-04   4.4151665e+00   4.3593519e+00  -1.4557880e+06
   8.2494165e-10  -1.6253141e-04   4.4150257e+00   4.3595387e+00  -1.4473405e+06
   8.2560854e-10  -1.6157646e-04   4.4148857e+00   4.3597244e+00  -1.4389412e+06
   8.2627543e-10  -1.6062705e-04   4.4147465e+00   4.3599091e+00  -1.4305901e+06
   8.2694231e-10  -1.5968315e-04   4.4146082e+00   4.3600927e+00  -1.4222866e+06
   8.2760920e-10  -1.5874474e-04   4.4144706e+00   4.3602752e+00  -1.4140307e+06
   8.2827609e-10  -1.5781177e-04   4.4143339e+00   4.3604567e+00  -1.4058220e+06
   8.2894298e-10  -1.5688422e-04   4.4141979e+00   4.3606371e+00  -1.3976602e+06
   8.2960987e-10  -1.5596206e-04   4.4140627e+00   4.3608165e+00  -1.3895451e+06
   8.3027676e-10  -1.5504525e-04   4.4139283e+00   4.3609948e+00  -1.3814764e+06
   8.3094365e-10  -1.5413377e-04   4.4137947e+00   4.3611721e+00  -1.3734539e+06
   8.3161054e-10  -1.5322758e-04   4.4136618e+00   4.3613484e+00  -1.3654773e+06
   8.3227743e-10  -1.5232665e-04   4.4135297e+00   4.3615236e+00  -1.3575462e+06
   8.3294431e-10  -1.5143096e-04   4.4133984e+00   4.3616978e+00  -1.3496606e+06
   8.3361120e-10  -1.5054047e-04   4.4132679e+00   4.3618710e+00  -1.3418200e+06
   8.3427809e-10  -1.4965516e-04   4.4131381e+00   4.3620432e+00  -1.3340243e+06
   8.3494498e-10  -1.4877498e-04   4.4130090e+00   4.3622144e+00  -1.3262732e+06
   8.3561187e-10  -1.4789993e-04   4.4128807e+00   4.3623846e+00  -1.3185664e+06
   8.3627876e-10  -1.4702995e-04   4.4127531e+00   4.3625539e+00  -1.3109037e+06
   8.3694565e-10  -1.4616503e-04   4.4126263e+00   4.3627221e+00  -1.3032848e+06
   8.3761254e-10  -1.4530514e-04   4.4125002e+00   4.3628894e+00  -1.2957095e+06
   8.3827943e-10  -1.4445024e-04   4.4123749e+00   4.3630557e+00  -1.2881775e+06
   8.3894632e-10  -1.4360032e-04   4.4122502e+00   4.3632210e+00  -1.2806886e+06
   8.3961320e-10  -1.4275533e-04   4.4121263e+00   4.3633853e+00  -1.2732425e+06
   8.4028009e-10  -1.4191525e-04   4.4120031e+00   4.3635488e+00  -1.2658391e+06
   8.4094698e-10  -1.4108006e-04   4.4118807e+00   4.3637112e+00  -1.2584780e+06
   8.4161387e-10  -1.4024972e-04   4.4117589e+00   4.3638727e+00  -1.2511590e+06
   8.4228076e-10  -1.3942421e-04   4.4116378e+00   4.3640333e+00  -1.2438819e+06
   8.4294765e-10  -1.3860350e-04   4.4115175e+00   4.3641930e+00  -1.2366464e+06
   8.4361454e-10  -1.3778757e-04   4.4113978e+00   4.3643517e+00  -1.2294523e+06
   8.4428143e-10  -1.3697637e-04   4.4112789e+00   4.3645095e+00  -1.2222993e+06
   8.4494832e-10  -1.3616989e-04   4.4111606e+00   4.3646663e+00  -1.2151873e+06
   8.4561521e-10  -1.3536811e-04   4.4110430e+00   4.3648223e+00  -1.2081160e+06
   8.4628209e-10  -1.3457098e-04   4.4109261e+00   4.3649774e+00  -1.2010852e+06
   8.4694898e-10  -1.3377849e-04   4.4108098e+00   4.3651315e+00  -1.1940945e+06
   8.4761587e-10  -1.3299062e-04   4.4106943e+00   4.3652848e+00  -1.1871439e+06
   8.4828276e-10  -1.3220732e-04   4.4105794e+00   4.3654372e+00  -1.1802331e+06
   8.4894965e-10  -1.3142858e-04   4.4104652e+00   4.3655886e+00  -1.1733618e+06
   8.4961654e-10  -1.3065437e-04   4.4103516e+00   4.3657392e+00  -1.1665298e+06
   8.5028343e-10  -1.2988467e-04   4.4102387e+00   4.3658890e+00  -1.1597370e+06
   8.5095032e-10  -1.2911944e-04   4.4101265e+00   4.3660378e+00  -1.1529830e+06
   8.5161721e-10  -1.2835867e-04   4.4100149e+00   4.3661858e+00  -1.1462677e+06
   8.5228409e-10  -1.2760233e-04   4.4099039e+00   4.3663329e+00  -1.1395908e+06
   8.5295098e-10  -1.2685038e-04   4.4097936e+00   4.3664792e+00  -1.1329522e+06
   8.5361787e-10  -1.2610281e-04   4.4096840e+00   4.3666246e+00  -1.1263515e+06
   8.5428476e-10  -1.2535960e-04   4.4095749e+00   4.3667692e+00  -1.1197886e+06
   8.5495165e-10  -1.2462071e-04   4.4094665e+00   4.3669129e+00  -1.1132634e+06
   8.5561854e-10  -1.2388612e-04   4.4093588e+00   4.3670558e+00  -1.1067755e+06
   8.5628543e-10  -1.2315581e-04   4.4092516e+00   4.3671979e+00  -1.1003247e+06
   8.5695232e-10  -1.2242975e-04   4.4091451e+00   4.3673392e+00  -1.0939109e+06
   8.5761921e-10  -1.2170792e-04   4.4090392e+00   4.3674796e+00  -1.0875338e+06
   8.5828610e-10  -1.2099029e-04   4.4089339e+00   4.3676192e+00  -1.0811932e+06
   8.5895298e-10  -1.2027684e-04   4.4088293e+00   4.3677580e+00  -1.0748890e+06
   8.5961987e-10  -1.1956755e-04   4.4087252e+00   4.3678959e+00  -1.0686208e+06
   8.6028676e-10  -1.1886238e-04   4.4086217e+00   4.3680331e+00  -1.0623886e+06
   8.6095365e-10  -1.1816133e-04   4.4085189e+00   4.3681695e+00  -1.0561921e+06
   8.6162054e-10  -1.1746435e-04   4.4084166e+00   4.3683051e+00  -1.0500310e+06
   8.6228743e-10  -1.1677144e-04   4.4083150e+00   4.3684399e+00  -1.0439053e+06
   8.6295432e-10  -1.1608257e-04   4.4082139e+00   4.3685739e+00  -1.0378147e+06
   8.6362121e-10  -1.1539771e-04   4.4081134e+00   4.3687071e+00  -1.0317590e+06
   8.6428810e-10  -1.1471684e-04   4.4080135e+00   4.3688396e+00  -1.0257380e+06
   8.6495498e-10  -1.1403994e-04   4.4079142e+00   4.3689712e+00  -1.0197515e+06
   8.6562187e-10  -1.1336698e-04   4.4078154e+00   4.3691022e+00  -1.0137993e+06
   8.6628876e-10  -1.1269794e-04   4.4077173e+00   4.3692323e+00  -1.0078812e+06
   8.6695565e-10  -1.1203281e-04   4.4076197e+00   4.3693617e+00  -1.0019971e+06
   8.6762254e-10  -1.1137155e-04   4.4075226e+00   4.3694903e+00  -9.9614664e+05
   8.6828943e-10  -1.1071415e-04   4.4074262e+00   4.3696182e+00  -9.9032978e+05
   8.6895632e-10  -1.1006058e-04   4.4073302e+00   4.3697454e+00  -9.8454627e+05
   8.6962321e-10  -1.0941082e-04   4.4072349e+00   4.3698718e+00  -9.7879592e+05
   8.7029010e-10  -1.0876485e-04   4.4071401e+00   4.3699974e+00  -9.7307856e+05
   8.7095699e-10  -1.0812265e-04   4.4070459e+00   4.3701224e+00  -9.6739399e+05
   8.7162387e-10  -1.0748419e-04   4.4069522e+00   4.3702466e+00  -9.6174202e+05
   8.7229076e-10  -1.0684945e-04   4.4068590e+00   4.3703701e+00  -9.5612248e+05
   8.7295765e-10  -1.0621842e-04   4.4067664e+00   4.3704928e+00  -9.5053518e+05
   8.7362454e-10  -1.0559107e-04   4.4066743e+00   4.3706149e+00  -9.4497994e+05
   8.7429143e-10  -1.0496738e-04   4.4065828e+00   4.3707362e+00  -9.3945658e+05
   8.7495832e-10  -1.0434733e-04   4.4064918e+00   4.3708568e+00  -9.3396491e+05
   8.7562521e-10  -1.0373090e-04   4.4064013e+00   4.3709768e+00  -9.2850476e+05
   8.7629210e-10  -1.0311806e-04   4.4063114e+00   4.3710960e+00  -9.2307595e+05
   8.7695899e-10  -1.0250880e-04   4.4062220e+00   4.3712145e+00  -9.1767831e+05
   8.7762588e-10  -1.0190310e-04   4.4061331e+00   4.3713323e+00  -9.1231165e+05
   8.7829276e-10  -1.0130093e-04   4.4060447e+00   4.3714495e+00  -9.0697580e+05
   8.7895965e-10  -1.0070228e-04   4.4059568e+00   4.3715660e+00  -9.0167060e+05
   8.7962654e-10  -1.0010712e-04   4.4058695e+00   4.3716817e+00  -8.9639586e+05
   8.8029343e-10  -9.9515437e-05   4.4057826e+00   4.3717968e+00  -8.9115141e+05
   8.8096032e-10  -9.8927208e-05   4.4056963e+00   4.3719113e+00  -8.8593709e+05
   8.8162721e-10  -9.8342415e-05   4.4056104e+00   4.3720250e+00  -8.8075272e+05
   8.8229410e-10  -9.7761037e-05   4.4055251e+00   4.3721382e+00  -8.7559813e+05
   8.8296099e-10  -9.7183054e-05   4.4054403e+00   4.3722506e+00  -8.7047317e+05
   8.8362788e-10  -9.6608447e-05   4.4053559e+00   4.3723624e+00  -8.6537765e+05
   8.8429476e-10  -9.6037197e-05   4.4052721e+00   4.3724735e+00  -8.6031141e+05
   8.8496165e-10  -9.5469284e-05   4.4051887e+00   4.3725840e+00  -8.5527429e+05
   8.8562854e-10  -9.4904690e-05   4.4051058e+00   4.3726938e+00  -8.5026612e+05
   8.8629543e-10  -9.4343394e-05   4.4050234e+00   4.3728030e+00  -8.4528675e+05
   8.8696232e-10  -9.3785378e-05   4.4049415e+00   4.3729116e+00  -8.4033600e+05
   8.8762921e-10  -9.3230623e-05   4.4048601e+00   4.3730195e+00  -8.3541372e+05
   8.8829610e-10  -9.2679110e-05   4.4047791e+00   4.3731268e+00  -8.3051975e+05
   8.8896299e-10  -9.2130821e-05   4.4046986e+00   4.3732335e+00  -8.2565392e+05
   8.8962988e-10  -9.1585737e-05   4.4046186e+00   4.3733395e+00  -8.2081608e+05
   8.9029677e-10  -9.1043840e-05   4.4045390e+00   4.3734450e+00  -8.1600607e+05
   8.9096365e-10  -9.0505110e-05   4.4044599e+00   4.3735498e+00  -8.1122373e+05
   8.9163054e-10  -8.9969531e-05   4.4043813e+00   4.3736540e+00  -8.0646891e+05
   8.9229743e-10  -8.9437084e-05   4.4043032e+00   4.3737576e+00  -8.0174145e+05
   8.9296432e-10  -8.8907751e-05   4.4042254e+00   4.3738605e+00  -7.9704120e+05
   8.9363121e-10  -8.8381513e-05   4.4041482e+00   4.3739629e+00  -7.9236800e+05
   8.9429810e-10  -8.7858354e-05   4.4040714e+00   4.3740647e+00  -7.8772170e+05
   8.9496499e-10  -8.7338254e-05   4.4039950e+00   4.3741659e+00  -7.8310216e+05
   8.9563188e-10  -8.6821198e-05   4.4039191e+00   4.3742665e+00  -7.7850921e+05
   8.9629877e-10  -8.6307167e-05   4.4038436e+00   4.3743665e+00  -7.7394271e+05
   8.9696566e-10  -8.5796143e-05   4.4037686e+00   4.3744659e+00  -7.6940252e+05
   8.9763254e-10  -8.5288110e-05   4.4036940e+00   4.3745648e+00  -7.6488847e+05
   8.9829943e-10  -8.4783050e-05   4.4036198e+00   4.3746630e+00  -7.6040043e+05
   8.9896632e-10  -8.4280946e-05   4.4035461e+00   4.3747607e+00  -7.5593824e+05
   8.9963321e-10  -8.3781781e-05   4.4034728e+00   4.3748578e+00  -7.5150177e+05
   9.0030010e-10  -8.3285539e-05   4.4034000e+00   4.3749544e+00  -7.4709086e+05
   9.0096699e-10  -8.2792201e-05   4.4033275e+00   4.3750503e+00  -7.4270538e+05
   9.0163388e-10  -8.2301752e-05   4.4032555e+00   4.3751458e+00  -7.3834517e+05
   9.0230077e-10  -8.1814175e-05   4.4031839e+00   4.3752406e+00  -7.3401010e+05
   9.0296766e-10  -8.1329453e-05   4.4031128e+00   4.3753349e+00  -7.2970003e+05
   9.0363454e-10  -8.0847569e-05   4.4030420e+00   4.3754287e+00  -7.2541481e+05
   9.0430143e-10  -8.0368509e-05   4.4029716e+00   4.3755219e+00  -7.2115431e+05
   9.0496832e-10  -7.9892254e-05   4.4029017e+00   4.3756145e+00  -7.1691837e+05
   9.0563521e-10  -7.9418790e-05   4.4028322e+00   4.3757067e+00  -7.1270688e+05
   9.0630210e-10  -7.8948099e-05   4.4027631e+00   4.3757982e+00  -7.0851968e+05
   9.0696899e-10  -7.8480166e-05   4.4026944e+00   4.3758893e+00  -7.0435664e+05
   9.0763588e-10  -7.8014975e-05   4.4026260e+00   4.3759798e+00  -7.0021763e+05
   9.0830277e-10  -7.7552511e-05   4.4025581e+00   4.3760698e+00  -6.9610251e+05
   9.0896966e-10  -7.7092756e-05   4.4024906e+00   4.3761592e+00  -6.9201114e+05
   9.0963655e-10  -7.6635697e-05   4.4024235e+00   4.3762481e+00  -6.8794339e+05
   9.1030343e-10  -7.6181317e-05   4.4023568e+00   4.3763365e+00  -6.8389913e+05
   9.1097032e-10  -7.5729601e-05   4.4022904e+00   4.3764244e+00  -6.7987822e+05
   9.1163721e-10  -7.5280533e-05   4.4022245e+00   4.3765118e+00  -6.7588053e+05
   9.1230410e-10  -7.4834098e-05   4.4021589e+00   4.3765987e+00  -6.7190594e+05
   9.1297099e-10  -7.4390281e-05   4.4020937e+00   4.3766850e+00  -6.6795431e+05
   9.1363788e-10  -7.3949067e-05   4.4020289e+00   4.3767708e+00  -6.6402550e+05
   9.1430477e-10  -7.3510441e-05   4.4019645e+00   4.3768562e+00  -6.6011941e+05
   9.1497166e-10  -7.3074387e-05   4.4019005e+00   4.3769410e+00  -6.5623588e+05
   9.1563855e-10  -7.2640892e-05   4.4018368e+00   4.3770254e+00  -6.5237481e+05
   9.1630544e-10  -7.2209940e-05   4.4017735e+00   4.3771092e+00  -6.4853605e+05
   9.1697232e-10  -7.1781516e-05   4.4017106e+00   4.3771926e+00  -6.4471949e+05
   9.1763921e-10  -7.1355607e-05   4.4016481e+00   4.3772754e+00  -6.4092500e+05
   9.1830610e-10  -7.0932196e-05   4.4015859e+00   4.3773578e+00  -6.3715245e+05
   9.1897299e-10  -7.0511271e-05   4.4015240e+00   4.3774397e+00  -6.3340172e+05
   9.1963988e-10  -7.0092816e-05   4.4014626e+00   4.3775211e+00  -6.2967269e+05
   9.2030677e-10  -6.9676818e-05   4.4014015e+00   4.3776021e+00  -6.2596523e+05
   9.2097366e-10  -6.9263262e-05   4.4013407e+00   4.3776825e+00  -6.2227923e+05
   9.2164055e-10  -6.8852134e-05   4.4012804e+00   4.3777625e+00  -6.1861456e+05
   9.2230744e-10  -6.8443420e-05   4.4012203e+00   4.3778420e+00  -6.1497110e+05
   9.2297432e-10  -6.8037106e-05   4.4011607e+00   4.3779211e+00  -6.1134873e+05
   9.2364121e-10  -6.7633178e-05   4.4011013e+00   4.3779997e+00  -6.0774733e+05
   9.2430810e-10  -6.7231622e-05   4.4010423e+00   4.3780778e+00  -6.0416679e+05
   9.2497499e-10  -6.6832425e-05   4.4009837e+00   4.3781555e+00  -6.0060698e+05
   9.2564188e-10  -6.6435574e-05   4.4009254e+00   4.3782327e+00  -5.9706779e+05
   9.2630877e-10  -6.6041053e-05   4.4008675e+00   4.3783094e+00  -5.9354910e+05
   9.2697566e-10  -6.5648851e-05   4.4008099e+00   4.3783858e+00  -5.9005080e+05
   9.2764255e-10  -6.5258953e-05   4.4007526e+00   4.3784616e+00  -5.8657277e+05
   9.2830944e-10  -6.4871347e-05   4.4006956e+00   4.3785370e+00  -5.8311490e+05
   9.2897633e-10  -6.4486018e-05   4.4006390e+00   4.3786120e+00  -5.7967706e+05
   9.2964321e-10  -6.4102955e-05   4.4005828e+00   4.3786865e+00  -5.7625916e+05
   9.3031010e-10  -6.3722143e-05   4.4005268e+00   4.3787606e+00  -5.7286107e+05
   9.3097699e-10  -6.3343569e-05   4.4004712e+00   4.3788343e+00  -5.6948269e+05
   9.3164388e-10  -6.2967222e-05   4.4004159e+00   4.3789075e+00  -5.6612389e+05
   9.3231077e-10  -6.2593087e-05   4.4003610e+00   4.3789803e+00  -5.6278458e+05
   9.3297766e-10  -6.2221152e-05   4.4003063e+00   4.3790527e+00  -5.5946464e+05
   9.3364455e-10  -6.1851405e-05   4.4002520e+00   4.3791246e+00  -5.5616396e+05
   9.3431144e-10  -6.1483832e-05   4.4001980e+00   4.3791961e+00  -5.5288244e+05
   9.3497833e-10  -6.1118421e-05   4.4001444e+00   4.3792672e+00  -5.4961995e+05
   9.3564522e-10  -6.0755160e-05   4.4000910e+00   4.3793379e+00  -5.4637641e+05
   9.3631210e-10  -6.0394036e-05   4.4000379e+00   4.3794082e+00  -5.4315169e+05
   9.3697899e-10  -6.0035036e-05   4.3999852e+00   4.3794780e+00  -5.3994570e+05
   9.3764588e-10  -5.9678149e-05   4.3999328e+00   4.3795475e+00  -5.3675832e+05
   9.3831277e-10  -5.9323362e-05   4.3998807e+00   4.3796165e+00  -5.3358945e+05
   9.3897966e-10  -5.8970663e-05   4.3998288e+00   4.3796851e+00  -5.3043899e+05
   9.3964655e-10  -5.8620040e-05   4.3997773e+00   4.3797533e+00  -5.2730683e+05
   9.4031344e-10  -5.8271481e-05   4.3997261e+00   4.3798212e+00  -5.2419286e+05
   9.4098033e-10  -5.7924974e-05   4.3996752e+00   4.3798886e+00  -5.2109699e+05
   9.4164722e-10  -5.7580506e-05   4.3996246e+00   4.3799556e+00  -5.1801912e+05
   9.4231410e-10  -5.7238067e-05   4.3995743e+00   4.3800222e+00  -5.1495913e+05
   9.4298099e-10  -5.6897644e-05   4.3995243e+00   4.3800885e+00  -5.1191693e+05
   9.4364788e-10  -5.6559226e-05   4.3994746e+00   4.3801543e+00  -5.0889242e+05
   9.4431477e-10  -5.6222801e-05   4.3994251e+00   4.3802198e+00  -5.0588550e+05
   9.4498166e-10  -5.5888357e-05   4.3993760e+00   4.3802848e+00  -5.0289606e+05
   9.4564855e-10  -5.5555884e-05   4.3993272e+00   4.3803495e+00  -4.9992401e+05
   9.4631544e-10  -5.5225369e-05   4.3992786e+00   4.3804138e+00  -4.9696925e+05
   9.4698233e-10  -5.4896801e-05   4.3992303e+00   4.3804778e+00  -4.9403169e+05
   9.4764922e-10  -5.4570170e-05   4.3991823e+00   4.3805413e+00  -4.9111121e+05
   9.4831611e-10  -5.4245463e-05   4.3991346e+00   4.3806045e+00  -4.8820774e+05
   9.4898299e-10  -5.3922669e-05   4.3990872e+00   4.3806673e+00  -4.8532116e+05
   9.4964988e-10  -5.3601778e-05   4.3990401e+00   4.3807297e+00  -4.8245139e+05
   9.5031677e-10  -5.3282779e-05   4.3989932e+00   4.3807918e+00  -4.7959832e+05
   9.5098366e-10  -5.2965659e-05   4.3989466e+00   4.3808535e+00  -4.7676187e+05
   9.5165055e-10  -5.2650410e-05   4.3989003e+00   4.3809149e+00  -4.7394194e+05
   9.5231744e-10  -5.2337019e-05   4.3988542e+00   4.3809758e+00  -4.7113844e+05
   9.5298433e-10  -5.2025475e-05   4.3988085e+00   4.3810365e+00  -4.6835126e+05
   9.5365122e-10  -5.1715769e-05   4.3987629e+00   4.3810967e+00  -4.6558033e+05
   9.5431811e-10  -5.1407889e-05   4.3987177e+00   4.3811566e+00  -4.6282554e+05
   9.5498499e-10  -5.1101825e-05   4.3986727e+00   4.3812162e+00  -4.6008681e+05
   9.5565188e-10  -5.0797567e-05   4.3986280e+00   4.3812754e+00  -4.5736404e+05
   9.5631877e-10  -5.0495103e-05   4.3985836e+00   4.3813342e+00  -4.5465714e+05
   9.5698566e-10  -5.0194423e-05   4.3985394e+00   4.3813927e+00  -4.5196603e+05
   9.5765255e-10  -4.9895518e-05   4.3984955e+00   4.3814509e+00  -4.4929061e+05
   9.5831944e-10  -4.9598376e-05   4.3984518e+00   4.3815087e+00  -4.4663079e+05
   9.5898633e-10  -4.9302988e-05   4.3984084e+00   4.3815662e+00  -4.4398649e+05
   9.5965322e-10  -4.9009342e-05   4.3983653e+00   4.3816233e+00  -4.4135761e+05
   9.6032011e-10  -4.8717430e-05   4.3983224e+00   4.3816801e+00  -4.3874407e+05
   9.6098700e-10  -4.8427241e-05   4.3982797e+00   4.3817366e+00  -4.3614578e+05
   9.6165388e-10  -4.8138765e-05   4.3982373e+00   4.3817927e+00  -4.3356266e+05
   9.6232077e-10  -4.7851992e-05   4.3981952e+00   4.3818485e+00  -4.3099462e+05
   9.6298766e-10  -4.7566912e-05   4.3981533e+00   4.3819040e+00  -4.2844156e+05
   9.6365455e-10  -4.7283515e-05   4.3981117e+00   4.3819591e+00  -4.2590341e+05
   9.6432144e-10  -4.7001792e-05   4.3980703e+00   4.3820139e+00  -4.2338009e+05
   9.6498833e-10  -4.6721732e-05   4.3980291e+00   4.3820684e+00  -4.2087150e+05
   9.6565522e-10  -4.6443327e-05   4.3979882e+00   4.3821226e+00  -4.1837756e+05
   9.6632211e-10  -4.6166565e-05   4.3979475e+00   4.3821764e+00  -4.1589819e+05
   9.6698900e-10  -4.5891439e-05   4.3979071e+00   4.3822300e+00  -4.1343331e+05
   9.6765589e-10  -4.5617938e-05   4.3978669e+00   4.3822832e+00  -4.1098283e+05
   9.6832277e-10  -4.5346053e-05   4.3978270e+00   4.3823361e+00  -4.0854668e+05
   9.6898966e-10  -4.5075774e-05   4.3977872e+00   4.3823887e+00  -4.0612476e+05
   9.6965655e-10  -4.4807093e-05   4.3977478e+00   4.3824410e+00  -4.0371700e+05
   9.7032344e-10  -4.4539999e-05   4.3977085e+00   4.3824929e+00  -4.0132332e+05
   9.7099033e-10  -4.4274484e-05   4.3976695e+00   4.3825446e+00  -3.9894363e+05
   9.7165722e-10  -4.4010538e-05   4.3976307e+00   4.3825960e+00  -3.9657786e+05
   9.7232411e-10  -4.3748152e-05   4.3975921e+00   4.3826470e+00  -3.9422593e+05
   9.7299100e-10  -4.3487317e-05   4.3975538e+00   4.3826978e+00  -3.9188776e+05
   9.7365789e-10  -4.3228025e-05   4.3975157e+00   4.3827482e+00  -3.8956327e+05
   9.7432477e-10  -4.2970265e-05   4.3974778e+00   4.3827984e+00  -3.8725238e+05
   9.7499166e-10  -4.2714030e-05   4.3974402e+00   4.3828482e+00  -3.8495501e+05
