   0.0000000e+00  -1.1902994e-01   6.3692473e+00   6.0465739e-04  -5.2183854e+08
   1.0003334e-12  -1.1850863e-01   6.3687379e+00   6.2963994e-04  -5.2044837e+08
   2.0006669e-12  -1.1798871e-01   6.3682191e+00   6.5558276e-04  -5.1905816e+08
   3.0010003e-12  -1.1747017e-01   6.3676908e+00   6.8251961e-04  -5.1766790e+08
   4.0013338e-12  -1.1695303e-01   6.3671528e+00   7.1048528e-04  -5.1627761e+08
   5.0016672e-12  -1.1643728e-01   6.3666050e+00   7.3951563e-04  -5.1488729e+08
   6.0020007e-12  -1.1592292e-01   6.3660473e+00   7.6964765e-04  -5.1349693e+08
   7.0023341e-12  -1.1540995e-01   6.3654794e+00   8.0091945e-04  -5.1210653e+08
   8.0026676e-12  -1.1489837e-01   6.3649013e+00   8.3337032e-04  -5.1071610e+08
   9.0030010e-12  -1.1438819e-01   6.3643128e+00   8.6704071e-04  -5.0932564e+08
   1.0003334e-11  -1.1387939e-01   6.3637136e+00   9.0197235e-04  -5.0793515e+08
   1.1003668e-11  -1.1337198e-01   6.3631038e+00   9.3820817e-04  -5.0654463e+08
   1.2004001e-11  -1.1286597e-01   6.3624830e+00   9.7579242e-04  -5.0515409e+08
   1.3004335e-11  -1.1236135e-01   6.3618512e+00   1.0147707e-03  -5.0376352e+08
   1.4004668e-11  -1.1185811e-01   6.3612081e+00   1.0551898e-03  -5.0237292e+08
   1.5005002e-11  -1.1135627e-01   6.3605537e+00   1.0970981e-03  -5.0098230e+08
   1.6005335e-11  -1.1085582e-01   6.3598876e+00   1.1405453e-03  -4.9959167e+08
   1.7005669e-11  -1.1035676e-01   6.3592099e+00   1.1855826e-03  -4.9820101e+08
   1.8006002e-11  -1.0985909e-01   6.3585202e+00   1.2322625e-03  -4.9681034e+08
   1.9006335e-11  -1.0936282e-01   6.3578184e+00   1.2806393e-03  -4.9541965e+08
   2.0006669e-11  -1.0886793e-01   6.3571044e+00   1.3307686e-03  -4.9402895e+08
   2.1007002e-11  -1.0837444e-01   6.3563780e+00   1.3827078e-03  -4.9263824e+08
   2.2007336e-11  -1.0788233e-01   6.3556389e+00   1.4365157e-03  -4.9124752e+08
   2.3007669e-11  -1.0739162e-01   6.3548871e+00   1.4922530e-03  -4.8985680e+08
   2.4008003e-11  -1.0690230e-01   6.3541222e+00   1.5499820e-03  -4.8846607e+08
   2.5008336e-11  -1.0641437e-01   6.3533442e+00   1.6097665e-03  -4.8707534e+08
   2.6008670e-11  -1.0592783e-01   6.3525528e+00   1.6716726e-03  -4.8568462e+08
   2.7009003e-11  -1.0544268e-01   6.3517479e+00   1.7357676e-03  -4.8429389e+08
   2.8009336e-11  -1.0495893e-01   6.3509292e+00   1.8021212e-03  -4.8290318e+08
   2.9009670e-11  -1.0447656e-01   6.3500966e+00   1.8708046e-03  -4.8151247e+08
   3.0010003e-11  -1.0399559e-01   6.3492499e+00   1.9418911e-03  -4.8012178e+08
   3.1010337e-11  -1.0351601e-01   6.3483888e+00   2.0154559e-03  -4.7873110e+08
   3.2010670e-11  -1.0303781e-01   6.3475133e+00   2.0915764e-03  -4.7734045e+08
   3.3011004e-11  -1.0256101e-01   6.3466229e+00   2.1703318e-03  -4.7594981e+08
   3.4011337e-11  -1.0208560e-01   6.3457177e+00   2.2518035e-03  -4.7455920e+08
   3.5011671e-11  -1.0161159e-01   6.3447973e+00   2.3360751e-03  -4.7316862e+08
   3.6012004e-11  -1.0113896e-01   6.3438616e+00   2.4232322e-03  -4.7177807e+08
   3.7012337e-11  -1.0066772e-01   6.3429103e+00   2.5133628e-03  -4.7038755e+08
   3.8012671e-11  -1.0019788e-01   6.3419433e+00   2.6065570e-03  -4.6899708e+08
   3.9013004e-11  -9.9729423e-02   6.3409602e+00   2.7029074e-03  -4.6760664e+08
   4.0013338e-11  -9.9262360e-02   6.3399610e+00   2.8025089e-03  -4.6621626e+08
   4.1013671e-11  -9.8796687e-02   6.3389454e+00   2.9054585e-03  -4.6482592e+08
   4.2014005e-11  -9.8332405e-02   6.3379131e+00   3.0118560e-03  -4.6343564e+08
   4.3014338e-11  -9.7869514e-02   6.3368640e+00   3.1218035e-03  -4.6204542e+08
   4.4014672e-11  -9.7408013e-02   6.3357977e+00   3.2354057e-03  -4.6065527e+08
   4.5015005e-11  -9.6947903e-02   6.3347142e+00   3.3527699e-03  -4.5926518e+08
   4.6015338e-11  -9.6489184e-02   6.3336132e+00   3.4740057e-03  -4.5787516e+08
   4.7015672e-11  -9.6031855e-02   6.3324944e+00   3.5992258e-03  -4.5648523e+08
   4.8016005e-11  -9.5575916e-02   6.3313575e+00   3.7285453e-03  -4.5509537e+08
   4.9016339e-11  -9.5121368e-02   6.3302025e+00   3.8620821e-03  -4.5370560e+08
   5.0016672e-11  -9.4668210e-02   6.3290290e+00   3.9999570e-03  -4.5231592e+08
   5.1017006e-11  -9.4216442e-02   6.3278368e+00   4.1422934e-03  -4.5092634e+08
   5.2017339e-11  -9.3766064e-02   6.3266256e+00   4.2892179e-03  -4.4953686e+08
   5.3017673e-11  -9.3317075e-02   6.3253953e+00   4.4408597e-03  -4.4814749e+08
   5.4018006e-11  -9.2869477e-02   6.3241455e+00   4.5973512e-03  -4.4675824e+08
   5.5018339e-11  -9.2423268e-02   6.3228760e+00   4.7588277e-03  -4.4536910e+08
   5.6018673e-11  -9.1978449e-02   6.3215867e+00   4.9254276e-03  -4.4398009e+08
   5.7019006e-11  -9.1535019e-02   6.3202771e+00   5.0972922e-03  -4.4259121e+08
   5.8019340e-11  -9.1092978e-02   6.3189472e+00   5.2745663e-03  -4.4120246e+08
   5.9019673e-11  -9.0652327e-02   6.3175965e+00   5.4573975e-03  -4.3981386e+08
   6.0020007e-11  -9.0213065e-02   6.3162249e+00   5.6459369e-03  -4.3842541e+08
   6.1020340e-11  -8.9775191e-02   6.3148321e+00   5.8403389e-03  -4.3703711e+08
   6.2020674e-11  -8.9338706e-02   6.3134179e+00   6.0407608e-03  -4.3564898e+08
   6.3021007e-11  -8.8903609e-02   6.3119819e+00   6.2473638e-03  -4.3426102e+08
   6.4021340e-11  -8.8469901e-02   6.3105240e+00   6.4603121e-03  -4.3287323e+08
   6.5021674e-11  -8.8037581e-02   6.3090438e+00   6.6797735e-03  -4.3148563e+08
   6.6022007e-11  -8.7606649e-02   6.3075412e+00   6.9059192e-03  -4.3009822e+08
   6.7022341e-11  -8.7177105e-02   6.3060157e+00   7.1389240e-03  -4.2871101e+08
   6.8022674e-11  -8.6748948e-02   6.3044672e+00   7.3789661e-03  -4.2732400e+08
   6.9023008e-11  -8.6322179e-02   6.3028954e+00   7.6262275e-03  -4.2593721e+08
   7.0023341e-11  -8.5896797e-02   6.3012999e+00   7.8808937e-03  -4.2455064e+08
   7.1023675e-11  -8.5472802e-02   6.2996806e+00   8.1431537e-03  -4.2316430e+08
   7.2024008e-11  -8.5050193e-02   6.2980372e+00   8.4132006e-03  -4.2177819e+08
   7.3024341e-11  -8.4628971e-02   6.2963693e+00   8.6912308e-03  -4.2039234e+08
   7.4024675e-11  -8.4209135e-02   6.2946767e+00   8.9774448e-03  -4.1900673e+08
   7.5025008e-11  -8.3790685e-02   6.2929591e+00   9.2720467e-03  -4.1762140e+08
   7.6025342e-11  -8.3373620e-02   6.2912163e+00   9.5752445e-03  -4.1623633e+08
   7.7025675e-11  -8.2957941e-02   6.2894478e+00   9.8872500e-03  -4.1485155e+08
   7.8026009e-11  -8.2543647e-02   6.2876536e+00   1.0208279e-02  -4.1346705e+08
   7.9026342e-11  -8.2130738e-02   6.2858332e+00   1.0538551e-02  -4.1208286e+08
   8.0026676e-11  -8.1719214e-02   6.2839863e+00   1.0878290e-02  -4.1069898e+08
   8.1027009e-11  -8.1309073e-02   6.2821127e+00   1.1227723e-02  -4.0931542e+08
   8.2027342e-11  -8.0900316e-02   6.2802121e+00   1.1587082e-02  -4.0793218e+08
   8.3027676e-11  -8.0492943e-02   6.2782842e+00   1.1956602e-02  -4.0654929e+08
   8.4028009e-11  -8.0086953e-02   6.2763287e+00   1.2336524e-02  -4.0516675e+08
   8.5028343e-11  -7.9682346e-02   6.2743453e+00   1.2727090e-02  -4.0378457e+08
   8.6028676e-11  -7.9279122e-02   6.2723337e+00   1.3128548e-02  -4.0240276e+08
   8.7029010e-11  -7.8877279e-02   6.2702936e+00   1.3541150e-02  -4.0102133e+08
   8.8029343e-11  -7.8476818e-02   6.2682247e+00   1.3965152e-02  -3.9964029e+08
   8.9029677e-11  -7.8077738e-02   6.2661267e+00   1.4400815e-02  -3.9825966e+08
   9.0030010e-11  -7.7680039e-02   6.2639992e+00   1.4848401e-02  -3.9687945e+08
   9.1030343e-11  -7.7283721e-02   6.2618421e+00   1.5308180e-02  -3.9549966e+08
   9.2030677e-11  -7.6888783e-02   6.2596549e+00   1.5780424e-02  -3.9412032e+08
   9.3031010e-11  -7.6495224e-02   6.2574374e+00   1.6265409e-02  -3.9274142e+08
   9.4031344e-11  -7.6103044e-02   6.2551893e+00   1.6763415e-02  -3.9136299e+08
   9.5031677e-11  -7.5712243e-02   6.2529103e+00   1.7274729e-02  -3.8998504e+08
   9.6032011e-11  -7.5322820e-02   6.2506000e+00   1.7799638e-02  -3.8860757e+08
   9.7032344e-11  -7.4934775e-02   6.2482581e+00   1.8338436e-02  -3.8723061e+08
   9.8032678e-11  -7.4548107e-02   6.2458844e+00   1.8891420e-02  -3.8585416e+08
   9.9033011e-11  -7.4162815e-02   6.2434785e+00   1.9458890e-02  -3.8447824e+08
   1.0003334e-10  -7.3778900e-02   6.2410401e+00   2.0041154e-02  -3.8310286e+08
   1.0103368e-10  -7.3396360e-02   6.2385689e+00   2.0638519e-02  -3.8172803e+08
   1.0203401e-10  -7.3015195e-02   6.2360646e+00   2.1251301e-02  -3.8035378e+08
   1.0303434e-10  -7.2635405e-02   6.2335269e+00   2.1879815e-02  -3.7898010e+08
   1.0403468e-10  -7.2256988e-02   6.2309555e+00   2.2524384e-02  -3.7760703e+08
   1.0503501e-10  -7.1879945e-02   6.2283500e+00   2.3185333e-02  -3.7623456e+08
   1.0603535e-10  -7.1504274e-02   6.2257101e+00   2.3862992e-02  -3.7486272e+08
   1.0703568e-10  -7.1129975e-02   6.2230356e+00   2.4557695e-02  -3.7349153e+08
   1.0803601e-10  -7.0757048e-02   6.2203261e+00   2.5269779e-02  -3.7212098e+08
   1.0903635e-10  -7.0385491e-02   6.2175814e+00   2.5999585e-02  -3.7075111e+08
   1.1003668e-10  -7.0015304e-02   6.2148010e+00   2.6747458e-02  -3.6938193e+08
   1.1103701e-10  -6.9646486e-02   6.2119847e+00   2.7513747e-02  -3.6801345e+08
   1.1203735e-10  -6.9279037e-02   6.2091322e+00   2.8298804e-02  -3.6664569e+08
   1.1303768e-10  -6.8912956e-02   6.2062432e+00   2.9102987e-02  -3.6527866e+08
   1.1403801e-10  -6.8548241e-02   6.2033173e+00   2.9926655e-02  -3.6391238e+08
   1.1503835e-10  -6.8184894e-02   6.2003543e+00   3.0770171e-02  -3.6254687e+08
   1.1603868e-10  -6.7822911e-02   6.1973538e+00   3.1633902e-02  -3.6118215e+08
   1.1703901e-10  -6.7462294e-02   6.1943156e+00   3.2518220e-02  -3.5981822e+08
   1.1803935e-10  -6.7103040e-02   6.1912392e+00   3.3423497e-02  -3.5845511e+08
   1.1903968e-10  -6.6745150e-02   6.1881246e+00   3.4350110e-02  -3.5709284e+08
   1.2004001e-10  -6.6388621e-02   6.1849712e+00   3.5298441e-02  -3.5573142e+08
   1.2104035e-10  -6.6033455e-02   6.1817789e+00   3.6268873e-02  -3.5437087e+08
   1.2204068e-10  -6.5679648e-02   6.1785473e+00   3.7261792e-02  -3.5301121e+08
   1.2304101e-10  -6.5327202e-02   6.1752761e+00   3.8277588e-02  -3.5165245e+08
   1.2404135e-10  -6.4976114e-02   6.1719651e+00   3.9316653e-02  -3.5029462e+08
   1.2504168e-10  -6.4626384e-02   6.1686139e+00   4.0379384e-02  -3.4893773e+08
   1.2604201e-10  -6.4278011e-02   6.1652222e+00   4.1466177e-02  -3.4758181e+08
   1.2704235e-10  -6.3930993e-02   6.1617898e+00   4.2577434e-02  -3.4622686e+08
   1.2804268e-10  -6.3585331e-02   6.1583164e+00   4.3713558e-02  -3.4487291e+08
   1.2904301e-10  -6.3241022e-02   6.1548016e+00   4.4874954e-02  -3.4351999e+08
   1.3004335e-10  -6.2898066e-02   6.1512452e+00   4.6062030e-02  -3.4216810e+08
   1.3104368e-10  -6.2556462e-02   6.1476470e+00   4.7275198e-02  -3.4081727e+08
   1.3204401e-10  -6.2216209e-02   6.1440065e+00   4.8514868e-02  -3.3946752e+08
   1.3304435e-10  -6.1877305e-02   6.1403237e+00   4.9781456e-02  -3.3811886e+08
   1.3404468e-10  -6.1539750e-02   6.1365981e+00   5.1075376e-02  -3.3677133e+08
   1.3504502e-10  -6.1203542e-02   6.1328295e+00   5.2397048e-02  -3.3542493e+08
   1.3604535e-10  -6.0868681e-02   6.1290177e+00   5.3746890e-02  -3.3407969e+08
   1.3704568e-10  -6.0535164e-02   6.1251624e+00   5.5125323e-02  -3.3273563e+08
   1.3804602e-10  -6.0202992e-02   6.1212633e+00   5.6532770e-02  -3.3139278e+08
   1.3904635e-10  -5.9872162e-02   6.1173201e+00   5.7969654e-02  -3.3005114e+08
   1.4004668e-10  -5.9542674e-02   6.1133327e+00   5.9436399e-02  -3.2871075e+08
   1.4104702e-10  -5.9214525e-02   6.1093008e+00   6.0933430e-02  -3.2737162e+08
   1.4204735e-10  -5.8887716e-02   6.1052240e+00   6.2461174e-02  -3.2603378e+08
   1.4304768e-10  -5.8562244e-02   6.1011023e+00   6.4020057e-02  -3.2469725e+08
   1.4404802e-10  -5.8238109e-02   6.0969353e+00   6.5610506e-02  -3.2336205e+08
   1.4504835e-10  -5.7915308e-02   6.0927228e+00   6.7232949e-02  -3.2202820e+08
   1.4604868e-10  -5.7593841e-02   6.0884646e+00   6.8887813e-02  -3.2069573e+08
   1.4704902e-10  -5.7273707e-02   6.0841605e+00   7.0575525e-02  -3.1936465e+08
   1.4804935e-10  -5.6954903e-02   6.0798102e+00   7.2296514e-02  -3.1803499e+08
   1.4904968e-10  -5.6637428e-02   6.0754135e+00   7.4051205e-02  -3.1670677e+08
   1.5005002e-10  -5.6321282e-02   6.0709703e+00   7.5840025e-02  -3.1538002e+08
   1.5105035e-10  -5.6006461e-02   6.0664802e+00   7.7663400e-02  -3.1405476e+08
   1.5205068e-10  -5.5692966e-02   6.0619432e+00   7.9521754e-02  -3.1273101e+08
   1.5305102e-10  -5.5380794e-02   6.0573591e+00   8.1415511e-02  -3.1140879e+08
   1.5405135e-10  -5.5069944e-02   6.0527275e+00   8.3345093e-02  -3.1008813e+08
   1.5505168e-10  -5.4760414e-02   6.0480485e+00   8.5310921e-02  -3.0876906e+08
   1.5605202e-10  -5.4452203e-02   6.0433217e+00   8.7313415e-02  -3.0745158e+08
   1.5705235e-10  -5.4145309e-02   6.0385470e+00   8.9352992e-02  -3.0613574e+08
   1.5805268e-10  -5.3839731e-02   6.0337243e+00   9.1430067e-02  -3.0482155e+08
   1.5905302e-10  -5.3535466e-02   6.0288534e+00   9.3545054e-02  -3.0350904e+08
   1.6005335e-10  -5.3232513e-02   6.0239341e+00   9.5698363e-02  -3.0219822e+08
   1.6105368e-10  -5.2930871e-02   6.0189664e+00   9.7890403e-02  -3.0088913e+08
   1.6205402e-10  -5.2630537e-02   6.0139500e+00   1.0012158e-01  -2.9958180e+08
   1.6305435e-10  -5.2331510e-02   6.0088848e+00   1.0239230e-01  -2.9827623e+08
   1.6405468e-10  -5.2033789e-02   6.0037708e+00   1.0470295e-01  -2.9697246e+08
   1.6505502e-10  -5.1737370e-02   5.9986077e+00   1.0705394e-01  -2.9567052e+08
   1.6605535e-10  -5.1442253e-02   5.9933956e+00   1.0944565e-01  -2.9437042e+08
   1.6705569e-10  -5.1148436e-02   5.9881342e+00   1.1187848e-01  -2.9307220e+08
   1.6805602e-10  -5.0855916e-02   5.9828235e+00   1.1435281e-01  -2.9177587e+08
   1.6905635e-10  -5.0564692e-02   5.9774634e+00   1.1686902e-01  -2.9048147e+08
   1.7005669e-10  -5.0274762e-02   5.9720539e+00   1.1942748e-01  -2.8918901e+08
   1.7105702e-10  -4.9986123e-02   5.9665947e+00   1.2202858e-01  -2.8789852e+08
   1.7205735e-10  -4.9698775e-02   5.9610860e+00   1.2467266e-01  -2.8661003e+08
   1.7305769e-10  -4.9412715e-02   5.9555276e+00   1.2736011e-01  -2.8532356e+08
   1.7405802e-10  -4.9127940e-02   5.9499195e+00   1.3009126e-01  -2.8403914e+08
   1.7505835e-10  -4.8844449e-02   5.9442617e+00   1.3286648e-01  -2.8275678e+08
   1.7605869e-10  -4.8562240e-02   5.9385540e+00   1.3568611e-01  -2.8147653e+08
   1.7705902e-10  -4.8281310e-02   5.9327966e+00   1.3855049e-01  -2.8019840e+08
   1.7805935e-10  -4.8001658e-02   5.9269893e+00   1.4145995e-01  -2.7892241e+08
   1.7905969e-10  -4.7723282e-02   5.9211322e+00   1.4441482e-01  -2.7764860e+08
   1.8006002e-10  -4.7446178e-02   5.9152253e+00   1.4741543e-01  -2.7637699e+08
   1.8106035e-10  -4.7170345e-02   5.9092686e+00   1.5046208e-01  -2.7510760e+08
   1.8206069e-10  -4.6895781e-02   5.9032620e+00   1.5355508e-01  -2.7384045e+08
   1.8306102e-10  -4.6622483e-02   5.8972058e+00   1.5669474e-01  -2.7257559e+08
   1.8406135e-10  -4.6350450e-02   5.8910997e+00   1.5988135e-01  -2.7131301e+08
   1.8506169e-10  -4.6079678e-02   5.8849441e+00   1.6311519e-01  -2.7005277e+08
   1.8606202e-10  -4.5810166e-02   5.8787388e+00   1.6639655e-01  -2.6879487e+08
   1.8706235e-10  -4.5541911e-02   5.8724839e+00   1.6972569e-01  -2.6753935e+08
   1.8806269e-10  -4.5274910e-02   5.8661796e+00   1.7310288e-01  -2.6628622e+08
   1.8906302e-10  -4.5009162e-02   5.8598258e+00   1.7652837e-01  -2.6503552e+08
   1.9006335e-10  -4.4744664e-02   5.8534228e+00   1.8000242e-01  -2.6378727e+08
   1.9106369e-10  -4.4481413e-02   5.8469706e+00   1.8352525e-01  -2.6254149e+08
   1.9206402e-10  -4.4219407e-02   5.8404693e+00   1.8709710e-01  -2.6129822e+08
   1.9306435e-10  -4.3958644e-02   5.8339190e+00   1.9071820e-01  -2.6005746e+08
   1.9406469e-10  -4.3699120e-02   5.8273199e+00   1.9438875e-01  -2.5881926e+08
   1.9506502e-10  -4.3440834e-02   5.8206721e+00   1.9810895e-01  -2.5758363e+08
   1.9606536e-10  -4.3183782e-02   5.8139758e+00   2.0187901e-01  -2.5635059e+08
   1.9706569e-10  -4.2927963e-02   5.8072311e+00   2.0569910e-01  -2.5512018e+08
   1.9806602e-10  -4.2673373e-02   5.8004382e+00   2.0956940e-01  -2.5389242e+08
   1.9906636e-10  -4.2420010e-02   5.7935973e+00   2.1349008e-01  -2.5266732e+08
   2.0006669e-10  -4.2167871e-02   5.7867086e+00   2.1746129e-01  -2.5144493e+08
   2.0106702e-10  -4.1916953e-02   5.7797722e+00   2.2148318e-01  -2.5022525e+08
   2.0206736e-10  -4.1667254e-02   5.7727884e+00   2.2555588e-01  -2.4900831e+08
   2.0306769e-10  -4.1418771e-02   5.7657574e+00   2.2967952e-01  -2.4779414e+08
   2.0406802e-10  -4.1171502e-02   5.7586794e+00   2.3385422e-01  -2.4658277e+08
   2.0506836e-10  -4.0925442e-02   5.7515547e+00   2.3808009e-01  -2.4537421e+08
   2.0606869e-10  -4.0680590e-02   5.7443835e+00   2.4235720e-01  -2.4416848e+08
   2.0706902e-10  -4.0436943e-02   5.7371661e+00   2.4668566e-01  -2.4296562e+08
   2.0806936e-10  -4.0194498e-02   5.7299027e+00   2.5106553e-01  -2.4176564e+08
   2.0906969e-10  -3.9953251e-02   5.7225936e+00   2.5549688e-01  -2.4056857e+08
   2.1007002e-10  -3.9713201e-02   5.7152391e+00   2.5997975e-01  -2.3937444e+08
   2.1107036e-10  -3.9474343e-02   5.7078395e+00   2.6451420e-01  -2.3818325e+08
   2.1207069e-10  -3.9236676e-02   5.7003951e+00   2.6910024e-01  -2.3699504e+08
   2.1307102e-10  -3.9000196e-02   5.6929063e+00   2.7373790e-01  -2.3580983e+08
   2.1407136e-10  -3.8764899e-02   5.6853732e+00   2.7842719e-01  -2.3462764e+08
   2.1507169e-10  -3.8530784e-02   5.6777964e+00   2.8316810e-01  -2.3344849e+08
   2.1607202e-10  -3.8297847e-02   5.6701760e+00   2.8796061e-01  -2.3227241e+08
   2.1707236e-10  -3.8066085e-02   5.6625126e+00   2.9280471e-01  -2.3109941e+08
   2.1807269e-10  -3.7835495e-02   5.6548063e+00   2.9770035e-01  -2.2992952e+08
   2.1907302e-10  -3.7606073e-02   5.6470577e+00   3.0264748e-01  -2.2876276e+08
   2.2007336e-10  -3.7377817e-02   5.6392670e+00   3.0764605e-01  -2.2759915e+08
   2.2107369e-10  -3.7150723e-02   5.6314347e+00   3.1269598e-01  -2.2643871e+08
   2.2207402e-10  -3.6924788e-02   5.6235611e+00   3.1779719e-01  -2.2528146e+08
   2.2307436e-10  -3.6700010e-02   5.6156468e+00   3.2294958e-01  -2.2412743e+08
   2.2407469e-10  -3.6476384e-02   5.6076920e+00   3.2815305e-01  -2.2297662e+08
   2.2507503e-10  -3.6253908e-02   5.5996972e+00   3.3340749e-01  -2.2182907e+08
   2.2607536e-10  -3.6032578e-02   5.5916628e+00   3.3871276e-01  -2.2068479e+08
   2.2707569e-10  -3.5812391e-02   5.5835893e+00   3.4406872e-01  -2.1954380e+08
   2.2807603e-10  -3.5593344e-02   5.5754771e+00   3.4947522e-01  -2.1840612e+08
   2.2907636e-10  -3.5375433e-02   5.5673266e+00   3.5493211e-01  -2.1727177e+08
   2.3007669e-10  -3.5158656e-02   5.5591384e+00   3.6043919e-01  -2.1614076e+08
   2.3107703e-10  -3.4943008e-02   5.5509129e+00   3.6599630e-01  -2.1501313e+08
   2.3207736e-10  -3.4728486e-02   5.5426506e+00   3.7160322e-01  -2.1388888e+08
   2.3307769e-10  -3.4515087e-02   5.5343519e+00   3.7725976e-01  -2.1276803e+08
   2.3407803e-10  -3.4302808e-02   5.5260174e+00   3.8296570e-01  -2.1165061e+08
   2.3507836e-10  -3.4091644e-02   5.5176475e+00   3.8872079e-01  -2.1053662e+08
   2.3607869e-10  -3.3881594e-02   5.5092428e+00   3.9452482e-01  -2.0942609e+08
   2.3707903e-10  -3.3672652e-02   5.5008038e+00   4.0037751e-01  -2.0831903e+08
   2.3807936e-10  -3.3464816e-02   5.4923309e+00   4.0627861e-01  -2.0721546e+08
   2.3907969e-10  -3.3258083e-02   5.4838247e+00   4.1222785e-01  -2.0611539e+08
   2.4008003e-10  -3.3052448e-02   5.4752858e+00   4.1822494e-01  -2.0501885e+08
   2.4108036e-10  -3.2847908e-02   5.4667147e+00   4.2426958e-01  -2.0392585e+08
   2.4208069e-10  -3.2644460e-02   5.4581119e+00   4.3036148e-01  -2.0283640e+08
   2.4308103e-10  -3.2442100e-02   5.4494779e+00   4.3650031e-01  -2.0175051e+08
   2.4408136e-10  -3.2240824e-02   5.4408134e+00   4.4268575e-01  -2.0066821e+08
   2.4508169e-10  -3.2040629e-02   5.4321188e+00   4.4891746e-01  -1.9958951e+08
   2.4608203e-10  -3.1841511e-02   5.4233949e+00   4.5519510e-01  -1.9851443e+08
   2.4708236e-10  -3.1643467e-02   5.4146420e+00   4.6151831e-01  -1.9744297e+08
   2.4808269e-10  -3.1446493e-02   5.4058608e+00   4.6788673e-01  -1.9637515e+08
   2.4908303e-10  -3.1250585e-02   5.3970520e+00   4.7429997e-01  -1.9531098e+08
   2.5008336e-10  -3.1055740e-02   5.3882159e+00   4.8075767e-01  -1.9425049e+08
   2.5108369e-10  -3.0861954e-02   5.3793534e+00   4.8725941e-01  -1.9319367e+08
   2.5208403e-10  -3.0669223e-02   5.3704648e+00   4.9380481e-01  -1.9214055e+08
   2.5308436e-10  -3.0477544e-02   5.3615510e+00   5.0039345e-01  -1.9109114e+08
   2.5408469e-10  -3.0286913e-02   5.3526123e+00   5.0702490e-01  -1.9004544e+08
   2.5508503e-10  -3.0097326e-02   5.3436495e+00   5.1369874e-01  -1.8900347e+08
   2.5608536e-10  -2.9908779e-02   5.3346632e+00   5.2041453e-01  -1.8796525e+08
   2.5708570e-10  -2.9721269e-02   5.3256540e+00   5.2717182e-01  -1.8693077e+08
   2.5808603e-10  -2.9534792e-02   5.3166224e+00   5.3397016e-01  -1.8590007e+08
   2.5908636e-10  -2.9349344e-02   5.3075691e+00   5.4080909e-01  -1.8487313e+08
   2.6008670e-10  -2.9164922e-02   5.2984947e+00   5.4768813e-01  -1.8384998e+08
   2.6108703e-10  -2.8981521e-02   5.2893999e+00   5.5460681e-01  -1.8283062e+08
   2.6208736e-10  -2.8799138e-02   5.2802853e+00   5.6156465e-01  -1.8181507e+08
   2.6308770e-10  -2.8617769e-02   5.2711514e+00   5.6856114e-01  -1.8080333e+08
   2.6408803e-10  -2.8437410e-02   5.2619990e+00   5.7559580e-01  -1.7979542e+08
   2.6508836e-10  -2.8258057e-02   5.2528286e+00   5.8266811e-01  -1.7879133e+08
   2.6608870e-10  -2.8079707e-02   5.2436409e+00   5.8977757e-01  -1.7779109e+08
   2.6708903e-10  -2.7902356e-02   5.2344365e+00   5.9692364e-01  -1.7679469e+08
   2.6808936e-10  -2.7725999e-02   5.2252161e+00   6.0410582e-01  -1.7580215e+08
   2.6908970e-10  -2.7550633e-02   5.2159802e+00   6.1132355e-01  -1.7481348e+08
   2.7009003e-10  -2.7376255e-02   5.2067296e+00   6.1857631e-01  -1.7382867e+08
   2.7109036e-10  -2.7202859e-02   5.1974648e+00   6.2586356e-01  -1.7284774e+08
   2.7209070e-10  -2.7030443e-02   5.1881865e+00   6.3318474e-01  -1.7187070e+08
   2.7309103e-10  -2.6859002e-02   5.1788953e+00   6.4053930e-01  -1.7089755e+08
   2.7409136e-10  -2.6688533e-02   5.1695919e+00   6.4792668e-01  -1.6992829e+08
   2.7509170e-10  -2.6519031e-02   5.1602769e+00   6.5534632e-01  -1.6896294e+08
   2.7609203e-10  -2.6350493e-02   5.1509510e+00   6.6279764e-01  -1.6800149e+08
   2.7709236e-10  -2.6182915e-02   5.1416147e+00   6.7028008e-01  -1.6704396e+08
   2.7809270e-10  -2.6016293e-02   5.1322687e+00   6.7779306e-01  -1.6609034e+08
   2.7909303e-10  -2.5850623e-02   5.1229136e+00   6.8533599e-01  -1.6514065e+08
   2.8009336e-10  -2.5685900e-02   5.1135502e+00   6.9290829e-01  -1.6419489e+08
   2.8109370e-10  -2.5522122e-02   5.1041789e+00   7.0050937e-01  -1.6325305e+08
   2.8209403e-10  -2.5359284e-02   5.0948004e+00   7.0813865e-01  -1.6231515e+08
   2.8309436e-10  -2.5197383e-02   5.0854154e+00   7.1579552e-01  -1.6138119e+08
   2.8409470e-10  -2.5036413e-02   5.0760245e+00   7.2347938e-01  -1.6045117e+08
   2.8509503e-10  -2.4876372e-02   5.0666283e+00   7.3118964e-01  -1.5952509e+08
   2.8609537e-10  -2.4717256e-02   5.0572274e+00   7.3892568e-01  -1.5860296e+08
   2.8709570e-10  -2.4559060e-02   5.0478225e+00   7.4668692e-01  -1.5768478e+08
   2.8809603e-10  -2.4401780e-02   5.0384142e+00   7.5447273e-01  -1.5677055e+08
   2.8909637e-10  -2.4245413e-02   5.0290030e+00   7.6228250e-01  -1.5586028e+08
   2.9009670e-10  -2.4089954e-02   5.0195896e+00   7.7011563e-01  -1.5495395e+08
   2.9109703e-10  -2.3935400e-02   5.0101746e+00   7.7797150e-01  -1.5405158e+08
   2.9209737e-10  -2.3781747e-02   5.0007587e+00   7.8584950e-01  -1.5315317e+08
   2.9309770e-10  -2.3628991e-02   4.9913423e+00   7.9374901e-01  -1.5225871e+08
   2.9409803e-10  -2.3477127e-02   4.9819262e+00   8.0166941e-01  -1.5136822e+08
   2.9509837e-10  -2.3326152e-02   4.9725108e+00   8.0961008e-01  -1.5048167e+08
   2.9609870e-10  -2.3176062e-02   4.9630969e+00   8.1757041e-01  -1.4959909e+08
   2.9709903e-10  -2.3026853e-02   4.9536849e+00   8.2554979e-01  -1.4872046e+08
   2.9809937e-10  -2.2878521e-02   4.9442756e+00   8.3354758e-01  -1.4784579e+08
   2.9909970e-10  -2.2731062e-02   4.9348693e+00   8.4156317e-01  -1.4697507e+08
   3.0010003e-10  -2.2584472e-02   4.9254668e+00   8.4959594e-01  -1.4610831e+08
   3.0110037e-10  -2.2438747e-02   4.9160687e+00   8.5764528e-01  -1.4524550e+08
   3.0210070e-10  -2.2293883e-02   4.9066753e+00   8.6571056e-01  -1.4438663e+08
   3.0310103e-10  -2.2149876e-02   4.8972875e+00   8.7379117e-01  -1.4353172e+08
   3.0410137e-10  -2.2006722e-02   4.8879056e+00   8.8188649e-01  -1.4268076e+08
   3.0510170e-10  -2.1864418e-02   4.8785302e+00   8.8999591e-01  -1.4183373e+08
   3.0610203e-10  -2.1722959e-02   4.8691620e+00   8.9811882e-01  -1.4099065e+08
   3.0710237e-10  -2.1582341e-02   4.8598014e+00   9.0625459e-01  -1.4015151e+08
   3.0810270e-10  -2.1442561e-02   4.8504490e+00   9.1440263e-01  -1.3931631e+08
   3.0910303e-10  -2.1303615e-02   4.8411053e+00   9.2256232e-01  -1.3848503e+08
   3.1010337e-10  -2.1165498e-02   4.8317709e+00   9.3073305e-01  -1.3765769e+08
   3.1110370e-10  -2.1028206e-02   4.8224463e+00   9.3891421e-01  -1.3683426e+08
   3.1210403e-10  -2.0891737e-02   4.8131319e+00   9.4710522e-01  -1.3601476e+08
   3.1310437e-10  -2.0756085e-02   4.8038284e+00   9.5530545e-01  -1.3519918e+08
   3.1410470e-10  -2.0621247e-02   4.7945362e+00   9.6351432e-01  -1.3438751e+08
   3.1510504e-10  -2.0487219e-02   4.7852558e+00   9.7173123e-01  -1.3357974e+08
   3.1610537e-10  -2.0353997e-02   4.7759877e+00   9.7995559e-01  -1.3277588e+08
   3.1710570e-10  -2.0221578e-02   4.7667324e+00   9.8818681e-01  -1.3197591e+08
   3.1810604e-10  -2.0089956e-02   4.7574905e+00   9.9642429e-01  -1.3117984e+08
   3.1910637e-10  -1.9959129e-02   4.7482623e+00   1.0046675e+00  -1.3038765e+08
   3.2010670e-10  -1.9829093e-02   4.7390484e+00   1.0129157e+00  -1.2959934e+08
   3.2110704e-10  -1.9699843e-02   4.7298492e+00   1.0211685e+00  -1.2881491e+08
   3.2210737e-10  -1.9571376e-02   4.7206652e+00   1.0294253e+00  -1.2803434e+08
   3.2310770e-10  -1.9443688e-02   4.7114968e+00   1.0376854e+00  -1.2725764e+08
   3.2410804e-10  -1.9316774e-02   4.7023445e+00   1.0459484e+00  -1.2648480e+08
   3.2510837e-10  -1.9190632e-02   4.6932088e+00   1.0542136e+00  -1.2571580e+08
   3.2610870e-10  -1.9065258e-02   4.6840901e+00   1.0624805e+00  -1.2495065e+08
   3.2710904e-10  -1.8940646e-02   4.6749887e+00   1.0707486e+00  -1.2418933e+08
   3.2810937e-10  -1.8816795e-02   4.6659053e+00   1.0790172e+00  -1.2343184e+08
   3.2910970e-10  -1.8693699e-02   4.6568400e+00   1.0872859e+00  -1.2267817e+08
   3.3011004e-10  -1.8571356e-02   4.6477935e+00   1.0955541e+00  -1.2192831e+08
   3.3111037e-10  -1.8449760e-02   4.6387660e+00   1.1038212e+00  -1.2118226e+08
   3.3211070e-10  -1.8328909e-02   4.6297581e+00   1.1120868e+00  -1.2044000e+08
   3.3311104e-10  -1.8208799e-02   4.6207700e+00   1.1203503e+00  -1.1970154e+08
   3.3411137e-10  -1.8089425e-02   4.6118022e+00   1.1286112e+00  -1.1896686e+08
   3.3511170e-10  -1.7970784e-02   4.6028550e+00   1.1368689e+00  -1.1823595e+08
   3.3611204e-10  -1.7852873e-02   4.5939289e+00   1.1451230e+00  -1.1750880e+08
   3.3711237e-10  -1.7735687e-02   4.5850241e+00   1.1533730e+00  -1.1678541e+08
   3.3811270e-10  -1.7619223e-02   4.5761412e+00   1.1616183e+00  -1.1606577e+08
   3.3911304e-10  -1.7503477e-02   4.5672804e+00   1.1698584e+00  -1.1534987e+08
   3.4011337e-10  -1.7388445e-02   4.5584420e+00   1.1780928e+00  -1.1463769e+08
   3.4111370e-10  -1.7274124e-02   4.5496265e+00   1.1863211e+00  -1.1392924e+08
   3.4211404e-10  -1.7160510e-02   4.5408341e+00   1.1945428e+00  -1.1322449e+08
   3.4311437e-10  -1.7047598e-02   4.5320652e+00   1.2027574e+00  -1.1252345e+08
   3.4411470e-10  -1.6935386e-02   4.5233202e+00   1.2109644e+00  -1.1182609e+08
   3.4511504e-10  -1.6823870e-02   4.5145993e+00   1.2191634e+00  -1.1113242e+08
   3.4611537e-10  -1.6713046e-02   4.5059028e+00   1.2273538e+00  -1.1044242e+08
   3.4711571e-10  -1.6602911e-02   4.4972311e+00   1.2355353e+00  -1.0975608e+08
   3.4811604e-10  -1.6493460e-02   4.4885845e+00   1.2437074e+00  -1.0907340e+08
   3.4911637e-10  -1.6384690e-02   4.4799632e+00   1.2518697e+00  -1.0839435e+08
   3.5011671e-10  -1.6276597e-02   4.4713676e+00   1.2600216e+00  -1.0771894e+08
   3.5111704e-10  -1.6169179e-02   4.4627979e+00   1.2681628e+00  -1.0704714e+08
   3.5211737e-10  -1.6062431e-02   4.4542544e+00   1.2762928e+00  -1.0637896e+08
   3.5311771e-10  -1.5956349e-02   4.4457374e+00   1.2844113e+00  -1.0571437e+08
   3.5411804e-10  -1.5850930e-02   4.4372471e+00   1.2925178e+00  -1.0505337e+08
   3.5511837e-10  -1.5746171e-02   4.4287838e+00   1.3006118e+00  -1.0439595e+08
   3.5611871e-10  -1.5642067e-02   4.4203478e+00   1.3086930e+00  -1.0374210e+08
   3.5711904e-10  -1.5538616e-02   4.4119393e+00   1.3167611e+00  -1.0309180e+08
   3.5811937e-10  -1.5435814e-02   4.4035585e+00   1.3248155e+00  -1.0244504e+08
   3.5911971e-10  -1.5333657e-02   4.3952057e+00   1.3328559e+00  -1.0180182e+08
   3.6012004e-10  -1.5232141e-02   4.3868811e+00   1.3408819e+00  -1.0116211e+08
   3.6112037e-10  -1.5131264e-02   4.3785849e+00   1.3488932e+00  -1.0052592e+08
   3.6212071e-10  -1.5031021e-02   4.3703173e+00   1.3568893e+00  -9.9893228e+07
   3.6312104e-10  -1.4931410e-02   4.3620786e+00   1.3648700e+00  -9.9264020e+07
   3.6412137e-10  -1.4832426e-02   4.3538690e+00   1.3728348e+00  -9.8638287e+07
   3.6512171e-10  -1.4734066e-02   4.3456886e+00   1.3807834e+00  -9.8016017e+07
   3.6612204e-10  -1.4636327e-02   4.3375376e+00   1.3887155e+00  -9.7397197e+07
   3.6712237e-10  -1.4539206e-02   4.3294163e+00   1.3966306e+00  -9.6781817e+07
   3.6812271e-10  -1.4442698e-02   4.3213248e+00   1.4045285e+00  -9.6169864e+07
   3.6912304e-10  -1.4346801e-02   4.3132633e+00   1.4124089e+00  -9.5561326e+07
   3.7012337e-10  -1.4251510e-02   4.3052320e+00   1.4202714e+00  -9.4956190e+07
   3.7112371e-10  -1.4156824e-02   4.2972310e+00   1.4281156e+00  -9.4354445e+07
   3.7212404e-10  -1.4062738e-02   4.2892605e+00   1.4359414e+00  -9.3756078e+07
   3.7312437e-10  -1.3969248e-02   4.2813206e+00   1.4437483e+00  -9.3161077e+07
   3.7412471e-10  -1.3876352e-02   4.2734115e+00   1.4515361e+00  -9.2569429e+07
   3.7512504e-10  -1.3784046e-02   4.2655334e+00   1.4593045e+00  -9.1981122e+07
   3.7612538e-10  -1.3692327e-02   4.2576864e+00   1.4670532e+00  -9.1396143e+07
   3.7712571e-10  -1.3601192e-02   4.2498705e+00   1.4747818e+00  -9.0814480e+07
   3.7812604e-10  -1.3510637e-02   4.2420861e+00   1.4824902e+00  -9.0236120e+07
   3.7912638e-10  -1.3420659e-02   4.2343331e+00   1.4901781e+00  -8.9661050e+07
   3.8012671e-10  -1.3331254e-02   4.2266116e+00   1.4978451e+00  -8.9089258e+07
   3.8112704e-10  -1.3242420e-02   4.2189219e+00   1.5054910e+00  -8.8520731e+07
   3.8212738e-10  -1.3154152e-02   4.2112640e+00   1.5131156e+00  -8.7955456e+07
   3.8312771e-10  -1.3066449e-02   4.2036380e+00   1.5207186e+00  -8.7393420e+07
   3.8412804e-10  -1.2979306e-02   4.1960440e+00   1.5282998e+00  -8.6834610e+07
   3.8512838e-10  -1.2892721e-02   4.1884822e+00   1.5358589e+00  -8.6279014e+07
   3.8612871e-10  -1.2806689e-02   4.1809525e+00   1.5433957e+00  -8.5726617e+07
   3.8712904e-10  -1.2721209e-02   4.1734551e+00   1.5509099e+00  -8.5177408e+07
   3.8812938e-10  -1.2636277e-02   4.1659901e+00   1.5584014e+00  -8.4631373e+07
   3.8912971e-10  -1.2551889e-02   4.1585576e+00   1.5658698e+00  -8.4088499e+07
   3.9013004e-10  -1.2468043e-02   4.1511575e+00   1.5733151e+00  -8.3548773e+07
   3.9113038e-10  -1.2384735e-02   4.1437901e+00   1.5807370e+00  -8.3012182e+07
   3.9213071e-10  -1.2301962e-02   4.1364553e+00   1.5881352e+00  -8.2478712e+07
   3.9313104e-10  -1.2219721e-02   4.1291532e+00   1.5955097e+00  -8.1948351e+07
   3.9413138e-10  -1.2138009e-02   4.1218839e+00   1.6028601e+00  -8.1421085e+07
   3.9513171e-10  -1.2056824e-02   4.1146474e+00   1.6101863e+00  -8.0896901e+07
   3.9613204e-10  -1.1976161e-02   4.1074438e+00   1.6174882e+00  -8.0375785e+07
   3.9713238e-10  -1.1896018e-02   4.1002730e+00   1.6247655e+00  -7.9857725e+07
   3.9813271e-10  -1.1816391e-02   4.0931353e+00   1.6320180e+00  -7.9342707e+07
   3.9913304e-10  -1.1737278e-02   4.0860305e+00   1.6392457e+00  -7.8830717e+07
   4.0013338e-10  -1.1658676e-02   4.0789587e+00   1.6464483e+00  -7.8321744e+07
   4.0113371e-10  -1.1580581e-02   4.0719200e+00   1.6536256e+00  -7.7815772e+07
   4.0213404e-10  -1.1502992e-02   4.0649143e+00   1.6607776e+00  -7.7312788e+07
   4.0313438e-10  -1.1425903e-02   4.0579417e+00   1.6679041e+00  -7.6812781e+07
   4.0413471e-10  -1.1349314e-02   4.0510023e+00   1.6750048e+00  -7.6315735e+07
   4.0513505e-10  -1.1273220e-02   4.0440959e+00   1.6820798e+00  -7.5821637e+07
   4.0613538e-10  -1.1197619e-02   4.0372227e+00   1.6891288e+00  -7.5330475e+07
   4.0713571e-10  -1.1122508e-02   4.0303826e+00   1.6961517e+00  -7.4842235e+07
   4.0813605e-10  -1.1047884e-02   4.0235756e+00   1.7031484e+00  -7.4356903e+07
   4.0913638e-10  -1.0973743e-02   4.0168018e+00   1.7101187e+00  -7.3874466e+07
   4.1013671e-10  -1.0900084e-02   4.0100612e+00   1.7170626e+00  -7.3394910e+07
   4.1113705e-10  -1.0826904e-02   4.0033536e+00   1.7239800e+00  -7.2918223e+07
   4.1213738e-10  -1.0754198e-02   3.9966792e+00   1.7308706e+00  -7.2444390e+07
   4.1313771e-10  -1.0681966e-02   3.9900378e+00   1.7377345e+00  -7.1973399e+07
   4.1413805e-10  -1.0610203e-02   3.9834296e+00   1.7445714e+00  -7.1505236e+07
   4.1513838e-10  -1.0538907e-02   3.9768544e+00   1.7513814e+00  -7.1039887e+07
   4.1613871e-10  -1.0468075e-02   3.9703123e+00   1.7581643e+00  -7.0577340e+07
   4.1713905e-10  -1.0397704e-02   3.9638032e+00   1.7649200e+00  -7.0117580e+07
   4.1813938e-10  -1.0327792e-02   3.9573271e+00   1.7716484e+00  -6.9660595e+07
   4.1913971e-10  -1.0258335e-02   3.9508840e+00   1.7783495e+00  -6.9206371e+07
   4.2014005e-10  -1.0189332e-02   3.9444738e+00   1.7850232e+00  -6.8754895e+07
   4.2114038e-10  -1.0120779e-02   3.9380965e+00   1.7916694e+00  -6.8306153e+07
   4.2214071e-10  -1.0052673e-02   3.9317520e+00   1.7982880e+00  -6.7860132e+07
   4.2314105e-10  -9.9850124e-03   3.9254404e+00   1.8048790e+00  -6.7416819e+07
   4.2414138e-10  -9.9177937e-03   3.9191615e+00   1.8114423e+00  -6.6976201e+07
   4.2514171e-10  -9.8510144e-03   3.9129154e+00   1.8179779e+00  -6.6538263e+07
   4.2614205e-10  -9.7846719e-03   3.9067019e+00   1.8244856e+00  -6.6102994e+07
   4.2714238e-10  -9.7187634e-03   3.9005211e+00   1.8309654e+00  -6.5670379e+07
   4.2814271e-10  -9.6532864e-03   3.8943729e+00   1.8374174e+00  -6.5240406e+07
   4.2914305e-10  -9.5882382e-03   3.8882571e+00   1.8438413e+00  -6.4813061e+07
   4.3014338e-10  -9.5236162e-03   3.8821739e+00   1.8502373e+00  -6.4388331e+07
   4.3114371e-10  -9.4594178e-03   3.8761230e+00   1.8566052e+00  -6.3966203e+07
   4.3214405e-10  -9.3956403e-03   3.8701045e+00   1.8629450e+00  -6.3546664e+07
   4.3314438e-10  -9.3322812e-03   3.8641182e+00   1.8692567e+00  -6.3129700e+07
   4.3414471e-10  -9.2693379e-03   3.8581642e+00   1.8755403e+00  -6.2715298e+07
   4.3514505e-10  -9.2068079e-03   3.8522423e+00   1.8817957e+00  -6.2303446e+07
   4.3614538e-10  -9.1446886e-03   3.8463525e+00   1.8880229e+00  -6.1894131e+07
   4.3714572e-10  -9.0829775e-03   3.8404946e+00   1.8942219e+00  -6.1487339e+07
   4.3814605e-10  -9.0216721e-03   3.8346687e+00   1.9003926e+00  -6.1083056e+07
   4.3914638e-10  -8.9607699e-03   3.8288747e+00   1.9065351e+00  -6.0681272e+07
   4.4014672e-10  -8.9002683e-03   3.8231124e+00   1.9126494e+00  -6.0281971e+07
   4.4114705e-10  -8.8401649e-03   3.8173818e+00   1.9187353e+00  -5.9885142e+07
   4.4214738e-10  -8.7804572e-03   3.8116829e+00   1.9247930e+00  -5.9490772e+07
   4.4314772e-10  -8.7211428e-03   3.8060155e+00   1.9308224e+00  -5.9098847e+07
   4.4414805e-10  -8.6622193e-03   3.8003795e+00   1.9368235e+00  -5.8709355e+07
   4.4514838e-10  -8.6036842e-03   3.7947749e+00   1.9427963e+00  -5.8322283e+07
   4.4614872e-10  -8.5455350e-03   3.7892015e+00   1.9487409e+00  -5.7937619e+07
   4.4714905e-10  -8.4877695e-03   3.7836594e+00   1.9546571e+00  -5.7555348e+07
   4.4814938e-10  -8.4303852e-03   3.7781483e+00   1.9605451e+00  -5.7175460e+07
   4.4914972e-10  -8.3733797e-03   3.7726683e+00   1.9664049e+00  -5.6797941e+07
   4.5015005e-10  -8.3167506e-03   3.7672191e+00   1.9722364e+00  -5.6422778e+07
   4.5115038e-10  -8.2604957e-03   3.7618008e+00   1.9780397e+00  -5.6049958e+07
   4.5215072e-10  -8.2046125e-03   3.7564132e+00   1.9838147e+00  -5.5679471e+07
   4.5315105e-10  -8.1490988e-03   3.7510563e+00   1.9895616e+00  -5.5311301e+07
   4.5415138e-10  -8.0939523e-03   3.7457298e+00   1.9952804e+00  -5.4945438e+07
   4.5515172e-10  -8.0391706e-03   3.7404338e+00   2.0009710e+00  -5.4581869e+07
   4.5615205e-10  -7.9847514e-03   3.7351682e+00   2.0066335e+00  -5.4220581e+07
   4.5715238e-10  -7.9306925e-03   3.7299327e+00   2.0122679e+00  -5.3861561e+07
   4.5815272e-10  -7.8769916e-03   3.7247274e+00   2.0178742e+00  -5.3504799e+07
   4.5915305e-10  -7.8236464e-03   3.7195521e+00   2.0234526e+00  -5.3150280e+07
   4.6015338e-10  -7.7706548e-03   3.7144068e+00   2.0290029e+00  -5.2797993e+07
   4.6115372e-10  -7.7180145e-03   3.7092912e+00   2.0345254e+00  -5.2447926e+07
   4.6215405e-10  -7.6657233e-03   3.7042053e+00   2.0400199e+00  -5.2100066e+07
   4.6315438e-10  -7.6137789e-03   3.6991491e+00   2.0454865e+00  -5.1754402e+07
   4.6415472e-10  -7.5621792e-03   3.6941223e+00   2.0509254e+00  -5.1410920e+07
   4.6515505e-10  -7.5109220e-03   3.6891250e+00   2.0563364e+00  -5.1069610e+07
   4.6615539e-10  -7.4600052e-03   3.6841569e+00   2.0617198e+00  -5.0730458e+07
   4.6715572e-10  -7.4094266e-03   3.6792179e+00   2.0670754e+00  -5.0393454e+07
   4.6815605e-10  -7.3591840e-03   3.6743081e+00   2.0724034e+00  -5.0058584e+07
   4.6915639e-10  -7.3092753e-03   3.6694271e+00   2.0777039e+00  -4.9725837e+07
   4.7015672e-10  -7.2596985e-03   3.6645750e+00   2.0829768e+00  -4.9395202e+07
   4.7115705e-10  -7.2104513e-03   3.6597516e+00   2.0882223e+00  -4.9066666e+07
   4.7215739e-10  -7.1615317e-03   3.6549568e+00   2.0934403e+00  -4.8740217e+07
   4.7315772e-10  -7.1129376e-03   3.6501905e+00   2.0986310e+00  -4.8415844e+07
   4.7415805e-10  -7.0646670e-03   3.6454525e+00   2.1037944e+00  -4.8093534e+07
   4.7515839e-10  -7.0167178e-03   3.6407428e+00   2.1089305e+00  -4.7773278e+07
   4.7615872e-10  -6.9690879e-03   3.6360613e+00   2.1140395e+00  -4.7455061e+07
   4.7715905e-10  -6.9217754e-03   3.6314077e+00   2.1191214e+00  -4.7138874e+07
   4.7815939e-10  -6.8747781e-03   3.6267821e+00   2.1241762e+00  -4.6824704e+07
   4.7915972e-10  -6.8280941e-03   3.6221842e+00   2.1292041e+00  -4.6512541e+07
   4.8016005e-10  -6.7817213e-03   3.6176140e+00   2.1342050e+00  -4.6202372e+07
   4.8116039e-10  -6.7356578e-03   3.6130714e+00   2.1391791e+00  -4.5894186e+07
   4.8216072e-10  -6.6899017e-03   3.6085562e+00   2.1441264e+00  -4.5587971e+07
   4.8316105e-10  -6.6444508e-03   3.6040683e+00   2.1490470e+00  -4.5283717e+07
   4.8416139e-10  -6.5993034e-03   3.5996075e+00   2.1539410e+00  -4.4981413e+07
   4.8516172e-10  -6.5544574e-03   3.5951739e+00   2.1588085e+00  -4.4681046e+07
   4.8616205e-10  -6.5099109e-03   3.5907672e+00   2.1636494e+00  -4.4382606e+07
   4.8716239e-10  -6.4656619e-03   3.5863873e+00   2.1684640e+00  -4.4086081e+07
   4.8816272e-10  -6.4217087e-03   3.5820341e+00   2.1732522e+00  -4.3791461e+07
   4.8916305e-10  -6.3780492e-03   3.5777075e+00   2.1780142e+00  -4.3498734e+07
   4.9016339e-10  -6.3346816e-03   3.5734073e+00   2.1827500e+00  -4.3207889e+07
   4.9116372e-10  -6.2916039e-03   3.5691335e+00   2.1874597e+00  -4.2918916e+07
   4.9216405e-10  -6.2488145e-03   3.5648859e+00   2.1921434e+00  -4.2631804e+07
   4.9316439e-10  -6.2063113e-03   3.5606644e+00   2.1968011e+00  -4.2346541e+07
   4.9416472e-10  -6.1640925e-03   3.5564689e+00   2.2014331e+00  -4.2063116e+07
   4.9516506e-10  -6.1221564e-03   3.5522992e+00   2.2060392e+00  -4.1781520e+07
   4.9616539e-10  -6.0805010e-03   3.5481552e+00   2.2106197e+00  -4.1501741e+07
   4.9716572e-10  -6.0391246e-03   3.5440369e+00   2.2151746e+00  -4.1223769e+07
   4.9816606e-10  -5.9980254e-03   3.5399440e+00   2.2197039e+00  -4.0947592e+07
   4.9916639e-10  -5.9572015e-03   3.5358765e+00   2.2242079e+00  -4.0673201e+07
   5.0016672e-10  -5.9166513e-03   3.5318342e+00   2.2286865e+00  -4.0400584e+07
   5.0116706e-10  -5.8763728e-03   3.5278170e+00   2.2331398e+00  -4.0129732e+07
   5.0216739e-10  -5.8363645e-03   3.5238248e+00   2.2375680e+00  -3.9860634e+07
   5.0316772e-10  -5.7966244e-03   3.5198574e+00   2.2419711e+00  -3.9593279e+07
   5.0416806e-10  -5.7571509e-03   3.5159148e+00   2.2463492e+00  -3.9327657e+07
   5.0516839e-10  -5.7179423e-03   3.5119968e+00   2.2507025e+00  -3.9063757e+07
   5.0616872e-10  -5.6789968e-03   3.5081033e+00   2.2550309e+00  -3.8801570e+07
   5.0716906e-10  -5.6403127e-03   3.5042342e+00   2.2593347e+00  -3.8541086e+07
   5.0816939e-10  -5.6018884e-03   3.5003893e+00   2.2636138e+00  -3.8282293e+07
   5.0916972e-10  -5.5637220e-03   3.4965685e+00   2.2678684e+00  -3.8025182e+07
   5.1017006e-10  -5.5258121e-03   3.4927717e+00   2.2720985e+00  -3.7769744e+07
   5.1117039e-10  -5.4881568e-03   3.4889988e+00   2.2763043e+00  -3.7515966e+07
   5.1217072e-10  -5.4507546e-03   3.4852497e+00   2.2804859e+00  -3.7263841e+07
   5.1317106e-10  -5.4136037e-03   3.4815242e+00   2.2846434e+00  -3.7013358e+07
   5.1417139e-10  -5.3767026e-03   3.4778221e+00   2.2887767e+00  -3.6764506e+07
   5.1517172e-10  -5.3400497e-03   3.4741435e+00   2.2928861e+00  -3.6517277e+07
   5.1617206e-10  -5.3036432e-03   3.4704881e+00   2.2969717e+00  -3.6271660e+07
   5.1717239e-10  -5.2674816e-03   3.4668559e+00   2.3010335e+00  -3.6027646e+07
   5.1817272e-10  -5.2315633e-03   3.4632467e+00   2.3050716e+00  -3.5785224e+07
   5.1917306e-10  -5.1958868e-03   3.4596603e+00   2.3090862e+00  -3.5544386e+07
   5.2017339e-10  -5.1604503e-03   3.4560968e+00   2.3130772e+00  -3.5305121e+07
   5.2117372e-10  -5.1252525e-03   3.4525559e+00   2.3170449e+00  -3.5067421e+07
   5.2217406e-10  -5.0902916e-03   3.4490375e+00   2.3209893e+00  -3.4831275e+07
   5.2317439e-10  -5.0555662e-03   3.4455415e+00   2.3249106e+00  -3.4596674e+07
   5.2417472e-10  -5.0210747e-03   3.4420678e+00   2.3288087e+00  -3.4363608e+07
   5.2517506e-10  -4.9868155e-03   3.4386163e+00   2.3326839e+00  -3.4132069e+07
   5.2617539e-10  -4.9527872e-03   3.4351868e+00   2.3365362e+00  -3.3902047e+07
   5.2717573e-10  -4.9189883e-03   3.4317793e+00   2.3403657e+00  -3.3673532e+07
   5.2817606e-10  -4.8854172e-03   3.4283935e+00   2.3441725e+00  -3.3446516e+07
   5.2917639e-10  -4.8520725e-03   3.4250295e+00   2.3479567e+00  -3.3220989e+07
   5.3017673e-10  -4.8189526e-03   3.4216870e+00   2.3517184e+00  -3.2996942e+07
   5.3117706e-10  -4.7860561e-03   3.4183659e+00   2.3554578e+00  -3.2774366e+07
   5.3217739e-10  -4.7533815e-03   3.4150662e+00   2.3591748e+00  -3.2553252e+07
   5.3317773e-10  -4.7209274e-03   3.4117877e+00   2.3628697e+00  -3.2333591e+07
   5.3417806e-10  -4.6886923e-03   3.4085303e+00   2.3665425e+00  -3.2115374e+07
   5.3517839e-10  -4.6566748e-03   3.4052938e+00   2.3701933e+00  -3.1898591e+07
   5.3617873e-10  -4.6248734e-03   3.4020782e+00   2.3738222e+00  -3.1683235e+07
   5.3717906e-10  -4.5932867e-03   3.3988834e+00   2.3774293e+00  -3.1469297e+07
   5.3817939e-10  -4.5619133e-03   3.3957091e+00   2.3810148e+00  -3.1256767e+07
   5.3917973e-10  -4.5307518e-03   3.3925554e+00   2.3845786e+00  -3.1045637e+07
   5.4018006e-10  -4.4998009e-03   3.3894221e+00   2.3881210e+00  -3.0835897e+07
   5.4118039e-10  -4.4690590e-03   3.3863090e+00   2.3916420e+00  -3.0627541e+07
   5.4218073e-10  -4.4385249e-03   3.3832161e+00   2.3951417e+00  -3.0420558e+07
   5.4318106e-10  -4.4081972e-03   3.3801432e+00   2.3986202e+00  -3.0214941e+07
   5.4418139e-10  -4.3780744e-03   3.3770903e+00   2.4020777e+00  -3.0010681e+07
   5.4518173e-10  -4.3481553e-03   3.3740571e+00   2.4055142e+00  -2.9807769e+07
   5.4618206e-10  -4.3184386e-03   3.3710437e+00   2.4089297e+00  -2.9606197e+07
   5.4718239e-10  -4.2889228e-03   3.3680498e+00   2.4123246e+00  -2.9405957e+07
   5.4818273e-10  -4.2596066e-03   3.3650754e+00   2.4156987e+00  -2.9207040e+07
   5.4918306e-10  -4.2304888e-03   3.3621204e+00   2.4190523e+00  -2.9009438e+07
   5.5018339e-10  -4.2015679e-03   3.3591846e+00   2.4223854e+00  -2.8813143e+07
   5.5118373e-10  -4.1728428e-03   3.3562680e+00   2.4256981e+00  -2.8618146e+07
   5.5218406e-10  -4.1443121e-03   3.3533703e+00   2.4289905e+00  -2.8424440e+07
   5.5318439e-10  -4.1159746e-03   3.3504916e+00   2.4322628e+00  -2.8232016e+07
   5.5418473e-10  -4.0878288e-03   3.3476317e+00   2.4355150e+00  -2.8040867e+07
   5.5518506e-10  -4.0598737e-03   3.3447905e+00   2.4387472e+00  -2.7850984e+07
   5.5618540e-10  -4.0321079e-03   3.3419678e+00   2.4419596e+00  -2.7662359e+07
   5.5718573e-10  -4.0045301e-03   3.3391636e+00   2.4451522e+00  -2.7474985e+07
   5.5818606e-10  -3.9771392e-03   3.3363778e+00   2.4483251e+00  -2.7288853e+07
   5.5918640e-10  -3.9499338e-03   3.3336102e+00   2.4514784e+00  -2.7103956e+07
   5.6018673e-10  -3.9229128e-03   3.3308608e+00   2.4546123e+00  -2.6920286e+07
   5.6118706e-10  -3.8960749e-03   3.3281294e+00   2.4577268e+00  -2.6737835e+07
   5.6218740e-10  -3.8694189e-03   3.3254159e+00   2.4608220e+00  -2.6556595e+07
   5.6318773e-10  -3.8429436e-03   3.3227203e+00   2.4638981e+00  -2.6376559e+07
   5.6418806e-10  -3.8166478e-03   3.3200423e+00   2.4669550e+00  -2.6197719e+07
   5.6518840e-10  -3.7905303e-03   3.3173820e+00   2.4699930e+00  -2.6020068e+07
   5.6618873e-10  -3.7645899e-03   3.3147391e+00   2.4730121e+00  -2.5843598e+07
   5.6718906e-10  -3.7388254e-03   3.3121137e+00   2.4760125e+00  -2.5668301e+07
   5.6818940e-10  -3.7132358e-03   3.3095055e+00   2.4789941e+00  -2.5494170e+07
   5.6918973e-10  -3.6878197e-03   3.3069146e+00   2.4819572e+00  -2.5321198e+07
   5.7019006e-10  -3.6625761e-03   3.3043407e+00   2.4849018e+00  -2.5149378e+07
   5.7119040e-10  -3.6375038e-03   3.3017838e+00   2.4878280e+00  -2.4978701e+07
   5.7219073e-10  -3.6126017e-03   3.2992437e+00   2.4907359e+00  -2.4809161e+07
   5.7319106e-10  -3.5878686e-03   3.2967205e+00   2.4936257e+00  -2.4640750e+07
   5.7419140e-10  -3.5633034e-03   3.2942139e+00   2.4964973e+00  -2.4473462e+07
   5.7519173e-10  -3.5389049e-03   3.2917239e+00   2.4993509e+00  -2.4307288e+07
   5.7619206e-10  -3.5146722e-03   3.2892503e+00   2.5021867e+00  -2.4142223e+07
   5.7719240e-10  -3.4906040e-03   3.2867931e+00   2.5050046e+00  -2.3978258e+07
   5.7819273e-10  -3.4666993e-03   3.2843522e+00   2.5078048e+00  -2.3815387e+07
   5.7919306e-10  -3.4429570e-03   3.2819274e+00   2.5105874e+00  -2.3653603e+07
   5.8019340e-10  -3.4193760e-03   3.2795187e+00   2.5133525e+00  -2.3492899e+07
   5.8119373e-10  -3.3959552e-03   3.2771260e+00   2.5161002e+00  -2.3333268e+07
   5.8219406e-10  -3.3726935e-03   3.2747492e+00   2.5188305e+00  -2.3174703e+07
   5.8319440e-10  -3.3495900e-03   3.2723881e+00   2.5215436e+00  -2.3017197e+07
   5.8419473e-10  -3.3266434e-03   3.2700427e+00   2.5242396e+00  -2.2860743e+07
   5.8519507e-10  -3.3038529e-03   3.2677128e+00   2.5269185e+00  -2.2705335e+07
   5.8619540e-10  -3.2812173e-03   3.2653985e+00   2.5295805e+00  -2.2550966e+07
   5.8719573e-10  -3.2587356e-03   3.2630995e+00   2.5322256e+00  -2.2397629e+07
   5.8819607e-10  -3.2364067e-03   3.2608158e+00   2.5348539e+00  -2.2245318e+07
   5.8919640e-10  -3.2142298e-03   3.2585473e+00   2.5374656e+00  -2.2094025e+07
   5.9019673e-10  -3.1922036e-03   3.2562939e+00   2.5400607e+00  -2.1943745e+07
   5.9119707e-10  -3.1703273e-03   3.2540555e+00   2.5426394e+00  -2.1794471e+07
   5.9219740e-10  -3.1485998e-03   3.2518321e+00   2.5452016e+00  -2.1646197e+07
   5.9319773e-10  -3.1270201e-03   3.2496234e+00   2.5477475e+00  -2.1498915e+07
   5.9419807e-10  -3.1055873e-03   3.2474295e+00   2.5502773e+00  -2.1352620e+07
   5.9519840e-10  -3.0843003e-03   3.2452502e+00   2.5527909e+00  -2.1207305e+07
   5.9619873e-10  -3.0631582e-03   3.2430854e+00   2.5552885e+00  -2.1062963e+07
   5.9719907e-10  -3.0421600e-03   3.2409351e+00   2.5577701e+00  -2.0919590e+07
   5.9819940e-10  -3.0213048e-03   3.2387991e+00   2.5602359e+00  -2.0777177e+07
   5.9919973e-10  -3.0005915e-03   3.2366774e+00   2.5626860e+00  -2.0635720e+07
   6.0020007e-10  -2.9800193e-03   3.2345699e+00   2.5651203e+00  -2.0495211e+07
   6.0120040e-10  -2.9595871e-03   3.2324765e+00   2.5675392e+00  -2.0355645e+07
   6.0220073e-10  -2.9392941e-03   3.2303970e+00   2.5699425e+00  -2.0217016e+07
   6.0320107e-10  -2.9191393e-03   3.2283315e+00   2.5723304e+00  -2.0079317e+07
   6.0420140e-10  -2.8991218e-03   3.2262798e+00   2.5747030e+00  -1.9942542e+07
   6.0520173e-10  -2.8792406e-03   3.2242418e+00   2.5770604e+00  -1.9806686e+07
   6.0620207e-10  -2.8594949e-03   3.2222175e+00   2.5794026e+00  -1.9671743e+07
   6.0720240e-10  -2.8398837e-03   3.2202067e+00   2.5817299e+00  -1.9537705e+07
   6.0820273e-10  -2.8204061e-03   3.2182095e+00   2.5840421e+00  -1.9404569e+07
   6.0920307e-10  -2.8010613e-03   3.2162256e+00   2.5863395e+00  -1.9272327e+07
   6.1020340e-10  -2.7818483e-03   3.2142550e+00   2.5886221e+00  -1.9140974e+07
   6.1120373e-10  -2.7627663e-03   3.2122976e+00   2.5908900e+00  -1.9010505e+07
   6.1220407e-10  -2.7438144e-03   3.2103533e+00   2.5931432e+00  -1.8880912e+07
   6.1320440e-10  -2.7249916e-03   3.2084221e+00   2.5953820e+00  -1.8752192e+07
   6.1420473e-10  -2.7062972e-03   3.2065039e+00   2.5976063e+00  -1.8624337e+07
   6.1520507e-10  -2.6877302e-03   3.2045985e+00   2.5998162e+00  -1.8497343e+07
   6.1620540e-10  -2.6692899e-03   3.2027060e+00   2.6020119e+00  -1.8371203e+07
   6.1720574e-10  -2.6509753e-03   3.2008261e+00   2.6041933e+00  -1.8245913e+07
   6.1820607e-10  -2.6327856e-03   3.1989589e+00   2.6063607e+00  -1.8121466e+07
   6.1920640e-10  -2.6147200e-03   3.1971043e+00   2.6085140e+00  -1.7997857e+07
   6.2020674e-10  -2.5967776e-03   3.1952621e+00   2.6106534e+00  -1.7875080e+07
   6.2120707e-10  -2.5789576e-03   3.1934323e+00   2.6127790e+00  -1.7753131e+07
   6.2220740e-10  -2.5612592e-03   3.1916148e+00   2.6148907e+00  -1.7632003e+07
   6.2320774e-10  -2.5436816e-03   3.1898096e+00   2.6169888e+00  -1.7511692e+07
   6.2420807e-10  -2.5262239e-03   3.1880165e+00   2.6190732e+00  -1.7392191e+07
   6.2520840e-10  -2.5088853e-03   3.1862355e+00   2.6211441e+00  -1.7273496e+07
   6.2620874e-10  -2.4916651e-03   3.1844665e+00   2.6232016e+00  -1.7155602e+07
   6.2720907e-10  -2.4745624e-03   3.1827094e+00   2.6252457e+00  -1.7038503e+07
   6.2820940e-10  -2.4575765e-03   3.1809642e+00   2.6272764e+00  -1.6922193e+07
   6.2920974e-10  -2.4407065e-03   3.1792307e+00   2.6292940e+00  -1.6806668e+07
   6.3021007e-10  -2.4239517e-03   3.1775089e+00   2.6312985e+00  -1.6691923e+07
   6.3121040e-10  -2.4073113e-03   3.1757988e+00   2.6332898e+00  -1.6577952e+07
   6.3221074e-10  -2.3907845e-03   3.1741001e+00   2.6352683e+00  -1.6464750e+07
   6.3321107e-10  -2.3743705e-03   3.1724130e+00   2.6372338e+00  -1.6352313e+07
   6.3421140e-10  -2.3580687e-03   3.1707372e+00   2.6391864e+00  -1.6240634e+07
   6.3521174e-10  -2.3418782e-03   3.1690727e+00   2.6411264e+00  -1.6129710e+07
   6.3621207e-10  -2.3257983e-03   3.1674195e+00   2.6430537e+00  -1.6019536e+07
   6.3721240e-10  -2.3098282e-03   3.1657775e+00   2.6449684e+00  -1.5910105e+07
   6.3821274e-10  -2.2939672e-03   3.1641465e+00   2.6468705e+00  -1.5801414e+07
   6.3921307e-10  -2.2782146e-03   3.1625266e+00   2.6487603e+00  -1.5693457e+07
   6.4021340e-10  -2.2625696e-03   3.1609176e+00   2.6506376e+00  -1.5586231e+07
   6.4121374e-10  -2.2470315e-03   3.1593195e+00   2.6525027e+00  -1.5479728e+07
   6.4221407e-10  -2.2315995e-03   3.1577322e+00   2.6543556e+00  -1.5373946e+07
   6.4321440e-10  -2.2162731e-03   3.1561556e+00   2.6561963e+00  -1.5268880e+07
   6.4421474e-10  -2.2010514e-03   3.1545897e+00   2.6580250e+00  -1.5164524e+07
   6.4521507e-10  -2.1859337e-03   3.1530344e+00   2.6598417e+00  -1.5060873e+07
   6.4621541e-10  -2.1709193e-03   3.1514897e+00   2.6616464e+00  -1.4957924e+07
   6.4721574e-10  -2.1560076e-03   3.1499554e+00   2.6634394e+00  -1.4855672e+07
   6.4821607e-10  -2.1411979e-03   3.1484314e+00   2.6652205e+00  -1.4754111e+07
   6.4921641e-10  -2.1264893e-03   3.1469178e+00   2.6669900e+00  -1.4653238e+07
   6.5021674e-10  -2.1118814e-03   3.1454145e+00   2.6687478e+00  -1.4553048e+07
   6.5121707e-10  -2.0973733e-03   3.1439213e+00   2.6704940e+00  -1.4453536e+07
   6.5221741e-10  -2.0829644e-03   3.1424383e+00   2.6722288e+00  -1.4354698e+07
   6.5321774e-10  -2.0686541e-03   3.1409653e+00   2.6739522e+00  -1.4256529e+07
   6.5421807e-10  -2.0544417e-03   3.1395023e+00   2.6756642e+00  -1.4159026e+07
   6.5521841e-10  -2.0403264e-03   3.1380492e+00   2.6773650e+00  -1.4062182e+07
   6.5621874e-10  -2.0263077e-03   3.1366060e+00   2.6790545e+00  -1.3965995e+07
   6.5721907e-10  -2.0123849e-03   3.1351726e+00   2.6807330e+00  -1.3870460e+07
   6.5821941e-10  -1.9985573e-03   3.1337489e+00   2.6824003e+00  -1.3775572e+07
   6.5921974e-10  -1.9848243e-03   3.1323348e+00   2.6840567e+00  -1.3681327e+07
   6.6022007e-10  -1.9711853e-03   3.1309304e+00   2.6857021e+00  -1.3587721e+07
   6.6122041e-10  -1.9576396e-03   3.1295355e+00   2.6873367e+00  -1.3494750e+07
   6.6222074e-10  -1.9441866e-03   3.1281500e+00   2.6889604e+00  -1.3402409e+07
   6.6322107e-10  -1.9308257e-03   3.1267740e+00   2.6905735e+00  -1.3310694e+07
   6.6422141e-10  -1.9175561e-03   3.1254073e+00   2.6921759e+00  -1.3219601e+07
   6.6522174e-10  -1.9043774e-03   3.1240499e+00   2.6937677e+00  -1.3129127e+07
   6.6622207e-10  -1.8912889e-03   3.1227017e+00   2.6953490e+00  -1.3039266e+07
   6.6722241e-10  -1.8782900e-03   3.1213627e+00   2.6969198e+00  -1.2950015e+07
   6.6822274e-10  -1.8653801e-03   3.1200328e+00   2.6984802e+00  -1.2861369e+07
   6.6922307e-10  -1.8525585e-03   3.1187119e+00   2.7000303e+00  -1.2773325e+07
   6.7022341e-10  -1.8398247e-03   3.1174000e+00   2.7015702e+00  -1.2685879e+07
   6.7122374e-10  -1.8271781e-03   3.1160971e+00   2.7030998e+00  -1.2599026e+07
   6.7222407e-10  -1.8146180e-03   3.1148029e+00   2.7046193e+00  -1.2512763e+07
   6.7322441e-10  -1.8021440e-03   3.1135176e+00   2.7061287e+00  -1.2427086e+07
   6.7422474e-10  -1.7897554e-03   3.1122411e+00   2.7076281e+00  -1.2341991e+07
   6.7522508e-10  -1.7774516e-03   3.1109732e+00   2.7091176e+00  -1.2257473e+07
   6.7622541e-10  -1.7652321e-03   3.1097139e+00   2.7105972e+00  -1.2173530e+07
   6.7722574e-10  -1.7530962e-03   3.1084632e+00   2.7120670e+00  -1.2090157e+07
   6.7822608e-10  -1.7410435e-03   3.1072211e+00   2.7135270e+00  -1.2007350e+07
   6.7922641e-10  -1.7290733e-03   3.1059873e+00   2.7149773e+00  -1.1925107e+07
   6.8022674e-10  -1.7171852e-03   3.1047620e+00   2.7164180e+00  -1.1843422e+07
   6.8122708e-10  -1.7053784e-03   3.1035451e+00   2.7178491e+00  -1.1762292e+07
   6.8222741e-10  -1.6936525e-03   3.1023364e+00   2.7192707e+00  -1.1681713e+07
   6.8322774e-10  -1.6820070e-03   3.1011359e+00   2.7206828e+00  -1.1601683e+07
   6.8422808e-10  -1.6704413e-03   3.0999437e+00   2.7220856e+00  -1.1522197e+07
   6.8522841e-10  -1.6589547e-03   3.0987595e+00   2.7234790e+00  -1.1443251e+07
   6.8622874e-10  -1.6475469e-03   3.0975834e+00   2.7248631e+00  -1.1364842e+07
   6.8722908e-10  -1.6362173e-03   3.0964154e+00   2.7262381e+00  -1.1286966e+07
   6.8822941e-10  -1.6249653e-03   3.0952553e+00   2.7276038e+00  -1.1209620e+07
   6.8922974e-10  -1.6137904e-03   3.0941031e+00   2.7289605e+00  -1.1132800e+07
   6.9023008e-10  -1.6026921e-03   3.0929587e+00   2.7303081e+00  -1.1056503e+07
   6.9123041e-10  -1.5916699e-03   3.0918222e+00   2.7316468e+00  -1.0980725e+07
   6.9223074e-10  -1.5807232e-03   3.0906934e+00   2.7329765e+00  -1.0905462e+07
   6.9323108e-10  -1.5698515e-03   3.0895723e+00   2.7342973e+00  -1.0830712e+07
   6.9423141e-10  -1.5590543e-03   3.0884589e+00   2.7356094e+00  -1.0756470e+07
   6.9523174e-10  -1.5483312e-03   3.0873531e+00   2.7369127e+00  -1.0682734e+07
   6.9623208e-10  -1.5376816e-03   3.0862548e+00   2.7382073e+00  -1.0609500e+07
   6.9723241e-10  -1.5271050e-03   3.0851640e+00   2.7394932e+00  -1.0536765e+07
   6.9823274e-10  -1.5166009e-03   3.0840806e+00   2.7407706e+00  -1.0464524e+07
   6.9923308e-10  -1.5061688e-03   3.0830046e+00   2.7420394e+00  -1.0392776e+07
   7.0023341e-10  -1.4958082e-03   3.0819360e+00   2.7432997e+00  -1.0321516e+07
   7.0123374e-10  -1.4855187e-03   3.0808747e+00   2.7445517e+00  -1.0250742e+07
   7.0223408e-10  -1.4752997e-03   3.0798206e+00   2.7457952e+00  -1.0180450e+07
   7.0323441e-10  -1.4651509e-03   3.0787737e+00   2.7470304e+00  -1.0110636e+07
   7.0423474e-10  -1.4550716e-03   3.0777340e+00   2.7482574e+00  -1.0041299e+07
   7.0523508e-10  -1.4450614e-03   3.0767014e+00   2.7494762e+00  -9.9724332e+06
   7.0623541e-10  -1.4351199e-03   3.0756758e+00   2.7506868e+00  -9.9040372e+06
   7.0723575e-10  -1.4252466e-03   3.0746572e+00   2.7518893e+00  -9.8361073e+06
   7.0823608e-10  -1.4154410e-03   3.0736456e+00   2.7530837e+00  -9.7686403e+06
   7.0923641e-10  -1.4057026e-03   3.0726409e+00   2.7542702e+00  -9.7016333e+06
   7.1023675e-10  -1.3960311e-03   3.0716431e+00   2.7554487e+00  -9.6350830e+06
   7.1123708e-10  -1.3864259e-03   3.0706521e+00   2.7566193e+00  -9.5689864e+06
   7.1223741e-10  -1.3768866e-03   3.0696678e+00   2.7577821e+00  -9.5033404e+06
   7.1323775e-10  -1.3674127e-03   3.0686903e+00   2.7589370e+00  -9.4381421e+06
   7.1423808e-10  -1.3580038e-03   3.0677195e+00   2.7600843e+00  -9.3733884e+06
   7.1523841e-10  -1.3486595e-03   3.0667553e+00   2.7612238e+00  -9.3090763e+06
   7.1623875e-10  -1.3393793e-03   3.0657977e+00   2.7623557e+00  -9.2452028e+06
   7.1723908e-10  -1.3301628e-03   3.0648466e+00   2.7634800e+00  -9.1817650e+06
   7.1823941e-10  -1.3210095e-03   3.0639021e+00   2.7645967e+00  -9.1187600e+06
   7.1923975e-10  -1.3119191e-03   3.0629640e+00   2.7657060e+00  -9.0561848e+06
   7.2024008e-10  -1.3028910e-03   3.0620323e+00   2.7668078e+00  -8.9940365e+06
   7.2124041e-10  -1.2939249e-03   3.0611070e+00   2.7679022e+00  -8.9323123e+06
   7.2224075e-10  -1.2850203e-03   3.0601880e+00   2.7689892e+00  -8.8710093e+06
   7.2324108e-10  -1.2761768e-03   3.0592754e+00   2.7700690e+00  -8.8101246e+06
   7.2424141e-10  -1.2673940e-03   3.0583689e+00   2.7711415e+00  -8.7496555e+06
   7.2524175e-10  -1.2586715e-03   3.0574687e+00   2.7722068e+00  -8.6895992e+06
   7.2624208e-10  -1.2500089e-03   3.0565746e+00   2.7732649e+00  -8.6299527e+06
   7.2724241e-10  -1.2414057e-03   3.0556866e+00   2.7743159e+00  -8.5707135e+06
   7.2824275e-10  -1.2328616e-03   3.0548048e+00   2.7753598e+00  -8.5118787e+06
   7.2924308e-10  -1.2243761e-03   3.0539289e+00   2.7763967e+00  -8.4534456e+06
   7.3024341e-10  -1.2159489e-03   3.0530591e+00   2.7774267e+00  -8.3954116e+06
   7.3124375e-10  -1.2075796e-03   3.0521952e+00   2.7784497e+00  -8.3377738e+06
   7.3224408e-10  -1.1992677e-03   3.0513372e+00   2.7794658e+00  -8.2805296e+06
   7.3324441e-10  -1.1910129e-03   3.0504851e+00   2.7804751e+00  -8.2236764e+06
   7.3424475e-10  -1.1828147e-03   3.0496388e+00   2.7814776e+00  -8.1672116e+06
   7.3524508e-10  -1.1746729e-03   3.0487983e+00   2.7824733e+00  -8.1111324e+06
   7.3624542e-10  -1.1665869e-03   3.0479636e+00   2.7834623e+00  -8.0554364e+06
   7.3724575e-10  -1.1585565e-03   3.0471346e+00   2.7844447e+00  -8.0001208e+06
   7.3824608e-10  -1.1505812e-03   3.0463113e+00   2.7854204e+00  -7.9451832e+06
   7.3924642e-10  -1.1426607e-03   3.0454936e+00   2.7863896e+00  -7.8906210e+06
   7.4024675e-10  -1.1347946e-03   3.0446815e+00   2.7873522e+00  -7.8364316e+06
   7.4124708e-10  -1.1269825e-03   3.0438750e+00   2.7883084e+00  -7.7826126e+06
   7.4224742e-10  -1.1192241e-03   3.0430740e+00   2.7892581e+00  -7.7291613e+06
   7.4324775e-10  -1.1115189e-03   3.0422785e+00   2.7902014e+00  -7.6760754e+06
   7.4424808e-10  -1.1038667e-03   3.0414885e+00   2.7911383e+00  -7.6233524e+06
   7.4524842e-10  -1.0962670e-03   3.0407038e+00   2.7920689e+00  -7.5709897e+06
   7.4624875e-10  -1.0887195e-03   3.0399246e+00   2.7929932e+00  -7.5189851e+06
   7.4724908e-10  -1.0812239e-03   3.0391506e+00   2.7939113e+00  -7.4673359e+06
   7.4824942e-10  -1.0737797e-03   3.0383820e+00   2.7948232e+00  -7.4160399e+06
   7.4924975e-10  -1.0663867e-03   3.0376187e+00   2.7957289e+00  -7.3650947e+06
   7.5025008e-10  -1.0590445e-03   3.0368606e+00   2.7966285e+00  -7.3144978e+06
   7.5125042e-10  -1.0517528e-03   3.0361076e+00   2.7975221e+00  -7.2642469e+06
   7.5225075e-10  -1.0445111e-03   3.0353599e+00   2.7984096e+00  -7.2143397e+06
   7.5325108e-10  -1.0373192e-03   3.0346173e+00   2.7992911e+00  -7.1647738e+06
   7.5425142e-10  -1.0301766e-03   3.0338797e+00   2.8001666e+00  -7.1155469e+06
   7.5525175e-10  -1.0230832e-03   3.0331473e+00   2.8010362e+00  -7.0666568e+06
   7.5625208e-10  -1.0160385e-03   3.0324198e+00   2.8019000e+00  -7.0181011e+06
   7.5725242e-10  -1.0090422e-03   3.0316973e+00   2.8027579e+00  -6.9698776e+06
   7.5825275e-10  -1.0020940e-03   3.0309798e+00   2.8036100e+00  -6.9219840e+06
   7.5925308e-10  -9.9519352e-04   3.0302672e+00   2.8044563e+00  -6.8744181e+06
   7.6025342e-10  -9.8834046e-04   3.0295595e+00   2.8052970e+00  -6.8271777e+06
   7.6125375e-10  -9.8153450e-04   3.0288567e+00   2.8061319e+00  -6.7802605e+06
   7.6225408e-10  -9.7477531e-04   3.0281587e+00   2.8069612e+00  -6.7336644e+06
   7.6325442e-10  -9.6806257e-04   3.0274654e+00   2.8077849e+00  -6.6873872e+06
   7.6425475e-10  -9.6139597e-04   3.0267769e+00   2.8086029e+00  -6.6414268e+06
   7.6525509e-10  -9.5477519e-04   3.0260932e+00   2.8094155e+00  -6.5957809e+06
   7.6625542e-10  -9.4819991e-04   3.0254141e+00   2.8102226e+00  -6.5504474e+06
   7.6725575e-10  -9.4166982e-04   3.0247397e+00   2.8110242e+00  -6.5054243e+06
   7.6825609e-10  -9.3518462e-04   3.0240699e+00   2.8118203e+00  -6.4607094e+06
   7.6925642e-10  -9.2874399e-04   3.0234047e+00   2.8126111e+00  -6.4163006e+06
   7.7025675e-10  -9.2234764e-04   3.0227441e+00   2.8133965e+00  -6.3721958e+06
   7.7125709e-10  -9.1599525e-04   3.0220880e+00   2.8141766e+00  -6.3283930e+06
   7.7225742e-10  -9.0968653e-04   3.0214365e+00   2.8149514e+00  -6.2848902e+06
   7.7325775e-10  -9.0342118e-04   3.0207894e+00   2.8157210e+00  -6.2416853e+06
   7.7425809e-10  -8.9719890e-04   3.0201467e+00   2.8164853e+00  -6.1987762e+06
   7.7525842e-10  -8.9101939e-04   3.0195084e+00   2.8172445e+00  -6.1561610e+06
   7.7625875e-10  -8.8488237e-04   3.0188746e+00   2.8179985e+00  -6.1138376e+06
   7.7725909e-10  -8.7878754e-04   3.0182451e+00   2.8187474e+00  -6.0718041e+06
   7.7825942e-10  -8.7273462e-04   3.0176199e+00   2.8194912e+00  -6.0300586e+06
   7.7925975e-10  -8.6672331e-04   3.0169990e+00   2.8202300e+00  -5.9885990e+06
   7.8026009e-10  -8.6075333e-04   3.0163823e+00   2.8209637e+00  -5.9474233e+06
   7.8126042e-10  -8.5482440e-04   3.0157699e+00   2.8216925e+00  -5.9065298e+06
   7.8226075e-10  -8.4893624e-04   3.0151617e+00   2.8224164e+00  -5.8659165e+06
   7.8326109e-10  -8.4308857e-04   3.0145577e+00   2.8231353e+00  -5.8255813e+06
   7.8426142e-10  -8.3728110e-04   3.0139578e+00   2.8238493e+00  -5.7855226e+06
   7.8526175e-10  -8.3151357e-04   3.0133620e+00   2.8245585e+00  -5.7457383e+06
   7.8626209e-10  -8.2578570e-04   3.0127704e+00   2.8252629e+00  -5.7062267e+06
   7.8726242e-10  -8.2009722e-04   3.0121828e+00   2.8259625e+00  -5.6669858e+06
   7.8826275e-10  -8.1444786e-04   3.0115992e+00   2.8266574e+00  -5.6280138e+06
   7.8926309e-10  -8.0883735e-04   3.0110197e+00   2.8273475e+00  -5.5893090e+06
   7.9026342e-10  -8.0326543e-04   3.0104441e+00   2.8280330e+00  -5.5508694e+06
   7.9126375e-10  -7.9773182e-04   3.0098725e+00   2.8287138e+00  -5.5126932e+06
   7.9226409e-10  -7.9223628e-04   3.0093048e+00   2.8293899e+00  -5.4747788e+06
   7.9326442e-10  -7.8677853e-04   3.0087410e+00   2.8300615e+00  -5.4371242e+06
   7.9426475e-10  -7.8135832e-04   3.0081811e+00   2.8307285e+00  -5.3997278e+06
   7.9526509e-10  -7.7597539e-04   3.0076250e+00   2.8313910e+00  -5.3625877e+06
   7.9626542e-10  -7.7062948e-04   3.0070727e+00   2.8320490e+00  -5.3257023e+06
   7.9726576e-10  -7.6532034e-04   3.0065243e+00   2.8327025e+00  -5.2890697e+06
   7.9826609e-10  -7.6004773e-04   3.0059796e+00   2.8333515e+00  -5.2526883e+06
   7.9926642e-10  -7.5481138e-04   3.0054386e+00   2.8339962e+00  -5.2165564e+06
   8.0026676e-10  -7.4961105e-04   3.0049014e+00   2.8346364e+00  -5.1806722e+06
   8.0126709e-10  -7.4444650e-04   3.0043679e+00   2.8352723e+00  -5.1450340e+06
   8.0226742e-10  -7.3931747e-04   3.0038380e+00   2.8359039e+00  -5.1096403e+06
   8.0326776e-10  -7.3422373e-04   3.0033118e+00   2.8365312e+00  -5.0744893e+06
   8.0426809e-10  -7.2916503e-04   3.0027892e+00   2.8371542e+00  -5.0395794e+06
   8.0526842e-10  -7.2414113e-04   3.0022701e+00   2.8377730e+00  -5.0049089e+06
   8.0626876e-10  -7.1915180e-04   3.0017547e+00   2.8383876e+00  -4.9704762e+06
   8.0726909e-10  -7.1419679e-04   3.0012428e+00   2.8389979e+00  -4.9362797e+06
   8.0826942e-10  -7.0927587e-04   3.0007344e+00   2.8396042e+00  -4.9023177e+06
   8.0926976e-10  -7.0438880e-04   3.0002295e+00   2.8402063e+00  -4.8685887e+06
   8.1027009e-10  -6.9953537e-04   2.9997281e+00   2.8408043e+00  -4.8350911e+06
   8.1127042e-10  -6.9471532e-04   2.9992301e+00   2.8413982e+00  -4.8018233e+06
   8.1227076e-10  -6.8992844e-04   2.9987355e+00   2.8419881e+00  -4.7687837e+06
   8.1327109e-10  -6.8517450e-04   2.9982444e+00   2.8425740e+00  -4.7359708e+06
   8.1427142e-10  -6.8045327e-04   2.9977566e+00   2.8431559e+00  -4.7033830e+06
   8.1527176e-10  -6.7576452e-04   2.9972722e+00   2.8437338e+00  -4.6710189e+06
   8.1627209e-10  -6.7110804e-04   2.9967911e+00   2.8443078e+00  -4.6388768e+06
   8.1727242e-10  -6.6648360e-04   2.9963133e+00   2.8448779e+00  -4.6069552e+06
   8.1827276e-10  -6.6189098e-04   2.9958388e+00   2.8454441e+00  -4.5752528e+06
   8.1927309e-10  -6.5732997e-04   2.9953676e+00   2.8460064e+00  -4.5437678e+06
   8.2027342e-10  -6.5280034e-04   2.9948996e+00   2.8465649e+00  -4.5124990e+06
   8.2127376e-10  -6.4830189e-04   2.9944348e+00   2.8471196e+00  -4.4814447e+06
   8.2227409e-10  -6.4383440e-04   2.9939732e+00   2.8476705e+00  -4.4506036e+06
   8.2327442e-10  -6.3939765e-04   2.9935148e+00   2.8482177e+00  -4.4199741e+06
   8.2427476e-10  -6.3499143e-04   2.9930596e+00   2.8487611e+00  -4.3895549e+06
   8.2527509e-10  -6.3061554e-04   2.9926075e+00   2.8493008e+00  -4.3593445e+06
   8.2627543e-10  -6.2626976e-04   2.9921584e+00   2.8498369e+00  -4.3293415e+06
   8.2727576e-10  -6.2195390e-04   2.9917125e+00   2.8503693e+00  -4.2995444e+06
   8.2827609e-10  -6.1766774e-04   2.9912697e+00   2.8508980e+00  -4.2699519e+06
   8.2927643e-10  -6.1341108e-04   2.9908299e+00   2.8514232e+00  -4.2405625e+06
   8.3027676e-10  -6.0918372e-04   2.9903931e+00   2.8519448e+00  -4.2113749e+06
   8.3127709e-10  -6.0498546e-04   2.9899593e+00   2.8524628e+00  -4.1823877e+06
   8.3227743e-10  -6.0081609e-04   2.9895285e+00   2.8529773e+00  -4.1535995e+06
   8.3327776e-10  -5.9667542e-04   2.9891007e+00   2.8534882e+00  -4.1250090e+06
   8.3427809e-10  -5.9256325e-04   2.9886758e+00   2.8539957e+00  -4.0966147e+06
   8.3527843e-10  -5.8847939e-04   2.9882538e+00   2.8544997e+00  -4.0684155e+06
   8.3627876e-10  -5.8442365e-04   2.9878347e+00   2.8550003e+00  -4.0404099e+06
   8.3727909e-10  -5.8039582e-04   2.9874186e+00   2.8554975e+00  -4.0125966e+06
   8.3827943e-10  -5.7639571e-04   2.9870052e+00   2.8559913e+00  -3.9849743e+06
   8.3927976e-10  -5.7242315e-04   2.9865948e+00   2.8564817e+00  -3.9575417e+06
   8.4028009e-10  -5.6847793e-04   2.9861871e+00   2.8569687e+00  -3.9302975e+06
   8.4128043e-10  -5.6455987e-04   2.9857823e+00   2.8574525e+00  -3.9032404e+06
   8.4228076e-10  -5.6066878e-04   2.9853802e+00   2.8579329e+00  -3.8763691e+06
   8.4328109e-10  -5.5680448e-04   2.9849809e+00   2.8584101e+00  -3.8496824e+06
   8.4428143e-10  -5.5296679e-04   2.9845844e+00   2.8588840e+00  -3.8231790e+06
   8.4528176e-10  -5.4915551e-04   2.9841906e+00   2.8593546e+00  -3.7968577e+06
   8.4628209e-10  -5.4537048e-04   2.9837995e+00   2.8598221e+00  -3.7707171e+06
   8.4728243e-10  -5.4161151e-04   2.9834111e+00   2.8602863e+00  -3.7447562e+06
   8.4828276e-10  -5.3787841e-04   2.9830253e+00   2.8607474e+00  -3.7189735e+06
   8.4928309e-10  -5.3417102e-04   2.9826422e+00   2.8612053e+00  -3.6933680e+06
   8.5028343e-10  -5.3048915e-04   2.9822618e+00   2.8616601e+00  -3.6679384e+06
   8.5128376e-10  -5.2683264e-04   2.9818839e+00   2.8621118e+00  -3.6426835e+06
   8.5228409e-10  -5.2320130e-04   2.9815087e+00   2.8625604e+00  -3.6176021e+06
   8.5328443e-10  -5.1959496e-04   2.9811361e+00   2.8630060e+00  -3.5926930e+06
   8.5428476e-10  -5.1601346e-04   2.9807660e+00   2.8634485e+00  -3.5679551e+06
   8.5528510e-10  -5.1245662e-04   2.9803985e+00   2.8638880e+00  -3.5433872e+06
   8.5628543e-10  -5.0892427e-04   2.9800334e+00   2.8643244e+00  -3.5189880e+06
   8.5728576e-10  -5.0541624e-04   2.9796710e+00   2.8647579e+00  -3.4947565e+06
   8.5828610e-10  -5.0193237e-04   2.9793110e+00   2.8651884e+00  -3.4706916e+06
   8.5928643e-10  -4.9847249e-04   2.9789534e+00   2.8656160e+00  -3.4467920e+06
   8.6028676e-10  -4.9503643e-04   2.9785984e+00   2.8660407e+00  -3.4230566e+06
   8.6128710e-10  -4.9162404e-04   2.9782458e+00   2.8664624e+00  -3.3994844e+06
   8.6228743e-10  -4.8823514e-04   2.9778956e+00   2.8668813e+00  -3.3760741e+06
   8.6328776e-10  -4.8486958e-04   2.9775478e+00   2.8672973e+00  -3.3528248e+06
   8.6428810e-10  -4.8152720e-04   2.9772024e+00   2.8677105e+00  -3.3297352e+06
   8.6528843e-10  -4.7820784e-04   2.9768594e+00   2.8681208e+00  -3.3068043e+06
   8.6628876e-10  -4.7491134e-04   2.9765188e+00   2.8685284e+00  -3.2840310e+06
   8.6728910e-10  -4.7163753e-04   2.9761805e+00   2.8689331e+00  -3.2614143e+06
   8.6828943e-10  -4.6838628e-04   2.9758445e+00   2.8693351e+00  -3.2389530e+06
   8.6928976e-10  -4.6515742e-04   2.9755108e+00   2.8697343e+00  -3.2166461e+06
   8.7029010e-10  -4.6195079e-04   2.9751795e+00   2.8701308e+00  -3.1944926e+06
   8.7129043e-10  -4.5876625e-04   2.9748504e+00   2.8705246e+00  -3.1724913e+06
   8.7229076e-10  -4.5560364e-04   2.9745236e+00   2.8709157e+00  -3.1506413e+06
   8.7329110e-10  -4.5246282e-04   2.9741990e+00   2.8713041e+00  -3.1289415e+06
   8.7429143e-10  -4.4934362e-04   2.9738767e+00   2.8716899e+00  -3.1073908e+06
   8.7529176e-10  -4.4624591e-04   2.9735566e+00   2.8720730e+00  -3.0859884e+06
   8.7629210e-10  -4.4316954e-04   2.9732387e+00   2.8724535e+00  -3.0647330e+06
   8.7729243e-10  -4.4011435e-04   2.9729230e+00   2.8728314e+00  -3.0436238e+06
   8.7829276e-10  -4.3708021e-04   2.9726094e+00   2.8732067e+00  -3.0226598e+06
   8.7929310e-10  -4.3406697e-04   2.9722981e+00   2.8735794e+00  -3.0018398e+06
   8.8029343e-10  -4.3107448e-04   2.9719888e+00   2.8739496e+00  -2.9811631e+06
   8.8129376e-10  -4.2810261e-04   2.9716817e+00   2.8743173e+00  -2.9606284e+06
   8.8229410e-10  -4.2515121e-04   2.9713767e+00   2.8746824e+00  -2.9402350e+06
   8.8329443e-10  -4.2222013e-04   2.9710738e+00   2.8750450e+00  -2.9199819e+06
   8.8429476e-10  -4.1930925e-04   2.9707730e+00   2.8754052e+00  -2.8998680e+06
   8.8529510e-10  -4.1641842e-04   2.9704743e+00   2.8757629e+00  -2.8798924e+06
   8.8629543e-10  -4.1354750e-04   2.9701776e+00   2.8761181e+00  -2.8600541e+06
   8.8729577e-10  -4.1069636e-04   2.9698830e+00   2.8764709e+00  -2.8403523e+06
   8.8829610e-10  -4.0786485e-04   2.9695904e+00   2.8768213e+00  -2.8207860e+06
   8.8929643e-10  -4.0505286e-04   2.9692998e+00   2.8771693e+00  -2.8013543e+06
   8.9029677e-10  -4.0226023e-04   2.9690112e+00   2.8775149e+00  -2.7820562e+06
   8.9129710e-10  -3.9948685e-04   2.9687246e+00   2.8778581e+00  -2.7628908e+06
   8.9229743e-10  -3.9673256e-04   2.9684400e+00   2.8781990e+00  -2.7438572e+06
   8.9329777e-10  -3.9399726e-04   2.9681573e+00   2.8785376e+00  -2.7249546e+06
   8.9429810e-10  -3.9128079e-04   2.9678766e+00   2.8788738e+00  -2.7061819e+06
   8.9529843e-10  -3.8858305e-04   2.9675978e+00   2.8792077e+00  -2.6875384e+06
   8.9629877e-10  -3.8590388e-04   2.9673209e+00   2.8795394e+00  -2.6690231e+06
   8.9729910e-10  -3.8324318e-04   2.9670460e+00   2.8798688e+00  -2.6506352e+06
   8.9829943e-10  -3.8060080e-04   2.9667729e+00   2.8801959e+00  -2.6323737e+06
   8.9929977e-10  -3.7797663e-04   2.9665017e+00   2.8805207e+00  -2.6142379e+06
   9.0030010e-10  -3.7537054e-04   2.9662324e+00   2.8808434e+00  -2.5962268e+06
   9.0130043e-10  -3.7278241e-04   2.9659650e+00   2.8811638e+00  -2.5783397e+06
   9.0230077e-10  -3.7021210e-04   2.9656993e+00   2.8814821e+00  -2.5605755e+06
   9.0330110e-10  -3.6765951e-04   2.9654355e+00   2.8817981e+00  -2.5429336e+06
   9.0430143e-10  -3.6512450e-04   2.9651736e+00   2.8821120e+00  -2.5254131e+06
   9.0530177e-10  -3.6260696e-04   2.9649134e+00   2.8824238e+00  -2.5080131e+06
   9.0630210e-10  -3.6010676e-04   2.9646550e+00   2.8827334e+00  -2.4907328e+06
   9.0730243e-10  -3.5762379e-04   2.9643984e+00   2.8830408e+00  -2.4735713e+06
   9.0830277e-10  -3.5515793e-04   2.9641436e+00   2.8833462e+00  -2.4565280e+06
   9.0930310e-10  -3.5270906e-04   2.9638905e+00   2.8836495e+00  -2.4396019e+06
   9.1030343e-10  -3.5027706e-04   2.9636392e+00   2.8839507e+00  -2.4227923e+06
   9.1130377e-10  -3.4786182e-04   2.9633896e+00   2.8842498e+00  -2.4060983e+06
   9.1230410e-10  -3.4546322e-04   2.9631417e+00   2.8845469e+00  -2.3895192e+06
   9.1330443e-10  -3.4308115e-04   2.9628956e+00   2.8848420e+00  -2.3730542e+06
   9.1430477e-10  -3.4071549e-04   2.9626511e+00   2.8851350e+00  -2.3567025e+06
   9.1530510e-10  -3.3836613e-04   2.9624083e+00   2.8854260e+00  -2.3404633e+06
   9.1630544e-10  -3.3603297e-04   2.9621672e+00   2.8857150e+00  -2.3243358e+06
   9.1730577e-10  -3.3371587e-04   2.9619277e+00   2.8860021e+00  -2.3083193e+06
   9.1830610e-10  -3.3141475e-04   2.9616899e+00   2.8862871e+00  -2.2924130e+06
   9.1930644e-10  -3.2912948e-04   2.9614538e+00   2.8865703e+00  -2.2766162e+06
   9.2030677e-10  -3.2685996e-04   2.9612192e+00   2.8868514e+00  -2.2609281e+06
   9.2130710e-10  -3.2460608e-04   2.9609863e+00   2.8871307e+00  -2.2453480e+06
   9.2230744e-10  -3.2236773e-04   2.9607550e+00   2.8874080e+00  -2.2298751e+06
   9.2330777e-10  -3.2014481e-04   2.9605253e+00   2.8876834e+00  -2.2145087e+06
   9.2430810e-10  -3.1793720e-04   2.9602971e+00   2.8879570e+00  -2.1992480e+06
   9.2530844e-10  -3.1574481e-04   2.9600706e+00   2.8882286e+00  -2.1840923e+06
   9.2630877e-10  -3.1356753e-04   2.9598456e+00   2.8884984e+00  -2.1690410e+06
   9.2730910e-10  -3.1140525e-04   2.9596221e+00   2.8887664e+00  -2.1540933e+06
   9.2830944e-10  -3.0925787e-04   2.9594002e+00   2.8890325e+00  -2.1392484e+06
   9.2930977e-10  -3.0712529e-04   2.9591798e+00   2.8892968e+00  -2.1245057e+06
   9.3031010e-10  -3.0500741e-04   2.9589609e+00   2.8895592e+00  -2.1098645e+06
   9.3131044e-10  -3.0290412e-04   2.9587436e+00   2.8898199e+00  -2.0953241e+06
   9.3231077e-10  -3.0081533e-04   2.9585277e+00   2.8900788e+00  -2.0808837e+06
   9.3331110e-10  -2.9874093e-04   2.9583133e+00   2.8903359e+00  -2.0665428e+06
   9.3431144e-10  -2.9668083e-04   2.9581004e+00   2.8905912e+00  -2.0523005e+06
   9.3531177e-10  -2.9463493e-04   2.9578890e+00   2.8908448e+00  -2.0381563e+06
   9.3631210e-10  -2.9260313e-04   2.9576790e+00   2.8910967e+00  -2.0241095e+06
   9.3731244e-10  -2.9058533e-04   2.9574705e+00   2.8913468e+00  -2.0101593e+06
   9.3831277e-10  -2.8858144e-04   2.9572634e+00   2.8915952e+00  -1.9963052e+06
   9.3931310e-10  -2.8659136e-04   2.9570577e+00   2.8918419e+00  -1.9825465e+06
   9.4031344e-10  -2.8461499e-04   2.9568535e+00   2.8920869e+00  -1.9688825e+06
   9.4131377e-10  -2.8265225e-04   2.9566507e+00   2.8923302e+00  -1.9553125e+06
   9.4231410e-10  -2.8070303e-04   2.9564492e+00   2.8925718e+00  -1.9418360e+06
   9.4331444e-10  -2.7876725e-04   2.9562492e+00   2.8928118e+00  -1.9284522e+06
   9.4431477e-10  -2.7684481e-04   2.9560505e+00   2.8930502e+00  -1.9151606e+06
   9.4531511e-10  -2.7493562e-04   2.9558532e+00   2.8932869e+00  -1.9019605e+06
   9.4631544e-10  -2.7303959e-04   2.9556572e+00   2.8935220e+00  -1.8888513e+06
   9.4731577e-10  -2.7115663e-04   2.9554626e+00   2.8937554e+00  -1.8758323e+06
   9.4831611e-10  -2.6928665e-04   2.9552694e+00   2.8939873e+00  -1.8629030e+06
   9.4931644e-10  -2.6742955e-04   2.9550775e+00   2.8942176e+00  -1.8500627e+06
   9.5031677e-10  -2.6558526e-04   2.9548869e+00   2.8944463e+00  -1.8373107e+06
   9.5131711e-10  -2.6375367e-04   2.9546976e+00   2.8946734e+00  -1.8246466e+06
   9.5231744e-10  -2.6193472e-04   2.9545096e+00   2.8948989e+00  -1.8120697e+06
   9.5331777e-10  -2.6012830e-04   2.9543229e+00   2.8951230e+00  -1.7995794e+06
   9.5431811e-10  -2.5833433e-04   2.9541375e+00   2.8953454e+00  -1.7871751e+06
   9.5531844e-10  -2.5655273e-04   2.9539534e+00   2.8955664e+00  -1.7748562e+06
   9.5631877e-10  -2.5478341e-04   2.9537706e+00   2.8957858e+00  -1.7626222e+06
   9.5731911e-10  -2.5302628e-04   2.9535890e+00   2.8960037e+00  -1.7504723e+06
   9.5831944e-10  -2.5128127e-04   2.9534086e+00   2.8962201e+00  -1.7384062e+06
   9.5931977e-10  -2.4954828e-04   2.9532295e+00   2.8964351e+00  -1.7264231e+06
   9.6032011e-10  -2.4782724e-04   2.9530517e+00   2.8966485e+00  -1.7145225e+06
   9.6132044e-10  -2.4611806e-04   2.9528750e+00   2.8968605e+00  -1.7027039e+06
   9.6232077e-10  -2.4442067e-04   2.9526996e+00   2.8970711e+00  -1.6909667e+06
   9.6332111e-10  -2.4273498e-04   2.9525254e+00   2.8972802e+00  -1.6793103e+06
   9.6432144e-10  -2.4106090e-04   2.9523524e+00   2.8974878e+00  -1.6677342e+06
   9.6532177e-10  -2.3939837e-04   2.9521806e+00   2.8976941e+00  -1.6562378e+06
   9.6632211e-10  -2.3774730e-04   2.9520100e+00   2.8978989e+00  -1.6448206e+06
   9.6732244e-10  -2.3610760e-04   2.9518405e+00   2.8981023e+00  -1.6334820e+06
   9.6832277e-10  -2.3447922e-04   2.9516722e+00   2.8983043e+00  -1.6222215e+06
   9.6932311e-10  -2.3286205e-04   2.9515051e+00   2.8985049e+00  -1.6110386e+06
   9.7032344e-10  -2.3125604e-04   2.9513391e+00   2.8987041e+00  -1.5999326e+06
   9.7132377e-10  -2.2966110e-04   2.9511743e+00   2.8989020e+00  -1.5889032e+06
   9.7232411e-10  -2.2807715e-04   2.9510106e+00   2.8990985e+00  -1.5779497e+06
   9.7332444e-10  -2.2650412e-04   2.9508480e+00   2.8992937e+00  -1.5670717e+06
   9.7432477e-10  -2.2494193e-04   2.9506866e+00   2.8994875e+00  -1.5562686e+06
   9.7532511e-10  -2.2339052e-04   2.9505263e+00   2.8996800e+00  -1.5455399e+06
   9.7632544e-10  -2.2184980e-04   2.9503670e+00   2.8998712e+00  -1.5348850e+06
   9.7732578e-10  -2.2031970e-04   2.9502089e+00   2.9000610e+00  -1.5243036e+06
   9.7832611e-10  -2.1880015e-04   2.9500519e+00   2.9002496e+00  -1.5137951e+06
   9.7932644e-10  -2.1729108e-04   2.9498959e+00   2.9004368e+00  -1.5033589e+06
   9.8032678e-10  -2.1579241e-04   2.9497410e+00   2.9006228e+00  -1.4929947e+06
   9.8132711e-10  -2.1430407e-04   2.9495872e+00   2.9008075e+00  -1.4827018e+06
   9.8232744e-10  -2.1282599e-04   2.9494345e+00   2.9009909e+00  -1.4724798e+06
   9.8332778e-10  -2.1135810e-04   2.9492828e+00   2.9011730e+00  -1.4623282e+06
   9.8432811e-10  -2.0990034e-04   2.9491321e+00   2.9013539e+00  -1.4522466e+06
   9.8532844e-10  -2.0845262e-04   2.9489825e+00   2.9015336e+00  -1.4422344e+06
   9.8632878e-10  -2.0701488e-04   2.9488339e+00   2.9017120e+00  -1.4322911e+06
   9.8732911e-10  -2.0558706e-04   2.9486864e+00   2.9018892e+00  -1.4224164e+06
   9.8832944e-10  -2.0416908e-04   2.9485398e+00   2.9020652e+00  -1.4126097e+06
   9.8932978e-10  -2.0276087e-04   2.9483943e+00   2.9022400e+00  -1.4028705e+06
   9.9033011e-10  -2.0136238e-04   2.9482498e+00   2.9024136e+00  -1.3931985e+06
   9.9133044e-10  -1.9997353e-04   2.9481062e+00   2.9025859e+00  -1.3835931e+06
   9.9233078e-10  -1.9859425e-04   2.9479637e+00   2.9027571e+00  -1.3740538e+06
   9.9333111e-10  -1.9722448e-04   2.9478221e+00   2.9029271e+00  -1.3645802e+06
   9.9433144e-10  -1.9586416e-04   2.9476815e+00   2.9030960e+00  -1.3551720e+06
   9.9533178e-10  -1.9451321e-04   2.9475419e+00   2.9032637e+00  -1.3458285e+06
   9.9633211e-10  -1.9317158e-04   2.9474033e+00   2.9034302e+00  -1.3365494e+06
   9.9733244e-10  -1.9183920e-04   2.9472656e+00   2.9035956e+00  -1.3273342e+06
   9.9833278e-10  -1.9051601e-04   2.9471288e+00   2.9037598e+00  -1.3181826e+06
   9.9933311e-10  -1.8920193e-04   2.9469930e+00   2.9039229e+00  -1.3090939e+06
   1.0003334e-09  -1.8789692e-04   2.9468582e+00   2.9040849e+00  -1.3000679e+06
   1.0013338e-09  -1.8660091e-04   2.9467242e+00   2.9042458e+00  -1.2911041e+06
   1.0023341e-09  -1.8531383e-04   2.9465912e+00   2.9044056e+00  -1.2822020e+06
   1.0033344e-09  -1.8403563e-04   2.9464591e+00   2.9045643e+00  -1.2733613e+06
   1.0043348e-09  -1.8276624e-04   2.9463279e+00   2.9047219e+00  -1.2645815e+06
   1.0053351e-09  -1.8150560e-04   2.9461976e+00   2.9048784e+00  -1.2558622e+06
   1.0063354e-09  -1.8025366e-04   2.9460683e+00   2.9050338e+00  -1.2472029e+06
   1.0073358e-09  -1.7901035e-04   2.9459398e+00   2.9051882e+00  -1.2386033e+06
   1.0083361e-09  -1.7777561e-04   2.9458122e+00   2.9053415e+00  -1.2300630e+06
   1.0093364e-09  -1.7654938e-04   2.9456854e+00   2.9054937e+00  -1.2215815e+06
   1.0103368e-09  -1.7533161e-04   2.9455596e+00   2.9056449e+00  -1.2131584e+06
   1.0113371e-09  -1.7412224e-04   2.9454346e+00   2.9057950e+00  -1.2047934e+06
   1.0123374e-09  -1.7292120e-04   2.9453105e+00   2.9059442e+00  -1.1964861e+06
   1.0133378e-09  -1.7172845e-04   2.9451872e+00   2.9060923e+00  -1.1882359e+06
   1.0143381e-09  -1.7054392e-04   2.9450648e+00   2.9062393e+00  -1.1800426e+06
   1.0153384e-09  -1.6936756e-04   2.9449432e+00   2.9063854e+00  -1.1719058e+06
   1.0163388e-09  -1.6819931e-04   2.9448225e+00   2.9065305e+00  -1.1638250e+06
   1.0173391e-09  -1.6703911e-04   2.9447026e+00   2.9066745e+00  -1.1558000e+06
   1.0183394e-09  -1.6588692e-04   2.9445835e+00   2.9068176e+00  -1.1478302e+06
   1.0193398e-09  -1.6474267e-04   2.9444653e+00   2.9069597e+00  -1.1399153e+06
   1.0203401e-09  -1.6360631e-04   2.9443478e+00   2.9071008e+00  -1.1320550e+06
   1.0213404e-09  -1.6247778e-04   2.9442312e+00   2.9072409e+00  -1.1242489e+06
   1.0223408e-09  -1.6135704e-04   2.9441154e+00   2.9073801e+00  -1.1164965e+06
   1.0233411e-09  -1.6024403e-04   2.9440003e+00   2.9075183e+00  -1.1087976e+06
   1.0243414e-09  -1.5913869e-04   2.9438861e+00   2.9076556e+00  -1.1011517e+06
   1.0253418e-09  -1.5804097e-04   2.9437727e+00   2.9077919e+00  -1.0935585e+06
   1.0263421e-09  -1.5695083e-04   2.9436600e+00   2.9079273e+00  -1.0860176e+06
   1.0273424e-09  -1.5586820e-04   2.9435481e+00   2.9080618e+00  -1.0785287e+06
   1.0283428e-09  -1.5479303e-04   2.9434370e+00   2.9081953e+00  -1.0710914e+06
   1.0293431e-09  -1.5372528e-04   2.9433267e+00   2.9083279e+00  -1.0637054e+06
   1.0303434e-09  -1.5266490e-04   2.9432171e+00   2.9084596e+00  -1.0563703e+06
   1.0313438e-09  -1.5161182e-04   2.9431082e+00   2.9085904e+00  -1.0490857e+06
   1.0323441e-09  -1.5056601e-04   2.9430002e+00   2.9087203e+00  -1.0418513e+06
   1.0333444e-09  -1.4952741e-04   2.9428928e+00   2.9088493e+00  -1.0346668e+06
   1.0343448e-09  -1.4849597e-04   2.9427862e+00   2.9089774e+00  -1.0275318e+06
   1.0353451e-09  -1.4747164e-04   2.9426804e+00   2.9091046e+00  -1.0204460e+06
   1.0363454e-09  -1.4645438e-04   2.9425752e+00   2.9092309e+00  -1.0134090e+06
   1.0373458e-09  -1.4544413e-04   2.9424708e+00   2.9093564e+00  -1.0064205e+06
   1.0383461e-09  -1.4444085e-04   2.9423672e+00   2.9094810e+00  -9.9948013e+05
   1.0393464e-09  -1.4344449e-04   2.9422642e+00   2.9096048e+00  -9.9258763e+05
   1.0403468e-09  -1.4245500e-04   2.9421619e+00   2.9097277e+00  -9.8574264e+05
   1.0413471e-09  -1.4147233e-04   2.9420604e+00   2.9098498e+00  -9.7894482e+05
   1.0423474e-09  -1.4049644e-04   2.9419595e+00   2.9099710e+00  -9.7219385e+05
   1.0433478e-09  -1.3952728e-04   2.9418594e+00   2.9100914e+00  -9.6548941e+05
   1.0443481e-09  -1.3856480e-04   2.9417599e+00   2.9102109e+00  -9.5883118e+05
   1.0453484e-09  -1.3760896e-04   2.9416611e+00   2.9103297e+00  -9.5221885e+05
   1.0463488e-09  -1.3665971e-04   2.9415630e+00   2.9104476e+00  -9.4565209e+05
   1.0473491e-09  -1.3571701e-04   2.9414656e+00   2.9105647e+00  -9.3913059e+05
   1.0483494e-09  -1.3478081e-04   2.9413688e+00   2.9106810e+00  -9.3265404e+05
   1.0493498e-09  -1.3385107e-04   2.9412727e+00   2.9107965e+00  -9.2622213e+05
   1.0503501e-09  -1.3292773e-04   2.9411773e+00   2.9109112e+00  -9.1983455e+05
   1.0513505e-09  -1.3201077e-04   2.9410826e+00   2.9110251e+00  -9.1349100e+05
   1.0523508e-09  -1.3110013e-04   2.9409885e+00   2.9111383e+00  -9.0719118e+05
   1.0533511e-09  -1.3019577e-04   2.9408950e+00   2.9112506e+00  -9.0093478e+05
   1.0543515e-09  -1.2929764e-04   2.9408022e+00   2.9113622e+00  -8.9472150e+05
   1.0553518e-09  -1.2840571e-04   2.9407100e+00   2.9114730e+00  -8.8855105e+05
   1.0563521e-09  -1.2751993e-04   2.9406185e+00   2.9115831e+00  -8.8242314e+05
   1.0573525e-09  -1.2664026e-04   2.9405275e+00   2.9116923e+00  -8.7633746e+05
   1.0583528e-09  -1.2576666e-04   2.9404373e+00   2.9118009e+00  -8.7029373e+05
   1.0593531e-09  -1.2489908e-04   2.9403476e+00   2.9119087e+00  -8.6429167e+05
   1.0603535e-09  -1.2403749e-04   2.9402586e+00   2.9120157e+00  -8.5833097e+05
   1.0613538e-09  -1.2318183e-04   2.9401701e+00   2.9121220e+00  -8.5241137e+05
   1.0623541e-09  -1.2233208e-04   2.9400823e+00   2.9122276e+00  -8.4653257e+05
   1.0633545e-09  -1.2148819e-04   2.9399951e+00   2.9123325e+00  -8.4069430e+05
   1.0643548e-09  -1.2065012e-04   2.9399085e+00   2.9124366e+00  -8.3489627e+05
   1.0653551e-09  -1.1981783e-04   2.9398225e+00   2.9125400e+00  -8.2913820e+05
   1.0663555e-09  -1.1899128e-04   2.9397371e+00   2.9126427e+00  -8.2341984e+05
   1.0673558e-09  -1.1817043e-04   2.9396522e+00   2.9127447e+00  -8.1774089e+05
   1.0683561e-09  -1.1735524e-04   2.9395680e+00   2.9128460e+00  -8.1210109e+05
   1.0693565e-09  -1.1654567e-04   2.9394843e+00   2.9129466e+00  -8.0650016e+05
   1.0703568e-09  -1.1574169e-04   2.9394012e+00   2.9130465e+00  -8.0093785e+05
   1.0713571e-09  -1.1494325e-04   2.9393187e+00   2.9131457e+00  -7.9541388e+05
   1.0723575e-09  -1.1415032e-04   2.9392368e+00   2.9132443e+00  -7.8992800e+05
   1.0733578e-09  -1.1336285e-04   2.9391554e+00   2.9133421e+00  -7.8447993e+05
   1.0743581e-09  -1.1258082e-04   2.9390746e+00   2.9134393e+00  -7.7906942e+05
   1.0753585e-09  -1.1180418e-04   2.9389943e+00   2.9135358e+00  -7.7369621e+05
   1.0763588e-09  -1.1103290e-04   2.9389146e+00   2.9136316e+00  -7.6836004e+05
   1.0773591e-09  -1.1026694e-04   2.9388354e+00   2.9137268e+00  -7.6306066e+05
   1.0783595e-09  -1.0950626e-04   2.9387568e+00   2.9138214e+00  -7.5779781e+05
   1.0793598e-09  -1.0875082e-04   2.9386788e+00   2.9139152e+00  -7.5257125e+05
   1.0803601e-09  -1.0800060e-04   2.9386012e+00   2.9140085e+00  -7.4738071e+05
   1.0813605e-09  -1.0725555e-04   2.9385242e+00   2.9141011e+00  -7.4222597e+05
   1.0823608e-09  -1.0651564e-04   2.9384478e+00   2.9141930e+00  -7.3710675e+05
   1.0833611e-09  -1.0578083e-04   2.9383718e+00   2.9142843e+00  -7.3202284e+05
   1.0843615e-09  -1.0505110e-04   2.9382964e+00   2.9143750e+00  -7.2697397e+05
   1.0853618e-09  -1.0432639e-04   2.9382215e+00   2.9144651e+00  -7.2195991e+05
   1.0863621e-09  -1.0360668e-04   2.9381471e+00   2.9145545e+00  -7.1698042e+05
   1.0873625e-09  -1.0289194e-04   2.9380733e+00   2.9146434e+00  -7.1203525e+05
   1.0883628e-09  -1.0218213e-04   2.9379999e+00   2.9147316e+00  -7.0712419e+05
   1.0893631e-09  -1.0147721e-04   2.9379271e+00   2.9148192e+00  -7.0224698e+05
   1.0903635e-09  -1.0077715e-04   2.9378547e+00   2.9149062e+00  -6.9740339e+05
   1.0913638e-09  -1.0008193e-04   2.9377829e+00   2.9149926e+00  -6.9259321e+05
   1.0923641e-09  -9.9391494e-05   2.9377115e+00   2.9150784e+00  -6.8781618e+05
   1.0933645e-09  -9.8705824e-05   2.9376407e+00   2.9151636e+00  -6.8307209e+05
   1.0943648e-09  -9.8024883e-05   2.9375703e+00   2.9152483e+00  -6.7836071e+05
   1.0953651e-09  -9.7348639e-05   2.9375004e+00   2.9153323e+00  -6.7368181e+05
   1.0963655e-09  -9.6677060e-05   2.9374310e+00   2.9154158e+00  -6.6903518e+05
   1.0973658e-09  -9.6010112e-05   2.9373621e+00   2.9154987e+00  -6.6442058e+05
   1.0983661e-09  -9.5347765e-05   2.9372936e+00   2.9155810e+00  -6.5983779e+05
   1.0993665e-09  -9.4689986e-05   2.9372256e+00   2.9156628e+00  -6.5528661e+05
   1.1003668e-09  -9.4036744e-05   2.9371581e+00   2.9157440e+00  -6.5076680e+05
   1.1013671e-09  -9.3388008e-05   2.9370911e+00   2.9158246e+00  -6.4627816e+05
   1.1023675e-09  -9.2743746e-05   2.9370245e+00   2.9159047e+00  -6.4182046e+05
   1.1033678e-09  -9.2103929e-05   2.9369584e+00   2.9159842e+00  -6.3739350e+05
   1.1043681e-09  -9.1468524e-05   2.9368927e+00   2.9160632e+00  -6.3299707e+05
   1.1053685e-09  -9.0837502e-05   2.9368275e+00   2.9161416e+00  -6.2863095e+05
   1.1063688e-09  -9.0210833e-05   2.9367627e+00   2.9162195e+00  -6.2429493e+05
   1.1073691e-09  -8.9588486e-05   2.9366984e+00   2.9162969e+00  -6.1998881e+05
   1.1083695e-09  -8.8970432e-05   2.9366345e+00   2.9163737e+00  -6.1571238e+05
   1.1093698e-09  -8.8356641e-05   2.9365711e+00   2.9164500e+00  -6.1146544e+05
   1.1103701e-09  -8.7747084e-05   2.9365081e+00   2.9165258e+00  -6.0724778e+05
   1.1113705e-09  -8.7141731e-05   2.9364456e+00   2.9166010e+00  -6.0305920e+05
   1.1123708e-09  -8.6540553e-05   2.9363834e+00   2.9166758e+00  -5.9889951e+05
   1.1133711e-09  -8.5943523e-05   2.9363217e+00   2.9167500e+00  -5.9476850e+05
   1.1143715e-09  -8.5350610e-05   2.9362605e+00   2.9168237e+00  -5.9066597e+05
   1.1153718e-09  -8.4761787e-05   2.9361996e+00   2.9168969e+00  -5.8659173e+05
   1.1163721e-09  -8.4177026e-05   2.9361392e+00   2.9169696e+00  -5.8254558e+05
   1.1173725e-09  -8.3596299e-05   2.9360792e+00   2.9170418e+00  -5.7852733e+05
   1.1183728e-09  -8.3019577e-05   2.9360196e+00   2.9171135e+00  -5.7453679e+05
   1.1193731e-09  -8.2446833e-05   2.9359604e+00   2.9171847e+00  -5.7057377e+05
   1.1203735e-09  -8.1878039e-05   2.9359016e+00   2.9172554e+00  -5.6663808e+05
   1.1213738e-09  -8.1313170e-05   2.9358432e+00   2.9173256e+00  -5.6272952e+05
   1.1223741e-09  -8.0752196e-05   2.9357852e+00   2.9173954e+00  -5.5884792e+05
   1.1233745e-09  -8.0195092e-05   2.9357277e+00   2.9174646e+00  -5.5499308e+05
   1.1243748e-09  -7.9641831e-05   2.9356705e+00   2.9175334e+00  -5.5116482e+05
   1.1253751e-09  -7.9092386e-05   2.9356137e+00   2.9176017e+00  -5.4736296e+05
   1.1263755e-09  -7.8546731e-05   2.9355573e+00   2.9176695e+00  -5.4358732e+05
   1.1273758e-09  -7.8004840e-05   2.9355013e+00   2.9177369e+00  -5.3983771e+05
   1.1283761e-09  -7.7466687e-05   2.9354457e+00   2.9178038e+00  -5.3611396e+05
   1.1293765e-09  -7.6932246e-05   2.9353905e+00   2.9178703e+00  -5.3241589e+05
   1.1303768e-09  -7.6401492e-05   2.9353356e+00   2.9179363e+00  -5.2874332e+05
   1.1313771e-09  -7.5874399e-05   2.9352811e+00   2.9180018e+00  -5.2509608e+05
   1.1323775e-09  -7.5350941e-05   2.9352270e+00   2.9180669e+00  -5.2147398e+05
   1.1333778e-09  -7.4831094e-05   2.9351733e+00   2.9181315e+00  -5.1787686e+05
   1.1343781e-09  -7.4314834e-05   2.9351200e+00   2.9181957e+00  -5.1430455e+05
   1.1353785e-09  -7.3802134e-05   2.9350670e+00   2.9182594e+00  -5.1075688e+05
   1.1363788e-09  -7.3292971e-05   2.9350144e+00   2.9183227e+00  -5.0723366e+05
   1.1373791e-09  -7.2787320e-05   2.9349621e+00   2.9183856e+00  -5.0373475e+05
   1.1383795e-09  -7.2285158e-05   2.9349102e+00   2.9184480e+00  -5.0025996e+05
   1.1393798e-09  -7.1786459e-05   2.9348587e+00   2.9185100e+00  -4.9680914e+05
   1.1403801e-09  -7.1291200e-05   2.9348075e+00   2.9185716e+00  -4.9338211e+05
   1.1413805e-09  -7.0799358e-05   2.9347567e+00   2.9186328e+00  -4.8997872e+05
   1.1423808e-09  -7.0310908e-05   2.9347062e+00   2.9186935e+00  -4.8659879e+05
   1.1433811e-09  -6.9825828e-05   2.9346561e+00   2.9187538e+00  -4.8324218e+05
   1.1443815e-09  -6.9344094e-05   2.9346063e+00   2.9188137e+00  -4.7990871e+05
   1.1453818e-09  -6.8865683e-05   2.9345568e+00   2.9188732e+00  -4.7659823e+05
   1.1463821e-09  -6.8390572e-05   2.9345077e+00   2.9189323e+00  -4.7331058e+05
   1.1473825e-09  -6.7918738e-05   2.9344590e+00   2.9189910e+00  -4.7004561e+05
   1.1483828e-09  -6.7450160e-05   2.9344105e+00   2.9190492e+00  -4.6680314e+05
   1.1493831e-09  -6.6984813e-05   2.9343624e+00   2.9191071e+00  -4.6358305e+05
   1.1503835e-09  -6.6522677e-05   2.9343147e+00   2.9191645e+00  -4.6038515e+05
   1.1513838e-09  -6.6063729e-05   2.9342673e+00   2.9192216e+00  -4.5720932e+05
   1.1523841e-09  -6.5607946e-05   2.9342202e+00   2.9192783e+00  -4.5405538e+05
   1.1533845e-09  -6.5155308e-05   2.9341734e+00   2.9193346e+00  -4.5092319e+05
   1.1543848e-09  -6.4705792e-05   2.9341269e+00   2.9193905e+00  -4.4781261e+05
   1.1553851e-09  -6.4259377e-05   2.9340808e+00   2.9194460e+00  -4.4472348e+05
   1.1563855e-09  -6.3816041e-05   2.9340350e+00   2.9195011e+00  -4.4165565e+05
   1.1573858e-09  -6.3375764e-05   2.9339895e+00   2.9195559e+00  -4.3860898e+05
   1.1583861e-09  -6.2938524e-05   2.9339443e+00   2.9196102e+00  -4.3558332e+05
   1.1593865e-09  -6.2504300e-05   2.9338994e+00   2.9196642e+00  -4.3257853e+05
   1.1603868e-09  -6.2073071e-05   2.9338548e+00   2.9197178e+00  -4.2959446e+05
   1.1613871e-09  -6.1644818e-05   2.9338106e+00   2.9197711e+00  -4.2663097e+05
   1.1623875e-09  -6.1219518e-05   2.9337666e+00   2.9198240e+00  -4.2368792e+05
   1.1633878e-09  -6.0797152e-05   2.9337230e+00   2.9198765e+00  -4.2076516e+05
   1.1643881e-09  -6.0377700e-05   2.9336796e+00   2.9199287e+00  -4.1786257e+05
   1.1653885e-09  -5.9961142e-05   2.9336366e+00   2.9199805e+00  -4.1497999e+05
   1.1663888e-09  -5.9547457e-05   2.9335938e+00   2.9200319e+00  -4.1211729e+05
   1.1673891e-09  -5.9136626e-05   2.9335514e+00   2.9200830e+00  -4.0927434e+05
   1.1683895e-09  -5.8728629e-05   2.9335092e+00   2.9201337e+00  -4.0645099e+05
   1.1693898e-09  -5.8323446e-05   2.9334673e+00   2.9201841e+00  -4.0364712e+05
   1.1703901e-09  -5.7921059e-05   2.9334258e+00   2.9202342e+00  -4.0086258e+05
   1.1713905e-09  -5.7521448e-05   2.9333845e+00   2.9202839e+00  -3.9809725e+05
   1.1723908e-09  -5.7124593e-05   2.9333434e+00   2.9203332e+00  -3.9535099e+05
   1.1733911e-09  -5.6730476e-05   2.9333027e+00   2.9203822e+00  -3.9262367e+05
   1.1743915e-09  -5.6339077e-05   2.9332623e+00   2.9204309e+00  -3.8991516e+05
   1.1753918e-09  -5.5950379e-05   2.9332221e+00   2.9204792e+00  -3.8722533e+05
   1.1763921e-09  -5.5564362e-05   2.9331822e+00   2.9205272e+00  -3.8455405e+05
   1.1773925e-09  -5.5181008e-05   2.9331426e+00   2.9205749e+00  -3.8190120e+05
   1.1783928e-09  -5.4800299e-05   2.9331032e+00   2.9206223e+00  -3.7926664e+05
   1.1793931e-09  -5.4422216e-05   2.9330642e+00   2.9206693e+00  -3.7665025e+05
   1.1803935e-09  -5.4046741e-05   2.9330254e+00   2.9207160e+00  -3.7405191e+05
   1.1813938e-09  -5.3673857e-05   2.9329868e+00   2.9207624e+00  -3.7147149e+05
   1.1823941e-09  -5.3303545e-05   2.9329486e+00   2.9208084e+00  -3.6890887e+05
   1.1833945e-09  -5.2935787e-05   2.9329106e+00   2.9208542e+00  -3.6636392e+05
   1.1843948e-09  -5.2570567e-05   2.9328728e+00   2.9208996e+00  -3.6383653e+05
   1.1853951e-09  -5.2207866e-05   2.9328353e+00   2.9209447e+00  -3.6132657e+05
   1.1863955e-09  -5.1847667e-05   2.9327981e+00   2.9209895e+00  -3.5883391e+05
   1.1873958e-09  -5.1489953e-05   2.9327611e+00   2.9210340e+00  -3.5635845e+05
   1.1883961e-09  -5.1134707e-05   2.9327244e+00   2.9210781e+00  -3.5390007e+05
   1.1893965e-09  -5.0781911e-05   2.9326880e+00   2.9211220e+00  -3.5145864e+05
   1.1903968e-09  -5.0431549e-05   2.9326518e+00   2.9211656e+00  -3.4903405e+05
   1.1913971e-09  -5.0083605e-05   2.9326158e+00   2.9212089e+00  -3.4662618e+05
   1.1923975e-09  -4.9738060e-05   2.9325801e+00   2.9212519e+00  -3.4423492e+05
   1.1933978e-09  -4.9394900e-05   2.9325446e+00   2.9212945e+00  -3.4186016e+05
   1.1943981e-09  -4.9054106e-05   2.9325094e+00   2.9213369e+00  -3.3950177e+05
   1.1953985e-09  -4.8715664e-05   2.9324744e+00   2.9213790e+00  -3.3715965e+05
   1.1963988e-09  -4.8379557e-05   2.9324397e+00   2.9214208e+00  -3.3483369e+05
   1.1973991e-09  -4.8045768e-05   2.9324052e+00   2.9214623e+00  -3.3252376e+05
   1.1983995e-09  -4.7714282e-05   2.9323709e+00   2.9215036e+00  -3.3022977e+05
   1.1993998e-09  -4.7385083e-05   2.9323369e+00   2.9215445e+00  -3.2795161e+05
   1.2004001e-09  -4.7058155e-05   2.9323031e+00   2.9215852e+00  -3.2568915e+05
   1.2014005e-09  -4.6733482e-05   2.9322696e+00   2.9216255e+00  -3.2344231e+05
   1.2024008e-09  -4.6411050e-05   2.9322363e+00   2.9216657e+00  -3.2121095e+05
   1.2034011e-09  -4.6090841e-05   2.9322032e+00   2.9217055e+00  -3.1899499e+05
   1.2044015e-09  -4.5772842e-05   2.9321703e+00   2.9217450e+00  -3.1679432e+05
   1.2054018e-09  -4.5457036e-05   2.9321377e+00   2.9217843e+00  -3.1460882e+05
   1.2064021e-09  -4.5143409e-05   2.9321053e+00   2.9218233e+00  -3.1243840e+05
   1.2074025e-09  -4.4831946e-05   2.9320731e+00   2.9218621e+00  -3.1028295e+05
   1.2084028e-09  -4.4522632e-05   2.9320411e+00   2.9219005e+00  -3.0814237e+05
   1.2094031e-09  -4.4215451e-05   2.9320094e+00   2.9219387e+00  -3.0601655e+05
   1.2104035e-09  -4.3910390e-05   2.9319778e+00   2.9219767e+00  -3.0390539e+05
   1.2114038e-09  -4.3607433e-05   2.9319465e+00   2.9220144e+00  -3.0180880e+05
   1.2124041e-09  -4.3306566e-05   2.9319154e+00   2.9220518e+00  -2.9972666e+05
   1.2134045e-09  -4.3007775e-05   2.9318846e+00   2.9220890e+00  -2.9765889e+05
   1.2144048e-09  -4.2711045e-05   2.9318539e+00   2.9221259e+00  -2.9560539e+05
   1.2154051e-09  -4.2416362e-05   2.9318234e+00   2.9221625e+00  -2.9356604e+05
   1.2164055e-09  -4.2123712e-05   2.9317932e+00   2.9221989e+00  -2.9154077e+05
   1.2174058e-09  -4.1833081e-05   2.9317632e+00   2.9222351e+00  -2.8952946e+05
   1.2184061e-09  -4.1544456e-05   2.9317333e+00   2.9222710e+00  -2.8753203e+05
   1.2194065e-09  -4.1257821e-05   2.9317037e+00   2.9223066e+00  -2.8554837e+05
   1.2204068e-09  -4.0973164e-05   2.9316743e+00   2.9223420e+00  -2.8357840e+05
   1.2214071e-09  -4.0690471e-05   2.9316451e+00   2.9223772e+00  -2.8162202e+05
   1.2224075e-09  -4.0409727e-05   2.9316161e+00   2.9224121e+00  -2.7967913e+05
   1.2234078e-09  -4.0130921e-05   2.9315873e+00   2.9224468e+00  -2.7774964e+05
   1.2244081e-09  -3.9854039e-05   2.9315586e+00   2.9224812e+00  -2.7583346e+05
   1.2254085e-09  -3.9579066e-05   2.9315302e+00   2.9225154e+00  -2.7393050e+05
   1.2264088e-09  -3.9305990e-05   2.9315020e+00   2.9225494e+00  -2.7204067e+05
   1.2274091e-09  -3.9034799e-05   2.9314740e+00   2.9225831e+00  -2.7016387e+05
   1.2284095e-09  -3.8765478e-05   2.9314461e+00   2.9226166e+00  -2.6830002e+05
   1.2294098e-09  -3.8498016e-05   2.9314185e+00   2.9226499e+00  -2.6644902e+05
   1.2304101e-09  -3.8232398e-05   2.9313911e+00   2.9226830e+00  -2.6461079e+05
   1.2314105e-09  -3.7968613e-05   2.9313638e+00   2.9227158e+00  -2.6278525e+05
   1.2324108e-09  -3.7706648e-05   2.9313367e+00   2.9227484e+00  -2.6097229e+05
   1.2334111e-09  -3.7446491e-05   2.9313098e+00   2.9227807e+00  -2.5917184e+05
   1.2344115e-09  -3.7188128e-05   2.9312831e+00   2.9228129e+00  -2.5738381e+05
   1.2354118e-09  -3.6931547e-05   2.9312566e+00   2.9228448e+00  -2.5560811e+05
   1.2364121e-09  -3.6676737e-05   2.9312303e+00   2.9228765e+00  -2.5384467e+05
   1.2374125e-09  -3.6423685e-05   2.9312041e+00   2.9229079e+00  -2.5209338e+05
   1.2384128e-09  -3.6172378e-05   2.9311782e+00   2.9229392e+00  -2.5035418e+05
   1.2394131e-09  -3.5922805e-05   2.9311524e+00   2.9229703e+00  -2.4862698e+05
   1.2404135e-09  -3.5674954e-05   2.9311268e+00   2.9230011e+00  -2.4691168e+05
   1.2414138e-09  -3.5428813e-05   2.9311013e+00   2.9230317e+00  -2.4520823e+05
   1.2424141e-09  -3.5184370e-05   2.9310761e+00   2.9230621e+00  -2.4351652e+05
   1.2434145e-09  -3.4941614e-05   2.9310510e+00   2.9230923e+00  -2.4183648e+05
   1.2444148e-09  -3.4700532e-05   2.9310261e+00   2.9231223e+00  -2.4016803e+05
   1.2454151e-09  -3.4461114e-05   2.9310013e+00   2.9231521e+00  -2.3851109e+05
   1.2464155e-09  -3.4223347e-05   2.9309767e+00   2.9231817e+00  -2.3686558e+05
   1.2474158e-09  -3.3987221e-05   2.9309523e+00   2.9232110e+00  -2.3523142e+05
   1.2484161e-09  -3.3752724e-05   2.9309281e+00   2.9232402e+00  -2.3360853e+05
   1.2494165e-09  -3.3519844e-05   2.9309040e+00   2.9232692e+00  -2.3199684e+05
   1.2504168e-09  -3.3288572e-05   2.9308801e+00   2.9232979e+00  -2.3039627e+05
   1.2514171e-09  -3.3058894e-05   2.9308564e+00   2.9233265e+00  -2.2880673e+05
   1.2524175e-09  -3.2830802e-05   2.9308328e+00   2.9233549e+00  -2.2722817e+05
   1.2534178e-09  -3.2604283e-05   2.9308094e+00   2.9233831e+00  -2.2566049e+05
   1.2544181e-09  -3.2379327e-05   2.9307862e+00   2.9234111e+00  -2.2410362e+05
   1.2554185e-09  -3.2155923e-05   2.9307631e+00   2.9234389e+00  -2.2255750e+05
   1.2564188e-09  -3.1934060e-05   2.9307402e+00   2.9234665e+00  -2.2102204e+05
   1.2574191e-09  -3.1713728e-05   2.9307174e+00   2.9234939e+00  -2.1949717e+05
   1.2584195e-09  -3.1494916e-05   2.9306948e+00   2.9235211e+00  -2.1798282e+05
   1.2594198e-09  -3.1277613e-05   2.9306723e+00   2.9235481e+00  -2.1647892e+05
   1.2604201e-09  -3.1061810e-05   2.9306500e+00   2.9235750e+00  -2.1498539e+05
   1.2614205e-09  -3.0847496e-05   2.9306279e+00   2.9236016e+00  -2.1350217e+05
   1.2624208e-09  -3.0634660e-05   2.9306059e+00   2.9236281e+00  -2.1202918e+05
   1.2634211e-09  -3.0423292e-05   2.9305840e+00   2.9236544e+00  -2.1056635e+05
   1.2644215e-09  -3.0213383e-05   2.9305623e+00   2.9236805e+00  -2.0911360e+05
   1.2654218e-09  -3.0004922e-05   2.9305408e+00   2.9237064e+00  -2.0767089e+05
   1.2664221e-09  -2.9797900e-05   2.9305194e+00   2.9237322e+00  -2.0623812e+05
   1.2674225e-09  -2.9592305e-05   2.9304982e+00   2.9237578e+00  -2.0481524e+05
   1.2684228e-09  -2.9388129e-05   2.9304771e+00   2.9237832e+00  -2.0340217e+05
   1.2694231e-09  -2.9185362e-05   2.9304561e+00   2.9238084e+00  -2.0199885e+05
   1.2704235e-09  -2.8983994e-05   2.9304353e+00   2.9238335e+00  -2.0060521e+05
   1.2714238e-09  -2.8784015e-05   2.9304146e+00   2.9238583e+00  -1.9922119e+05
   1.2724241e-09  -2.8585415e-05   2.9303941e+00   2.9238830e+00  -1.9784671e+05
   1.2734245e-09  -2.8388186e-05   2.9303737e+00   2.9239076e+00  -1.9648172e+05
   1.2744248e-09  -2.8192318e-05   2.9303535e+00   2.9239319e+00  -1.9512614e+05
   1.2754251e-09  -2.7997801e-05   2.9303334e+00   2.9239561e+00  -1.9377991e+05
   1.2764255e-09  -2.7804626e-05   2.9303134e+00   2.9239802e+00  -1.9244297e+05
   1.2774258e-09  -2.7612783e-05   2.9302936e+00   2.9240040e+00  -1.9111526e+05
   1.2784261e-09  -2.7422265e-05   2.9302739e+00   2.9240277e+00  -1.8979670e+05
   1.2794265e-09  -2.7233060e-05   2.9302543e+00   2.9240513e+00  -1.8848724e+05
   1.2804268e-09  -2.7045161e-05   2.9302349e+00   2.9240747e+00  -1.8718681e+05
   1.2814271e-09  -2.6858559e-05   2.9302156e+00   2.9240979e+00  -1.8589535e+05
   1.2824275e-09  -2.6673244e-05   2.9301965e+00   2.9241209e+00  -1.8461280e+05
   1.2834278e-09  -2.6489207e-05   2.9301775e+00   2.9241438e+00  -1.8333910e+05
   1.2844281e-09  -2.6306440e-05   2.9301586e+00   2.9241666e+00  -1.8207419e+05
   1.2854285e-09  -2.6124935e-05   2.9301398e+00   2.9241892e+00  -1.8081800e+05
   1.2864288e-09  -2.5944681e-05   2.9301212e+00   2.9242116e+00  -1.7957048e+05
   1.2874291e-09  -2.5765671e-05   2.9301027e+00   2.9242338e+00  -1.7833156e+05
   1.2884295e-09  -2.5587896e-05   2.9300843e+00   2.9242560e+00  -1.7710120e+05
   1.2894298e-09  -2.5411348e-05   2.9300661e+00   2.9242779e+00  -1.7587931e+05
   1.2904301e-09  -2.5236017e-05   2.9300480e+00   2.9242997e+00  -1.7466586e+05
   1.2914305e-09  -2.5061897e-05   2.9300300e+00   2.9243214e+00  -1.7346078e+05
   1.2924308e-09  -2.4888977e-05   2.9300121e+00   2.9243429e+00  -1.7226402e+05
   1.2934311e-09  -2.4717251e-05   2.9299944e+00   2.9243643e+00  -1.7107551e+05
   1.2944315e-09  -2.4546709e-05   2.9299767e+00   2.9243855e+00  -1.6989519e+05
   1.2954318e-09  -2.4377345e-05   2.9299592e+00   2.9244066e+00  -1.6872303e+05
   1.2964321e-09  -2.4209148e-05   2.9299418e+00   2.9244275e+00  -1.6755894e+05
   1.2974325e-09  -2.4042112e-05   2.9299246e+00   2.9244483e+00  -1.6640289e+05
   1.2984328e-09  -2.3876229e-05   2.9299074e+00   2.9244689e+00  -1.6525481e+05
   1.2994331e-09  -2.3711490e-05   2.9298904e+00   2.9244894e+00  -1.6411466e+05
   1.3004335e-09  -2.3547887e-05   2.9298735e+00   2.9245098e+00  -1.6298237e+05
   1.3014338e-09  -2.3385414e-05   2.9298567e+00   2.9245300e+00  -1.6185789e+05
   1.3024341e-09  -2.3224061e-05   2.9298400e+00   2.9245501e+00  -1.6074117e+05
   1.3034345e-09  -2.3063822e-05   2.9298235e+00   2.9245700e+00  -1.5963215e+05
   1.3044348e-09  -2.2904688e-05   2.9298070e+00   2.9245898e+00  -1.5853078e+05
   1.3054351e-09  -2.2746652e-05   2.9297907e+00   2.9246095e+00  -1.5743701e+05
   1.3064355e-09  -2.2589706e-05   2.9297745e+00   2.9246290e+00  -1.5635079e+05
   1.3074358e-09  -2.2433843e-05   2.9297584e+00   2.9246484e+00  -1.5527206e+05
   1.3084361e-09  -2.2279056e-05   2.9297424e+00   2.9246676e+00  -1.5420077e+05
   1.3094365e-09  -2.2125337e-05   2.9297265e+00   2.9246868e+00  -1.5313688e+05
   1.3104368e-09  -2.1972678e-05   2.9297107e+00   2.9247058e+00  -1.5208032e+05
   1.3114371e-09  -2.1821072e-05   2.9296951e+00   2.9247246e+00  -1.5103105e+05
   1.3124375e-09  -2.1670512e-05   2.9296795e+00   2.9247434e+00  -1.4998902e+05
   1.3134378e-09  -2.1520992e-05   2.9296640e+00   2.9247620e+00  -1.4895418e+05
   1.3144381e-09  -2.1372502e-05   2.9296487e+00   2.9247804e+00  -1.4792648e+05
   1.3154385e-09  -2.1225038e-05   2.9296335e+00   2.9247988e+00  -1.4690587e+05
   1.3164388e-09  -2.1078590e-05   2.9296183e+00   2.9248170e+00  -1.4589230e+05
   1.3174391e-09  -2.0933153e-05   2.9296033e+00   2.9248351e+00  -1.4488572e+05
   1.3184395e-09  -2.0788720e-05   2.9295884e+00   2.9248531e+00  -1.4388609e+05
   1.3194398e-09  -2.0645283e-05   2.9295735e+00   2.9248709e+00  -1.4289335e+05
   1.3204401e-09  -2.0502836e-05   2.9295588e+00   2.9248886e+00  -1.4190746e+05
   1.3214405e-09  -2.0361371e-05   2.9295442e+00   2.9249062e+00  -1.4092837e+05
   1.3224408e-09  -2.0220883e-05   2.9295297e+00   2.9249237e+00  -1.3995604e+05
   1.3234411e-09  -2.0081364e-05   2.9295153e+00   2.9249411e+00  -1.3899042e+05
   1.3244415e-09  -1.9942807e-05   2.9295009e+00   2.9249583e+00  -1.3803145e+05
   1.3254418e-09  -1.9805206e-05   2.9294867e+00   2.9249754e+00  -1.3707911e+05
   1.3264421e-09  -1.9668555e-05   2.9294726e+00   2.9249924e+00  -1.3613333e+05
   1.3274425e-09  -1.9532847e-05   2.9294586e+00   2.9250093e+00  -1.3519408e+05
   1.3284428e-09  -1.9398075e-05   2.9294447e+00   2.9250261e+00  -1.3426131e+05
   1.3294431e-09  -1.9264232e-05   2.9294308e+00   2.9250427e+00  -1.3333497e+05
   1.3304435e-09  -1.9131314e-05   2.9294171e+00   2.9250593e+00  -1.3241503e+05
   1.3314438e-09  -1.8999312e-05   2.9294034e+00   2.9250757e+00  -1.3150143e+05
   1.3324441e-09  -1.8868221e-05   2.9293899e+00   2.9250920e+00  -1.3059413e+05
   1.3334445e-09  -1.8738035e-05   2.9293764e+00   2.9251082e+00  -1.2969309e+05
   1.3344448e-09  -1.8608746e-05   2.9293631e+00   2.9251243e+00  -1.2879827e+05
   1.3354451e-09  -1.8480350e-05   2.9293498e+00   2.9251403e+00  -1.2790963e+05
   1.3364455e-09  -1.8352840e-05   2.9293366e+00   2.9251561e+00  -1.2702711e+05
   1.3374458e-09  -1.8226209e-05   2.9293235e+00   2.9251719e+00  -1.2615068e+05
   1.3384461e-09  -1.8100452e-05   2.9293106e+00   2.9251876e+00  -1.2528030e+05
   1.3394465e-09  -1.7975563e-05   2.9292976e+00   2.9252031e+00  -1.2441593e+05
   1.3404468e-09  -1.7851535e-05   2.9292848e+00   2.9252185e+00  -1.2355751e+05
   1.3414471e-09  -1.7728364e-05   2.9292721e+00   2.9252339e+00  -1.2270502e+05
   1.3424475e-09  -1.7606042e-05   2.9292595e+00   2.9252491e+00  -1.2185841e+05
   1.3434478e-09  -1.7484563e-05   2.9292469e+00   2.9252642e+00  -1.2101764e+05
   1.3444481e-09  -1.7363924e-05   2.9292344e+00   2.9252792e+00  -1.2018268e+05
   1.3454485e-09  -1.7244116e-05   2.9292221e+00   2.9252941e+00  -1.1935347e+05
   1.3464488e-09  -1.7125135e-05   2.9292098e+00   2.9253089e+00  -1.1852998e+05
   1.3474491e-09  -1.7006975e-05   2.9291975e+00   2.9253236e+00  -1.1771218e+05
   1.3484495e-09  -1.6889630e-05   2.9291854e+00   2.9253382e+00  -1.1690001e+05
   1.3494498e-09  -1.6773095e-05   2.9291734e+00   2.9253527e+00  -1.1609345e+05
   1.3504502e-09  -1.6657364e-05   2.9291614e+00   2.9253671e+00  -1.1529246e+05
   1.3514505e-09  -1.6542432e-05   2.9291495e+00   2.9253814e+00  -1.1449699e+05
   1.3524508e-09  -1.6428292e-05   2.9291377e+00   2.9253956e+00  -1.1370701e+05
   1.3534512e-09  -1.6314940e-05   2.9291260e+00   2.9254097e+00  -1.1292247e+05
   1.3544515e-09  -1.6202370e-05   2.9291144e+00   2.9254237e+00  -1.1214336e+05
   1.3554518e-09  -1.6090577e-05   2.9291028e+00   2.9254376e+00  -1.1136961e+05
   1.3564522e-09  -1.5979555e-05   2.9290914e+00   2.9254515e+00  -1.1060121e+05
   1.3574525e-09  -1.5869299e-05   2.9290800e+00   2.9254652e+00  -1.0983810e+05
   1.3584528e-09  -1.5759804e-05   2.9290687e+00   2.9254788e+00  -1.0908026e+05
   1.3594532e-09  -1.5651064e-05   2.9290574e+00   2.9254923e+00  -1.0832765e+05
   1.3604535e-09  -1.5543074e-05   2.9290463e+00   2.9255058e+00  -1.0758024e+05
   1.3614538e-09  -1.5435830e-05   2.9290352e+00   2.9255191e+00  -1.0683797e+05
   1.3624542e-09  -1.5329325e-05   2.9290242e+00   2.9255324e+00  -1.0610083e+05
   1.3634545e-09  -1.5223556e-05   2.9290132e+00   2.9255455e+00  -1.0536878e+05
   1.3644548e-09  -1.5118516e-05   2.9290024e+00   2.9255586e+00  -1.0464177e+05
   1.3654552e-09  -1.5014201e-05   2.9289916e+00   2.9255716e+00  -1.0391979e+05
   1.3664555e-09  -1.4910605e-05   2.9289809e+00   2.9255845e+00  -1.0320278e+05
   1.3674558e-09  -1.4807725e-05   2.9289703e+00   2.9255973e+00  -1.0249072e+05
   1.3684562e-09  -1.4705554e-05   2.9289597e+00   2.9256100e+00  -1.0178357e+05
   1.3694565e-09  -1.4604088e-05   2.9289492e+00   2.9256226e+00  -1.0108130e+05
   1.3704568e-09  -1.4503322e-05   2.9289388e+00   2.9256351e+00  -1.0038388e+05
   1.3714572e-09  -1.4403252e-05   2.9289285e+00   2.9256476e+00  -9.9691264e+04
   1.3724575e-09  -1.4303872e-05   2.9289182e+00   2.9256600e+00  -9.9003430e+04
   1.3734578e-09  -1.4205177e-05   2.9289080e+00   2.9256722e+00  -9.8320342e+04
   1.3744582e-09  -1.4107164e-05   2.9288979e+00   2.9256844e+00  -9.7641966e+04
   1.3754585e-09  -1.4009827e-05   2.9288878e+00   2.9256965e+00  -9.6968271e+04
   1.3764588e-09  -1.3913161e-05   2.9288778e+00   2.9257086e+00  -9.6299224e+04
   1.3774592e-09  -1.3817162e-05   2.9288679e+00   2.9257205e+00  -9.5634792e+04
   1.3784595e-09  -1.3721826e-05   2.9288581e+00   2.9257324e+00  -9.4974945e+04
   1.3794598e-09  -1.3627148e-05   2.9288483e+00   2.9257442e+00  -9.4319651e+04
   1.3804602e-09  -1.3533122e-05   2.9288385e+00   2.9257559e+00  -9.3668877e+04
   1.3814605e-09  -1.3439746e-05   2.9288289e+00   2.9257675e+00  -9.3022593e+04
   1.3824608e-09  -1.3347014e-05   2.9288193e+00   2.9257790e+00  -9.2380768e+04
   1.3834612e-09  -1.3254921e-05   2.9288098e+00   2.9257905e+00  -9.1743371e+04
   1.3844615e-09  -1.3163464e-05   2.9288003e+00   2.9258019e+00  -9.1110372e+04
   1.3854618e-09  -1.3072638e-05   2.9287910e+00   2.9258132e+00  -9.0481740e+04
   1.3864622e-09  -1.2982439e-05   2.9287816e+00   2.9258244e+00  -8.9857446e+04
   1.3874625e-09  -1.2892862e-05   2.9287724e+00   2.9258355e+00  -8.9237458e+04
   1.3884628e-09  -1.2803903e-05   2.9287632e+00   2.9258466e+00  -8.8621748e+04
   1.3894632e-09  -1.2715558e-05   2.9287541e+00   2.9258576e+00  -8.8010286e+04
   1.3904635e-09  -1.2627823e-05   2.9287450e+00   2.9258685e+00  -8.7403043e+04
   1.3914638e-09  -1.2540692e-05   2.9287360e+00   2.9258794e+00  -8.6799989e+04
   1.3924642e-09  -1.2454163e-05   2.9287270e+00   2.9258901e+00  -8.6201096e+04
   1.3934645e-09  -1.2368231e-05   2.9287182e+00   2.9259008e+00  -8.5606335e+04
   1.3944648e-09  -1.2282892e-05   2.9287093e+00   2.9259114e+00  -8.5015677e+04
   1.3954652e-09  -1.2198142e-05   2.9287006e+00   2.9259220e+00  -8.4429095e+04
   1.3964655e-09  -1.2113976e-05   2.9286919e+00   2.9259325e+00  -8.3846559e+04
   1.3974658e-09  -1.2030392e-05   2.9286833e+00   2.9259429e+00  -8.3268043e+04
   1.3984662e-09  -1.1947383e-05   2.9286747e+00   2.9259532e+00  -8.2693518e+04
   1.3994665e-09  -1.1864948e-05   2.9286662e+00   2.9259634e+00  -8.2122957e+04
   1.4004668e-09  -1.1783081e-05   2.9286577e+00   2.9259736e+00  -8.1556332e+04
   1.4014672e-09  -1.1701780e-05   2.9286493e+00   2.9259838e+00  -8.0993617e+04
   1.4024675e-09  -1.1621039e-05   2.9286409e+00   2.9259938e+00  -8.0434784e+04
   1.4034678e-09  -1.1540855e-05   2.9286327e+00   2.9260038e+00  -7.9879807e+04
   1.4044682e-09  -1.1461225e-05   2.9286244e+00   2.9260137e+00  -7.9328659e+04
   1.4054685e-09  -1.1382144e-05   2.9286163e+00   2.9260235e+00  -7.8781313e+04
   1.4064688e-09  -1.1303608e-05   2.9286081e+00   2.9260333e+00  -7.8237744e+04
   1.4074692e-09  -1.1225615e-05   2.9286001e+00   2.9260430e+00  -7.7697925e+04
   1.4084695e-09  -1.1148159e-05   2.9285921e+00   2.9260526e+00  -7.7161831e+04
   1.4094698e-09  -1.1071238e-05   2.9285841e+00   2.9260622e+00  -7.6629435e+04
   1.4104702e-09  -1.0994848e-05   2.9285762e+00   2.9260717e+00  -7.6100713e+04
   1.4114705e-09  -1.0918985e-05   2.9285684e+00   2.9260812e+00  -7.5575638e+04
   1.4124708e-09  -1.0843645e-05   2.9285606e+00   2.9260905e+00  -7.5054186e+04
   1.4134712e-09  -1.0768825e-05   2.9285529e+00   2.9260998e+00  -7.4536332e+04
   1.4144715e-09  -1.0694522e-05   2.9285452e+00   2.9261091e+00  -7.4022051e+04
   1.4154718e-09  -1.0620731e-05   2.9285376e+00   2.9261183e+00  -7.3511318e+04
   1.4164722e-09  -1.0547449e-05   2.9285300e+00   2.9261274e+00  -7.3004108e+04
   1.4174725e-09  -1.0474673e-05   2.9285225e+00   2.9261364e+00  -7.2500399e+04
   1.4184728e-09  -1.0402399e-05   2.9285150e+00   2.9261454e+00  -7.2000164e+04
   1.4194732e-09  -1.0330623e-05   2.9285076e+00   2.9261544e+00  -7.1503381e+04
   1.4204735e-09  -1.0259343e-05   2.9285002e+00   2.9261632e+00  -7.1010026e+04
   1.4214738e-09  -1.0188555e-05   2.9284929e+00   2.9261721e+00  -7.0520074e+04
   1.4224742e-09  -1.0118255e-05   2.9284856e+00   2.9261808e+00  -7.0033503e+04
   1.4234745e-09  -1.0048440e-05   2.9284784e+00   2.9261895e+00  -6.9550289e+04
   1.4244748e-09  -9.9791066e-06   2.9284713e+00   2.9261981e+00  -6.9070408e+04
   1.4254752e-09  -9.9102518e-06   2.9284642e+00   2.9262067e+00  -6.8593839e+04
   1.4264755e-09  -9.8418721e-06   2.9284571e+00   2.9262152e+00  -6.8120558e+04
   1.4274758e-09  -9.7739642e-06   2.9284501e+00   2.9262236e+00  -6.7650542e+04
   1.4284762e-09  -9.7065248e-06   2.9284431e+00   2.9262320e+00  -6.7183769e+04
   1.4294765e-09  -9.6395507e-06   2.9284362e+00   2.9262404e+00  -6.6720217e+04
   1.4304768e-09  -9.5730388e-06   2.9284293e+00   2.9262486e+00  -6.6259863e+04
   1.4314772e-09  -9.5069858e-06   2.9284225e+00   2.9262569e+00  -6.5802685e+04
   1.4324775e-09  -9.4413885e-06   2.9284157e+00   2.9262650e+00  -6.5348661e+04
   1.4334778e-09  -9.3762438e-06   2.9284090e+00   2.9262731e+00  -6.4897770e+04
   1.4344782e-09  -9.3115486e-06   2.9284023e+00   2.9262812e+00  -6.4449990e+04
   1.4354785e-09  -9.2472998e-06   2.9283956e+00   2.9262892e+00  -6.4005299e+04
   1.4364788e-09  -9.1834943e-06   2.9283890e+00   2.9262971e+00  -6.3563677e+04
   1.4374792e-09  -9.1201291e-06   2.9283825e+00   2.9263050e+00  -6.3125101e+04
   1.4384795e-09  -9.0572010e-06   2.9283760e+00   2.9263128e+00  -6.2689552e+04
   1.4394798e-09  -8.9947072e-06   2.9283695e+00   2.9263206e+00  -6.2257007e+04
   1.4404802e-09  -8.9326445e-06   2.9283631e+00   2.9263283e+00  -6.1827447e+04
   1.4414805e-09  -8.8710101e-06   2.9283568e+00   2.9263360e+00  -6.1400851e+04
   1.4424808e-09  -8.8098009e-06   2.9283504e+00   2.9263436e+00  -6.0977198e+04
   1.4434812e-09  -8.7490140e-06   2.9283441e+00   2.9263512e+00  -6.0556468e+04
   1.4444815e-09  -8.6886466e-06   2.9283379e+00   2.9263587e+00  -6.0138640e+04
   1.4454818e-09  -8.6286957e-06   2.9283317e+00   2.9263662e+00  -5.9723696e+04
   1.4464822e-09  -8.5691584e-06   2.9283256e+00   2.9263736e+00  -5.9311615e+04
   1.4474825e-09  -8.5100319e-06   2.9283194e+00   2.9263809e+00  -5.8902377e+04
   1.4484828e-09  -8.4513134e-06   2.9283134e+00   2.9263882e+00  -5.8495962e+04
   1.4494832e-09  -8.3930001e-06   2.9283074e+00   2.9263955e+00  -5.8092351e+04
   1.4504835e-09  -8.3350891e-06   2.9283014e+00   2.9264027e+00  -5.7691525e+04
   1.4514838e-09  -8.2775776e-06   2.9282954e+00   2.9264099e+00  -5.7293465e+04
   1.4524842e-09  -8.2204630e-06   2.9282895e+00   2.9264170e+00  -5.6898151e+04
   1.4534845e-09  -8.1637425e-06   2.9282837e+00   2.9264240e+00  -5.6505565e+04
   1.4544848e-09  -8.1074133e-06   2.9282778e+00   2.9264310e+00  -5.6115687e+04
   1.4554852e-09  -8.0514728e-06   2.9282721e+00   2.9264380e+00  -5.5728500e+04
   1.4564855e-09  -7.9959182e-06   2.9282663e+00   2.9264449e+00  -5.5343983e+04
   1.4574858e-09  -7.9407470e-06   2.9282606e+00   2.9264518e+00  -5.4962120e+04
   1.4584862e-09  -7.8859565e-06   2.9282550e+00   2.9264586e+00  -5.4582892e+04
   1.4594865e-09  -7.8315440e-06   2.9282493e+00   2.9264654e+00  -5.4206280e+04
   1.4604868e-09  -7.7775069e-06   2.9282437e+00   2.9264721e+00  -5.3832266e+04
   1.4614872e-09  -7.7238427e-06   2.9282382e+00   2.9264788e+00  -5.3460833e+04
   1.4624875e-09  -7.6705487e-06   2.9282327e+00   2.9264854e+00  -5.3091963e+04
