   0.0000000e+00  -1.2803278e-01   6.3136260e+00   2.9747603e-04  -5.2032985e+08
   1.0003334e-12  -1.2751300e-01   6.3120058e+00   3.0967531e-04  -5.1892541e+08
   2.0006669e-12  -1.2699461e-01   6.3103577e+00   3.2233818e-04  -5.1752081e+08
   3.0010003e-12  -1.2647764e-01   6.3086814e+00   3.3548063e-04  -5.1611605e+08
   4.0013338e-12  -1.2596206e-01   6.3069763e+00   3.4911913e-04  -5.1471113e+08
   5.0016672e-12  -1.2544790e-01   6.3052422e+00   3.6327065e-04  -5.1330605e+08
   6.0020007e-12  -1.2493514e-01   6.3034787e+00   3.7795267e-04  -5.1190082e+08
   7.0023341e-12  -1.2442378e-01   6.3016854e+00   3.9318318e-04  -5.1049545e+08
   8.0026676e-12  -1.2391383e-01   6.2998620e+00   4.0898070e-04  -5.0908992e+08
   9.0030010e-12  -1.2340529e-01   6.2980081e+00   4.2536429e-04  -5.0768426e+08
   1.0003334e-11  -1.2289815e-01   6.2961232e+00   4.4235359e-04  -5.0627845e+08
   1.1003668e-11  -1.2239242e-01   6.2942070e+00   4.5996878e-04  -5.0487250e+08
   1.2004001e-11  -1.2188810e-01   6.2922592e+00   4.7823064e-04  -5.0346643e+08
   1.3004335e-11  -1.2138518e-01   6.2902793e+00   4.9716053e-04  -5.0206022e+08
   1.4004668e-11  -1.2088367e-01   6.2882670e+00   5.1678044e-04  -5.0065388e+08
   1.5005002e-11  -1.2038357e-01   6.2862218e+00   5.3711296e-04  -4.9924742e+08
   1.6005335e-11  -1.1988487e-01   6.2841434e+00   5.5818133e-04  -4.9784085e+08
   1.7005669e-11  -1.1938758e-01   6.2820314e+00   5.8000942e-04  -4.9643416e+08
   1.8006002e-11  -1.1889170e-01   6.2798854e+00   6.0262180e-04  -4.9502736e+08
   1.9006335e-11  -1.1839723e-01   6.2777051e+00   6.2604368e-04  -4.9362045e+08
   2.0006669e-11  -1.1790416e-01   6.2754899e+00   6.5030099e-04  -4.9221345e+08
   2.1007002e-11  -1.1741250e-01   6.2732396e+00   6.7542033e-04  -4.9080635e+08
   2.2007336e-11  -1.1692225e-01   6.2709537e+00   7.0142906e-04  -4.8939916e+08
   2.3007669e-11  -1.1643340e-01   6.2686318e+00   7.2835526e-04  -4.8799188e+08
   2.4008003e-11  -1.1594597e-01   6.2662736e+00   7.5622775e-04  -4.8658452e+08
   2.5008336e-11  -1.1545994e-01   6.2638787e+00   7.8507612e-04  -4.8517709e+08
   2.6008670e-11  -1.1497532e-01   6.2614465e+00   8.1493074e-04  -4.8376959e+08
   2.7009003e-11  -1.1449211e-01   6.2589769e+00   8.4582279e-04  -4.8236203e+08
   2.8009336e-11  -1.1401030e-01   6.2564693e+00   8.7778424e-04  -4.8095442e+08
   2.9009670e-11  -1.1352990e-01   6.2539233e+00   9.1084788e-04  -4.7954675e+08
   3.0010003e-11  -1.1305092e-01   6.2513387e+00   9.4504737e-04  -4.7813904e+08
   3.1010337e-11  -1.1257334e-01   6.2487149e+00   9.8041718e-04  -4.7673129e+08
   3.2010670e-11  -1.1209717e-01   6.2460515e+00   1.0169927e-03  -4.7532352e+08
   3.3011004e-11  -1.1162240e-01   6.2433482e+00   1.0548102e-03  -4.7391572e+08
   3.4011337e-11  -1.1114905e-01   6.2406047e+00   1.0939067e-03  -4.7250790e+08
   3.5011671e-11  -1.1067710e-01   6.2378203e+00   1.1343205e-03  -4.7110008e+08
   3.6012004e-11  -1.1020656e-01   6.2349949e+00   1.1760904e-03  -4.6969226e+08
   3.7012337e-11  -1.0973743e-01   6.2321280e+00   1.2192565e-03  -4.6828445e+08
   3.8012671e-11  -1.0926971e-01   6.2292191e+00   1.2638596e-03  -4.6687665e+08
   3.9013004e-11  -1.0880340e-01   6.2262680e+00   1.3099416e-03  -4.6546888e+08
   4.0013338e-11  -1.0833849e-01   6.2232742e+00   1.3575455e-03  -4.6406114e+08
   4.1013671e-11  -1.0787499e-01   6.2202373e+00   1.4067151e-03  -4.6265345e+08
   4.2014005e-11  -1.0741290e-01   6.2171569e+00   1.4574954e-03  -4.6124580e+08
   4.3014338e-11  -1.0695222e-01   6.2140327e+00   1.5099322e-03  -4.5983822e+08
   4.4014672e-11  -1.0649295e-01   6.2108642e+00   1.5640727e-03  -4.5843070e+08
   4.5015005e-11  -1.0603509e-01   6.2076511e+00   1.6199649e-03  -4.5702327e+08
   4.6015338e-11  -1.0557863e-01   6.2043931e+00   1.6776579e-03  -4.5561593e+08
   4.7015672e-11  -1.0512358e-01   6.2010896e+00   1.7372022e-03  -4.5420868e+08
   4.8016005e-11  -1.0466994e-01   6.1977403e+00   1.7986489e-03  -4.5280155e+08
   4.9016339e-11  -1.0421770e-01   6.1943449e+00   1.8620508e-03  -4.5139454e+08
   5.0016672e-11  -1.0376688e-01   6.1909030e+00   1.9274613e-03  -4.4998766e+08
   5.1017006e-11  -1.0331746e-01   6.1874142e+00   1.9949355e-03  -4.4858092e+08
   5.2017339e-11  -1.0286945e-01   6.1838782e+00   2.0645291e-03  -4.4717434e+08
   5.3017673e-11  -1.0242284e-01   6.1802945e+00   2.1362995e-03  -4.4576793e+08
   5.4018006e-11  -1.0197764e-01   6.1766629e+00   2.2103050e-03  -4.4436169e+08
   5.5018339e-11  -1.0153385e-01   6.1729829e+00   2.2866052e-03  -4.4295564e+08
   5.6018673e-11  -1.0109146e-01   6.1692542e+00   2.3652609e-03  -4.4154980e+08
   5.7019006e-11  -1.0065049e-01   6.1654764e+00   2.4463342e-03  -4.4014417e+08
   5.8019340e-11  -1.0021091e-01   6.1616492e+00   2.5298884e-03  -4.3873877e+08
   5.9019673e-11  -9.9772744e-02   6.1577723e+00   2.6159880e-03  -4.3733361e+08
   6.0020007e-11  -9.9335982e-02   6.1538453e+00   2.7046990e-03  -4.3592871e+08
   6.1020340e-11  -9.8900625e-02   6.1498678e+00   2.7960884e-03  -4.3452408e+08
   6.2020674e-11  -9.8466673e-02   6.1458396e+00   2.8902247e-03  -4.3311972e+08
   6.3021007e-11  -9.8034126e-02   6.1417603e+00   2.9871776e-03  -4.3171567e+08
   6.4021340e-11  -9.7602983e-02   6.1376295e+00   3.0870182e-03  -4.3031192e+08
   6.5021674e-11  -9.7173244e-02   6.1334470e+00   3.1898189e-03  -4.2890851e+08
   6.6022007e-11  -9.6744909e-02   6.1292125e+00   3.2956534e-03  -4.2750543e+08
   6.7022341e-11  -9.6317977e-02   6.1249255e+00   3.4045969e-03  -4.2610270e+08
   6.8022674e-11  -9.5892448e-02   6.1205859e+00   3.5167257e-03  -4.2470035e+08
   6.9023008e-11  -9.5468321e-02   6.1161932e+00   3.6321177e-03  -4.2329839e+08
   7.0023341e-11  -9.5045597e-02   6.1117473e+00   3.7508521e-03  -4.2189683e+08
   7.1023675e-11  -9.4624275e-02   6.1072478e+00   3.8730093e-03  -4.2049568e+08
   7.2024008e-11  -9.4204354e-02   6.1026945e+00   3.9986714e-03  -4.1909498e+08
   7.3024341e-11  -9.3785834e-02   6.0980870e+00   4.1279218e-03  -4.1769472e+08
   7.4024675e-11  -9.3368714e-02   6.0934251e+00   4.2608451e-03  -4.1629494e+08
   7.5025008e-11  -9.2952995e-02   6.0887084e+00   4.3975275e-03  -4.1489564e+08
   7.6025342e-11  -9.2538674e-02   6.0839369e+00   4.5380565e-03  -4.1349684e+08
   7.7025675e-11  -9.2125753e-02   6.0791101e+00   4.6825212e-03  -4.1209857e+08
   7.8026009e-11  -9.1714230e-02   6.0742278e+00   4.8310118e-03  -4.1070084e+08
   7.9026342e-11  -9.1304105e-02   6.0692899e+00   4.9836203e-03  -4.0930366e+08
   8.0026676e-11  -9.0895378e-02   6.0642960e+00   5.1404397e-03  -4.0790706e+08
   8.1027009e-11  -9.0488047e-02   6.0592459e+00   5.3015648e-03  -4.0651106e+08
   8.2027342e-11  -9.0082112e-02   6.0541394e+00   5.4670916e-03  -4.0511567e+08
   8.3027676e-11  -8.9677573e-02   6.0489763e+00   5.6371176e-03  -4.0372092e+08
   8.4028009e-11  -8.9274428e-02   6.0437564e+00   5.8117416e-03  -4.0232682e+08
   8.5028343e-11  -8.8872678e-02   6.0384794e+00   5.9910640e-03  -4.0093339e+08
   8.6028676e-11  -8.8472321e-02   6.0331452e+00   6.1751865e-03  -3.9954066e+08
   8.7029010e-11  -8.8073357e-02   6.0277536e+00   6.3642122e-03  -3.9814864e+08
   8.8029343e-11  -8.7675785e-02   6.0223044e+00   6.5582457e-03  -3.9675735e+08
   8.9029677e-11  -8.7279605e-02   6.0167974e+00   6.7573928e-03  -3.9536682e+08
   9.0030010e-11  -8.6884814e-02   6.0112325e+00   6.9617610e-03  -3.9397706e+08
   9.1030343e-11  -8.6491414e-02   6.0056095e+00   7.1714588e-03  -3.9258811e+08
   9.2030677e-11  -8.6099403e-02   5.9999283e+00   7.3865965e-03  -3.9119997e+08
   9.3031010e-11  -8.5708780e-02   5.9941887e+00   7.6072855e-03  -3.8981267e+08
   9.4031344e-11  -8.5319544e-02   5.9883906e+00   7.8336385e-03  -3.8842623e+08
   9.5031677e-11  -8.4931694e-02   5.9825339e+00   8.0657698e-03  -3.8704068e+08
   9.6032011e-11  -8.4545230e-02   5.9766184e+00   8.3037949e-03  -3.8565604e+08
   9.7032344e-11  -8.4160150e-02   5.9706440e+00   8.5478305e-03  -3.8427232e+08
   9.8032678e-11  -8.3776455e-02   5.9646107e+00   8.7979949e-03  -3.8288956e+08
   9.9033011e-11  -8.3394141e-02   5.9585184e+00   9.0544075e-03  -3.8150778e+08
   1.0003334e-10  -8.3013210e-02   5.9523669e+00   9.3171891e-03  -3.8012699e+08
   1.0103368e-10  -8.2633659e-02   5.9461562e+00   9.5864615e-03  -3.7874723e+08
   1.0203401e-10  -8.2255488e-02   5.9398863e+00   9.8623480e-03  -3.7736851e+08
   1.0303434e-10  -8.1878695e-02   5.9335571e+00   1.0144973e-02  -3.7599087e+08
   1.0403468e-10  -8.1503280e-02   5.9271686e+00   1.0434463e-02  -3.7461431e+08
   1.0503501e-10  -8.1129241e-02   5.9207206e+00   1.0730943e-02  -3.7323888e+08
   1.0603535e-10  -8.0756578e-02   5.9142133e+00   1.1034543e-02  -3.7186459e+08
   1.0703568e-10  -8.0385288e-02   5.9076465e+00   1.1345391e-02  -3.7049147e+08
   1.0803601e-10  -8.0015372e-02   5.9010203e+00   1.1663619e-02  -3.6911955e+08
   1.0903635e-10  -7.9646827e-02   5.8943347e+00   1.1989356e-02  -3.6774884e+08
   1.1003668e-10  -7.9279652e-02   5.8875897e+00   1.2322736e-02  -3.6637937e+08
   1.1103701e-10  -7.8913847e-02   5.8807853e+00   1.2663892e-02  -3.6501118e+08
   1.1203735e-10  -7.8549410e-02   5.8739216e+00   1.3012958e-02  -3.6364428e+08
   1.1303768e-10  -7.8186339e-02   5.8669985e+00   1.3370072e-02  -3.6227870e+08
   1.1403801e-10  -7.7824634e-02   5.8600163e+00   1.3735368e-02  -3.6091446e+08
   1.1503835e-10  -7.7464293e-02   5.8529748e+00   1.4108984e-02  -3.5955160e+08
   1.1603868e-10  -7.7105314e-02   5.8458742e+00   1.4491059e-02  -3.5819014e+08
   1.1703901e-10  -7.6747696e-02   5.8387146e+00   1.4881732e-02  -3.5683010e+08
   1.1803935e-10  -7.6391438e-02   5.8314961e+00   1.5281144e-02  -3.5547152e+08
   1.1903968e-10  -7.6036538e-02   5.8242187e+00   1.5689434e-02  -3.5411441e+08
   1.2004001e-10  -7.5682995e-02   5.8168827e+00   1.6106745e-02  -3.5275881e+08
   1.2104035e-10  -7.5330807e-02   5.8094880e+00   1.6533219e-02  -3.5140474e+08
   1.2204068e-10  -7.4979973e-02   5.8020349e+00   1.6968999e-02  -3.5005224e+08
   1.2304101e-10  -7.4630491e-02   5.7945235e+00   1.7414229e-02  -3.4870131e+08
   1.2404135e-10  -7.4282359e-02   5.7869539e+00   1.7869053e-02  -3.4735200e+08
   1.2504168e-10  -7.3935576e-02   5.7793264e+00   1.8333617e-02  -3.4600434e+08
   1.2604201e-10  -7.3590140e-02   5.7716410e+00   1.8808066e-02  -3.4465834e+08
   1.2704235e-10  -7.3246050e-02   5.7638981e+00   1.9292545e-02  -3.4331404e+08
   1.2804268e-10  -7.2903304e-02   5.7560977e+00   1.9787202e-02  -3.4197146e+08
   1.2904301e-10  -7.2561900e-02   5.7482400e+00   2.0292183e-02  -3.4063063e+08
   1.3004335e-10  -7.2221836e-02   5.7403254e+00   2.0807636e-02  -3.3929158e+08
   1.3104368e-10  -7.1883110e-02   5.7323540e+00   2.1333709e-02  -3.3795434e+08
   1.3204401e-10  -7.1545722e-02   5.7243261e+00   2.1870548e-02  -3.3661894e+08
   1.3304435e-10  -7.1209668e-02   5.7162419e+00   2.2418303e-02  -3.3528540e+08
   1.3404468e-10  -7.0874947e-02   5.7081016e+00   2.2977121e-02  -3.3395375e+08
   1.3504502e-10  -7.0541557e-02   5.6999056e+00   2.3547152e-02  -3.3262401e+08
   1.3604535e-10  -7.0209496e-02   5.6916541e+00   2.4128544e-02  -3.3129623e+08
   1.3704568e-10  -6.9878762e-02   5.6833473e+00   2.4721445e-02  -3.2997042e+08
   1.3804602e-10  -6.9549354e-02   5.6749857e+00   2.5326005e-02  -3.2864661e+08
   1.3904635e-10  -6.9221269e-02   5.6665695e+00   2.5942371e-02  -3.2732484e+08
   1.4004668e-10  -6.8894504e-02   5.6580990e+00   2.6570693e-02  -3.2600513e+08
   1.4104702e-10  -6.8569059e-02   5.6495745e+00   2.7211119e-02  -3.2468750e+08
   1.4204735e-10  -6.8244931e-02   5.6409964e+00   2.7863797e-02  -3.2337199e+08
   1.4304768e-10  -6.7922117e-02   5.6323650e+00   2.8528875e-02  -3.2205862e+08
   1.4404802e-10  -6.7600616e-02   5.6236807e+00   2.9206500e-02  -3.2074743e+08
   1.4504835e-10  -6.7280426e-02   5.6149439e+00   2.9896821e-02  -3.1943843e+08
   1.4604868e-10  -6.6961544e-02   5.6061548e+00   3.0599984e-02  -3.1813166e+08
   1.4704902e-10  -6.6643968e-02   5.5973140e+00   3.1316136e-02  -3.1682715e+08
   1.4804935e-10  -6.6327695e-02   5.5884217e+00   3.2045422e-02  -3.1552493e+08
   1.4904968e-10  -6.6012724e-02   5.5794784e+00   3.2787989e-02  -3.1422501e+08
   1.5005002e-10  -6.5699052e-02   5.5704846e+00   3.3543980e-02  -3.1292744e+08
   1.5105035e-10  -6.5386677e-02   5.5614405e+00   3.4313540e-02  -3.1163223e+08
   1.5205068e-10  -6.5075596e-02   5.5523466e+00   3.5096813e-02  -3.1033942e+08
   1.5305102e-10  -6.4765807e-02   5.5432035e+00   3.5893941e-02  -3.0904903e+08
   1.5405135e-10  -6.4457308e-02   5.5340114e+00   3.6705067e-02  -3.0776109e+08
   1.5505168e-10  -6.4150096e-02   5.5247709e+00   3.7530330e-02  -3.0647563e+08
   1.5605202e-10  -6.3844168e-02   5.5154825e+00   3.8369872e-02  -3.0519267e+08
   1.5705235e-10  -6.3539522e-02   5.5061465e+00   3.9223831e-02  -3.0391224e+08
   1.5805268e-10  -6.3236156e-02   5.4967635e+00   4.0092345e-02  -3.0263438e+08
   1.5905302e-10  -6.2934066e-02   5.4873339e+00   4.0975552e-02  -3.0135910e+08
   1.6005335e-10  -6.2633251e-02   5.4778583e+00   4.1873587e-02  -3.0008643e+08
   1.6105368e-10  -6.2333708e-02   5.4683372e+00   4.2786585e-02  -2.9881640e+08
   1.6205402e-10  -6.2035434e-02   5.4587710e+00   4.3714679e-02  -2.9754904e+08
   1.6305435e-10  -6.1738426e-02   5.4491602e+00   4.4658001e-02  -2.9628436e+08
   1.6405468e-10  -6.1442682e-02   5.4395054e+00   4.5616683e-02  -2.9502241e+08
   1.6505502e-10  -6.1148198e-02   5.4298071e+00   4.6590853e-02  -2.9376320e+08
   1.6605535e-10  -6.0854973e-02   5.4200659e+00   4.7580639e-02  -2.9250676e+08
   1.6705569e-10  -6.0563004e-02   5.4102822e+00   4.8586169e-02  -2.9125312e+08
   1.6805602e-10  -6.0272286e-02   5.4004567e+00   4.9607565e-02  -2.9000230e+08
   1.6905635e-10  -5.9982819e-02   5.3905898e+00   5.0644953e-02  -2.8875433e+08
   1.7005669e-10  -5.9694598e-02   5.3806822e+00   5.1698453e-02  -2.8750922e+08
   1.7105702e-10  -5.9407622e-02   5.3707343e+00   5.2768186e-02  -2.8626702e+08
   1.7205735e-10  -5.9121886e-02   5.3607469e+00   5.3854268e-02  -2.8502773e+08
   1.7305769e-10  -5.8837389e-02   5.3507204e+00   5.4956818e-02  -2.8379139e+08
   1.7405802e-10  -5.8554127e-02   5.3406554e+00   5.6075949e-02  -2.8255802e+08
   1.7505835e-10  -5.8272097e-02   5.3305525e+00   5.7211774e-02  -2.8132765e+08
   1.7605869e-10  -5.7991296e-02   5.3204123e+00   5.8364403e-02  -2.8010029e+08
   1.7705902e-10  -5.7711722e-02   5.3102354e+00   5.9533946e-02  -2.7887597e+08
   1.7805935e-10  -5.7433370e-02   5.3000225e+00   6.0720508e-02  -2.7765472e+08
   1.7905969e-10  -5.7156239e-02   5.2897740e+00   6.1924195e-02  -2.7643656e+08
   1.8006002e-10  -5.6880324e-02   5.2794907e+00   6.3145109e-02  -2.7522150e+08
   1.8106035e-10  -5.6605624e-02   5.2691731e+00   6.4383350e-02  -2.7400958e+08
   1.8206069e-10  -5.6332134e-02   5.2588218e+00   6.5639017e-02  -2.7280082e+08
   1.8306102e-10  -5.6059852e-02   5.2484375e+00   6.6912204e-02  -2.7159523e+08
   1.8406135e-10  -5.5788774e-02   5.2380208e+00   6.8203007e-02  -2.7039284e+08
   1.8506169e-10  -5.5518897e-02   5.2275723e+00   6.9511516e-02  -2.6919367e+08
   1.8606202e-10  -5.5250218e-02   5.2170927e+00   7.0837820e-02  -2.6799775e+08
   1.8706235e-10  -5.4982733e-02   5.2065826e+00   7.2182006e-02  -2.6680509e+08
   1.8806269e-10  -5.4716440e-02   5.1960426e+00   7.3544157e-02  -2.6561571e+08
   1.8906302e-10  -5.4451335e-02   5.1854734e+00   7.4924357e-02  -2.6442963e+08
   1.9006335e-10  -5.4187415e-02   5.1748757e+00   7.6322683e-02  -2.6324688e+08
   1.9106369e-10  -5.3924676e-02   5.1642499e+00   7.7739212e-02  -2.6206747e+08
   1.9206402e-10  -5.3663115e-02   5.1535969e+00   7.9174020e-02  -2.6089142e+08
   1.9306435e-10  -5.3402729e-02   5.1429173e+00   8.0627176e-02  -2.5971876e+08
   1.9406469e-10  -5.3143514e-02   5.1322117e+00   8.2098751e-02  -2.5854950e+08
   1.9506502e-10  -5.2885467e-02   5.1214807e+00   8.3588810e-02  -2.5738366e+08
   1.9606536e-10  -5.2628585e-02   5.1107251e+00   8.5097418e-02  -2.5622125e+08
   1.9706569e-10  -5.2372864e-02   5.0999455e+00   8.6624635e-02  -2.5506230e+08
   1.9806602e-10  -5.2118300e-02   5.0891425e+00   8.8170519e-02  -2.5390682e+08
   1.9906636e-10  -5.1864890e-02   5.0783168e+00   8.9735127e-02  -2.5275484e+08
   2.0006669e-10  -5.1612631e-02   5.0674690e+00   9.1318510e-02  -2.5160636e+08
   2.0106702e-10  -5.1361518e-02   5.0565999e+00   9.2920719e-02  -2.5046140e+08
   2.0206736e-10  -5.1111550e-02   5.0457101e+00   9.4541801e-02  -2.4931998e+08
   2.0306769e-10  -5.0862721e-02   5.0348002e+00   9.6181801e-02  -2.4818212e+08
   2.0406802e-10  -5.0615029e-02   5.0238709e+00   9.7840760e-02  -2.4704783e+08
   2.0506836e-10  -5.0368469e-02   5.0129228e+00   9.9518717e-02  -2.4591713e+08
   2.0606869e-10  -5.0123039e-02   5.0019567e+00   1.0121571e-01  -2.4479003e+08
   2.0706902e-10  -4.9878734e-02   4.9909732e+00   1.0293176e-01  -2.4366654e+08
   2.0806936e-10  -4.9635552e-02   4.9799730e+00   1.0466692e-01  -2.4254669e+08
   2.0906969e-10  -4.9393488e-02   4.9689566e+00   1.0642120e-01  -2.4143048e+08
   2.1007002e-10  -4.9152538e-02   4.9579248e+00   1.0819463e-01  -2.4031792e+08
   2.1107036e-10  -4.8912699e-02   4.9468782e+00   1.0998722e-01  -2.3920904e+08
   2.1207069e-10  -4.8673968e-02   4.9358175e+00   1.1179901e-01  -2.3810383e+08
   2.1307102e-10  -4.8436341e-02   4.9247434e+00   1.1363000e-01  -2.3700233e+08
   2.1407136e-10  -4.8199813e-02   4.9136564e+00   1.1548021e-01  -2.3590453e+08
   2.1507169e-10  -4.7964382e-02   4.9025573e+00   1.1734964e-01  -2.3481045e+08
   2.1607202e-10  -4.7730044e-02   4.8914466e+00   1.1923831e-01  -2.3372010e+08
   2.1707236e-10  -4.7496794e-02   4.8803251e+00   1.2114622e-01  -2.3263350e+08
   2.1807269e-10  -4.7264629e-02   4.8691934e+00   1.2307336e-01  -2.3155064e+08
   2.1907302e-10  -4.7033545e-02   4.8580521e+00   1.2501974e-01  -2.3047155e+08
   2.2007336e-10  -4.6803539e-02   4.8469018e+00   1.2698535e-01  -2.2939623e+08
   2.2107369e-10  -4.6574607e-02   4.8357433e+00   1.2897019e-01  -2.2832470e+08
   2.2207402e-10  -4.6346745e-02   4.8245771e+00   1.3097424e-01  -2.2725695e+08
   2.2307436e-10  -4.6119949e-02   4.8134039e+00   1.3299749e-01  -2.2619301e+08
   2.2407469e-10  -4.5894215e-02   4.8022243e+00   1.3503992e-01  -2.2513287e+08
   2.2507503e-10  -4.5669540e-02   4.7910390e+00   1.3710152e-01  -2.2407655e+08
   2.2607536e-10  -4.5445919e-02   4.7798485e+00   1.3918226e-01  -2.2302406e+08
   2.2707569e-10  -4.5223350e-02   4.7686535e+00   1.4128211e-01  -2.2197540e+08
   2.2807603e-10  -4.5001827e-02   4.7574546e+00   1.4340105e-01  -2.2093058e+08
   2.2907636e-10  -4.4781348e-02   4.7462524e+00   1.4553905e-01  -2.1988961e+08
   2.3007669e-10  -4.4561908e-02   4.7350475e+00   1.4769608e-01  -2.1885248e+08
   2.3107703e-10  -4.4343504e-02   4.7238406e+00   1.4987209e-01  -2.1781922e+08
   2.3207736e-10  -4.4126131e-02   4.7126323e+00   1.5206705e-01  -2.1678982e+08
   2.3307769e-10  -4.3909786e-02   4.7014230e+00   1.5428092e-01  -2.1576430e+08
   2.3407803e-10  -4.3694465e-02   4.6902135e+00   1.5651365e-01  -2.1474264e+08
   2.3507836e-10  -4.3480163e-02   4.6790043e+00   1.5876519e-01  -2.1372487e+08
   2.3607869e-10  -4.3266879e-02   4.6677961e+00   1.6103549e-01  -2.1271098e+08
   2.3707903e-10  -4.3054606e-02   4.6565893e+00   1.6332451e-01  -2.1170099e+08
   2.3807936e-10  -4.2843342e-02   4.6453847e+00   1.6563218e-01  -2.1069488e+08
   2.3907969e-10  -4.2633082e-02   4.6341827e+00   1.6795844e-01  -2.0969267e+08
   2.4008003e-10  -4.2423822e-02   4.6229839e+00   1.7030324e-01  -2.0869436e+08
   2.4108036e-10  -4.2215560e-02   4.6117889e+00   1.7266652e-01  -2.0769995e+08
   2.4208069e-10  -4.2008290e-02   4.6005982e+00   1.7504819e-01  -2.0670944e+08
   2.4308103e-10  -4.1802009e-02   4.5894125e+00   1.7744821e-01  -2.0572284e+08
   2.4408136e-10  -4.1596713e-02   4.5782322e+00   1.7986649e-01  -2.0474015e+08
   2.4508169e-10  -4.1392398e-02   4.5670579e+00   1.8230296e-01  -2.0376137e+08
   2.4608203e-10  -4.1189060e-02   4.5558902e+00   1.8475755e-01  -2.0278650e+08
   2.4708236e-10  -4.0986695e-02   4.5447296e+00   1.8723017e-01  -2.0181554e+08
   2.4808269e-10  -4.0785300e-02   4.5335765e+00   1.8972075e-01  -2.0084849e+08
   2.4908303e-10  -4.0584870e-02   4.5224316e+00   1.9222920e-01  -1.9988535e+08
   2.5008336e-10  -4.0385401e-02   4.5112954e+00   1.9475544e-01  -1.9892613e+08
   2.5108369e-10  -4.0186890e-02   4.5001684e+00   1.9729937e-01  -1.9797082e+08
   2.5208403e-10  -3.9989333e-02   4.4890510e+00   1.9986091e-01  -1.9701942e+08
   2.5308436e-10  -3.9792725e-02   4.4779439e+00   2.0243997e-01  -1.9607193e+08
   2.5408469e-10  -3.9597064e-02   4.4668474e+00   2.0503644e-01  -1.9512836e+08
   2.5508503e-10  -3.9402344e-02   4.4557622e+00   2.0765024e-01  -1.9418869e+08
   2.5608536e-10  -3.9208562e-02   4.4446886e+00   2.1028126e-01  -1.9325292e+08
   2.5708570e-10  -3.9015714e-02   4.4336272e+00   2.1292940e-01  -1.9232106e+08
   2.5808603e-10  -3.8823797e-02   4.4225784e+00   2.1559455e-01  -1.9139310e+08
   2.5908636e-10  -3.8632806e-02   4.4115427e+00   2.1827662e-01  -1.9046904e+08
   2.6008670e-10  -3.8442737e-02   4.4005206e+00   2.2097549e-01  -1.8954888e+08
   2.6108703e-10  -3.8253587e-02   4.3895125e+00   2.2369105e-01  -1.8863261e+08
   2.6208736e-10  -3.8065351e-02   4.3785190e+00   2.2642320e-01  -1.8772023e+08
   2.6308770e-10  -3.7878026e-02   4.3675404e+00   2.2917181e-01  -1.8681174e+08
   2.6408803e-10  -3.7691608e-02   4.3565771e+00   2.3193678e-01  -1.8590713e+08
   2.6508836e-10  -3.7506093e-02   4.3456297e+00   2.3471798e-01  -1.8500640e+08
   2.6608870e-10  -3.7321476e-02   4.3346986e+00   2.3751530e-01  -1.8410954e+08
   2.6708903e-10  -3.7137756e-02   4.3237841e+00   2.4032861e-01  -1.8321655e+08
   2.6808936e-10  -3.6954926e-02   4.3128868e+00   2.4315779e-01  -1.8232743e+08
   2.6908970e-10  -3.6772984e-02   4.3020070e+00   2.4600273e-01  -1.8144216e+08
   2.7009003e-10  -3.6591925e-02   4.2911451e+00   2.4886328e-01  -1.8056075e+08
   2.7109036e-10  -3.6411747e-02   4.2803015e+00   2.5173933e-01  -1.7968319e+08
   2.7209070e-10  -3.6232444e-02   4.2694767e+00   2.5463074e-01  -1.7880947e+08
   2.7309103e-10  -3.6054013e-02   4.2586710e+00   2.5753739e-01  -1.7793958e+08
   2.7409136e-10  -3.5876451e-02   4.2478848e+00   2.6045913e-01  -1.7707353e+08
   2.7509170e-10  -3.5699753e-02   4.2371184e+00   2.6339585e-01  -1.7621130e+08
   2.7609203e-10  -3.5523915e-02   4.2263724e+00   2.6634739e-01  -1.7535289e+08
   2.7709236e-10  -3.5348934e-02   4.2156470e+00   2.6931363e-01  -1.7449829e+08
   2.7809270e-10  -3.5174807e-02   4.2049425e+00   2.7229443e-01  -1.7364749e+08
   2.7909303e-10  -3.5001528e-02   4.1942595e+00   2.7528965e-01  -1.7280049e+08
   2.8009336e-10  -3.4829095e-02   4.1835981e+00   2.7829914e-01  -1.7195727e+08
   2.8109370e-10  -3.4657503e-02   4.1729588e+00   2.8132277e-01  -1.7111784e+08
   2.8209403e-10  -3.4486750e-02   4.1623418e+00   2.8436040e-01  -1.7028218e+08
   2.8309436e-10  -3.4316830e-02   4.1517476e+00   2.8741187e-01  -1.6945029e+08
   2.8409470e-10  -3.4147740e-02   4.1411764e+00   2.9047704e-01  -1.6862215e+08
   2.8509503e-10  -3.3979477e-02   4.1306286e+00   2.9355577e-01  -1.6779776e+08
   2.8609537e-10  -3.3812037e-02   4.1201045e+00   2.9664790e-01  -1.6697712e+08
   2.8709570e-10  -3.3645416e-02   4.1096043e+00   2.9975330e-01  -1.6616020e+08
   2.8809603e-10  -3.3479610e-02   4.0991285e+00   3.0287181e-01  -1.6534701e+08
   2.8909637e-10  -3.3314616e-02   4.0886772e+00   3.0600328e-01  -1.6453753e+08
   2.9009670e-10  -3.3150429e-02   4.0782509e+00   3.0914755e-01  -1.6373175e+08
   2.9109703e-10  -3.2987047e-02   4.0678497e+00   3.1230449e-01  -1.6292967e+08
   2.9209737e-10  -3.2824466e-02   4.0574740e+00   3.1547393e-01  -1.6213128e+08
   2.9309770e-10  -3.2662681e-02   4.0471241e+00   3.1865571e-01  -1.6133656e+08
   2.9409803e-10  -3.2501689e-02   4.0368001e+00   3.2184969e-01  -1.6054550e+08
   2.9509837e-10  -3.2341487e-02   4.0265025e+00   3.2505572e-01  -1.5975811e+08
   2.9609870e-10  -3.2182070e-02   4.0162313e+00   3.2827362e-01  -1.5897436e+08
   2.9709903e-10  -3.2023436e-02   4.0059870e+00   3.3150325e-01  -1.5819424e+08
   2.9809937e-10  -3.1865580e-02   3.9957697e+00   3.3474446e-01  -1.5741776e+08
   2.9909970e-10  -3.1708499e-02   3.9855797e+00   3.3799707e-01  -1.5664488e+08
   3.0010003e-10  -3.1552190e-02   3.9754172e+00   3.4126094e-01  -1.5587562e+08
   3.0110037e-10  -3.1396648e-02   3.9652824e+00   3.4453590e-01  -1.5510994e+08
   3.0210070e-10  -3.1241870e-02   3.9551757e+00   3.4782180e-01  -1.5434785e+08
   3.0310103e-10  -3.1087853e-02   3.9450971e+00   3.5111847e-01  -1.5358933e+08
   3.0410137e-10  -3.0934593e-02   3.9350470e+00   3.5442576e-01  -1.5283438e+08
   3.0510170e-10  -3.0782086e-02   3.9250256e+00   3.5774351e-01  -1.5208297e+08
   3.0610203e-10  -3.0630329e-02   3.9150329e+00   3.6107155e-01  -1.5133510e+08
   3.0710237e-10  -3.0479319e-02   3.9050694e+00   3.6440972e-01  -1.5059076e+08
   3.0810270e-10  -3.0329051e-02   3.8951350e+00   3.6775786e-01  -1.4984994e+08
   3.0910303e-10  -3.0179523e-02   3.8852301e+00   3.7111582e-01  -1.4911262e+08
   3.1010337e-10  -3.0030730e-02   3.8753549e+00   3.7448342e-01  -1.4837880e+08
   3.1110370e-10  -2.9882670e-02   3.8655094e+00   3.7786051e-01  -1.4764845e+08
   3.1210403e-10  -2.9735338e-02   3.8556940e+00   3.8124692e-01  -1.4692158e+08
   3.1310437e-10  -2.9588732e-02   3.8459086e+00   3.8464249e-01  -1.4619816e+08
   3.1410470e-10  -2.9442848e-02   3.8361537e+00   3.8804706e-01  -1.4547819e+08
   3.1510504e-10  -2.9297682e-02   3.8264292e+00   3.9146046e-01  -1.4476165e+08
   3.1610537e-10  -2.9153232e-02   3.8167353e+00   3.9488255e-01  -1.4404854e+08
   3.1710570e-10  -2.9009493e-02   3.8070723e+00   3.9831314e-01  -1.4333883e+08
   3.1810604e-10  -2.8866462e-02   3.7974402e+00   4.0175208e-01  -1.4263253e+08
   3.1910637e-10  -2.8724136e-02   3.7878392e+00   4.0519920e-01  -1.4192960e+08
   3.2010670e-10  -2.8582511e-02   3.7782695e+00   4.0865436e-01  -1.4123006e+08
   3.2110704e-10  -2.8441585e-02   3.7687311e+00   4.1211737e-01  -1.4053387e+08
   3.2210737e-10  -2.8301353e-02   3.7592243e+00   4.1558808e-01  -1.3984103e+08
   3.2310770e-10  -2.8161813e-02   3.7497490e+00   4.1906633e-01  -1.3915152e+08
   3.2410804e-10  -2.8022961e-02   3.7403056e+00   4.2255196e-01  -1.3846534e+08
   3.2510837e-10  -2.7884793e-02   3.7308940e+00   4.2604480e-01  -1.3778247e+08
   3.2610870e-10  -2.7747307e-02   3.7215143e+00   4.2954469e-01  -1.3710289e+08
   3.2710904e-10  -2.7610499e-02   3.7121668e+00   4.3305148e-01  -1.3642660e+08
   3.2810937e-10  -2.7474366e-02   3.7028515e+00   4.3656499e-01  -1.3575358e+08
   3.2910970e-10  -2.7338905e-02   3.6935685e+00   4.4008508e-01  -1.3508383e+08
   3.3011004e-10  -2.7204112e-02   3.6843179e+00   4.4361158e-01  -1.3441732e+08
   3.3111037e-10  -2.7069984e-02   3.6750998e+00   4.4714433e-01  -1.3375404e+08
   3.3211070e-10  -2.6936517e-02   3.6659143e+00   4.5068317e-01  -1.3309398e+08
   3.3311104e-10  -2.6803710e-02   3.6567614e+00   4.5422795e-01  -1.3243713e+08
   3.3411137e-10  -2.6671558e-02   3.6476414e+00   4.5777850e-01  -1.3178348e+08
   3.3511170e-10  -2.6540058e-02   3.6385541e+00   4.6133467e-01  -1.3113301e+08
   3.3611204e-10  -2.6409207e-02   3.6294998e+00   4.6489629e-01  -1.3048571e+08
   3.3711237e-10  -2.6279003e-02   3.6204784e+00   4.6846322e-01  -1.2984156e+08
   3.3811270e-10  -2.6149441e-02   3.6114901e+00   4.7203529e-01  -1.2920056e+08
   3.3911304e-10  -2.6020518e-02   3.6025349e+00   4.7561235e-01  -1.2856268e+08
   3.4011337e-10  -2.5892233e-02   3.5936128e+00   4.7919425e-01  -1.2792793e+08
   3.4111370e-10  -2.5764580e-02   3.5847240e+00   4.8278082e-01  -1.2729627e+08
   3.4211404e-10  -2.5637558e-02   3.5758685e+00   4.8637192e-01  -1.2666771e+08
   3.4311437e-10  -2.5511163e-02   3.5670463e+00   4.8996739e-01  -1.2604223e+08
   3.4411470e-10  -2.5385392e-02   3.5582574e+00   4.9356707e-01  -1.2541981e+08
   3.4511504e-10  -2.5260243e-02   3.5495020e+00   4.9717082e-01  -1.2480044e+08
   3.4611537e-10  -2.5135711e-02   3.5407801e+00   5.0077849e-01  -1.2418411e+08
   3.4711571e-10  -2.5011794e-02   3.5320916e+00   5.0438992e-01  -1.2357081e+08
   3.4811604e-10  -2.4888490e-02   3.5234367e+00   5.0800495e-01  -1.2296051e+08
   3.4911637e-10  -2.4765794e-02   3.5148153e+00   5.1162346e-01  -1.2235322e+08
   3.5011671e-10  -2.4643704e-02   3.5062275e+00   5.1524527e-01  -1.2174891e+08
   3.5111704e-10  -2.4522218e-02   3.4976733e+00   5.1887025e-01  -1.2114758e+08
   3.5211737e-10  -2.4401331e-02   3.4891527e+00   5.2249824e-01  -1.2054920e+08
   3.5311771e-10  -2.4281041e-02   3.4806658e+00   5.2612910e-01  -1.1995377e+08
   3.5411804e-10  -2.4161346e-02   3.4722126e+00   5.2976269e-01  -1.1936127e+08
   3.5511837e-10  -2.4042242e-02   3.4637930e+00   5.3339886e-01  -1.1877170e+08
   3.5611871e-10  -2.3923726e-02   3.4554071e+00   5.3703746e-01  -1.1818503e+08
   3.5711904e-10  -2.3805795e-02   3.4470549e+00   5.4067835e-01  -1.1760125e+08
   3.5811937e-10  -2.3688447e-02   3.4387364e+00   5.4432139e-01  -1.1702036e+08
   3.5911971e-10  -2.3571679e-02   3.4304516e+00   5.4796644e-01  -1.1644233e+08
   3.6012004e-10  -2.3455488e-02   3.4222004e+00   5.5161335e-01  -1.1586716e+08
   3.6112037e-10  -2.3339870e-02   3.4139830e+00   5.5526198e-01  -1.1529483e+08
   3.6212071e-10  -2.3224823e-02   3.4057993e+00   5.5891220e-01  -1.1472533e+08
   3.6312104e-10  -2.3110345e-02   3.3976492e+00   5.6256387e-01  -1.1415865e+08
   3.6412137e-10  -2.2996432e-02   3.3895328e+00   5.6621684e-01  -1.1359477e+08
   3.6512171e-10  -2.2883082e-02   3.3814500e+00   5.6987099e-01  -1.1303368e+08
   3.6612204e-10  -2.2770292e-02   3.3734009e+00   5.7352617e-01  -1.1247536e+08
   3.6712237e-10  -2.2658059e-02   3.3653853e+00   5.7718226e-01  -1.1191981e+08
   3.6812271e-10  -2.2546380e-02   3.3574034e+00   5.8083911e-01  -1.1136701e+08
   3.6912304e-10  -2.2435253e-02   3.3494550e+00   5.8449660e-01  -1.1081695e+08
   3.7012337e-10  -2.2324674e-02   3.3415402e+00   5.8815458e-01  -1.1026962e+08
   3.7112371e-10  -2.2214642e-02   3.3336589e+00   5.9181294e-01  -1.0972500e+08
   3.7212404e-10  -2.2105153e-02   3.3258111e+00   5.9547154e-01  -1.0918308e+08
   3.7312437e-10  -2.1996205e-02   3.3179967e+00   5.9913025e-01  -1.0864384e+08
   3.7412471e-10  -2.1887795e-02   3.3102157e+00   6.0278894e-01  -1.0810728e+08
   3.7512504e-10  -2.1779921e-02   3.3024681e+00   6.0644749e-01  -1.0757338e+08
   3.7612538e-10  -2.1672579e-02   3.2947539e+00   6.1010577e-01  -1.0704214e+08
   3.7712571e-10  -2.1565767e-02   3.2870730e+00   6.1376365e-01  -1.0651352e+08
   3.7812604e-10  -2.1459483e-02   3.2794253e+00   6.1742101e-01  -1.0598754e+08
   3.7912638e-10  -2.1353723e-02   3.2718108e+00   6.2107773e-01  -1.0546416e+08
   3.8012671e-10  -2.1248486e-02   3.2642295e+00   6.2473368e-01  -1.0494338e+08
   3.8112704e-10  -2.1143769e-02   3.2566814e+00   6.2838874e-01  -1.0442519e+08
   3.8212738e-10  -2.1039568e-02   3.2491663e+00   6.3204280e-01  -1.0390958e+08
   3.8312771e-10  -2.0935882e-02   3.2416842e+00   6.3569572e-01  -1.0339653e+08
   3.8412804e-10  -2.0832708e-02   3.2342351e+00   6.3934740e-01  -1.0288602e+08
   3.8512838e-10  -2.0730043e-02   3.2268189e+00   6.4299772e-01  -1.0237805e+08
   3.8612871e-10  -2.0627886e-02   3.2194356e+00   6.4664656e-01  -1.0187261e+08
   3.8712904e-10  -2.0526232e-02   3.2120851e+00   6.5029380e-01  -1.0136968e+08
   3.8812938e-10  -2.0425080e-02   3.2047673e+00   6.5393934e-01  -1.0086925e+08
   3.8912971e-10  -2.0324428e-02   3.1974822e+00   6.5758305e-01  -1.0037131e+08
   3.9013004e-10  -2.0224273e-02   3.1902297e+00   6.6122482e-01  -9.9875844e+07
   3.9113038e-10  -2.0124612e-02   3.1830098e+00   6.6486456e-01  -9.9382843e+07
   3.9213071e-10  -2.0025442e-02   3.1758223e+00   6.6850213e-01  -9.8892293e+07
   3.9313104e-10  -1.9926763e-02   3.1686673e+00   6.7213744e-01  -9.8404184e+07
   3.9413138e-10  -1.9828570e-02   3.1615446e+00   6.7577038e-01  -9.7918502e+07
   3.9513171e-10  -1.9730862e-02   3.1544542e+00   6.7940084e-01  -9.7435236e+07
   3.9613204e-10  -1.9633636e-02   3.1473961e+00   6.8302871e-01  -9.6954375e+07
   3.9713238e-10  -1.9536890e-02   3.1403700e+00   6.8665389e-01  -9.6475905e+07
   3.9813271e-10  -1.9440622e-02   3.1333761e+00   6.9027628e-01  -9.5999817e+07
   3.9913304e-10  -1.9344828e-02   3.1264141e+00   6.9389576e-01  -9.5526096e+07
   4.0013338e-10  -1.9249507e-02   3.1194840e+00   6.9751225e-01  -9.5054734e+07
   4.0113371e-10  -1.9154657e-02   3.1125858e+00   7.0112564e-01  -9.4585716e+07
   4.0213404e-10  -1.9060274e-02   3.1057194e+00   7.0473583e-01  -9.4119032e+07
   4.0313438e-10  -1.8966358e-02   3.0988846e+00   7.0834272e-01  -9.3654670e+07
   4.0413471e-10  -1.8872904e-02   3.0920814e+00   7.1194622e-01  -9.3192619e+07
   4.0513505e-10  -1.8779912e-02   3.0853098e+00   7.1554622e-01  -9.2732868e+07
   4.0613538e-10  -1.8687378e-02   3.0785696e+00   7.1914263e-01  -9.2275404e+07
   4.0713571e-10  -1.8595301e-02   3.0718608e+00   7.2273536e-01  -9.1820216e+07
   4.0813605e-10  -1.8503678e-02   3.0651832e+00   7.2632431e-01  -9.1367293e+07
   4.0913638e-10  -1.8412507e-02   3.0585368e+00   7.2990940e-01  -9.0916624e+07
   4.1013671e-10  -1.8321785e-02   3.0519215e+00   7.3349052e-01  -9.0468198e+07
   4.1113705e-10  -1.8231511e-02   3.0453373e+00   7.3706760e-01  -9.0022003e+07
   4.1213738e-10  -1.8141683e-02   3.0387839e+00   7.4064053e-01  -8.9578027e+07
   4.1313771e-10  -1.8052297e-02   3.0322614e+00   7.4420924e-01  -8.9136261e+07
   4.1413805e-10  -1.7963352e-02   3.0257696e+00   7.4777363e-01  -8.8696693e+07
   4.1513838e-10  -1.7874846e-02   3.0193085e+00   7.5133361e-01  -8.8259312e+07
   4.1613871e-10  -1.7786776e-02   3.0128780e+00   7.5488912e-01  -8.7824107e+07
   4.1713905e-10  -1.7699140e-02   3.0064779e+00   7.5844005e-01  -8.7391067e+07
   4.1813938e-10  -1.7611937e-02   3.0001082e+00   7.6198632e-01  -8.6960181e+07
   4.1913971e-10  -1.7525163e-02   2.9937688e+00   7.6552786e-01  -8.6531438e+07
   4.2014005e-10  -1.7438817e-02   2.9874596e+00   7.6906458e-01  -8.6104828e+07
   4.2114038e-10  -1.7352897e-02   2.9811805e+00   7.7259640e-01  -8.5680340e+07
   4.2214071e-10  -1.7267401e-02   2.9749314e+00   7.7612325e-01  -8.5257963e+07
   4.2314105e-10  -1.7182326e-02   2.9687122e+00   7.7964504e-01  -8.4837687e+07
   4.2414138e-10  -1.7097670e-02   2.9625228e+00   7.8316169e-01  -8.4419500e+07
   4.2514171e-10  -1.7013431e-02   2.9563631e+00   7.8667314e-01  -8.4003393e+07
   4.2614205e-10  -1.6929608e-02   2.9502330e+00   7.9017930e-01  -8.3589355e+07
   4.2714238e-10  -1.6846198e-02   2.9441325e+00   7.9368011e-01  -8.3177376e+07
   4.2814271e-10  -1.6763199e-02   2.9380614e+00   7.9717548e-01  -8.2767445e+07
   4.2914305e-10  -1.6680609e-02   2.9320195e+00   8.0066535e-01  -8.2359551e+07
   4.3014338e-10  -1.6598426e-02   2.9260069e+00   8.0414964e-01  -8.1953685e+07
   4.3114371e-10  -1.6516648e-02   2.9200235e+00   8.0762829e-01  -8.1549836e+07
   4.3214405e-10  -1.6435273e-02   2.9140690e+00   8.1110122e-01  -8.1147995e+07
   4.3314438e-10  -1.6354299e-02   2.9081434e+00   8.1456837e-01  -8.0748150e+07
   4.3414471e-10  -1.6273724e-02   2.9022467e+00   8.1802967e-01  -8.0350292e+07
   4.3514505e-10  -1.6193546e-02   2.8963787e+00   8.2148505e-01  -7.9954411e+07
   4.3614538e-10  -1.6113763e-02   2.8905393e+00   8.2493444e-01  -7.9560497e+07
   4.3714572e-10  -1.6034373e-02   2.8847283e+00   8.2837779e-01  -7.9168539e+07
   4.3814605e-10  -1.5955374e-02   2.8789458e+00   8.3181503e-01  -7.8778529e+07
   4.3914638e-10  -1.5876764e-02   2.8731916e+00   8.3524609e-01  -7.8390455e+07
   4.4014672e-10  -1.5798541e-02   2.8674656e+00   8.3867091e-01  -7.8004309e+07
   4.4114705e-10  -1.5720704e-02   2.8617677e+00   8.4208944e-01  -7.7620080e+07
   4.4214738e-10  -1.5643250e-02   2.8560977e+00   8.4550161e-01  -7.7237760e+07
   4.4314772e-10  -1.5566178e-02   2.8504557e+00   8.4890737e-01  -7.6857337e+07
   4.4414805e-10  -1.5489485e-02   2.8448414e+00   8.5230665e-01  -7.6478802e+07
   4.4514838e-10  -1.5413170e-02   2.8392548e+00   8.5569939e-01  -7.6102147e+07
   4.4614872e-10  -1.5337231e-02   2.8336957e+00   8.5908555e-01  -7.5727361e+07
   4.4714905e-10  -1.5261666e-02   2.8281641e+00   8.6246507e-01  -7.5354435e+07
   4.4814938e-10  -1.5186473e-02   2.8226599e+00   8.6583788e-01  -7.4983359e+07
   4.4914972e-10  -1.5111650e-02   2.8171829e+00   8.6920395e-01  -7.4614125e+07
   4.5015005e-10  -1.5037195e-02   2.8117331e+00   8.7256321e-01  -7.4246722e+07
   4.5115038e-10  -1.4963108e-02   2.8063103e+00   8.7591561e-01  -7.3881142e+07
   4.5215072e-10  -1.4889385e-02   2.8009144e+00   8.7926110e-01  -7.3517375e+07
   4.5315105e-10  -1.4816025e-02   2.7955453e+00   8.8259963e-01  -7.3155412e+07
   4.5415138e-10  -1.4743026e-02   2.7902030e+00   8.8593116e-01  -7.2795244e+07
   4.5515172e-10  -1.4670386e-02   2.7848872e+00   8.8925562e-01  -7.2436862e+07
   4.5615205e-10  -1.4598104e-02   2.7795980e+00   8.9257299e-01  -7.2080257e+07
   4.5715238e-10  -1.4526178e-02   2.7743352e+00   8.9588320e-01  -7.1725419e+07
   4.5815272e-10  -1.4454606e-02   2.7690986e+00   8.9918621e-01  -7.1372340e+07
   4.5915305e-10  -1.4383387e-02   2.7638882e+00   9.0248198e-01  -7.1021011e+07
   4.6015338e-10  -1.4312518e-02   2.7587039e+00   9.0577046e-01  -7.0671423e+07
   4.6115372e-10  -1.4241997e-02   2.7535456e+00   9.0905161e-01  -7.0323567e+07
   4.6215405e-10  -1.4171824e-02   2.7484131e+00   9.1232538e-01  -6.9977435e+07
   4.6315438e-10  -1.4101996e-02   2.7433064e+00   9.1559174e-01  -6.9633017e+07
   4.6415472e-10  -1.4032512e-02   2.7382253e+00   9.1885064e-01  -6.9290305e+07
   4.6515505e-10  -1.3963370e-02   2.7331697e+00   9.2210204e-01  -6.8949290e+07
   4.6615539e-10  -1.3894568e-02   2.7281396e+00   9.2534591e-01  -6.8609964e+07
   4.6715572e-10  -1.3826105e-02   2.7231348e+00   9.2858219e-01  -6.8272318e+07
   4.6815605e-10  -1.3757979e-02   2.7181552e+00   9.3181086e-01  -6.7936344e+07
   4.6915639e-10  -1.3690188e-02   2.7132007e+00   9.3503188e-01  -6.7602033e+07
   4.7015672e-10  -1.3622730e-02   2.7082712e+00   9.3824521e-01  -6.7269376e+07
   4.7115705e-10  -1.3555604e-02   2.7033666e+00   9.4145081e-01  -6.6938366e+07
   4.7215739e-10  -1.3488809e-02   2.6984867e+00   9.4464865e-01  -6.6608994e+07
   4.7315772e-10  -1.3422343e-02   2.6936316e+00   9.4783870e-01  -6.6281252e+07
   4.7415805e-10  -1.3356203e-02   2.6888010e+00   9.5102092e-01  -6.5955131e+07
   4.7515839e-10  -1.3290389e-02   2.6839949e+00   9.5419527e-01  -6.5630623e+07
   4.7615872e-10  -1.3224898e-02   2.6792131e+00   9.5736174e-01  -6.5307720e+07
   4.7715905e-10  -1.3159730e-02   2.6744556e+00   9.6052027e-01  -6.4986415e+07
   4.7815939e-10  -1.3094883e-02   2.6697222e+00   9.6367085e-01  -6.4666698e+07
   4.7915972e-10  -1.3030354e-02   2.6650129e+00   9.6681344e-01  -6.4348562e+07
   4.8016005e-10  -1.2966143e-02   2.6603275e+00   9.6994802e-01  -6.4031998e+07
   4.8116039e-10  -1.2902248e-02   2.6556659e+00   9.7307455e-01  -6.3717000e+07
   4.8216072e-10  -1.2838667e-02   2.6510280e+00   9.7619300e-01  -6.3403559e+07
   4.8316105e-10  -1.2775399e-02   2.6464138e+00   9.7930336e-01  -6.3091666e+07
   4.8416139e-10  -1.2712442e-02   2.6418230e+00   9.8240559e-01  -6.2781315e+07
   4.8516172e-10  -1.2649795e-02   2.6372557e+00   9.8549966e-01  -6.2472497e+07
   4.8616205e-10  -1.2587456e-02   2.6327116e+00   9.8858556e-01  -6.2165205e+07
   4.8716239e-10  -1.2525423e-02   2.6281907e+00   9.9166325e-01  -6.1859431e+07
   4.8816272e-10  -1.2463696e-02   2.6236929e+00   9.9473272e-01  -6.1555168e+07
   4.8916305e-10  -1.2402272e-02   2.6192181e+00   9.9779393e-01  -6.1252407e+07
   4.9016339e-10  -1.2341151e-02   2.6147662e+00   1.0008469e+00  -6.0951141e+07
   4.9116372e-10  -1.2280330e-02   2.6103370e+00   1.0038915e+00  -6.0651363e+07
   4.9216405e-10  -1.2219808e-02   2.6059305e+00   1.0069278e+00  -6.0353064e+07
   4.9316439e-10  -1.2159584e-02   2.6015465e+00   1.0099558e+00  -6.0056239e+07
   4.9416472e-10  -1.2099656e-02   2.5971850e+00   1.0129754e+00  -5.9760878e+07
   4.9516506e-10  -1.2040022e-02   2.5928459e+00   1.0159867e+00  -5.9466975e+07
   4.9616539e-10  -1.1980682e-02   2.5885290e+00   1.0189895e+00  -5.9174523e+07
   4.9716572e-10  -1.1921634e-02   2.5842342e+00   1.0219840e+00  -5.8883514e+07
   4.9816606e-10  -1.1862876e-02   2.5799615e+00   1.0249700e+00  -5.8593941e+07
   4.9916639e-10  -1.1804407e-02   2.5757108e+00   1.0279475e+00  -5.8305796e+07
   5.0016672e-10  -1.1746226e-02   2.5714818e+00   1.0309166e+00  -5.8019072e+07
   5.0116706e-10  -1.1688331e-02   2.5672746e+00   1.0338772e+00  -5.7733763e+07
   5.0216739e-10  -1.1630720e-02   2.5630891e+00   1.0368292e+00  -5.7449861e+07
   5.0316772e-10  -1.1573393e-02   2.5589250e+00   1.0397728e+00  -5.7167359e+07
   5.0416806e-10  -1.1516348e-02   2.5547824e+00   1.0427079e+00  -5.6886250e+07
   5.0516839e-10  -1.1459583e-02   2.5506611e+00   1.0456344e+00  -5.6606527e+07
   5.0616872e-10  -1.1403097e-02   2.5465611e+00   1.0485523e+00  -5.6328183e+07
   5.0716906e-10  -1.1346889e-02   2.5424821e+00   1.0514617e+00  -5.6051211e+07
   5.0816939e-10  -1.1290957e-02   2.5384242e+00   1.0543624e+00  -5.5775604e+07
   5.0916972e-10  -1.1235301e-02   2.5343872e+00   1.0572546e+00  -5.5501356e+07
   5.1017006e-10  -1.1179918e-02   2.5303711e+00   1.0601382e+00  -5.5228459e+07
   5.1117039e-10  -1.1124807e-02   2.5263757e+00   1.0630132e+00  -5.4956906e+07
   5.1217072e-10  -1.1069968e-02   2.5224008e+00   1.0658795e+00  -5.4686692e+07
   5.1317106e-10  -1.1015398e-02   2.5184466e+00   1.0687372e+00  -5.4417809e+07
   5.1417139e-10  -1.0961096e-02   2.5145127e+00   1.0715862e+00  -5.4150250e+07
   5.1517172e-10  -1.0907061e-02   2.5105992e+00   1.0744266e+00  -5.3884009e+07
   5.1617206e-10  -1.0853292e-02   2.5067059e+00   1.0772583e+00  -5.3619080e+07
   5.1717239e-10  -1.0799787e-02   2.5028327e+00   1.0800814e+00  -5.3355455e+07
   5.1817272e-10  -1.0746546e-02   2.4989796e+00   1.0828958e+00  -5.3093129e+07
   5.1917306e-10  -1.0693566e-02   2.4951464e+00   1.0857014e+00  -5.2832094e+07
   5.2017339e-10  -1.0640846e-02   2.4913331e+00   1.0884984e+00  -5.2572344e+07
   5.2117372e-10  -1.0588386e-02   2.4875395e+00   1.0912867e+00  -5.2313873e+07
   5.2217406e-10  -1.0536184e-02   2.4837655e+00   1.0940663e+00  -5.2056674e+07
   5.2317439e-10  -1.0484238e-02   2.4800111e+00   1.0968372e+00  -5.1800742e+07
   5.2417472e-10  -1.0432548e-02   2.4762761e+00   1.0995993e+00  -5.1546069e+07
   5.2517506e-10  -1.0381112e-02   2.4725606e+00   1.1023528e+00  -5.1292649e+07
   5.2617539e-10  -1.0329929e-02   2.4688642e+00   1.1050975e+00  -5.1040476e+07
   5.2717573e-10  -1.0278997e-02   2.4651871e+00   1.1078335e+00  -5.0789544e+07
   5.2817606e-10  -1.0228316e-02   2.4615290e+00   1.1105607e+00  -5.0539847e+07
   5.2917639e-10  -1.0177884e-02   2.4578899e+00   1.1132793e+00  -5.0291378e+07
   5.3017673e-10  -1.0127699e-02   2.4542697e+00   1.1159891e+00  -5.0044132e+07
   5.3117706e-10  -1.0077762e-02   2.4506683e+00   1.1186901e+00  -4.9798101e+07
   5.3217739e-10  -1.0028070e-02   2.4470856e+00   1.1213824e+00  -4.9553281e+07
   5.3317773e-10  -9.9786225e-03   2.4435215e+00   1.1240660e+00  -4.9309665e+07
   5.3417806e-10  -9.9294180e-03   2.4399759e+00   1.1267409e+00  -4.9067246e+07
   5.3517839e-10  -9.8804553e-03   2.4364487e+00   1.1294070e+00  -4.8826020e+07
   5.3617873e-10  -9.8317334e-03   2.4329399e+00   1.1320643e+00  -4.8585980e+07
   5.3717906e-10  -9.7832510e-03   2.4294493e+00   1.1347130e+00  -4.8347121e+07
   5.3817939e-10  -9.7350070e-03   2.4259769e+00   1.1373529e+00  -4.8109435e+07
   5.3917973e-10  -9.6870001e-03   2.4225225e+00   1.1399840e+00  -4.7872918e+07
   5.4018006e-10  -9.6392292e-03   2.4190861e+00   1.1426064e+00  -4.7637564e+07
   5.4118039e-10  -9.5916932e-03   2.4156676e+00   1.1452201e+00  -4.7403366e+07
   5.4218073e-10  -9.5443909e-03   2.4122668e+00   1.1478251e+00  -4.7170320e+07
   5.4318106e-10  -9.4973211e-03   2.4088838e+00   1.1504213e+00  -4.6938419e+07
   5.4418139e-10  -9.4504828e-03   2.4055184e+00   1.1530089e+00  -4.6707657e+07
   5.4518173e-10  -9.4038747e-03   2.4021704e+00   1.1555877e+00  -4.6478030e+07
   5.4618206e-10  -9.3574957e-03   2.3988400e+00   1.1581577e+00  -4.6249530e+07
   5.4718239e-10  -9.3113448e-03   2.3955268e+00   1.1607191e+00  -4.6022154e+07
   5.4818273e-10  -9.2654208e-03   2.3922310e+00   1.1632718e+00  -4.5795894e+07
   5.4918306e-10  -9.2197225e-03   2.3889523e+00   1.1658157e+00  -4.5570747e+07
   5.5018339e-10  -9.1742489e-03   2.3856906e+00   1.1683510e+00  -4.5346705e+07
   5.5118373e-10  -9.1289988e-03   2.3824460e+00   1.1708776e+00  -4.5123763e+07
   5.5218406e-10  -9.0839712e-03   2.3792183e+00   1.1733955e+00  -4.4901917e+07
   5.5318439e-10  -9.0391650e-03   2.3760074e+00   1.1759047e+00  -4.4681161e+07
   5.5418473e-10  -8.9945791e-03   2.3728133e+00   1.1784052e+00  -4.4461488e+07
   5.5518506e-10  -8.9502124e-03   2.3696358e+00   1.1808971e+00  -4.4242894e+07
   5.5618540e-10  -8.9060638e-03   2.3664749e+00   1.1833803e+00  -4.4025374e+07
   5.5718573e-10  -8.8621322e-03   2.3633304e+00   1.1858548e+00  -4.3808922e+07
   5.5818606e-10  -8.8184167e-03   2.3602024e+00   1.1883208e+00  -4.3593533e+07
   5.5918640e-10  -8.7749161e-03   2.3570907e+00   1.1907780e+00  -4.3379202e+07
   5.6018673e-10  -8.7316293e-03   2.3539952e+00   1.1932267e+00  -4.3165922e+07
   5.6118706e-10  -8.6885554e-03   2.3509159e+00   1.1956667e+00  -4.2953690e+07
   5.6218740e-10  -8.6456933e-03   2.3478526e+00   1.1980981e+00  -4.2742500e+07
   5.6318773e-10  -8.6030419e-03   2.3448053e+00   1.2005210e+00  -4.2532346e+07
   5.6418806e-10  -8.5606002e-03   2.3417739e+00   1.2029352e+00  -4.2323224e+07
   5.6518840e-10  -8.5183671e-03   2.3387584e+00   1.2053408e+00  -4.2115128e+07
   5.6618873e-10  -8.4763418e-03   2.3357586e+00   1.2077379e+00  -4.1908054e+07
   5.6718906e-10  -8.4345230e-03   2.3327744e+00   1.2101264e+00  -4.1701996e+07
   5.6818940e-10  -8.3929099e-03   2.3298058e+00   1.2125064e+00  -4.1496950e+07
   5.6918973e-10  -8.3515014e-03   2.3268528e+00   1.2148778e+00  -4.1292910e+07
   5.7019006e-10  -8.3102965e-03   2.3239151e+00   1.2172407e+00  -4.1089871e+07
   5.7119040e-10  -8.2692942e-03   2.3209928e+00   1.2195950e+00  -4.0887828e+07
   5.7219073e-10  -8.2284935e-03   2.3180857e+00   1.2219409e+00  -4.0686777e+07
   5.7319106e-10  -8.1878934e-03   2.3151939e+00   1.2242782e+00  -4.0486713e+07
   5.7419140e-10  -8.1474930e-03   2.3123171e+00   1.2266071e+00  -4.0287630e+07
   5.7519173e-10  -8.1072912e-03   2.3094553e+00   1.2289275e+00  -4.0089523e+07
   5.7619206e-10  -8.0672871e-03   2.3066085e+00   1.2312394e+00  -3.9892389e+07
   5.7719240e-10  -8.0274798e-03   2.3037766e+00   1.2335429e+00  -3.9696222e+07
   5.7819273e-10  -7.9878681e-03   2.3009595e+00   1.2358380e+00  -3.9501018e+07
   5.7919306e-10  -7.9484513e-03   2.2981571e+00   1.2381246e+00  -3.9306771e+07
   5.8019340e-10  -7.9092283e-03   2.2953693e+00   1.2404028e+00  -3.9113476e+07
   5.8119373e-10  -7.8701982e-03   2.2925961e+00   1.2426726e+00  -3.8921130e+07
   5.8219406e-10  -7.8313600e-03   2.2898373e+00   1.2449340e+00  -3.8729728e+07
   5.8319440e-10  -7.7927128e-03   2.2870930e+00   1.2471871e+00  -3.8539264e+07
   5.8419473e-10  -7.7542557e-03   2.2843631e+00   1.2494318e+00  -3.8349735e+07
   5.8519507e-10  -7.7159877e-03   2.2816474e+00   1.2516681e+00  -3.8161135e+07
   5.8619540e-10  -7.6779079e-03   2.2789458e+00   1.2538962e+00  -3.7973460e+07
   5.8719573e-10  -7.6400153e-03   2.2762584e+00   1.2561159e+00  -3.7786706e+07
   5.8819607e-10  -7.6023092e-03   2.2735851e+00   1.2583273e+00  -3.7600867e+07
   5.8919640e-10  -7.5647884e-03   2.2709257e+00   1.2605304e+00  -3.7415940e+07
   5.9019673e-10  -7.5274522e-03   2.2682802e+00   1.2627253e+00  -3.7231920e+07
   5.9119707e-10  -7.4902997e-03   2.2656485e+00   1.2649119e+00  -3.7048802e+07
   5.9219740e-10  -7.4533298e-03   2.2630306e+00   1.2670902e+00  -3.6866583e+07
   5.9319773e-10  -7.4165418e-03   2.2604264e+00   1.2692604e+00  -3.6685257e+07
   5.9419807e-10  -7.3799347e-03   2.2578357e+00   1.2714223e+00  -3.6504819e+07
   5.9519840e-10  -7.3435077e-03   2.2552586e+00   1.2735760e+00  -3.6325267e+07
   5.9619873e-10  -7.3072599e-03   2.2526950e+00   1.2757216e+00  -3.6146595e+07
   5.9719907e-10  -7.2711903e-03   2.2501448e+00   1.2778590e+00  -3.5968800e+07
   5.9819940e-10  -7.2352982e-03   2.2476079e+00   1.2799882e+00  -3.5791876e+07
   5.9919973e-10  -7.1995826e-03   2.2450842e+00   1.2821093e+00  -3.5615819e+07
   6.0020007e-10  -7.1640427e-03   2.2425738e+00   1.2842223e+00  -3.5440626e+07
   6.0120040e-10  -7.1286776e-03   2.2400764e+00   1.2863272e+00  -3.5266291e+07
   6.0220073e-10  -7.0934864e-03   2.2375921e+00   1.2884241e+00  -3.5092812e+07
   6.0320107e-10  -7.0584684e-03   2.2351208e+00   1.2905128e+00  -3.4920182e+07
   6.0420140e-10  -7.0236227e-03   2.2326624e+00   1.2925936e+00  -3.4748400e+07
   6.0520173e-10  -6.9889483e-03   2.2302168e+00   1.2946662e+00  -3.4577459e+07
   6.0620207e-10  -6.9544446e-03   2.2277841e+00   1.2967309e+00  -3.4407356e+07
   6.0720240e-10  -6.9201105e-03   2.2253640e+00   1.2987876e+00  -3.4238088e+07
   6.0820273e-10  -6.8859454e-03   2.2229566e+00   1.3008363e+00  -3.4069649e+07
   6.0920307e-10  -6.8519484e-03   2.2205617e+00   1.3028771e+00  -3.3902036e+07
   6.1020340e-10  -6.8181186e-03   2.2181794e+00   1.3049099e+00  -3.3735244e+07
   6.1120373e-10  -6.7844553e-03   2.2158095e+00   1.3069348e+00  -3.3569270e+07
   6.1220407e-10  -6.7509576e-03   2.2134519e+00   1.3089518e+00  -3.3404110e+07
   6.1320440e-10  -6.7176247e-03   2.2111067e+00   1.3109609e+00  -3.3239760e+07
   6.1420473e-10  -6.6844557e-03   2.2087738e+00   1.3129621e+00  -3.3076215e+07
   6.1520507e-10  -6.6514500e-03   2.2064530e+00   1.3149555e+00  -3.2913472e+07
   6.1620540e-10  -6.6186067e-03   2.2041444e+00   1.3169411e+00  -3.2751526e+07
   6.1720574e-10  -6.5859250e-03   2.2018478e+00   1.3189188e+00  -3.2590374e+07
   6.1820607e-10  -6.5534041e-03   2.1995632e+00   1.3208888e+00  -3.2430013e+07
   6.1920640e-10  -6.5210432e-03   2.1972905e+00   1.3228510e+00  -3.2270437e+07
   6.2020674e-10  -6.4888416e-03   2.1950297e+00   1.3248054e+00  -3.2111644e+07
   6.2120707e-10  -6.4567984e-03   2.1927807e+00   1.3267521e+00  -3.1953629e+07
   6.2220740e-10  -6.4249129e-03   2.1905435e+00   1.3286910e+00  -3.1796388e+07
   6.2320774e-10  -6.3931843e-03   2.1883179e+00   1.3306223e+00  -3.1639918e+07
   6.2420807e-10  -6.3616118e-03   2.1861039e+00   1.3325459e+00  -3.1484216e+07
   6.2520840e-10  -6.3301947e-03   2.1839015e+00   1.3344618e+00  -3.1329276e+07
   6.2620874e-10  -6.2989322e-03   2.1817106e+00   1.3363701e+00  -3.1175096e+07
   6.2720907e-10  -6.2678236e-03   2.1795312e+00   1.3382708e+00  -3.1021671e+07
   6.2820940e-10  -6.2368680e-03   2.1773631e+00   1.3401638e+00  -3.0868999e+07
   6.2920974e-10  -6.2060649e-03   2.1752063e+00   1.3420493e+00  -3.0717075e+07
   6.3021007e-10  -6.1754133e-03   2.1730608e+00   1.3439273e+00  -3.0565896e+07
   6.3121040e-10  -6.1449125e-03   2.1709264e+00   1.3457976e+00  -3.0415457e+07
   6.3221074e-10  -6.1145619e-03   2.1688032e+00   1.3476605e+00  -3.0265756e+07
   6.3321107e-10  -6.0843607e-03   2.1666911e+00   1.3495158e+00  -3.0116789e+07
   6.3421140e-10  -6.0543081e-03   2.1645900e+00   1.3513637e+00  -2.9968552e+07
   6.3521174e-10  -6.0244035e-03   2.1624999e+00   1.3532041e+00  -2.9821042e+07
   6.3621207e-10  -5.9946460e-03   2.1604207e+00   1.3550371e+00  -2.9674254e+07
   6.3721240e-10  -5.9650350e-03   2.1583523e+00   1.3568627e+00  -2.9528187e+07
   6.3821274e-10  -5.9355698e-03   2.1562947e+00   1.3586808e+00  -2.9382835e+07
   6.3921307e-10  -5.9062496e-03   2.1542478e+00   1.3604916e+00  -2.9238195e+07
   6.4021340e-10  -5.8770738e-03   2.1522116e+00   1.3622950e+00  -2.9094265e+07
   6.4121374e-10  -5.8480415e-03   2.1501861e+00   1.3640910e+00  -2.8951040e+07
   6.4221407e-10  -5.8191522e-03   2.1481710e+00   1.3658798e+00  -2.8808517e+07
   6.4321440e-10  -5.7904051e-03   2.1461665e+00   1.3676612e+00  -2.8666693e+07
   6.4421474e-10  -5.7617996e-03   2.1441725e+00   1.3694354e+00  -2.8525564e+07
   6.4521507e-10  -5.7333348e-03   2.1421888e+00   1.3712023e+00  -2.8385127e+07
   6.4621541e-10  -5.7050103e-03   2.1402155e+00   1.3729620e+00  -2.8245378e+07
   6.4721574e-10  -5.6768251e-03   2.1382524e+00   1.3747144e+00  -2.8106314e+07
   6.4821607e-10  -5.6487787e-03   2.1362996e+00   1.3764597e+00  -2.7967932e+07
   6.4921641e-10  -5.6208704e-03   2.1343570e+00   1.3781978e+00  -2.7830228e+07
   6.5021674e-10  -5.5930996e-03   2.1324245e+00   1.3799287e+00  -2.7693199e+07
   6.5121707e-10  -5.5654654e-03   2.1305020e+00   1.3816525e+00  -2.7556842e+07
   6.5221741e-10  -5.5379674e-03   2.1285896e+00   1.3833692e+00  -2.7421154e+07
   6.5321774e-10  -5.5106047e-03   2.1266871e+00   1.3850788e+00  -2.7286130e+07
   6.5421807e-10  -5.4833768e-03   2.1247946e+00   1.3867813e+00  -2.7151769e+07
   6.5521841e-10  -5.4562829e-03   2.1229119e+00   1.3884768e+00  -2.7018066e+07
   6.5621874e-10  -5.4293225e-03   2.1210390e+00   1.3901653e+00  -2.6885019e+07
   6.5721907e-10  -5.4024948e-03   2.1191758e+00   1.3918467e+00  -2.6752624e+07
   6.5821941e-10  -5.3757992e-03   2.1173224e+00   1.3935212e+00  -2.6620878e+07
   6.5921974e-10  -5.3492351e-03   2.1154786e+00   1.3951887e+00  -2.6489777e+07
   6.6022007e-10  -5.3228018e-03   2.1136444e+00   1.3968492e+00  -2.6359320e+07
   6.6122041e-10  -5.2964988e-03   2.1118197e+00   1.3985029e+00  -2.6229502e+07
   6.6222074e-10  -5.2703252e-03   2.1100045e+00   1.4001496e+00  -2.6100321e+07
   6.6322107e-10  -5.2442806e-03   2.1081988e+00   1.4017895e+00  -2.5971773e+07
   6.6422141e-10  -5.2183642e-03   2.1064025e+00   1.4034224e+00  -2.5843855e+07
   6.6522174e-10  -5.1925755e-03   2.1046155e+00   1.4050486e+00  -2.5716564e+07
   6.6622207e-10  -5.1669138e-03   2.1028379e+00   1.4066680e+00  -2.5589898e+07
   6.6722241e-10  -5.1413785e-03   2.1010694e+00   1.4082805e+00  -2.5463852e+07
   6.6822274e-10  -5.1159689e-03   2.0993102e+00   1.4098863e+00  -2.5338425e+07
   6.6922307e-10  -5.0906846e-03   2.0975601e+00   1.4114853e+00  -2.5213612e+07
   6.7022341e-10  -5.0655247e-03   2.0958191e+00   1.4130776e+00  -2.5089412e+07
   6.7122374e-10  -5.0404889e-03   2.0940872e+00   1.4146632e+00  -2.4965820e+07
   6.7222407e-10  -5.0155763e-03   2.0923643e+00   1.4162421e+00  -2.4842835e+07
   6.7322441e-10  -4.9907865e-03   2.0906503e+00   1.4178143e+00  -2.4720452e+07
   6.7422474e-10  -4.9661188e-03   2.0889452e+00   1.4193799e+00  -2.4598670e+07
   6.7522508e-10  -4.9415726e-03   2.0872490e+00   1.4209389e+00  -2.4477485e+07
   6.7622541e-10  -4.9171473e-03   2.0855616e+00   1.4224913e+00  -2.4356894e+07
   6.7722574e-10  -4.8928424e-03   2.0838830e+00   1.4240371e+00  -2.4236895e+07
   6.7822608e-10  -4.8686572e-03   2.0822131e+00   1.4255763e+00  -2.4117483e+07
   6.7922641e-10  -4.8445912e-03   2.0805519e+00   1.4271090e+00  -2.3998658e+07
   6.8022674e-10  -4.8206437e-03   2.0788993e+00   1.4286352e+00  -2.3880415e+07
   6.8122708e-10  -4.7968143e-03   2.0772553e+00   1.4301549e+00  -2.3762753e+07
   6.8222741e-10  -4.7731022e-03   2.0756198e+00   1.4316681e+00  -2.3645667e+07
   6.8322774e-10  -4.7495070e-03   2.0739928e+00   1.4331749e+00  -2.3529155e+07
   6.8422808e-10  -4.7260281e-03   2.0723743e+00   1.4346752e+00  -2.3413215e+07
   6.8522841e-10  -4.7026648e-03   2.0707642e+00   1.4361691e+00  -2.3297844e+07
   6.8622874e-10  -4.6794167e-03   2.0691624e+00   1.4376567e+00  -2.3183038e+07
   6.8722908e-10  -4.6562832e-03   2.0675689e+00   1.4391379e+00  -2.3068796e+07
   6.8822941e-10  -4.6332636e-03   2.0659837e+00   1.4406127e+00  -2.2955114e+07
   6.8922974e-10  -4.6103575e-03   2.0644068e+00   1.4420812e+00  -2.2841989e+07
   6.9023008e-10  -4.5875642e-03   2.0628380e+00   1.4435435e+00  -2.2729420e+07
   6.9123041e-10  -4.5648833e-03   2.0612774e+00   1.4449994e+00  -2.2617402e+07
   6.9223074e-10  -4.5423142e-03   2.0597248e+00   1.4464491e+00  -2.2505934e+07
   6.9323108e-10  -4.5198563e-03   2.0581803e+00   1.4478925e+00  -2.2395013e+07
   6.9423141e-10  -4.4975091e-03   2.0566438e+00   1.4493298e+00  -2.2284636e+07
   6.9523174e-10  -4.4752720e-03   2.0551153e+00   1.4507608e+00  -2.2174800e+07
   6.9623208e-10  -4.4531446e-03   2.0535947e+00   1.4521857e+00  -2.2065504e+07
   6.9723241e-10  -4.4311262e-03   2.0520820e+00   1.4536044e+00  -2.1956743e+07
   6.9823274e-10  -4.4092163e-03   2.0505771e+00   1.4550170e+00  -2.1848516e+07
   6.9923308e-10  -4.3874144e-03   2.0490800e+00   1.4564234e+00  -2.1740820e+07
   7.0023341e-10  -4.3657200e-03   2.0475907e+00   1.4578238e+00  -2.1633653e+07
   7.0123374e-10  -4.3441325e-03   2.0461091e+00   1.4592182e+00  -2.1527011e+07
   7.0223408e-10  -4.3226515e-03   2.0446352e+00   1.4606065e+00  -2.1420892e+07
   7.0323441e-10  -4.3012763e-03   2.0431689e+00   1.4619887e+00  -2.1315295e+07
   7.0423474e-10  -4.2800065e-03   2.0417102e+00   1.4633650e+00  -2.1210215e+07
   7.0523508e-10  -4.2588416e-03   2.0402591e+00   1.4647353e+00  -2.1105651e+07
   7.0623541e-10  -4.2377810e-03   2.0388155e+00   1.4660996e+00  -2.1001600e+07
   7.0723575e-10  -4.2168243e-03   2.0373793e+00   1.4674580e+00  -2.0898059e+07
   7.0823608e-10  -4.1959708e-03   2.0359506e+00   1.4688104e+00  -2.0795027e+07
   7.0923641e-10  -4.1752202e-03   2.0345293e+00   1.4701570e+00  -2.0692500e+07
   7.1023675e-10  -4.1545719e-03   2.0331153e+00   1.4714977e+00  -2.0590477e+07
   7.1123708e-10  -4.1340254e-03   2.0317087e+00   1.4728326e+00  -2.0488954e+07
   7.1223741e-10  -4.1135802e-03   2.0303093e+00   1.4741616e+00  -2.0387929e+07
   7.1323775e-10  -4.0932358e-03   2.0289172e+00   1.4754848e+00  -2.0287400e+07
   7.1423808e-10  -4.0729917e-03   2.0275323e+00   1.4768022e+00  -2.0187365e+07
   7.1523841e-10  -4.0528475e-03   2.0261545e+00   1.4781139e+00  -2.0087820e+07
   7.1623875e-10  -4.0328025e-03   2.0247839e+00   1.4794198e+00  -1.9988764e+07
   7.1723908e-10  -4.0128565e-03   2.0234204e+00   1.4807199e+00  -1.9890195e+07
   7.1823941e-10  -3.9930087e-03   2.0220639e+00   1.4820144e+00  -1.9792109e+07
   7.1923975e-10  -3.9732589e-03   2.0207144e+00   1.4833032e+00  -1.9694504e+07
   7.2024008e-10  -3.9536065e-03   2.0193719e+00   1.4845863e+00  -1.9597379e+07
   7.2124041e-10  -3.9340509e-03   2.0180363e+00   1.4858638e+00  -1.9500731e+07
   7.2224075e-10  -3.9145919e-03   2.0167077e+00   1.4871356e+00  -1.9404557e+07
   7.2324108e-10  -3.8952288e-03   2.0153859e+00   1.4884019e+00  -1.9308855e+07
   7.2424141e-10  -3.8759611e-03   2.0140709e+00   1.4896625e+00  -1.9213623e+07
   7.2524175e-10  -3.8567886e-03   2.0127628e+00   1.4909176e+00  -1.9118858e+07
   7.2624208e-10  -3.8377105e-03   2.0114613e+00   1.4921672e+00  -1.9024559e+07
   7.2724241e-10  -3.8187266e-03   2.0101666e+00   1.4934113e+00  -1.8930722e+07
   7.2824275e-10  -3.7998363e-03   2.0088786e+00   1.4946498e+00  -1.8837347e+07
   7.2924308e-10  -3.7810392e-03   2.0075973e+00   1.4958829e+00  -1.8744430e+07
   7.3024341e-10  -3.7623348e-03   2.0063226e+00   1.4971105e+00  -1.8651969e+07
   7.3124375e-10  -3.7437227e-03   2.0050544e+00   1.4983327e+00  -1.8559962e+07
   7.3224408e-10  -3.7252024e-03   2.0037928e+00   1.4995494e+00  -1.8468407e+07
   7.3324441e-10  -3.7067735e-03   2.0025377e+00   1.5007608e+00  -1.8377301e+07
   7.3424475e-10  -3.6884354e-03   2.0012891e+00   1.5019668e+00  -1.8286643e+07
   7.3524508e-10  -3.6701878e-03   2.0000469e+00   1.5031674e+00  -1.8196430e+07
   7.3624542e-10  -3.6520303e-03   1.9988111e+00   1.5043627e+00  -1.8106660e+07
   7.3724575e-10  -3.6339623e-03   1.9975817e+00   1.5055527e+00  -1.8017331e+07
   7.3824608e-10  -3.6159835e-03   1.9963587e+00   1.5067374e+00  -1.7928441e+07
   7.3924642e-10  -3.5980933e-03   1.9951419e+00   1.5079168e+00  -1.7839987e+07
   7.4024675e-10  -3.5802915e-03   1.9939314e+00   1.5090910e+00  -1.7751968e+07
   7.4124708e-10  -3.5625774e-03   1.9927272e+00   1.5102599e+00  -1.7664381e+07
   7.4224742e-10  -3.5449508e-03   1.9915292e+00   1.5114236e+00  -1.7577224e+07
   7.4324775e-10  -3.5274111e-03   1.9903373e+00   1.5125821e+00  -1.7490495e+07
   7.4424808e-10  -3.5099580e-03   1.9891516e+00   1.5137355e+00  -1.7404193e+07
   7.4524842e-10  -3.4925910e-03   1.9879720e+00   1.5148836e+00  -1.7318314e+07
   7.4624875e-10  -3.4753097e-03   1.9867985e+00   1.5160267e+00  -1.7232857e+07
   7.4724908e-10  -3.4581137e-03   1.9856310e+00   1.5171646e+00  -1.7147820e+07
   7.4824942e-10  -3.4410025e-03   1.9844696e+00   1.5182975e+00  -1.7063201e+07
   7.4924975e-10  -3.4239758e-03   1.9833141e+00   1.5194253e+00  -1.6978997e+07
   7.5025008e-10  -3.4070331e-03   1.9821646e+00   1.5205480e+00  -1.6895207e+07
   7.5125042e-10  -3.3901740e-03   1.9810210e+00   1.5216656e+00  -1.6811829e+07
   7.5225075e-10  -3.3733981e-03   1.9798833e+00   1.5227783e+00  -1.6728861e+07
   7.5325108e-10  -3.3567050e-03   1.9787514e+00   1.5238860e+00  -1.6646300e+07
   7.5425142e-10  -3.3400943e-03   1.9776254e+00   1.5249887e+00  -1.6564145e+07
   7.5525175e-10  -3.3235655e-03   1.9765052e+00   1.5260864e+00  -1.6482393e+07
   7.5625208e-10  -3.3071184e-03   1.9753907e+00   1.5271792e+00  -1.6401043e+07
   7.5725242e-10  -3.2907524e-03   1.9742820e+00   1.5282671e+00  -1.6320093e+07
   7.5825275e-10  -3.2744672e-03   1.9731789e+00   1.5293500e+00  -1.6239541e+07
   7.5925308e-10  -3.2582623e-03   1.9720816e+00   1.5304281e+00  -1.6159384e+07
   7.6025342e-10  -3.2421375e-03   1.9709899e+00   1.5315014e+00  -1.6079622e+07
   7.6125375e-10  -3.2260922e-03   1.9699038e+00   1.5325698e+00  -1.6000251e+07
   7.6225408e-10  -3.2101262e-03   1.9688232e+00   1.5336333e+00  -1.5921271e+07
   7.6325442e-10  -3.1942390e-03   1.9677483e+00   1.5346921e+00  -1.5842679e+07
   7.6425475e-10  -3.1784302e-03   1.9666789e+00   1.5357461e+00  -1.5764473e+07
   7.6525509e-10  -3.1626994e-03   1.9656149e+00   1.5367953e+00  -1.5686651e+07
   7.6625542e-10  -3.1470463e-03   1.9645565e+00   1.5378398e+00  -1.5609212e+07
   7.6725575e-10  -3.1314704e-03   1.9635034e+00   1.5388796e+00  -1.5532154e+07
   7.6825609e-10  -3.1159715e-03   1.9624558e+00   1.5399146e+00  -1.5455474e+07
   7.6925642e-10  -3.1005491e-03   1.9614136e+00   1.5409449e+00  -1.5379171e+07
   7.7025675e-10  -3.0852028e-03   1.9603767e+00   1.5419706e+00  -1.5303244e+07
   7.7125709e-10  -3.0699323e-03   1.9593452e+00   1.5429917e+00  -1.5227690e+07
   7.7225742e-10  -3.0547371e-03   1.9583189e+00   1.5440081e+00  -1.5152507e+07
   7.7325775e-10  -3.0396170e-03   1.9572980e+00   1.5450198e+00  -1.5077693e+07
   7.7425809e-10  -3.0245716e-03   1.9562822e+00   1.5460270e+00  -1.5003248e+07
   7.7525842e-10  -3.0096004e-03   1.9552717e+00   1.5470296e+00  -1.4929169e+07
   7.7625875e-10  -2.9947032e-03   1.9542664e+00   1.5480277e+00  -1.4855454e+07
   7.7725909e-10  -2.9798795e-03   1.9532662e+00   1.5490212e+00  -1.4782101e+07
   7.7825942e-10  -2.9651290e-03   1.9522712e+00   1.5500102e+00  -1.4709109e+07
   7.7925975e-10  -2.9504513e-03   1.9512812e+00   1.5509947e+00  -1.4636476e+07
   7.8026009e-10  -2.9358462e-03   1.9502964e+00   1.5519747e+00  -1.4564200e+07
   7.8126042e-10  -2.9213131e-03   1.9493166e+00   1.5529502e+00  -1.4492279e+07
   7.8226075e-10  -2.9068518e-03   1.9483418e+00   1.5539213e+00  -1.4420712e+07
   7.8326109e-10  -2.8924620e-03   1.9473720e+00   1.5548880e+00  -1.4349498e+07
   7.8426142e-10  -2.8781432e-03   1.9464072e+00   1.5558502e+00  -1.4278633e+07
   7.8526175e-10  -2.8638951e-03   1.9454474e+00   1.5568081e+00  -1.4208117e+07
   7.8626209e-10  -2.8497173e-03   1.9444924e+00   1.5577615e+00  -1.4137948e+07
   7.8726242e-10  -2.8356096e-03   1.9435424e+00   1.5587106e+00  -1.4068123e+07
   7.8826275e-10  -2.8215716e-03   1.9425972e+00   1.5596554e+00  -1.3998643e+07
   7.8926309e-10  -2.8076029e-03   1.9416569e+00   1.5605959e+00  -1.3929504e+07
   7.9026342e-10  -2.7937032e-03   1.9407214e+00   1.5615320e+00  -1.3860705e+07
   7.9126375e-10  -2.7798721e-03   1.9397907e+00   1.5624639e+00  -1.3792245e+07
   7.9226409e-10  -2.7661094e-03   1.9388648e+00   1.5633915e+00  -1.3724121e+07
   7.9326442e-10  -2.7524146e-03   1.9379436e+00   1.5643148e+00  -1.3656332e+07
   7.9426475e-10  -2.7387875e-03   1.9370271e+00   1.5652339e+00  -1.3588877e+07
   7.9526509e-10  -2.7252277e-03   1.9361153e+00   1.5661488e+00  -1.3521754e+07
   7.9626542e-10  -2.7117349e-03   1.9352082e+00   1.5670595e+00  -1.3454961e+07
   7.9726576e-10  -2.6983087e-03   1.9343057e+00   1.5679660e+00  -1.3388497e+07
   7.9826609e-10  -2.6849489e-03   1.9334079e+00   1.5688684e+00  -1.3322359e+07
   7.9926642e-10  -2.6716550e-03   1.9325147e+00   1.5697666e+00  -1.3256548e+07
   8.0026676e-10  -2.6584268e-03   1.9316260e+00   1.5706606e+00  -1.3191060e+07
   8.0126709e-10  -2.6452640e-03   1.9307418e+00   1.5715506e+00  -1.3125894e+07
   8.0226742e-10  -2.6321662e-03   1.9298622e+00   1.5724364e+00  -1.3061048e+07
   8.0326776e-10  -2.6191331e-03   1.9289871e+00   1.5733182e+00  -1.2996522e+07
   8.0426809e-10  -2.6061644e-03   1.9281165e+00   1.5741959e+00  -1.2932314e+07
   8.0526842e-10  -2.5932597e-03   1.9272504e+00   1.5750696e+00  -1.2868421e+07
   8.0626876e-10  -2.5804188e-03   1.9263886e+00   1.5759393e+00  -1.2804843e+07
   8.0726909e-10  -2.5676414e-03   1.9255313e+00   1.5768049e+00  -1.2741578e+07
   8.0826942e-10  -2.5549271e-03   1.9246783e+00   1.5776666e+00  -1.2678624e+07
   8.0926976e-10  -2.5422756e-03   1.9238298e+00   1.5785242e+00  -1.2615980e+07
   8.1027009e-10  -2.5296866e-03   1.9229855e+00   1.5793779e+00  -1.2553644e+07
   8.1127042e-10  -2.5171598e-03   1.9221456e+00   1.5802277e+00  -1.2491616e+07
   8.1227076e-10  -2.5046949e-03   1.9213099e+00   1.5810735e+00  -1.2429892e+07
   8.1327109e-10  -2.4922917e-03   1.9204786e+00   1.5819155e+00  -1.2368472e+07
   8.1427142e-10  -2.4799497e-03   1.9196515e+00   1.5827535e+00  -1.2307355e+07
   8.1527176e-10  -2.4676686e-03   1.9188286e+00   1.5835877e+00  -1.2246538e+07
   8.1627209e-10  -2.4554483e-03   1.9180099e+00   1.5844180e+00  -1.2186021e+07
   8.1727242e-10  -2.4432884e-03   1.9171954e+00   1.5852444e+00  -1.2125802e+07
   8.1827276e-10  -2.4311885e-03   1.9163851e+00   1.5860670e+00  -1.2065879e+07
   8.1927309e-10  -2.4191485e-03   1.9155789e+00   1.5868859e+00  -1.2006252e+07
   8.2027342e-10  -2.4071679e-03   1.9147768e+00   1.5877009e+00  -1.1946917e+07
   8.2127376e-10  -2.3952466e-03   1.9139788e+00   1.5885121e+00  -1.1887875e+07
   8.2227409e-10  -2.3833841e-03   1.9131849e+00   1.5893196e+00  -1.1829124e+07
   8.2327442e-10  -2.3715803e-03   1.9123950e+00   1.5901233e+00  -1.1770662e+07
   8.2427476e-10  -2.3598349e-03   1.9116092e+00   1.5909233e+00  -1.1712488e+07
   8.2527509e-10  -2.3481475e-03   1.9108274e+00   1.5917196e+00  -1.1654600e+07
   8.2627543e-10  -2.3365178e-03   1.9100495e+00   1.5925122e+00  -1.1596998e+07
   8.2727576e-10  -2.3249456e-03   1.9092757e+00   1.5933011e+00  -1.1539679e+07
   8.2827609e-10  -2.3134307e-03   1.9085058e+00   1.5940863e+00  -1.1482642e+07
   8.2927643e-10  -2.3019726e-03   1.9077398e+00   1.5948679e+00  -1.1425886e+07
   8.3027676e-10  -2.2905712e-03   1.9069777e+00   1.5956458e+00  -1.1369410e+07
   8.3127709e-10  -2.2792261e-03   1.9062196e+00   1.5964202e+00  -1.1313212e+07
   8.3227743e-10  -2.2679371e-03   1.9054652e+00   1.5971909e+00  -1.1257290e+07
   8.3327776e-10  -2.2567039e-03   1.9047148e+00   1.5979580e+00  -1.1201644e+07
   8.3427809e-10  -2.2455263e-03   1.9039681e+00   1.5987216e+00  -1.1146272e+07
   8.3527843e-10  -2.2344039e-03   1.9032253e+00   1.5994816e+00  -1.1091173e+07
   8.3627876e-10  -2.2233364e-03   1.9024863e+00   1.6002380e+00  -1.1036345e+07
   8.3727909e-10  -2.2123237e-03   1.9017510e+00   1.6009909e+00  -1.0981788e+07
   8.3827943e-10  -2.2013655e-03   1.9010194e+00   1.6017404e+00  -1.0927499e+07
   8.3927976e-10  -2.1904614e-03   1.9002916e+00   1.6024863e+00  -1.0873477e+07
   8.4028009e-10  -2.1796112e-03   1.8995675e+00   1.6032287e+00  -1.0819722e+07
   8.4128043e-10  -2.1688146e-03   1.8988471e+00   1.6039677e+00  -1.0766232e+07
   8.4228076e-10  -2.1580714e-03   1.8981304e+00   1.6047032e+00  -1.0713005e+07
   8.4328109e-10  -2.1473814e-03   1.8974173e+00   1.6054353e+00  -1.0660040e+07
   8.4428143e-10  -2.1367442e-03   1.8967079e+00   1.6061639e+00  -1.0607336e+07
   8.4528176e-10  -2.1261595e-03   1.8960020e+00   1.6068892e+00  -1.0554892e+07
   8.4628209e-10  -2.1156273e-03   1.8952998e+00   1.6076110e+00  -1.0502706e+07
   8.4728243e-10  -2.1051470e-03   1.8946011e+00   1.6083295e+00  -1.0450778e+07
   8.4828276e-10  -2.0947186e-03   1.8939060e+00   1.6090446e+00  -1.0399105e+07
   8.4928309e-10  -2.0843418e-03   1.8932145e+00   1.6097564e+00  -1.0347687e+07
   8.5028343e-10  -2.0740163e-03   1.8925264e+00   1.6104648e+00  -1.0296522e+07
   8.5128376e-10  -2.0637418e-03   1.8918419e+00   1.6111699e+00  -1.0245609e+07
   8.5228409e-10  -2.0535182e-03   1.8911608e+00   1.6118717e+00  -1.0194948e+07
   8.5328443e-10  -2.0433450e-03   1.8904832e+00   1.6125702e+00  -1.0144536e+07
   8.5428476e-10  -2.0332222e-03   1.8898091e+00   1.6132655e+00  -1.0094372e+07
   8.5528510e-10  -2.0231495e-03   1.8891384e+00   1.6139574e+00  -1.0044456e+07
   8.5628543e-10  -2.0131265e-03   1.8884711e+00   1.6146462e+00  -9.9947853e+06
   8.5728576e-10  -2.0031532e-03   1.8878072e+00   1.6153317e+00  -9.9453598e+06
   8.5828610e-10  -1.9932291e-03   1.8871466e+00   1.6160140e+00  -9.8961779e+06
   8.5928643e-10  -1.9833541e-03   1.8864895e+00   1.6166930e+00  -9.8472383e+06
   8.6028676e-10  -1.9735280e-03   1.8858356e+00   1.6173689e+00  -9.7985400e+06
   8.6128710e-10  -1.9637504e-03   1.8851851e+00   1.6180416e+00  -9.7500818e+06
   8.6228743e-10  -1.9540212e-03   1.8845379e+00   1.6187112e+00  -9.7018624e+06
   8.6328776e-10  -1.9443402e-03   1.8838940e+00   1.6193776e+00  -9.6538807e+06
   8.6428810e-10  -1.9347070e-03   1.8832534e+00   1.6200408e+00  -9.6061356e+06
   8.6528843e-10  -1.9251214e-03   1.8826160e+00   1.6207010e+00  -9.5586258e+06
   8.6628876e-10  -1.9155833e-03   1.8819819e+00   1.6213580e+00  -9.5113503e+06
   8.6728910e-10  -1.9060923e-03   1.8813510e+00   1.6220119e+00  -9.4643078e+06
   8.6828943e-10  -1.8966483e-03   1.8807233e+00   1.6226628e+00  -9.4174972e+06
   8.6928976e-10  -1.8872509e-03   1.8800987e+00   1.6233106e+00  -9.3709175e+06
   8.7029010e-10  -1.8779001e-03   1.8794774e+00   1.6239553e+00  -9.3245674e+06
   8.7129043e-10  -1.8685955e-03   1.8788592e+00   1.6245970e+00  -9.2784458e+06
   8.7229076e-10  -1.8593369e-03   1.8782442e+00   1.6252357e+00  -9.2325516e+06
   8.7329110e-10  -1.8501242e-03   1.8776322e+00   1.6258714e+00  -9.1868837e+06
   8.7429143e-10  -1.8409570e-03   1.8770234e+00   1.6265040e+00  -9.1414411e+06
   8.7529176e-10  -1.8318351e-03   1.8764177e+00   1.6271337e+00  -9.0962225e+06
   8.7629210e-10  -1.8227584e-03   1.8758150e+00   1.6277604e+00  -9.0512269e+06
   8.7729243e-10  -1.8137265e-03   1.8752155e+00   1.6283842e+00  -9.0064531e+06
   8.7829276e-10  -1.8047394e-03   1.8746189e+00   1.6290050e+00  -8.9619002e+06
   8.7929310e-10  -1.7957967e-03   1.8740254e+00   1.6296228e+00  -8.9175670e+06
   8.8029343e-10  -1.7868982e-03   1.8734349e+00   1.6302378e+00  -8.8734524e+06
   8.8129376e-10  -1.7780438e-03   1.8728474e+00   1.6308498e+00  -8.8295554e+06
   8.8229410e-10  -1.7692332e-03   1.8722629e+00   1.6314590e+00  -8.7858749e+06
   8.8329443e-10  -1.7604661e-03   1.8716813e+00   1.6320652e+00  -8.7424099e+06
   8.8429476e-10  -1.7517424e-03   1.8711027e+00   1.6326686e+00  -8.6991592e+06
   8.8529510e-10  -1.7430619e-03   1.8705270e+00   1.6332692e+00  -8.6561219e+06
   8.8629543e-10  -1.7344244e-03   1.8699543e+00   1.6338669e+00  -8.6132968e+06
   8.8729577e-10  -1.7258295e-03   1.8693844e+00   1.6344618e+00  -8.5706830e+06
   8.8829610e-10  -1.7172772e-03   1.8688175e+00   1.6350538e+00  -8.5282793e+06
   8.8929643e-10  -1.7087672e-03   1.8682534e+00   1.6356431e+00  -8.4860849e+06
   8.9029677e-10  -1.7002993e-03   1.8676922e+00   1.6362295e+00  -8.4440986e+06
   8.9129710e-10  -1.6918733e-03   1.8671338e+00   1.6368132e+00  -8.4023194e+06
   8.9229743e-10  -1.6834890e-03   1.8665783e+00   1.6373941e+00  -8.3607464e+06
   8.9329777e-10  -1.6751462e-03   1.8660255e+00   1.6379723e+00  -8.3193784e+06
   8.9429810e-10  -1.6668446e-03   1.8654756e+00   1.6385477e+00  -8.2782145e+06
   8.9529843e-10  -1.6585842e-03   1.8649285e+00   1.6391204e+00  -8.2372537e+06
   8.9629877e-10  -1.6503646e-03   1.8643841e+00   1.6396904e+00  -8.1964950e+06
   8.9729910e-10  -1.6421856e-03   1.8638425e+00   1.6402577e+00  -8.1559374e+06
   8.9829943e-10  -1.6340472e-03   1.8633036e+00   1.6408222e+00  -8.1155800e+06
   8.9929977e-10  -1.6259490e-03   1.8627675e+00   1.6413841e+00  -8.0754216e+06
   9.0030010e-10  -1.6178909e-03   1.8622341e+00   1.6419434e+00  -8.0354614e+06
   9.0130043e-10  -1.6098726e-03   1.8617034e+00   1.6424999e+00  -7.9956984e+06
   9.0230077e-10  -1.6018941e-03   1.8611754e+00   1.6430538e+00  -7.9561316e+06
   9.0330110e-10  -1.5939550e-03   1.8606500e+00   1.6436051e+00  -7.9167600e+06
   9.0430143e-10  -1.5860552e-03   1.8601273e+00   1.6441538e+00  -7.8775827e+06
   9.0530177e-10  -1.5781945e-03   1.8596073e+00   1.6446999e+00  -7.8385988e+06
   9.0630210e-10  -1.5703727e-03   1.8590899e+00   1.6452433e+00  -7.7998073e+06
   9.0730243e-10  -1.5625896e-03   1.8585751e+00   1.6457842e+00  -7.7612071e+06
   9.0830277e-10  -1.5548451e-03   1.8580629e+00   1.6463225e+00  -7.7227975e+06
   9.0930310e-10  -1.5471388e-03   1.8575533e+00   1.6468583e+00  -7.6845775e+06
   9.1030343e-10  -1.5394707e-03   1.8570463e+00   1.6473915e+00  -7.6465461e+06
   9.1130377e-10  -1.5318406e-03   1.8565419e+00   1.6479221e+00  -7.6087024e+06
   9.1230410e-10  -1.5242482e-03   1.8560400e+00   1.6484503e+00  -7.5710455e+06
   9.1330443e-10  -1.5166934e-03   1.8555406e+00   1.6489759e+00  -7.5335744e+06
   9.1430477e-10  -1.5091760e-03   1.8550438e+00   1.6494990e+00  -7.4962883e+06
   9.1530510e-10  -1.5016957e-03   1.8545495e+00   1.6500196e+00  -7.4591863e+06
   9.1630544e-10  -1.4942525e-03   1.8540577e+00   1.6505378e+00  -7.4222674e+06
   9.1730577e-10  -1.4868462e-03   1.8535684e+00   1.6510534e+00  -7.3855308e+06
   9.1830610e-10  -1.4794765e-03   1.8530815e+00   1.6515666e+00  -7.3489754e+06
   9.1930644e-10  -1.4721433e-03   1.8525972e+00   1.6520774e+00  -7.3126006e+06
   9.2030677e-10  -1.4648464e-03   1.8521152e+00   1.6525857e+00  -7.2764053e+06
   9.2130710e-10  -1.4575856e-03   1.8516358e+00   1.6530916e+00  -7.2403887e+06
   9.2230744e-10  -1.4503607e-03   1.8511587e+00   1.6535951e+00  -7.2045499e+06
   9.2330777e-10  -1.4431716e-03   1.8506840e+00   1.6540962e+00  -7.1688881e+06
   9.2430810e-10  -1.4360181e-03   1.8502118e+00   1.6545949e+00  -7.1334023e+06
   9.2530844e-10  -1.4289000e-03   1.8497419e+00   1.6550912e+00  -7.0980917e+06
   9.2630877e-10  -1.4218171e-03   1.8492744e+00   1.6555851e+00  -7.0629555e+06
   9.2730910e-10  -1.4147693e-03   1.8488093e+00   1.6560767e+00  -7.0279928e+06
   9.2830944e-10  -1.4077564e-03   1.8483465e+00   1.6565659e+00  -6.9932026e+06
   9.2930977e-10  -1.4007782e-03   1.8478861e+00   1.6570528e+00  -6.9585843e+06
   9.3031010e-10  -1.3938345e-03   1.8474280e+00   1.6575374e+00  -6.9241369e+06
   9.3131044e-10  -1.3869252e-03   1.8469722e+00   1.6580196e+00  -6.8898596e+06
   9.3231077e-10  -1.3800501e-03   1.8465187e+00   1.6584995e+00  -6.8557516e+06
   9.3331110e-10  -1.3732091e-03   1.8460675e+00   1.6589772e+00  -6.8218120e+06
   9.3431144e-10  -1.3664019e-03   1.8456186e+00   1.6594525e+00  -6.7880400e+06
   9.3531177e-10  -1.3596284e-03   1.8451719e+00   1.6599256e+00  -6.7544347e+06
   9.3631210e-10  -1.3528885e-03   1.8447275e+00   1.6603964e+00  -6.7209955e+06
   9.3731244e-10  -1.3461819e-03   1.8442854e+00   1.6608650e+00  -6.6877213e+06
   9.3831277e-10  -1.3395085e-03   1.8438454e+00   1.6613313e+00  -6.6546115e+06
   9.3931310e-10  -1.3328682e-03   1.8434077e+00   1.6617954e+00  -6.6216653e+06
   9.4031344e-10  -1.3262607e-03   1.8429723e+00   1.6622573e+00  -6.5888817e+06
   9.4131377e-10  -1.3196860e-03   1.8425390e+00   1.6627169e+00  -6.5562601e+06
   9.4231410e-10  -1.3131438e-03   1.8421079e+00   1.6631744e+00  -6.5237996e+06
   9.4331444e-10  -1.3066340e-03   1.8416789e+00   1.6636296e+00  -6.4914994e+06
   9.4431477e-10  -1.3001564e-03   1.8412522e+00   1.6640827e+00  -6.4593587e+06
   9.4531511e-10  -1.2937109e-03   1.8408276e+00   1.6645336e+00  -6.4273768e+06
   9.4631544e-10  -1.2872973e-03   1.8404051e+00   1.6649824e+00  -6.3955529e+06
   9.4731577e-10  -1.2809155e-03   1.8399848e+00   1.6654289e+00  -6.3638862e+06
   9.4831611e-10  -1.2745652e-03   1.8395666e+00   1.6658734e+00  -6.3323759e+06
   9.4931644e-10  -1.2682464e-03   1.8391505e+00   1.6663157e+00  -6.3010213e+06
   9.5031677e-10  -1.2619589e-03   1.8387365e+00   1.6667559e+00  -6.2698216e+06
   9.5131711e-10  -1.2557026e-03   1.8383246e+00   1.6671940e+00  -6.2387759e+06
   9.5231744e-10  -1.2494772e-03   1.8379148e+00   1.6676300e+00  -6.2078837e+06
   9.5331777e-10  -1.2432826e-03   1.8375070e+00   1.6680638e+00  -6.1771441e+06
   9.5431811e-10  -1.2371187e-03   1.8371013e+00   1.6684956e+00  -6.1465563e+06
   9.5531844e-10  -1.2309853e-03   1.8366976e+00   1.6689254e+00  -6.1161197e+06
   9.5631877e-10  -1.2248823e-03   1.8362960e+00   1.6693530e+00  -6.0858334e+06
   9.5731911e-10  -1.2188096e-03   1.8358964e+00   1.6697786e+00  -6.0556968e+06
   9.5831944e-10  -1.2127669e-03   1.8354989e+00   1.6702022e+00  -6.0257090e+06
   9.5931977e-10  -1.2067541e-03   1.8351033e+00   1.6706237e+00  -5.9958695e+06
   9.6032011e-10  -1.2007711e-03   1.8347097e+00   1.6710432e+00  -5.9661774e+06
   9.6132044e-10  -1.1948177e-03   1.8343181e+00   1.6714607e+00  -5.9366319e+06
   9.6232077e-10  -1.1888938e-03   1.8339285e+00   1.6718762e+00  -5.9072325e+06
   9.6332111e-10  -1.1829992e-03   1.8335408e+00   1.6722897e+00  -5.8779783e+06
   9.6432144e-10  -1.1771339e-03   1.8331551e+00   1.6727011e+00  -5.8488687e+06
   9.6532177e-10  -1.1712975e-03   1.8327714e+00   1.6731107e+00  -5.8199030e+06
   9.6632211e-10  -1.1654901e-03   1.8323895e+00   1.6735182e+00  -5.7910804e+06
   9.6732244e-10  -1.1597115e-03   1.8320096e+00   1.6739238e+00  -5.7624002e+06
   9.6832277e-10  -1.1539614e-03   1.8316317e+00   1.6743274e+00  -5.7338617e+06
   9.6932311e-10  -1.1482399e-03   1.8312556e+00   1.6747291e+00  -5.7054643e+06
   9.7032344e-10  -1.1425467e-03   1.8308814e+00   1.6751288e+00  -5.6772072e+06
   9.7132377e-10  -1.1368816e-03   1.8305091e+00   1.6755267e+00  -5.6490898e+06
   9.7232411e-10  -1.1312447e-03   1.8301387e+00   1.6759226e+00  -5.6211113e+06
   9.7332444e-10  -1.1256356e-03   1.8297701e+00   1.6763166e+00  -5.5932711e+06
   9.7432477e-10  -1.1200543e-03   1.8294034e+00   1.6767087e+00  -5.5655685e+06
   9.7532511e-10  -1.1145007e-03   1.8290386e+00   1.6770989e+00  -5.5380028e+06
   9.7632544e-10  -1.1089746e-03   1.8286755e+00   1.6774872e+00  -5.5105734e+06
   9.7732578e-10  -1.1034759e-03   1.8283144e+00   1.6778737e+00  -5.4832795e+06
   9.7832611e-10  -1.0980043e-03   1.8279550e+00   1.6782583e+00  -5.4561206e+06
   9.7932644e-10  -1.0925599e-03   1.8275974e+00   1.6786410e+00  -5.4290959e+06
   9.8032678e-10  -1.0871425e-03   1.8272417e+00   1.6790219e+00  -5.4022047e+06
   9.8132711e-10  -1.0817519e-03   1.8268877e+00   1.6794010e+00  -5.3754465e+06
   9.8232744e-10  -1.0763880e-03   1.8265355e+00   1.6797782e+00  -5.3488206e+06
   9.8332778e-10  -1.0710506e-03   1.8261851e+00   1.6801536e+00  -5.3223263e+06
   9.8432811e-10  -1.0657397e-03   1.8258365e+00   1.6805272e+00  -5.2959629e+06
   9.8532844e-10  -1.0604551e-03   1.8254896e+00   1.6808990e+00  -5.2697299e+06
   9.8632878e-10  -1.0551967e-03   1.8251444e+00   1.6812690e+00  -5.2436266e+06
   9.8732911e-10  -1.0499643e-03   1.8248010e+00   1.6816372e+00  -5.2176523e+06
   9.8832944e-10  -1.0447579e-03   1.8244594e+00   1.6820037e+00  -5.1918064e+06
   9.8932978e-10  -1.0395772e-03   1.8241194e+00   1.6823683e+00  -5.1660882e+06
   9.9033011e-10  -1.0344222e-03   1.8237811e+00   1.6827312e+00  -5.1404973e+06
   9.9133044e-10  -1.0292927e-03   1.8234446e+00   1.6830924e+00  -5.1150328e+06
   9.9233078e-10  -1.0241887e-03   1.8231097e+00   1.6834518e+00  -5.0896943e+06
   9.9333111e-10  -1.0191099e-03   1.8227766e+00   1.6838095e+00  -5.0644810e+06
   9.9433144e-10  -1.0140563e-03   1.8224451e+00   1.6841654e+00  -5.0393924e+06
   9.9533178e-10  -1.0090277e-03   1.8221153e+00   1.6845196e+00  -5.0144278e+06
   9.9633211e-10  -1.0040241e-03   1.8217871e+00   1.6848722e+00  -4.9895867e+06
   9.9733244e-10  -9.9904518e-04   1.8214606e+00   1.6852230e+00  -4.9648684e+06
   9.9833278e-10  -9.9409097e-04   1.8211357e+00   1.6855721e+00  -4.9402723e+06
   9.9933311e-10  -9.8916130e-04   1.8208125e+00   1.6859195e+00  -4.9157978e+06
   1.0003334e-09  -9.8425606e-04   1.8204909e+00   1.6862652e+00  -4.8914444e+06
   1.0013338e-09  -9.7937511e-04   1.8201709e+00   1.6866093e+00  -4.8672113e+06
   1.0023341e-09  -9.7451835e-04   1.8198525e+00   1.6869517e+00  -4.8430981e+06
   1.0033344e-09  -9.6968565e-04   1.8195357e+00   1.6872925e+00  -4.8191042e+06
   1.0043348e-09  -9.6487689e-04   1.8192205e+00   1.6876316e+00  -4.7952289e+06
   1.0053351e-09  -9.6009195e-04   1.8189069e+00   1.6879690e+00  -4.7714716e+06
   1.0063354e-09  -9.5533072e-04   1.8185949e+00   1.6883049e+00  -4.7478319e+06
   1.0073358e-09  -9.5059308e-04   1.8182844e+00   1.6886391e+00  -4.7243091e+06
   1.0083361e-09  -9.4587891e-04   1.8179755e+00   1.6889716e+00  -4.7009025e+06
   1.0093364e-09  -9.4118810e-04   1.8176682e+00   1.6893026e+00  -4.6776118e+06
   1.0103368e-09  -9.3652053e-04   1.8173624e+00   1.6896320e+00  -4.6544362e+06
   1.0113371e-09  -9.3187609e-04   1.8170581e+00   1.6899598e+00  -4.6313753e+06
   1.0123374e-09  -9.2725465e-04   1.8167554e+00   1.6902859e+00  -4.6084284e+06
   1.0133378e-09  -9.2265612e-04   1.8164542e+00   1.6906106e+00  -4.5855950e+06
   1.0143381e-09  -9.1808037e-04   1.8161545e+00   1.6909336e+00  -4.5628745e+06
   1.0153384e-09  -9.1352729e-04   1.8158563e+00   1.6912551e+00  -4.5402664e+06
   1.0163388e-09  -9.0899677e-04   1.8155596e+00   1.6915750e+00  -4.5177701e+06
   1.0173391e-09  -9.0448870e-04   1.8152644e+00   1.6918933e+00  -4.4953851e+06
   1.0183394e-09  -9.0000296e-04   1.8149707e+00   1.6922101e+00  -4.4731108e+06
   1.0193398e-09  -8.9553946e-04   1.8146784e+00   1.6925254e+00  -4.4509467e+06
   1.0203401e-09  -8.9109807e-04   1.8143876e+00   1.6928392e+00  -4.4288922e+06
   1.0213404e-09  -8.8667868e-04   1.8140983e+00   1.6931514e+00  -4.4069468e+06
   1.0223408e-09  -8.8228120e-04   1.8138104e+00   1.6934621e+00  -4.3851100e+06
   1.0233411e-09  -8.7790550e-04   1.8135240e+00   1.6937713e+00  -4.3633812e+06
   1.0243414e-09  -8.7355149e-04   1.8132390e+00   1.6940790e+00  -4.3417599e+06
   1.0253418e-09  -8.6921905e-04   1.8129555e+00   1.6943853e+00  -4.3202455e+06
   1.0263421e-09  -8.6490808e-04   1.8126734e+00   1.6946900e+00  -4.2988376e+06
   1.0273424e-09  -8.6061847e-04   1.8123927e+00   1.6949932e+00  -4.2775355e+06
   1.0283428e-09  -8.5635012e-04   1.8121134e+00   1.6952950e+00  -4.2563389e+06
   1.0293431e-09  -8.5210292e-04   1.8118355e+00   1.6955953e+00  -4.2352471e+06
   1.0303434e-09  -8.4787677e-04   1.8115590e+00   1.6958942e+00  -4.2142596e+06
   1.0313438e-09  -8.4367155e-04   1.8112839e+00   1.6961916e+00  -4.1933760e+06
   1.0323441e-09  -8.3948718e-04   1.8110101e+00   1.6964876e+00  -4.1725957e+06
   1.0333444e-09  -8.3532355e-04   1.8107378e+00   1.6967821e+00  -4.1519182e+06
   1.0343448e-09  -8.3118054e-04   1.8104668e+00   1.6970752e+00  -4.1313431e+06
   1.0353451e-09  -8.2705807e-04   1.8101972e+00   1.6973669e+00  -4.1108697e+06
   1.0363454e-09  -8.2295603e-04   1.8099289e+00   1.6976571e+00  -4.0904976e+06
   1.0373458e-09  -8.1887431e-04   1.8096620e+00   1.6979460e+00  -4.0702263e+06
   1.0383461e-09  -8.1481283e-04   1.8093964e+00   1.6982334e+00  -4.0500553e+06
   1.0393464e-09  -8.1077147e-04   1.8091321e+00   1.6985194e+00  -4.0299841e+06
   1.0403468e-09  -8.0675014e-04   1.8088692e+00   1.6988041e+00  -4.0100122e+06
   1.0413471e-09  -8.0274874e-04   1.8086076e+00   1.6990874e+00  -3.9901391e+06
   1.0423474e-09  -7.9876716e-04   1.8083473e+00   1.6993693e+00  -3.9703644e+06
   1.0433478e-09  -7.9480533e-04   1.8080883e+00   1.6996498e+00  -3.9506875e+06
   1.0443481e-09  -7.9086312e-04   1.8078306e+00   1.6999289e+00  -3.9311080e+06
   1.0453484e-09  -7.8694046e-04   1.8075742e+00   1.7002067e+00  -3.9116254e+06
   1.0463488e-09  -7.8303723e-04   1.8073191e+00   1.7004832e+00  -3.8922391e+06
   1.0473491e-09  -7.7915335e-04   1.8070653e+00   1.7007583e+00  -3.8729488e+06
   1.0483494e-09  -7.7528872e-04   1.8068127e+00   1.7010321e+00  -3.8537540e+06
   1.0493498e-09  -7.7144324e-04   1.8065614e+00   1.7013045e+00  -3.8346542e+06
   1.0503501e-09  -7.6761682e-04   1.8063114e+00   1.7015756e+00  -3.8156488e+06
   1.0513505e-09  -7.6380937e-04   1.8060626e+00   1.7018454e+00  -3.7967376e+06
   1.0523508e-09  -7.6002078e-04   1.8058151e+00   1.7021139e+00  -3.7779199e+06
   1.0533511e-09  -7.5625097e-04   1.8055688e+00   1.7023810e+00  -3.7591953e+06
   1.0543515e-09  -7.5249985e-04   1.8053237e+00   1.7026469e+00  -3.7405634e+06
   1.0553518e-09  -7.4876732e-04   1.8050799e+00   1.7029115e+00  -3.7220238e+06
   1.0563521e-09  -7.4505329e-04   1.8048373e+00   1.7031748e+00  -3.7035758e+06
   1.0573525e-09  -7.4135767e-04   1.8045959e+00   1.7034368e+00  -3.6852192e+06
   1.0583528e-09  -7.3768036e-04   1.8043557e+00   1.7036975e+00  -3.6669534e+06
   1.0593531e-09  -7.3402129e-04   1.8041168e+00   1.7039570e+00  -3.6487780e+06
   1.0603535e-09  -7.3038034e-04   1.8038790e+00   1.7042152e+00  -3.6306926e+06
   1.0613538e-09  -7.2675745e-04   1.8036424e+00   1.7044721e+00  -3.6126967e+06
   1.0623541e-09  -7.2315251e-04   1.8034070e+00   1.7047278e+00  -3.5947899e+06
   1.0633545e-09  -7.1956544e-04   1.8031728e+00   1.7049823e+00  -3.5769717e+06
   1.0643548e-09  -7.1599615e-04   1.8029398e+00   1.7052355e+00  -3.5592417e+06
   1.0653551e-09  -7.1244456e-04   1.8027079e+00   1.7054874e+00  -3.5415994e+06
   1.0663555e-09  -7.0891056e-04   1.8024772e+00   1.7057382e+00  -3.5240445e+06
   1.0673558e-09  -7.0539409e-04   1.8022476e+00   1.7059877e+00  -3.5065765e+06
   1.0683561e-09  -7.0189504e-04   1.8020192e+00   1.7062360e+00  -3.4891949e+06
   1.0693565e-09  -6.9841334e-04   1.8017920e+00   1.7064831e+00  -3.4718994e+06
   1.0703568e-09  -6.9494890e-04   1.8015658e+00   1.7067290e+00  -3.4546895e+06
   1.0713571e-09  -6.9150163e-04   1.8013408e+00   1.7069737e+00  -3.4375647e+06
   1.0723575e-09  -6.8807145e-04   1.8011170e+00   1.7072172e+00  -3.4205248e+06
   1.0733578e-09  -6.8465827e-04   1.8008943e+00   1.7074595e+00  -3.4035692e+06
   1.0743581e-09  -6.8126201e-04   1.8006726e+00   1.7077006e+00  -3.3866975e+06
   1.0753585e-09  -6.7788259e-04   1.8004521e+00   1.7079406e+00  -3.3699094e+06
   1.0763588e-09  -6.7451992e-04   1.8002327e+00   1.7081793e+00  -3.3532043e+06
   1.0773591e-09  -6.7117392e-04   1.8000144e+00   1.7084170e+00  -3.3365820e+06
   1.0783595e-09  -6.6784450e-04   1.7997972e+00   1.7086534e+00  -3.3200419e+06
   1.0793598e-09  -6.6453159e-04   1.7995811e+00   1.7088887e+00  -3.3035838e+06
   1.0803601e-09  -6.6123510e-04   1.7993660e+00   1.7091229e+00  -3.2872071e+06
   1.0813605e-09  -6.5795496e-04   1.7991521e+00   1.7093559e+00  -3.2709115e+06
   1.0823608e-09  -6.5469107e-04   1.7989392e+00   1.7095878e+00  -3.2546965e+06
   1.0833611e-09  -6.5144337e-04   1.7987273e+00   1.7098185e+00  -3.2385619e+06
   1.0843615e-09  -6.4821176e-04   1.7985166e+00   1.7100481e+00  -3.2225071e+06
   1.0853618e-09  -6.4499618e-04   1.7983069e+00   1.7102766e+00  -3.2065318e+06
   1.0863621e-09  -6.4179653e-04   1.7980982e+00   1.7105040e+00  -3.1906356e+06
   1.0873625e-09  -6.3861275e-04   1.7978906e+00   1.7107303e+00  -3.1748181e+06
   1.0883628e-09  -6.3544475e-04   1.7976840e+00   1.7109554e+00  -3.1590790e+06
   1.0893631e-09  -6.3229246e-04   1.7974785e+00   1.7111795e+00  -3.1434177e+06
   1.0903635e-09  -6.2915579e-04   1.7972739e+00   1.7114025e+00  -3.1278340e+06
   1.0913638e-09  -6.2603468e-04   1.7970705e+00   1.7116244e+00  -3.1123275e+06
   1.0923641e-09  -6.2292904e-04   1.7968680e+00   1.7118452e+00  -3.0968977e+06
   1.0933645e-09  -6.1983879e-04   1.7966665e+00   1.7120649e+00  -3.0815443e+06
   1.0943648e-09  -6.1676387e-04   1.7964661e+00   1.7122835e+00  -3.0662670e+06
   1.0953651e-09  -6.1370419e-04   1.7962666e+00   1.7125011e+00  -3.0510653e+06
   1.0963655e-09  -6.1065968e-04   1.7960682e+00   1.7127176e+00  -3.0359389e+06
   1.0973658e-09  -6.0763026e-04   1.7958707e+00   1.7129331e+00  -3.0208873e+06
   1.0983661e-09  -6.0461586e-04   1.7956743e+00   1.7131475e+00  -3.0059103e+06
   1.0993665e-09  -6.0161641e-04   1.7954788e+00   1.7133609e+00  -2.9910075e+06
   1.1003668e-09  -5.9863183e-04   1.7952843e+00   1.7135732e+00  -2.9761785e+06
   1.1013671e-09  -5.9566204e-04   1.7950908e+00   1.7137845e+00  -2.9614229e+06
   1.1023675e-09  -5.9270698e-04   1.7948982e+00   1.7139947e+00  -2.9467403e+06
   1.1033678e-09  -5.8976657e-04   1.7947066e+00   1.7142039e+00  -2.9321305e+06
   1.1043681e-09  -5.8684074e-04   1.7945160e+00   1.7144121e+00  -2.9175931e+06
   1.1053685e-09  -5.8392942e-04   1.7943263e+00   1.7146193e+00  -2.9031276e+06
   1.1063688e-09  -5.8103253e-04   1.7941375e+00   1.7148255e+00  -2.8887337e+06
   1.1073691e-09  -5.7815000e-04   1.7939497e+00   1.7150306e+00  -2.8744112e+06
   1.1083695e-09  -5.7528176e-04   1.7937629e+00   1.7152348e+00  -2.8601595e+06
   1.1093698e-09  -5.7242775e-04   1.7935770e+00   1.7154379e+00  -2.8459785e+06
   1.1103701e-09  -5.6958789e-04   1.7933920e+00   1.7156401e+00  -2.8318677e+06
   1.1113705e-09  -5.6676210e-04   1.7932079e+00   1.7158413e+00  -2.8178267e+06
   1.1123708e-09  -5.6395033e-04   1.7930248e+00   1.7160414e+00  -2.8038553e+06
   1.1133711e-09  -5.6115250e-04   1.7928426e+00   1.7162407e+00  -2.7899531e+06
   1.1143715e-09  -5.5836854e-04   1.7926613e+00   1.7164389e+00  -2.7761198e+06
   1.1153718e-09  -5.5559838e-04   1.7924808e+00   1.7166362e+00  -2.7623549e+06
   1.1163721e-09  -5.5284196e-04   1.7923013e+00   1.7168325e+00  -2.7486582e+06
   1.1173725e-09  -5.5009921e-04   1.7921227e+00   1.7170278e+00  -2.7350294e+06
   1.1183728e-09  -5.4737006e-04   1.7919450e+00   1.7172222e+00  -2.7214681e+06
   1.1193731e-09  -5.4465444e-04   1.7917682e+00   1.7174156e+00  -2.7079739e+06
   1.1203735e-09  -5.4195228e-04   1.7915923e+00   1.7176081e+00  -2.6945466e+06
   1.1213738e-09  -5.3926353e-04   1.7914172e+00   1.7177996e+00  -2.6811858e+06
   1.1223741e-09  -5.3658810e-04   1.7912430e+00   1.7179902e+00  -2.6678911e+06
   1.1233745e-09  -5.3392594e-04   1.7910697e+00   1.7181799e+00  -2.6546623e+06
   1.1243748e-09  -5.3127698e-04   1.7908973e+00   1.7183686e+00  -2.6414991e+06
   1.1253751e-09  -5.2864116e-04   1.7907257e+00   1.7185565e+00  -2.6284010e+06
   1.1263755e-09  -5.2601841e-04   1.7905550e+00   1.7187434e+00  -2.6153678e+06
   1.1273758e-09  -5.2340866e-04   1.7903851e+00   1.7189293e+00  -2.6023992e+06
   1.1283761e-09  -5.2081185e-04   1.7902161e+00   1.7191144e+00  -2.5894948e+06
   1.1293765e-09  -5.1822792e-04   1.7900479e+00   1.7192986e+00  -2.5766543e+06
   1.1303768e-09  -5.1565680e-04   1.7898806e+00   1.7194818e+00  -2.5638775e+06
   1.1313771e-09  -5.1309843e-04   1.7897141e+00   1.7196642e+00  -2.5511639e+06
   1.1323775e-09  -5.1055275e-04   1.7895484e+00   1.7198457e+00  -2.5385133e+06
   1.1333778e-09  -5.0801969e-04   1.7893835e+00   1.7200263e+00  -2.5259253e+06
   1.1343781e-09  -5.0549920e-04   1.7892195e+00   1.7202060e+00  -2.5133998e+06
   1.1353785e-09  -5.0299120e-04   1.7890563e+00   1.7203848e+00  -2.5009362e+06
   1.1363788e-09  -5.0049564e-04   1.7888940e+00   1.7205627e+00  -2.4885345e+06
   1.1373791e-09  -4.9801245e-04   1.7887324e+00   1.7207398e+00  -2.4761941e+06
   1.1383795e-09  -4.9554157e-04   1.7885716e+00   1.7209160e+00  -2.4639149e+06
   1.1393798e-09  -4.9308295e-04   1.7884117e+00   1.7210913e+00  -2.4516965e+06
   1.1403801e-09  -4.9063653e-04   1.7882525e+00   1.7212658e+00  -2.4395386e+06
   1.1413805e-09  -4.8820223e-04   1.7880942e+00   1.7214394e+00  -2.4274410e+06
   1.1423808e-09  -4.8578001e-04   1.7879366e+00   1.7216122e+00  -2.4154033e+06
   1.1433811e-09  -4.8336979e-04   1.7877798e+00   1.7217841e+00  -2.4034253e+06
   1.1443815e-09  -4.8097153e-04   1.7876238e+00   1.7219552e+00  -2.3915065e+06
   1.1453818e-09  -4.7858516e-04   1.7874686e+00   1.7221254e+00  -2.3796469e+06
   1.1463821e-09  -4.7621063e-04   1.7873141e+00   1.7222949e+00  -2.3678459e+06
   1.1473825e-09  -4.7384787e-04   1.7871605e+00   1.7224634e+00  -2.3561035e+06
   1.1483828e-09  -4.7149683e-04   1.7870076e+00   1.7226312e+00  -2.3444192e+06
   1.1493831e-09  -4.6915745e-04   1.7868554e+00   1.7227981e+00  -2.3327928e+06
   1.1503835e-09  -4.6682967e-04   1.7867040e+00   1.7229642e+00  -2.3212241e+06
   1.1513838e-09  -4.6451344e-04   1.7865534e+00   1.7231295e+00  -2.3097126e+06
   1.1523841e-09  -4.6220869e-04   1.7864035e+00   1.7232940e+00  -2.2982582e+06
   1.1533845e-09  -4.5991537e-04   1.7862544e+00   1.7234577e+00  -2.2868605e+06
   1.1543848e-09  -4.5763342e-04   1.7861060e+00   1.7236206e+00  -2.2755193e+06
   1.1553851e-09  -4.5536279e-04   1.7859584e+00   1.7237826e+00  -2.2642342e+06
   1.1563855e-09  -4.5310343e-04   1.7858115e+00   1.7239439e+00  -2.2530051e+06
   1.1573858e-09  -4.5085526e-04   1.7856653e+00   1.7241044e+00  -2.2418317e+06
   1.1583861e-09  -4.4861825e-04   1.7855199e+00   1.7242641e+00  -2.2307136e+06
   1.1593865e-09  -4.4639233e-04   1.7853752e+00   1.7244230e+00  -2.2196506e+06
   1.1603868e-09  -4.4417745e-04   1.7852312e+00   1.7245811e+00  -2.2086424e+06
   1.1613871e-09  -4.4197355e-04   1.7850879e+00   1.7247385e+00  -2.1976887e+06
   1.1623875e-09  -4.3978059e-04   1.7849454e+00   1.7248951e+00  -2.1867893e+06
   1.1633878e-09  -4.3759850e-04   1.7848035e+00   1.7250509e+00  -2.1759439e+06
   1.1643881e-09  -4.3542723e-04   1.7846624e+00   1.7252060e+00  -2.1651523e+06
   1.1653885e-09  -4.3326673e-04   1.7845220e+00   1.7253603e+00  -2.1544142e+06
   1.1663888e-09  -4.3111695e-04   1.7843823e+00   1.7255138e+00  -2.1437292e+06
   1.1673891e-09  -4.2897783e-04   1.7842432e+00   1.7256666e+00  -2.1330972e+06
   1.1683895e-09  -4.2684931e-04   1.7841049e+00   1.7258186e+00  -2.1225179e+06
   1.1693898e-09  -4.2473136e-04   1.7839673e+00   1.7259699e+00  -2.1119910e+06
   1.1703901e-09  -4.2262391e-04   1.7838303e+00   1.7261205e+00  -2.1015162e+06
   1.1713905e-09  -4.2052691e-04   1.7836940e+00   1.7262703e+00  -2.0910934e+06
   1.1723908e-09  -4.1844031e-04   1.7835584e+00   1.7264193e+00  -2.0807222e+06
   1.1733911e-09  -4.1636406e-04   1.7834235e+00   1.7265677e+00  -2.0704025e+06
   1.1743915e-09  -4.1429810e-04   1.7832893e+00   1.7267153e+00  -2.0601338e+06
   1.1753918e-09  -4.1224240e-04   1.7831557e+00   1.7268622e+00  -2.0499160e+06
   1.1763921e-09  -4.1019689e-04   1.7830228e+00   1.7270083e+00  -2.0397489e+06
   1.1773925e-09  -4.0816152e-04   1.7828906e+00   1.7271538e+00  -2.0296322e+06
   1.1783928e-09  -4.0613625e-04   1.7827590e+00   1.7272985e+00  -2.0195656e+06
   1.1793931e-09  -4.0412103e-04   1.7826281e+00   1.7274425e+00  -2.0095489e+06
   1.1803935e-09  -4.0211580e-04   1.7824978e+00   1.7275858e+00  -1.9995818e+06
   1.1813938e-09  -4.0012051e-04   1.7823682e+00   1.7277284e+00  -1.9896641e+06
   1.1823941e-09  -3.9813513e-04   1.7822392e+00   1.7278703e+00  -1.9797956e+06
   1.1833945e-09  -3.9615959e-04   1.7821109e+00   1.7280115e+00  -1.9699759e+06
   1.1843948e-09  -3.9419384e-04   1.7819832e+00   1.7281521e+00  -1.9602050e+06
   1.1853951e-09  -3.9223785e-04   1.7818562e+00   1.7282919e+00  -1.9504824e+06
   1.1863955e-09  -3.9029156e-04   1.7817297e+00   1.7284310e+00  -1.9408081e+06
   1.1873958e-09  -3.8835493e-04   1.7816040e+00   1.7285695e+00  -1.9311817e+06
   1.1883961e-09  -3.8642790e-04   1.7814788e+00   1.7287072e+00  -1.9216030e+06
   1.1893965e-09  -3.8451042e-04   1.7813543e+00   1.7288443e+00  -1.9120717e+06
   1.1903968e-09  -3.8260246e-04   1.7812304e+00   1.7289808e+00  -1.9025878e+06
   1.1913971e-09  -3.8070396e-04   1.7811071e+00   1.7291165e+00  -1.8931508e+06
   1.1923975e-09  -3.7881488e-04   1.7809844e+00   1.7292516e+00  -1.8837606e+06
   1.1933978e-09  -3.7693517e-04   1.7808623e+00   1.7293860e+00  -1.8744169e+06
   1.1943981e-09  -3.7506478e-04   1.7807409e+00   1.7295198e+00  -1.8651195e+06
   1.1953985e-09  -3.7320367e-04   1.7806200e+00   1.7296529e+00  -1.8558682e+06
   1.1963988e-09  -3.7135179e-04   1.7804998e+00   1.7297853e+00  -1.8466628e+06
   1.1973991e-09  -3.6950910e-04   1.7803801e+00   1.7299171e+00  -1.8375030e+06
   1.1983995e-09  -3.6767555e-04   1.7802611e+00   1.7300483e+00  -1.8283886e+06
   1.1993998e-09  -3.6585109e-04   1.7801426e+00   1.7301788e+00  -1.8193194e+06
   1.2004001e-09  -3.6403568e-04   1.7800247e+00   1.7303086e+00  -1.8102951e+06
   1.2014005e-09  -3.6222927e-04   1.7799075e+00   1.7304378e+00  -1.8013155e+06
   1.2024008e-09  -3.6043183e-04   1.7797908e+00   1.7305664e+00  -1.7923805e+06
   1.2034011e-09  -3.5864330e-04   1.7796747e+00   1.7306944e+00  -1.7834898e+06
   1.2044015e-09  -3.5686365e-04   1.7795591e+00   1.7308217e+00  -1.7746431e+06
   1.2054018e-09  -3.5509282e-04   1.7794442e+00   1.7309484e+00  -1.7658402e+06
   1.2064021e-09  -3.5333077e-04   1.7793298e+00   1.7310745e+00  -1.7570810e+06
   1.2074025e-09  -3.5157747e-04   1.7792160e+00   1.7311999e+00  -1.7483652e+06
   1.2084028e-09  -3.4983286e-04   1.7791028e+00   1.7313248e+00  -1.7396927e+06
   1.2094031e-09  -3.4809691e-04   1.7789901e+00   1.7314490e+00  -1.7310631e+06
   1.2104035e-09  -3.4636957e-04   1.7788780e+00   1.7315726e+00  -1.7224762e+06
   1.2114038e-09  -3.4465079e-04   1.7787664e+00   1.7316956e+00  -1.7139320e+06
   1.2124041e-09  -3.4294055e-04   1.7786554e+00   1.7318180e+00  -1.7054301e+06
   1.2134045e-09  -3.4123878e-04   1.7785450e+00   1.7319398e+00  -1.6969703e+06
   1.2144048e-09  -3.3954546e-04   1.7784351e+00   1.7320610e+00  -1.6885525e+06
   1.2154051e-09  -3.3786054e-04   1.7783257e+00   1.7321816e+00  -1.6801764e+06
   1.2164055e-09  -3.3618397e-04   1.7782169e+00   1.7323016e+00  -1.6718418e+06
   1.2174058e-09  -3.3451573e-04   1.7781087e+00   1.7324210e+00  -1.6635486e+06
   1.2184061e-09  -3.3285575e-04   1.7780009e+00   1.7325399e+00  -1.6552964e+06
   1.2194065e-09  -3.3120402e-04   1.7778938e+00   1.7326581e+00  -1.6470852e+06
   1.2204068e-09  -3.2956047e-04   1.7777871e+00   1.7327758e+00  -1.6389146e+06
   1.2214071e-09  -3.2792508e-04   1.7776810e+00   1.7328928e+00  -1.6307846e+06
   1.2224075e-09  -3.2629780e-04   1.7775754e+00   1.7330093e+00  -1.6226949e+06
   1.2234078e-09  -3.2467859e-04   1.7774703e+00   1.7331253e+00  -1.6146452e+06
   1.2244081e-09  -3.2306742e-04   1.7773658e+00   1.7332406e+00  -1.6066355e+06
   1.2254085e-09  -3.2146424e-04   1.7772618e+00   1.7333554e+00  -1.5986655e+06
   1.2264088e-09  -3.1986901e-04   1.7771583e+00   1.7334697e+00  -1.5907350e+06
   1.2274091e-09  -3.1828169e-04   1.7770553e+00   1.7335833e+00  -1.5828438e+06
   1.2284095e-09  -3.1670225e-04   1.7769529e+00   1.7336964e+00  -1.5749917e+06
   1.2294098e-09  -3.1513065e-04   1.7768509e+00   1.7338090e+00  -1.5671786e+06
   1.2304101e-09  -3.1356684e-04   1.7767495e+00   1.7339210e+00  -1.5594041e+06
   1.2314105e-09  -3.1201079e-04   1.7766485e+00   1.7340324e+00  -1.5516683e+06
   1.2324108e-09  -3.1046245e-04   1.7765481e+00   1.7341433e+00  -1.5439708e+06
   1.2334111e-09  -3.0892180e-04   1.7764481e+00   1.7342537e+00  -1.5363114e+06
   1.2344115e-09  -3.0738879e-04   1.7763487e+00   1.7343635e+00  -1.5286900e+06
   1.2354118e-09  -3.0586339e-04   1.7762498e+00   1.7344727e+00  -1.5211064e+06
   1.2364121e-09  -3.0434555e-04   1.7761513e+00   1.7345815e+00  -1.5135604e+06
   1.2374125e-09  -3.0283525e-04   1.7760533e+00   1.7346896e+00  -1.5060518e+06
   1.2384128e-09  -3.0133243e-04   1.7759559e+00   1.7347973e+00  -1.4985804e+06
   1.2394131e-09  -2.9983707e-04   1.7758589e+00   1.7349044e+00  -1.4911461e+06
   1.2404135e-09  -2.9834913e-04   1.7757624e+00   1.7350110e+00  -1.4837486e+06
   1.2414138e-09  -2.9686858e-04   1.7756664e+00   1.7351171e+00  -1.4763879e+06
   1.2424141e-09  -2.9539536e-04   1.7755708e+00   1.7352227e+00  -1.4690636e+06
   1.2434145e-09  -2.9392946e-04   1.7754758e+00   1.7353277e+00  -1.4617756e+06
   1.2444148e-09  -2.9247082e-04   1.7753812e+00   1.7354322e+00  -1.4545237e+06
   1.2454151e-09  -2.9101943e-04   1.7752871e+00   1.7355362e+00  -1.4473078e+06
   1.2464155e-09  -2.8957523e-04   1.7751934e+00   1.7356397e+00  -1.4401277e+06
   1.2474158e-09  -2.8813820e-04   1.7751002e+00   1.7357427e+00  -1.4329832e+06
   1.2484161e-09  -2.8670830e-04   1.7750075e+00   1.7358451e+00  -1.4258741e+06
   1.2494165e-09  -2.8528549e-04   1.7749152e+00   1.7359471e+00  -1.4188002e+06
   1.2504168e-09  -2.8386974e-04   1.7748234e+00   1.7360486e+00  -1.4117614e+06
   1.2514171e-09  -2.8246101e-04   1.7747321e+00   1.7361495e+00  -1.4047576e+06
   1.2524175e-09  -2.8105927e-04   1.7746412e+00   1.7362500e+00  -1.3977884e+06
   1.2534178e-09  -2.7966449e-04   1.7745508e+00   1.7363500e+00  -1.3908538e+06
   1.2544181e-09  -2.7827663e-04   1.7744608e+00   1.7364494e+00  -1.3839536e+06
   1.2554185e-09  -2.7689565e-04   1.7743713e+00   1.7365484e+00  -1.3770876e+06
   1.2564188e-09  -2.7552152e-04   1.7742822e+00   1.7366469e+00  -1.3702556e+06
   1.2574191e-09  -2.7415421e-04   1.7741935e+00   1.7367449e+00  -1.3634575e+06
   1.2584195e-09  -2.7279369e-04   1.7741053e+00   1.7368425e+00  -1.3566932e+06
   1.2594198e-09  -2.7143991e-04   1.7740176e+00   1.7369395e+00  -1.3499623e+06
   1.2604201e-09  -2.7009285e-04   1.7739303e+00   1.7370361e+00  -1.3432649e+06
   1.2614205e-09  -2.6875247e-04   1.7738434e+00   1.7371322e+00  -1.3366006e+06
   1.2624208e-09  -2.6741875e-04   1.7737569e+00   1.7372278e+00  -1.3299694e+06
   1.2634211e-09  -2.6609164e-04   1.7736709e+00   1.7373229e+00  -1.3233711e+06
   1.2644215e-09  -2.6477111e-04   1.7735853e+00   1.7374176e+00  -1.3168055e+06
   1.2654218e-09  -2.6345714e-04   1.7735001e+00   1.7375118e+00  -1.3102724e+06
   1.2664221e-09  -2.6214968e-04   1.7734154e+00   1.7376056e+00  -1.3037717e+06
   1.2674225e-09  -2.6084871e-04   1.7733310e+00   1.7376989e+00  -1.2973033e+06
   1.2684228e-09  -2.5955420e-04   1.7732471e+00   1.7377917e+00  -1.2908670e+06
   1.2694231e-09  -2.5826611e-04   1.7731637e+00   1.7378841e+00  -1.2844625e+06
   1.2704235e-09  -2.5698441e-04   1.7730806e+00   1.7379760e+00  -1.2780899e+06
   1.2714238e-09  -2.5570907e-04   1.7729979e+00   1.7380674e+00  -1.2717488e+06
   1.2724241e-09  -2.5444005e-04   1.7729157e+00   1.7381584e+00  -1.2654391e+06
   1.2734245e-09  -2.5317733e-04   1.7728339e+00   1.7382490e+00  -1.2591608e+06
   1.2744248e-09  -2.5192088e-04   1.7727524e+00   1.7383391e+00  -1.2529136e+06
   1.2754251e-09  -2.5067066e-04   1.7726714e+00   1.7384288e+00  -1.2466973e+06
   1.2764255e-09  -2.4942664e-04   1.7725908e+00   1.7385180e+00  -1.2405119e+06
   1.2774258e-09  -2.4818880e-04   1.7725106e+00   1.7386068e+00  -1.2343572e+06
   1.2784261e-09  -2.4695710e-04   1.7724308e+00   1.7386951e+00  -1.2282330e+06
   1.2794265e-09  -2.4573150e-04   1.7723513e+00   1.7387831e+00  -1.2221391e+06
   1.2804268e-09  -2.4451199e-04   1.7722723e+00   1.7388705e+00  -1.2160755e+06
   1.2814271e-09  -2.4329853e-04   1.7721937e+00   1.7389576e+00  -1.2100419e+06
   1.2824275e-09  -2.4209109e-04   1.7721155e+00   1.7390442e+00  -1.2040383e+06
   1.2834278e-09  -2.4088964e-04   1.7720376e+00   1.7391304e+00  -1.1980644e+06
   1.2844281e-09  -2.3969415e-04   1.7719601e+00   1.7392162e+00  -1.1921202e+06
   1.2854285e-09  -2.3850460e-04   1.7718831e+00   1.7393015e+00  -1.1862054e+06
   1.2864288e-09  -2.3732094e-04   1.7718064e+00   1.7393864e+00  -1.1803200e+06
   1.2874291e-09  -2.3614316e-04   1.7717301e+00   1.7394709e+00  -1.1744637e+06
   1.2884295e-09  -2.3497122e-04   1.7716541e+00   1.7395550e+00  -1.1686365e+06
   1.2894298e-09  -2.3380510e-04   1.7715786e+00   1.7396387e+00  -1.1628382e+06
   1.2904301e-09  -2.3264476e-04   1.7715034e+00   1.7397219e+00  -1.1570687e+06
   1.2914305e-09  -2.3149018e-04   1.7714286e+00   1.7398048e+00  -1.1513277e+06
   1.2924308e-09  -2.3034133e-04   1.7713542e+00   1.7398872e+00  -1.1456153e+06
   1.2934311e-09  -2.2919817e-04   1.7712801e+00   1.7399692e+00  -1.1399311e+06
   1.2944315e-09  -2.2806069e-04   1.7712064e+00   1.7400509e+00  -1.1342752e+06
   1.2954318e-09  -2.2692886e-04   1.7711331e+00   1.7401321e+00  -1.1286473e+06
   1.2964321e-09  -2.2580264e-04   1.7710602e+00   1.7402129e+00  -1.1230473e+06
   1.2974325e-09  -2.2468201e-04   1.7709876e+00   1.7402933e+00  -1.1174751e+06
   1.2984328e-09  -2.2356693e-04   1.7709153e+00   1.7403734e+00  -1.1119305e+06
   1.2994331e-09  -2.2245739e-04   1.7708435e+00   1.7404530e+00  -1.1064134e+06
   1.3004335e-09  -2.2135336e-04   1.7707720e+00   1.7405322e+00  -1.1009237e+06
   1.3014338e-09  -2.2025480e-04   1.7707008e+00   1.7406111e+00  -1.0954612e+06
   1.3024341e-09  -2.1916170e-04   1.7706300e+00   1.7406895e+00  -1.0900258e+06
   1.3034345e-09  -2.1807402e-04   1.7705596e+00   1.7407676e+00  -1.0846173e+06
   1.3044348e-09  -2.1699173e-04   1.7704895e+00   1.7408453e+00  -1.0792357e+06
   1.3054351e-09  -2.1591482e-04   1.7704197e+00   1.7409226e+00  -1.0738807e+06
   1.3064355e-09  -2.1484324e-04   1.7703503e+00   1.7409995e+00  -1.0685524e+06
   1.3074358e-09  -2.1377699e-04   1.7702812e+00   1.7410761e+00  -1.0632504e+06
   1.3084361e-09  -2.1271603e-04   1.7702125e+00   1.7411522e+00  -1.0579747e+06
   1.3094365e-09  -2.1166033e-04   1.7701442e+00   1.7412280e+00  -1.0527252e+06
   1.3104368e-09  -2.1060986e-04   1.7700761e+00   1.7413034e+00  -1.0475018e+06
   1.3114371e-09  -2.0956462e-04   1.7700084e+00   1.7413785e+00  -1.0423042e+06
   1.3124375e-09  -2.0852455e-04   1.7699411e+00   1.7414531e+00  -1.0371325e+06
   1.3134378e-09  -2.0748965e-04   1.7698741e+00   1.7415274e+00  -1.0319863e+06
   1.3144381e-09  -2.0645988e-04   1.7698074e+00   1.7416014e+00  -1.0268657e+06
   1.3154385e-09  -2.0543523e-04   1.7697410e+00   1.7416749e+00  -1.0217705e+06
   1.3164388e-09  -2.0441565e-04   1.7696750e+00   1.7417481e+00  -1.0167006e+06
   1.3174391e-09  -2.0340114e-04   1.7696093e+00   1.7418210e+00  -1.0116558e+06
   1.3184395e-09  -2.0239166e-04   1.7695439e+00   1.7418935e+00  -1.0066361e+06
   1.3194398e-09  -2.0138719e-04   1.7694789e+00   1.7419656e+00  -1.0016412e+06
   1.3204401e-09  -2.0038770e-04   1.7694142e+00   1.7420374e+00  -9.9667109e+05
   1.3214405e-09  -1.9939317e-04   1.7693498e+00   1.7421088e+00  -9.9172565e+05
   1.3224408e-09  -1.9840358e-04   1.7692857e+00   1.7421798e+00  -9.8680473e+05
   1.3234411e-09  -1.9741889e-04   1.7692219e+00   1.7422505e+00  -9.8190823e+05
   1.3244415e-09  -1.9643910e-04   1.7691585e+00   1.7423209e+00  -9.7703601e+05
   1.3254418e-09  -1.9546416e-04   1.7690954e+00   1.7423909e+00  -9.7218795e+05
   1.3264421e-09  -1.9449407e-04   1.7690326e+00   1.7424606e+00  -9.6736394e+05
   1.3274425e-09  -1.9352878e-04   1.7689701e+00   1.7425299e+00  -9.6256386e+05
   1.3284428e-09  -1.9256829e-04   1.7689079e+00   1.7425989e+00  -9.5778759e+05
   1.3294431e-09  -1.9161256e-04   1.7688460e+00   1.7426675e+00  -9.5303500e+05
   1.3304435e-09  -1.9066157e-04   1.7687844e+00   1.7427358e+00  -9.4830599e+05
   1.3314438e-09  -1.8971531e-04   1.7687232e+00   1.7428038e+00  -9.4360044e+05
   1.3324441e-09  -1.8877374e-04   1.7686622e+00   1.7428714e+00  -9.3891823e+05
   1.3334445e-09  -1.8783684e-04   1.7686016e+00   1.7429387e+00  -9.3425924e+05
   1.3344448e-09  -1.8690459e-04   1.7685412e+00   1.7430057e+00  -9.2962335e+05
   1.3354451e-09  -1.8597696e-04   1.7684812e+00   1.7430723e+00  -9.2501047e+05
   1.3364455e-09  -1.8505394e-04   1.7684214e+00   1.7431386e+00  -9.2042046e+05
   1.3374458e-09  -1.8413550e-04   1.7683620e+00   1.7432046e+00  -9.1585323e+05
   1.3384461e-09  -1.8322162e-04   1.7683028e+00   1.7432702e+00  -9.1130864e+05
   1.3394465e-09  -1.8231227e-04   1.7682439e+00   1.7433356e+00  -9.0678660e+05
   1.3404468e-09  -1.8140743e-04   1.7681854e+00   1.7434006e+00  -9.0228699e+05
   1.3414471e-09  -1.8050709e-04   1.7681271e+00   1.7434652e+00  -8.9780970e+05
   1.3424475e-09  -1.7961121e-04   1.7680691e+00   1.7435296e+00  -8.9335461e+05
   1.3434478e-09  -1.7871977e-04   1.7680114e+00   1.7435937e+00  -8.8892163e+05
   1.3444481e-09  -1.7783276e-04   1.7679540e+00   1.7436574e+00  -8.8451063e+05
   1.3454485e-09  -1.7695015e-04   1.7678968e+00   1.7437208e+00  -8.8012152e+05
   1.3464488e-09  -1.7607193e-04   1.7678400e+00   1.7437839e+00  -8.7575417e+05
   1.3474491e-09  -1.7519805e-04   1.7677834e+00   1.7438467e+00  -8.7140849e+05
   1.3484495e-09  -1.7432852e-04   1.7677272e+00   1.7439092e+00  -8.6708436e+05
   1.3494498e-09  -1.7346330e-04   1.7676712e+00   1.7439713e+00  -8.6278169e+05
   1.3504502e-09  -1.7260237e-04   1.7676154e+00   1.7440332e+00  -8.5850036e+05
   1.3514505e-09  -1.7174572e-04   1.7675600e+00   1.7440947e+00  -8.5424026e+05
   1.3524508e-09  -1.7089332e-04   1.7675048e+00   1.7441560e+00  -8.5000130e+05
   1.3534512e-09  -1.7004514e-04   1.7674499e+00   1.7442169e+00  -8.4578336e+05
   1.3544515e-09  -1.6920118e-04   1.7673953e+00   1.7442776e+00  -8.4158635e+05
   1.3554518e-09  -1.6836140e-04   1.7673410e+00   1.7443379e+00  -8.3741016e+05
   1.3564522e-09  -1.6752579e-04   1.7672869e+00   1.7443980e+00  -8.3325468e+05
   1.3574525e-09  -1.6669433e-04   1.7672331e+00   1.7444577e+00  -8.2911981e+05
   1.3584528e-09  -1.6586699e-04   1.7671795e+00   1.7445172e+00  -8.2500546e+05
   1.3594532e-09  -1.6504376e-04   1.7671263e+00   1.7445763e+00  -8.2091152e+05
   1.3604535e-09  -1.6422462e-04   1.7670732e+00   1.7446352e+00  -8.1683788e+05
   1.3614538e-09  -1.6340954e-04   1.7670205e+00   1.7446938e+00  -8.1278446e+05
   1.3624542e-09  -1.6259850e-04   1.7669680e+00   1.7447521e+00  -8.0875114e+05
   1.3634545e-09  -1.6179149e-04   1.7669158e+00   1.7448101e+00  -8.0473783e+05
   1.3644548e-09  -1.6098848e-04   1.7668638e+00   1.7448678e+00  -8.0074442e+05
   1.3654552e-09  -1.6018946e-04   1.7668121e+00   1.7449252e+00  -7.9677083e+05
   1.3664555e-09  -1.5939440e-04   1.7667607e+00   1.7449824e+00  -7.9281695e+05
   1.3674558e-09  -1.5860329e-04   1.7667095e+00   1.7450392e+00  -7.8888268e+05
   1.3684562e-09  -1.5781610e-04   1.7666585e+00   1.7450958e+00  -7.8496793e+05
   1.3694565e-09  -1.5703282e-04   1.7666079e+00   1.7451521e+00  -7.8107260e+05
   1.3704568e-09  -1.5625343e-04   1.7665574e+00   1.7452081e+00  -7.7719659e+05
   1.3714572e-09  -1.5547790e-04   1.7665073e+00   1.7452639e+00  -7.7333981e+05
   1.3724575e-09  -1.5470623e-04   1.7664573e+00   1.7453193e+00  -7.6950217e+05
   1.3734578e-09  -1.5393838e-04   1.7664076e+00   1.7453745e+00  -7.6568356e+05
   1.3744582e-09  -1.5317434e-04   1.7663582e+00   1.7454295e+00  -7.6188390e+05
   1.3754585e-09  -1.5241410e-04   1.7663090e+00   1.7454841e+00  -7.5810308e+05
   1.3764588e-09  -1.5165763e-04   1.7662601e+00   1.7455385e+00  -7.5434102e+05
   1.3774592e-09  -1.5090491e-04   1.7662114e+00   1.7455926e+00  -7.5059763e+05
   1.3784595e-09  -1.5015592e-04   1.7661629e+00   1.7456464e+00  -7.4687280e+05
   1.3794598e-09  -1.4941066e-04   1.7661147e+00   1.7457000e+00  -7.4316645e+05
   1.3804602e-09  -1.4866909e-04   1.7660667e+00   1.7457533e+00  -7.3947849e+05
   1.3814605e-09  -1.4793120e-04   1.7660190e+00   1.7458064e+00  -7.3580883e+05
   1.3824608e-09  -1.4719698e-04   1.7659715e+00   1.7458592e+00  -7.3215737e+05
   1.3834612e-09  -1.4646639e-04   1.7659242e+00   1.7459117e+00  -7.2852402e+05
   1.3844615e-09  -1.4573944e-04   1.7658772e+00   1.7459640e+00  -7.2490871e+05
   1.3854618e-09  -1.4501609e-04   1.7658304e+00   1.7460160e+00  -7.2131132e+05
   1.3864622e-09  -1.4429633e-04   1.7657838e+00   1.7460677e+00  -7.1773178e+05
   1.3874625e-09  -1.4358014e-04   1.7657375e+00   1.7461192e+00  -7.1417000e+05
   1.3884628e-09  -1.4286750e-04   1.7656914e+00   1.7461705e+00  -7.1062590e+05
   1.3894632e-09  -1.4215841e-04   1.7656455e+00   1.7462214e+00  -7.0709937e+05
   1.3904635e-09  -1.4145283e-04   1.7655999e+00   1.7462722e+00  -7.0359034e+05
   1.3914638e-09  -1.4075075e-04   1.7655545e+00   1.7463227e+00  -7.0009871e+05
   1.3924642e-09  -1.4005216e-04   1.7655093e+00   1.7463729e+00  -6.9662441e+05
   1.3934645e-09  -1.3935703e-04   1.7654643e+00   1.7464229e+00  -6.9316735e+05
   1.3944648e-09  -1.3866535e-04   1.7654196e+00   1.7464726e+00  -6.8972744e+05
   1.3954652e-09  -1.3797711e-04   1.7653750e+00   1.7465221e+00  -6.8630459e+05
   1.3964655e-09  -1.3729228e-04   1.7653307e+00   1.7465714e+00  -6.8289872e+05
   1.3974658e-09  -1.3661085e-04   1.7652867e+00   1.7466204e+00  -6.7950976e+05
   1.3984662e-09  -1.3593280e-04   1.7652428e+00   1.7466691e+00  -6.7613760e+05
   1.3994665e-09  -1.3525812e-04   1.7651992e+00   1.7467176e+00  -6.7278218e+05
   1.4004668e-09  -1.3458678e-04   1.7651557e+00   1.7467659e+00  -6.6944340e+05
   1.4014672e-09  -1.3391878e-04   1.7651125e+00   1.7468140e+00  -6.6612118e+05
   1.4024675e-09  -1.3325409e-04   1.7650695e+00   1.7468618e+00  -6.6281545e+05
   1.4034678e-09  -1.3259270e-04   1.7650268e+00   1.7469093e+00  -6.5952612e+05
   1.4044682e-09  -1.3193460e-04   1.7649842e+00   1.7469567e+00  -6.5625311e+05
   1.4054685e-09  -1.3127975e-04   1.7649418e+00   1.7470038e+00  -6.5299633e+05
   1.4064688e-09  -1.3062816e-04   1.7648997e+00   1.7470506e+00  -6.4975572e+05
   1.4074692e-09  -1.2997980e-04   1.7648578e+00   1.7470973e+00  -6.4653118e+05
   1.4084695e-09  -1.2933466e-04   1.7648160e+00   1.7471437e+00  -6.4332264e+05
   1.4094698e-09  -1.2869272e-04   1.7647745e+00   1.7471898e+00  -6.4013002e+05
   1.4104702e-09  -1.2805397e-04   1.7647332e+00   1.7472358e+00  -6.3695324e+05
   1.4114705e-09  -1.2741839e-04   1.7646921e+00   1.7472815e+00  -6.3379222e+05
   1.4124708e-09  -1.2678596e-04   1.7646512e+00   1.7473270e+00  -6.3064688e+05
   1.4134712e-09  -1.2615667e-04   1.7646105e+00   1.7473723e+00  -6.2751715e+05
   1.4144715e-09  -1.2553050e-04   1.7645700e+00   1.7474173e+00  -6.2440294e+05
   1.4154718e-09  -1.2490744e-04   1.7645297e+00   1.7474621e+00  -6.2130419e+05
   1.4164722e-09  -1.2428747e-04   1.7644896e+00   1.7475067e+00  -6.1822081e+05
   1.4174725e-09  -1.2367058e-04   1.7644497e+00   1.7475511e+00  -6.1515273e+05
   1.4184728e-09  -1.2305675e-04   1.7644100e+00   1.7475952e+00  -6.1209987e+05
   1.4194732e-09  -1.2244597e-04   1.7643705e+00   1.7476392e+00  -6.0906216e+05
   1.4204735e-09  -1.2183822e-04   1.7643312e+00   1.7476829e+00  -6.0603952e+05
   1.4214738e-09  -1.2123348e-04   1.7642921e+00   1.7477264e+00  -6.0303187e+05
   1.4224742e-09  -1.2063175e-04   1.7642532e+00   1.7477697e+00  -6.0003915e+05
   1.4234745e-09  -1.2003300e-04   1.7642145e+00   1.7478128e+00  -5.9706128e+05
   1.4244748e-09  -1.1943722e-04   1.7641760e+00   1.7478556e+00  -5.9409818e+05
   1.4254752e-09  -1.1884440e-04   1.7641376e+00   1.7478983e+00  -5.9114978e+05
   1.4264755e-09  -1.1825452e-04   1.7640995e+00   1.7479407e+00  -5.8821601e+05
   1.4274758e-09  -1.1766757e-04   1.7640615e+00   1.7479829e+00  -5.8529680e+05
   1.4284762e-09  -1.1708353e-04   1.7640238e+00   1.7480250e+00  -5.8239207e+05
   1.4294765e-09  -1.1650239e-04   1.7639862e+00   1.7480668e+00  -5.7950176e+05
   1.4304768e-09  -1.1592414e-04   1.7639488e+00   1.7481084e+00  -5.7662578e+05
   1.4314772e-09  -1.1534875e-04   1.7639116e+00   1.7481498e+00  -5.7376408e+05
   1.4324775e-09  -1.1477622e-04   1.7638746e+00   1.7481910e+00  -5.7091657e+05
   1.4334778e-09  -1.1420653e-04   1.7638377e+00   1.7482319e+00  -5.6808319e+05
   1.4344782e-09  -1.1363967e-04   1.7638011e+00   1.7482727e+00  -5.6526387e+05
   1.4354785e-09  -1.1307562e-04   1.7637646e+00   1.7483133e+00  -5.6245854e+05
   1.4364788e-09  -1.1251438e-04   1.7637283e+00   1.7483537e+00  -5.5966712e+05
   1.4374792e-09  -1.1195591e-04   1.7636922e+00   1.7483939e+00  -5.5688956e+05
   1.4384795e-09  -1.1140022e-04   1.7636563e+00   1.7484339e+00  -5.5412578e+05
   1.4394798e-09  -1.1084729e-04   1.7636205e+00   1.7484737e+00  -5.5137571e+05
   1.4404802e-09  -1.1029710e-04   1.7635849e+00   1.7485132e+00  -5.4863929e+05
   1.4414805e-09  -1.0974964e-04   1.7635495e+00   1.7485526e+00  -5.4591644e+05
   1.4424808e-09  -1.0920489e-04   1.7635143e+00   1.7485918e+00  -5.4320711e+05
   1.4434812e-09  -1.0866286e-04   1.7634793e+00   1.7486308e+00  -5.4051121e+05
   1.4444815e-09  -1.0812351e-04   1.7634444e+00   1.7486697e+00  -5.3782870e+05
   1.4454818e-09  -1.0758684e-04   1.7634097e+00   1.7487083e+00  -5.3515949e+05
   1.4464822e-09  -1.0705283e-04   1.7633752e+00   1.7487467e+00  -5.3250353e+05
   1.4474825e-09  -1.0652147e-04   1.7633408e+00   1.7487849e+00  -5.2986075e+05
   1.4484828e-09  -1.0599275e-04   1.7633066e+00   1.7488230e+00  -5.2723108e+05
   1.4494832e-09  -1.0546665e-04   1.7632726e+00   1.7488609e+00  -5.2461445e+05
   1.4504835e-09  -1.0494316e-04   1.7632388e+00   1.7488985e+00  -5.2201081e+05
   1.4514838e-09  -1.0442228e-04   1.7632051e+00   1.7489360e+00  -5.1942009e+05
   1.4524842e-09  -1.0390397e-04   1.7631716e+00   1.7489733e+00  -5.1684223e+05
   1.4534845e-09  -1.0338824e-04   1.7631383e+00   1.7490104e+00  -5.1427715e+05
   1.4544848e-09  -1.0287507e-04   1.7631051e+00   1.7490474e+00  -5.1172480e+05
   1.4554852e-09  -1.0236445e-04   1.7630721e+00   1.7490841e+00  -5.0918512e+05
   1.4564855e-09  -1.0185636e-04   1.7630392e+00   1.7491207e+00  -5.0665804e+05
   1.4574858e-09  -1.0135079e-04   1.7630065e+00   1.7491571e+00  -5.0414350e+05
   1.4584862e-09  -1.0084773e-04   1.7629740e+00   1.7491933e+00  -5.0164143e+05
   1.4594865e-09  -1.0034717e-04   1.7629417e+00   1.7492293e+00  -4.9915178e+05
   1.4604868e-09  -9.9849090e-05   1.7629095e+00   1.7492651e+00  -4.9667449e+05
   1.4614872e-09  -9.9353484e-05   1.7628774e+00   1.7493008e+00  -4.9420948e+05
   1.4624875e-09  -9.8860338e-05   1.7628456e+00   1.7493363e+00  -4.9175671e+05
