   0.0000000e+00  -1.2394731e-01   6.3365599e+00   4.1029275e-04  -5.2095246e+08
   1.0003334e-12  -1.2342689e-01   6.3353947e+00   4.2717062e-04  -5.1955384e+08
   2.0006669e-12  -1.2290787e-01   6.3342091e+00   4.4469292e-04  -5.1815509e+08
   3.0010003e-12  -1.2239025e-01   6.3330027e+00   4.6288203e-04  -5.1675624e+08
   4.0013338e-12  -1.2187403e-01   6.3317753e+00   4.8176105e-04  -5.1535727e+08
   5.0016672e-12  -1.2135921e-01   6.3305267e+00   5.0135375e-04  -5.1395820e+08
   6.0020007e-12  -1.2084579e-01   6.3292564e+00   5.2168465e-04  -5.1255902e+08
   7.0023341e-12  -1.2033377e-01   6.3279643e+00   5.4277899e-04  -5.1115973e+08
   8.0026676e-12  -1.1982314e-01   6.3266501e+00   5.6466277e-04  -5.0976034e+08
   9.0030010e-12  -1.1931392e-01   6.3253133e+00   5.8736276e-04  -5.0836085e+08
   1.0003334e-11  -1.1880610e-01   6.3239539e+00   6.1090654e-04  -5.0696126e+08
   1.1003668e-11  -1.1829967e-01   6.3225713e+00   6.3532246e-04  -5.0556158e+08
   1.2004001e-11  -1.1779465e-01   6.3211655e+00   6.6063976e-04  -5.0416180e+08
   1.3004335e-11  -1.1729103e-01   6.3197360e+00   6.8688849e-04  -5.0276194e+08
   1.4004668e-11  -1.1678881e-01   6.3182825e+00   7.1409957e-04  -5.0136198e+08
   1.5005002e-11  -1.1628799e-01   6.3168048e+00   7.4230483e-04  -4.9996194e+08
   1.6005335e-11  -1.1578857e-01   6.3153025e+00   7.7153700e-04  -4.9856182e+08
   1.7005669e-11  -1.1529055e-01   6.3137754e+00   8.0182974e-04  -4.9716162e+08
   1.8006002e-11  -1.1479393e-01   6.3122231e+00   8.3321766e-04  -4.9576135e+08
   1.9006335e-11  -1.1429871e-01   6.3106453e+00   8.6573636e-04  -4.9436100e+08
   2.0006669e-11  -1.1380489e-01   6.3090417e+00   8.9942241e-04  -4.9296058e+08
   2.1007002e-11  -1.1331247e-01   6.3074120e+00   9.3431340e-04  -4.9156010e+08
   2.2007336e-11  -1.1282146e-01   6.3057558e+00   9.7044797e-04  -4.9015957e+08
   2.3007669e-11  -1.1233184e-01   6.3040729e+00   1.0078658e-03  -4.8875897e+08
   2.4008003e-11  -1.1184363e-01   6.3023629e+00   1.0466077e-03  -4.8735832e+08
   2.5008336e-11  -1.1135681e-01   6.3006256e+00   1.0867155e-03  -4.8595762e+08
   2.6008670e-11  -1.1087140e-01   6.2988605e+00   1.1282323e-03  -4.8455688e+08
   2.7009003e-11  -1.1038739e-01   6.2970674e+00   1.1712021e-03  -4.8315610e+08
   2.8009336e-11  -1.0990478e-01   6.2952459e+00   1.2156704e-03  -4.8175528e+08
   2.9009670e-11  -1.0942358e-01   6.2933958e+00   1.2616836e-03  -4.8035444e+08
   3.0010003e-11  -1.0894377e-01   6.2915166e+00   1.3092894e-03  -4.7895357e+08
   3.1010337e-11  -1.0846536e-01   6.2896081e+00   1.3585369e-03  -4.7755268e+08
   3.2010670e-11  -1.0798836e-01   6.2876700e+00   1.4094763e-03  -4.7615177e+08
   3.3011004e-11  -1.0751276e-01   6.2857018e+00   1.4621592e-03  -4.7475085e+08
   3.4011337e-11  -1.0703856e-01   6.2837034e+00   1.5166383e-03  -4.7334994e+08
   3.5011671e-11  -1.0656576e-01   6.2816742e+00   1.5729680e-03  -4.7194902e+08
   3.6012004e-11  -1.0609436e-01   6.2796141e+00   1.6312037e-03  -4.7054811e+08
   3.7012337e-11  -1.0562436e-01   6.2775227e+00   1.6914023e-03  -4.6914722e+08
   3.8012671e-11  -1.0515576e-01   6.2753996e+00   1.7536223e-03  -4.6774634e+08
   3.9013004e-11  -1.0468857e-01   6.2732445e+00   1.8179234e-03  -4.6634549e+08
   4.0013338e-11  -1.0422278e-01   6.2710571e+00   1.8843668e-03  -4.6494468e+08
   4.1013671e-11  -1.0375839e-01   6.2688371e+00   1.9530153e-03  -4.6354390e+08
   4.2014005e-11  -1.0329539e-01   6.2665840e+00   2.0239331e-03  -4.6214318e+08
   4.3014338e-11  -1.0283381e-01   6.2642977e+00   2.0971860e-03  -4.6074250e+08
   4.4014672e-11  -1.0237362e-01   6.2619777e+00   2.1728412e-03  -4.5934189e+08
   4.5015005e-11  -1.0191483e-01   6.2596236e+00   2.2509678e-03  -4.5794135e+08
   4.6015338e-11  -1.0145744e-01   6.2572353e+00   2.3316361e-03  -4.5654088e+08
   4.7015672e-11  -1.0100146e-01   6.2548123e+00   2.4149184e-03  -4.5514050e+08
   4.8016005e-11  -1.0054687e-01   6.2523543e+00   2.5008884e-03  -4.5374021e+08
   4.9016339e-11  -1.0009369e-01   6.2498609e+00   2.5896216e-03  -4.5234002e+08
   5.0016672e-11  -9.9641904e-02   6.2473319e+00   2.6811951e-03  -4.5093994e+08
   5.1017006e-11  -9.9191521e-02   6.2447669e+00   2.7756878e-03  -4.4953997e+08
   5.2017339e-11  -9.8742538e-02   6.2421656e+00   2.8731805e-03  -4.4814014e+08
   5.3017673e-11  -9.8294955e-02   6.2395275e+00   2.9737554e-03  -4.4674043e+08
   5.4018006e-11  -9.7848772e-02   6.2368525e+00   3.0774968e-03  -4.4534088e+08
   5.5018339e-11  -9.7403990e-02   6.2341402e+00   3.1844907e-03  -4.4394147e+08
   5.6018673e-11  -9.6960607e-02   6.2313901e+00   3.2948250e-03  -4.4254224e+08
   5.7019006e-11  -9.6518623e-02   6.2286021e+00   3.4085894e-03  -4.4114317e+08
   5.8019340e-11  -9.6078039e-02   6.2257758e+00   3.5258755e-03  -4.3974429e+08
   5.9019673e-11  -9.5638854e-02   6.2229108e+00   3.6467768e-03  -4.3834560e+08
   6.0020007e-11  -9.5201069e-02   6.2200068e+00   3.7713887e-03  -4.3694712e+08
   6.1020340e-11  -9.4764682e-02   6.2170635e+00   3.8998087e-03  -4.3554885e+08
   6.2020674e-11  -9.4329693e-02   6.2140806e+00   4.0321360e-03  -4.3415080e+08
   6.3021007e-11  -9.3896103e-02   6.2110577e+00   4.1684721e-03  -4.3275300e+08
   6.4021340e-11  -9.3463911e-02   6.2079945e+00   4.3089202e-03  -4.3135544e+08
   6.5021674e-11  -9.3033117e-02   6.2048908e+00   4.4535857e-03  -4.2995814e+08
   6.6022007e-11  -9.2603720e-02   6.2017461e+00   4.6025761e-03  -4.2856111e+08
   6.7022341e-11  -9.2175721e-02   6.1985603e+00   4.7560008e-03  -4.2716436e+08
   6.8022674e-11  -9.1749119e-02   6.1953328e+00   4.9139714e-03  -4.2576792e+08
   6.9023008e-11  -9.1323913e-02   6.1920636e+00   5.0766015e-03  -4.2437177e+08
   7.0023341e-11  -9.0900104e-02   6.1887521e+00   5.2440069e-03  -4.2297595e+08
   7.1023675e-11  -9.0477691e-02   6.1853982e+00   5.4163054e-03  -4.2158047e+08
   7.2024008e-11  -9.0056673e-02   6.1820015e+00   5.5936171e-03  -4.2018533e+08
   7.3024341e-11  -8.9637051e-02   6.1785618e+00   5.7760642e-03  -4.1879054e+08
   7.4024675e-11  -8.9218824e-02   6.1750786e+00   5.9637710e-03  -4.1739614e+08
   7.5025008e-11  -8.8801992e-02   6.1715518e+00   6.1568641e-03  -4.1600212e+08
   7.6025342e-11  -8.8386554e-02   6.1679810e+00   6.3554721e-03  -4.1460850e+08
   7.7025675e-11  -8.7972509e-02   6.1643659e+00   6.5597260e-03  -4.1321529e+08
   7.8026009e-11  -8.7559858e-02   6.1607063e+00   6.7697589e-03  -4.1182251e+08
   7.9026342e-11  -8.7148600e-02   6.1570019e+00   6.9857062e-03  -4.1043018e+08
   8.0026676e-11  -8.6738735e-02   6.1532523e+00   7.2077054e-03  -4.0903831e+08
   8.1027009e-11  -8.6330261e-02   6.1494573e+00   7.4358964e-03  -4.0764691e+08
   8.2027342e-11  -8.5923179e-02   6.1456167e+00   7.6704211e-03  -4.0625601e+08
   8.3027676e-11  -8.5517488e-02   6.1417301e+00   7.9114240e-03  -4.0486560e+08
   8.4028009e-11  -8.5113188e-02   6.1377973e+00   8.1590516e-03  -4.0347572e+08
   8.5028343e-11  -8.4710277e-02   6.1338181e+00   8.4134525e-03  -4.0208638e+08
   8.6028676e-11  -8.4308757e-02   6.1297920e+00   8.6747780e-03  -4.0069759e+08
   8.7029010e-11  -8.3908625e-02   6.1257190e+00   8.9431813e-03  -3.9930936e+08
   8.8029343e-11  -8.3509881e-02   6.1215988e+00   9.2188179e-03  -3.9792173e+08
   8.9029677e-11  -8.3112525e-02   6.1174310e+00   9.5018457e-03  -3.9653470e+08
   9.0030010e-11  -8.2716556e-02   6.1132155e+00   9.7924247e-03  -3.9514829e+08
   9.1030343e-11  -8.2321974e-02   6.1089520e+00   1.0090717e-02  -3.9376251e+08
   9.2030677e-11  -8.1928777e-02   6.1046403e+00   1.0396888e-02  -3.9237740e+08
   9.3031010e-11  -8.1536966e-02   6.1002802e+00   1.0711103e-02  -3.9099295e+08
   9.4031344e-11  -8.1146539e-02   6.0958714e+00   1.1033532e-02  -3.8960920e+08
   9.5031677e-11  -8.0757496e-02   6.0914137e+00   1.1364346e-02  -3.8822616e+08
   9.6032011e-11  -8.0369836e-02   6.0869069e+00   1.1703718e-02  -3.8684385e+08
   9.7032344e-11  -7.9983558e-02   6.0823507e+00   1.2051824e-02  -3.8546228e+08
   9.8032678e-11  -7.9598662e-02   6.0777451e+00   1.2408842e-02  -3.8408148e+08
   9.9033011e-11  -7.9215147e-02   6.0730897e+00   1.2774951e-02  -3.8270147e+08
   1.0003334e-10  -7.8833011e-02   6.0683844e+00   1.3150333e-02  -3.8132226e+08
   1.0103368e-10  -7.8452255e-02   6.0636289e+00   1.3535174e-02  -3.7994388e+08
   1.0203401e-10  -7.8072878e-02   6.0588232e+00   1.3929658e-02  -3.7856634e+08
   1.0303434e-10  -7.7694877e-02   6.0539670e+00   1.4333974e-02  -3.7718967e+08
   1.0403468e-10  -7.7318254e-02   6.0490602e+00   1.4748313e-02  -3.7581388e+08
   1.0503501e-10  -7.6943006e-02   6.0441026e+00   1.5172867e-02  -3.7443899e+08
   1.0603535e-10  -7.6569132e-02   6.0390940e+00   1.5607830e-02  -3.7306503e+08
   1.0703568e-10  -7.6196633e-02   6.0340342e+00   1.6053399e-02  -3.7169202e+08
   1.0803601e-10  -7.5825507e-02   6.0289232e+00   1.6509772e-02  -3.7031998e+08
   1.0903635e-10  -7.5455752e-02   6.0237608e+00   1.6977150e-02  -3.6894893e+08
   1.1003668e-10  -7.5087369e-02   6.0185468e+00   1.7455734e-02  -3.6757889e+08
   1.1103701e-10  -7.4720355e-02   6.0132812e+00   1.7945728e-02  -3.6620988e+08
   1.1203735e-10  -7.4354710e-02   6.0079637e+00   1.8447339e-02  -3.6484192e+08
   1.1303768e-10  -7.3990433e-02   6.0025943e+00   1.8960773e-02  -3.6347504e+08
   1.1403801e-10  -7.3627523e-02   5.9971729e+00   1.9486240e-02  -3.6210926e+08
   1.1503835e-10  -7.3265979e-02   5.9916994e+00   2.0023951e-02  -3.6074460e+08
   1.1603868e-10  -7.2905798e-02   5.9861736e+00   2.0574119e-02  -3.5938109e+08
   1.1703901e-10  -7.2546982e-02   5.9805955e+00   2.1136957e-02  -3.5801874e+08
   1.1803935e-10  -7.2189527e-02   5.9749650e+00   2.1712682e-02  -3.5665759e+08
   1.1903968e-10  -7.1833433e-02   5.9692821e+00   2.2301511e-02  -3.5529764e+08
   1.2004001e-10  -7.1478699e-02   5.9635466e+00   2.2903662e-02  -3.5393893e+08
   1.2104035e-10  -7.1125324e-02   5.9577585e+00   2.3519356e-02  -3.5258149e+08
   1.2204068e-10  -7.0773305e-02   5.9519178e+00   2.4148813e-02  -3.5122532e+08
   1.2304101e-10  -7.0422643e-02   5.9460244e+00   2.4792258e-02  -3.4987046e+08
   1.2404135e-10  -7.0073335e-02   5.9400783e+00   2.5449914e-02  -3.4851694e+08
   1.2504168e-10  -6.9725380e-02   5.9340794e+00   2.6122005e-02  -3.4716477e+08
   1.2604201e-10  -6.9378777e-02   5.9280277e+00   2.6808759e-02  -3.4581398e+08
   1.2704235e-10  -6.9033525e-02   5.9219232e+00   2.7510403e-02  -3.4446459e+08
   1.2804268e-10  -6.8689621e-02   5.9157659e+00   2.8227165e-02  -3.4311664e+08
   1.2904301e-10  -6.8347066e-02   5.9095558e+00   2.8959275e-02  -3.4177013e+08
   1.3004335e-10  -6.8005856e-02   5.9032930e+00   2.9706963e-02  -3.4042511e+08
   1.3104368e-10  -6.7665991e-02   5.8969773e+00   3.0470459e-02  -3.3908158e+08
   1.3204401e-10  -6.7327470e-02   5.8906089e+00   3.1249996e-02  -3.3773959e+08
   1.3304435e-10  -6.6990290e-02   5.8841878e+00   3.2045805e-02  -3.3639915e+08
   1.3404468e-10  -6.6654449e-02   5.8777140e+00   3.2858121e-02  -3.3506029e+08
   1.3504502e-10  -6.6319948e-02   5.8711876e+00   3.3687176e-02  -3.3372303e+08
   1.3604535e-10  -6.5986783e-02   5.8646086e+00   3.4533204e-02  -3.3238740e+08
   1.3704568e-10  -6.5654953e-02   5.8579771e+00   3.5396441e-02  -3.3105343e+08
   1.3804602e-10  -6.5324457e-02   5.8512932e+00   3.6277119e-02  -3.2972113e+08
   1.3904635e-10  -6.4995293e-02   5.8445570e+00   3.7175475e-02  -3.2839055e+08
   1.4004668e-10  -6.4667459e-02   5.8377685e+00   3.8091743e-02  -3.2706170e+08
   1.4104702e-10  -6.4340953e-02   5.8309278e+00   3.9026158e-02  -3.2573460e+08
   1.4204735e-10  -6.4015774e-02   5.8240351e+00   3.9978955e-02  -3.2440929e+08
   1.4304768e-10  -6.3691920e-02   5.8170904e+00   4.0950370e-02  -3.2308579e+08
   1.4404802e-10  -6.3369388e-02   5.8100940e+00   4.1940636e-02  -3.2176412e+08
   1.4504835e-10  -6.3048178e-02   5.8030459e+00   4.2949989e-02  -3.2044432e+08
   1.4604868e-10  -6.2728287e-02   5.7959462e+00   4.3978662e-02  -3.1912641e+08
   1.4704902e-10  -6.2409713e-02   5.7887951e+00   4.5026889e-02  -3.1781041e+08
   1.4804935e-10  -6.2092455e-02   5.7815928e+00   4.6094903e-02  -3.1649636e+08
   1.4904968e-10  -6.1776510e-02   5.7743395e+00   4.7182937e-02  -3.1518427e+08
   1.5005002e-10  -6.1461877e-02   5.7670352e+00   4.8291221e-02  -3.1387417e+08
   1.5105035e-10  -6.1148553e-02   5.7596803e+00   4.9419988e-02  -3.1256610e+08
   1.5205068e-10  -6.0836537e-02   5.7522748e+00   5.0569467e-02  -3.1126007e+08
   1.5305102e-10  -6.0525826e-02   5.7448190e+00   5.1739888e-02  -3.0995611e+08
   1.5405135e-10  -6.0216419e-02   5.7373132e+00   5.2931477e-02  -3.0865426e+08
   1.5505168e-10  -5.9908312e-02   5.7297574e+00   5.4144463e-02  -3.0735453e+08
   1.5605202e-10  -5.9601505e-02   5.7221519e+00   5.5379070e-02  -3.0605695e+08
   1.5705235e-10  -5.9295994e-02   5.7144970e+00   5.6635522e-02  -3.0476155e+08
   1.5805268e-10  -5.8991779e-02   5.7067929e+00   5.7914043e-02  -3.0346836e+08
   1.5905302e-10  -5.8688855e-02   5.6990399e+00   5.9214854e-02  -3.0217739e+08
   1.6005335e-10  -5.8387222e-02   5.6912382e+00   6.0538174e-02  -3.0088869e+08
   1.6105368e-10  -5.8086877e-02   5.6833880e+00   6.1884221e-02  -2.9960226e+08
   1.6205402e-10  -5.7787818e-02   5.6754897e+00   6.3253211e-02  -2.9831815e+08
   1.6305435e-10  -5.7490042e-02   5.6675436e+00   6.4645359e-02  -2.9703637e+08
   1.6405468e-10  -5.7193547e-02   5.6595498e+00   6.6060875e-02  -2.9575696e+08
   1.6505502e-10  -5.6898331e-02   5.6515088e+00   6.7499971e-02  -2.9447993e+08
   1.6605535e-10  -5.6604391e-02   5.6434208e+00   6.8962853e-02  -2.9320531e+08
   1.6705569e-10  -5.6311724e-02   5.6352861e+00   7.0449728e-02  -2.9193314e+08
   1.6805602e-10  -5.6020329e-02   5.6271051e+00   7.1960799e-02  -2.9066343e+08
   1.6905635e-10  -5.5730203e-02   5.6188781e+00   7.3496266e-02  -2.8939621e+08
   1.7005669e-10  -5.5441344e-02   5.6106054e+00   7.5056327e-02  -2.8813150e+08
   1.7105702e-10  -5.5153748e-02   5.6022874e+00   7.6641178e-02  -2.8686934e+08
   1.7205735e-10  -5.4867413e-02   5.5939243e+00   7.8251012e-02  -2.8560975e+08
   1.7305769e-10  -5.4582338e-02   5.5855167e+00   7.9886018e-02  -2.8435274e+08
   1.7405802e-10  -5.4298518e-02   5.5770648e+00   8.1546384e-02  -2.8309836e+08
   1.7505835e-10  -5.4015952e-02   5.5685690e+00   8.3232292e-02  -2.8184662e+08
   1.7605869e-10  -5.3734636e-02   5.5600297e+00   8.4943925e-02  -2.8059754e+08
   1.7705902e-10  -5.3454569e-02   5.5514473e+00   8.6681459e-02  -2.7935116e+08
   1.7805935e-10  -5.3175747e-02   5.5428222e+00   8.8445070e-02  -2.7810749e+08
   1.7905969e-10  -5.2898168e-02   5.5341548e+00   9.0234928e-02  -2.7686656e+08
   1.8006002e-10  -5.2621829e-02   5.5254454e+00   9.2051201e-02  -2.7562840e+08
   1.8106035e-10  -5.2346728e-02   5.5166946e+00   9.3894053e-02  -2.7439303e+08
   1.8206069e-10  -5.2072860e-02   5.5079027e+00   9.5763644e-02  -2.7316047e+08
   1.8306102e-10  -5.1800224e-02   5.4990701e+00   9.7660131e-02  -2.7193075e+08
   1.8406135e-10  -5.1528817e-02   5.4901973e+00   9.9583668e-02  -2.7070389e+08
   1.8506169e-10  -5.1258636e-02   5.4812848e+00   1.0153440e-01  -2.6947991e+08
   1.8606202e-10  -5.0989677e-02   5.4723329e+00   1.0351248e-01  -2.6825884e+08
   1.8706235e-10  -5.0721939e-02   5.4633422e+00   1.0551805e-01  -2.6704070e+08
   1.8806269e-10  -5.0455418e-02   5.4543131e+00   1.0755124e-01  -2.6582551e+08
   1.8906302e-10  -5.0190111e-02   5.4452460e+00   1.0961218e-01  -2.6461330e+08
   1.9006335e-10  -4.9926015e-02   5.4361414e+00   1.1170101e-01  -2.6340408e+08
   1.9106369e-10  -4.9663127e-02   5.4269998e+00   1.1381785e-01  -2.6219789e+08
   1.9206402e-10  -4.9401445e-02   5.4178218e+00   1.1596281e-01  -2.6099474e+08
   1.9306435e-10  -4.9140964e-02   5.4086077e+00   1.1813603e-01  -2.5979465e+08
   1.9406469e-10  -4.8881682e-02   5.3993580e+00   1.2033760e-01  -2.5859764e+08
   1.9506502e-10  -4.8623597e-02   5.3900733e+00   1.2256764e-01  -2.5740375e+08
   1.9606536e-10  -4.8366704e-02   5.3807541e+00   1.2482625e-01  -2.5621298e+08
   1.9706569e-10  -4.8111000e-02   5.3714009e+00   1.2711352e-01  -2.5502536e+08
   1.9806602e-10  -4.7856484e-02   5.3620141e+00   1.2942955e-01  -2.5384090e+08
   1.9906636e-10  -4.7603150e-02   5.3525944e+00   1.3177443e-01  -2.5265964e+08
   2.0006669e-10  -4.7350997e-02   5.3431421e+00   1.3414824e-01  -2.5148159e+08
   2.0106702e-10  -4.7100020e-02   5.3336579e+00   1.3655107e-01  -2.5030676e+08
   2.0206736e-10  -4.6850217e-02   5.3241423e+00   1.3898297e-01  -2.4913518e+08
   2.0306769e-10  -4.6601585e-02   5.3145958e+00   1.4144404e-01  -2.4796687e+08
   2.0406802e-10  -4.6354119e-02   5.3050190e+00   1.4393432e-01  -2.4680185e+08
   2.0506836e-10  -4.6107818e-02   5.2954123e+00   1.4645388e-01  -2.4564014e+08
   2.0606869e-10  -4.5862677e-02   5.2857764e+00   1.4900277e-01  -2.4448174e+08
   2.0706902e-10  -4.5618693e-02   5.2761117e+00   1.5158105e-01  -2.4332669e+08
   2.0806936e-10  -4.5375862e-02   5.2664189e+00   1.5418875e-01  -2.4217500e+08
   2.0906969e-10  -4.5134183e-02   5.2566985e+00   1.5682592e-01  -2.4102669e+08
   2.1007002e-10  -4.4893650e-02   5.2469510e+00   1.5949259e-01  -2.3988177e+08
   2.1107036e-10  -4.4654261e-02   5.2371771e+00   1.6218879e-01  -2.3874027e+08
   2.1207069e-10  -4.4416012e-02   5.2273772e+00   1.6491454e-01  -2.3760219e+08
   2.1307102e-10  -4.4178900e-02   5.2175519e+00   1.6766987e-01  -2.3646756e+08
   2.1407136e-10  -4.3942922e-02   5.2077019e+00   1.7045478e-01  -2.3533639e+08
   2.1507169e-10  -4.3708073e-02   5.1978276e+00   1.7326928e-01  -2.3420870e+08
   2.1607202e-10  -4.3474351e-02   5.1879297e+00   1.7611338e-01  -2.3308450e+08
   2.1707236e-10  -4.3241751e-02   5.1780087e+00   1.7898707e-01  -2.3196380e+08
   2.1807269e-10  -4.3010271e-02   5.1680652e+00   1.8189036e-01  -2.3084663e+08
   2.1907302e-10  -4.2779907e-02   5.1580998e+00   1.8482321e-01  -2.2973300e+08
   2.2007336e-10  -4.2550655e-02   5.1481130e+00   1.8778563e-01  -2.2862292e+08
   2.2107369e-10  -4.2322512e-02   5.1381055e+00   1.9077757e-01  -2.2751641e+08
   2.2207402e-10  -4.2095474e-02   5.1280778e+00   1.9379902e-01  -2.2641347e+08
   2.2307436e-10  -4.1869537e-02   5.1180305e+00   1.9684995e-01  -2.2531413e+08
   2.2407469e-10  -4.1644699e-02   5.1079643e+00   1.9993030e-01  -2.2421839e+08
   2.2507503e-10  -4.1420954e-02   5.0978796e+00   2.0304005e-01  -2.2312627e+08
   2.2607536e-10  -4.1198301e-02   5.0877770e+00   2.0617913e-01  -2.2203778e+08
   2.2707569e-10  -4.0976735e-02   5.0776573e+00   2.0934750e-01  -2.2095294e+08
   2.2807603e-10  -4.0756252e-02   5.0675208e+00   2.1254510e-01  -2.1987175e+08
   2.2907636e-10  -4.0536849e-02   5.0573683e+00   2.1577186e-01  -2.1879422e+08
   2.3007669e-10  -4.0318522e-02   5.0472004e+00   2.1902770e-01  -2.1772038e+08
   2.3107703e-10  -4.0101267e-02   5.0370175e+00   2.2231256e-01  -2.1665022e+08
   2.3207736e-10  -3.9885081e-02   5.0268203e+00   2.2562636e-01  -2.1558376e+08
   2.3307769e-10  -3.9669960e-02   5.0166094e+00   2.2896901e-01  -2.1452100e+08
   2.3407803e-10  -3.9455901e-02   5.0063854e+00   2.3234042e-01  -2.1346197e+08
   2.3507836e-10  -3.9242899e-02   4.9961488e+00   2.3574049e-01  -2.1240667e+08
   2.3607869e-10  -3.9030951e-02   4.9859003e+00   2.3916913e-01  -2.1135510e+08
   2.3707903e-10  -3.8820053e-02   4.9756404e+00   2.4262623e-01  -2.1030727e+08
   2.3807936e-10  -3.8610201e-02   4.9653697e+00   2.4611168e-01  -2.0926321e+08
   2.3907969e-10  -3.8401393e-02   4.9550889e+00   2.4962536e-01  -2.0822290e+08
   2.4008003e-10  -3.8193622e-02   4.9447984e+00   2.5316716e-01  -2.0718637e+08
   2.4108036e-10  -3.7986887e-02   4.9344988e+00   2.5673695e-01  -2.0615361e+08
   2.4208069e-10  -3.7781184e-02   4.9241908e+00   2.6033461e-01  -2.0512464e+08
   2.4308103e-10  -3.7576507e-02   4.9138749e+00   2.6395999e-01  -2.0409946e+08
   2.4408136e-10  -3.7372855e-02   4.9035517e+00   2.6761296e-01  -2.0307808e+08
   2.4508169e-10  -3.7170222e-02   4.8932218e+00   2.7129337e-01  -2.0206051e+08
   2.4608203e-10  -3.6968605e-02   4.8828857e+00   2.7500109e-01  -2.0104675e+08
   2.4708236e-10  -3.6768001e-02   4.8725441e+00   2.7873596e-01  -2.0003680e+08
   2.4808269e-10  -3.6568405e-02   4.8621974e+00   2.8249781e-01  -1.9903068e+08
   2.4908303e-10  -3.6369813e-02   4.8518463e+00   2.8628650e-01  -1.9802838e+08
   2.5008336e-10  -3.6172223e-02   4.8414912e+00   2.9010185e-01  -1.9702992e+08
   2.5108369e-10  -3.5975629e-02   4.8311329e+00   2.9394369e-01  -1.9603529e+08
   2.5208403e-10  -3.5780028e-02   4.8207718e+00   2.9781186e-01  -1.9504450e+08
   2.5308436e-10  -3.5585417e-02   4.8104084e+00   3.0170618e-01  -1.9405756e+08
   2.5408469e-10  -3.5391791e-02   4.8000434e+00   3.0562646e-01  -1.9307446e+08
   2.5508503e-10  -3.5199147e-02   4.7896773e+00   3.0957251e-01  -1.9209522e+08
   2.5608536e-10  -3.5007480e-02   4.7793107e+00   3.1354415e-01  -1.9111983e+08
   2.5708570e-10  -3.4816787e-02   4.7689440e+00   3.1754119e-01  -1.9014830e+08
   2.5808603e-10  -3.4627064e-02   4.7585778e+00   3.2156343e-01  -1.8918063e+08
   2.5908636e-10  -3.4438308e-02   4.7482127e+00   3.2561066e-01  -1.8821682e+08
   2.6008670e-10  -3.4250513e-02   4.7378492e+00   3.2968268e-01  -1.8725687e+08
   2.6108703e-10  -3.4063677e-02   4.7274879e+00   3.3377929e-01  -1.8630078e+08
   2.6208736e-10  -3.3877795e-02   4.7171292e+00   3.3790027e-01  -1.8534856e+08
   2.6308770e-10  -3.3692865e-02   4.7067736e+00   3.4204541e-01  -1.8440021e+08
   2.6408803e-10  -3.3508880e-02   4.6964218e+00   3.4621449e-01  -1.8345572e+08
   2.6508836e-10  -3.3325839e-02   4.6860742e+00   3.5040728e-01  -1.8251510e+08
   2.6608870e-10  -3.3143737e-02   4.6757313e+00   3.5462357e-01  -1.8157835e+08
   2.6708903e-10  -3.2962570e-02   4.6653937e+00   3.5886312e-01  -1.8064547e+08
   2.6808936e-10  -3.2782334e-02   4.6550618e+00   3.6312570e-01  -1.7971645e+08
   2.6908970e-10  -3.2603026e-02   4.6447361e+00   3.6741108e-01  -1.7879130e+08
   2.7009003e-10  -3.2424641e-02   4.6344172e+00   3.7171902e-01  -1.7787001e+08
   2.7109036e-10  -3.2247176e-02   4.6241055e+00   3.7604929e-01  -1.7695259e+08
   2.7209070e-10  -3.2070627e-02   4.6138016e+00   3.8040163e-01  -1.7603902e+08
   2.7309103e-10  -3.1894990e-02   4.6035058e+00   3.8477580e-01  -1.7512932e+08
   2.7409136e-10  -3.1720261e-02   4.5932188e+00   3.8917157e-01  -1.7422348e+08
   2.7509170e-10  -3.1546436e-02   4.5829409e+00   3.9358866e-01  -1.7332149e+08
   2.7609203e-10  -3.1373511e-02   4.5726726e+00   3.9802684e-01  -1.7242336e+08
   2.7709236e-10  -3.1201483e-02   4.5624145e+00   4.0248585e-01  -1.7152908e+08
   2.7809270e-10  -3.1030348e-02   4.5521669e+00   4.0696543e-01  -1.7063864e+08
   2.7909303e-10  -3.0860102e-02   4.5419303e+00   4.1146531e-01  -1.6975205e+08
   2.8009336e-10  -3.0690740e-02   4.5317052e+00   4.1598525e-01  -1.6886930e+08
   2.8109370e-10  -3.0522260e-02   4.5214920e+00   4.2052496e-01  -1.6799038e+08
   2.8209403e-10  -3.0354657e-02   4.5112912e+00   4.2508420e-01  -1.6711530e+08
   2.8309436e-10  -3.0187928e-02   4.5011031e+00   4.2966268e-01  -1.6624405e+08
   2.8409470e-10  -3.0022068e-02   4.4909283e+00   4.3426015e-01  -1.6537662e+08
   2.8509503e-10  -2.9857074e-02   4.4807672e+00   4.3887632e-01  -1.6451302e+08
   2.8609537e-10  -2.9692942e-02   4.4706202e+00   4.4351093e-01  -1.6365322e+08
   2.8709570e-10  -2.9529668e-02   4.4604876e+00   4.4816370e-01  -1.6279724e+08
   2.8809603e-10  -2.9367249e-02   4.4503700e+00   4.5283435e-01  -1.6194506e+08
   2.8909637e-10  -2.9205680e-02   4.4402677e+00   4.5752262e-01  -1.6109669e+08
   2.9009670e-10  -2.9044958e-02   4.4301811e+00   4.6222821e-01  -1.6025210e+08
   2.9109703e-10  -2.8885079e-02   4.4201106e+00   4.6695085e-01  -1.5941130e+08
   2.9209737e-10  -2.8726039e-02   4.4100567e+00   4.7169025e-01  -1.5857429e+08
   2.9309770e-10  -2.8567835e-02   4.4000197e+00   4.7644614e-01  -1.5774105e+08
   2.9409803e-10  -2.8410462e-02   4.3899999e+00   4.8121823e-01  -1.5691158e+08
   2.9509837e-10  -2.8253917e-02   4.3799979e+00   4.8600624e-01  -1.5608587e+08
   2.9609870e-10  -2.8098196e-02   4.3700138e+00   4.9080988e-01  -1.5526392e+08
   2.9709903e-10  -2.7943296e-02   4.3600482e+00   4.9562886e-01  -1.5444571e+08
   2.9809937e-10  -2.7789212e-02   4.3501014e+00   5.0046290e-01  -1.5363125e+08
   2.9909970e-10  -2.7635941e-02   4.3401737e+00   5.0531171e-01  -1.5282052e+08
   3.0010003e-10  -2.7483479e-02   4.3302654e+00   5.1017500e-01  -1.5201352e+08
   3.0110037e-10  -2.7331822e-02   4.3203770e+00   5.1505248e-01  -1.5121024e+08
   3.0210070e-10  -2.7180968e-02   4.3105088e+00   5.1994387e-01  -1.5041067e+08
   3.0310103e-10  -2.7030911e-02   4.3006611e+00   5.2484886e-01  -1.4961480e+08
   3.0410137e-10  -2.6881648e-02   4.2908342e+00   5.2976719e-01  -1.4882263e+08
   3.0510170e-10  -2.6733176e-02   4.2810285e+00   5.3469854e-01  -1.4803415e+08
   3.0610203e-10  -2.6585491e-02   4.2712442e+00   5.3964263e-01  -1.4724934e+08
   3.0710237e-10  -2.6438590e-02   4.2614818e+00   5.4459918e-01  -1.4646820e+08
   3.0810270e-10  -2.6292467e-02   4.2517414e+00   5.4956789e-01  -1.4569073e+08
   3.0910303e-10  -2.6147121e-02   4.2420235e+00   5.5454847e-01  -1.4491691e+08
   3.1010337e-10  -2.6002547e-02   4.2323283e+00   5.5954062e-01  -1.4414673e+08
   3.1110370e-10  -2.5858741e-02   4.2226562e+00   5.6454407e-01  -1.4338018e+08
   3.1210403e-10  -2.5715701e-02   4.2130073e+00   5.6955851e-01  -1.4261726e+08
   3.1310437e-10  -2.5573422e-02   4.2033820e+00   5.7458366e-01  -1.4185796e+08
   3.1410470e-10  -2.5431900e-02   4.1937806e+00   5.7961923e-01  -1.4110226e+08
   3.1510504e-10  -2.5291133e-02   4.1842033e+00   5.8466493e-01  -1.4035016e+08
   3.1610537e-10  -2.5151116e-02   4.1746504e+00   5.8972047e-01  -1.3960164e+08
   3.1710570e-10  -2.5011847e-02   4.1651222e+00   5.9478556e-01  -1.3885670e+08
   3.1810604e-10  -2.4873320e-02   4.1556189e+00   5.9985991e-01  -1.3811533e+08
   3.1910637e-10  -2.4735534e-02   4.1461408e+00   6.0494324e-01  -1.3737752e+08
   3.2010670e-10  -2.4598483e-02   4.1366882e+00   6.1003526e-01  -1.3664325e+08
   3.2110704e-10  -2.4462166e-02   4.1272612e+00   6.1513567e-01  -1.3591252e+08
   3.2210737e-10  -2.4326577e-02   4.1178602e+00   6.2024421e-01  -1.3518531e+08
   3.2310770e-10  -2.4191715e-02   4.1084853e+00   6.2536058e-01  -1.3446162e+08
   3.2410804e-10  -2.4057574e-02   4.0991368e+00   6.3048450e-01  -1.3374144e+08
   3.2510837e-10  -2.3924152e-02   4.0898148e+00   6.3561568e-01  -1.3302475e+08
   3.2610870e-10  -2.3791445e-02   4.0805198e+00   6.4075385e-01  -1.3231154e+08
   3.2710904e-10  -2.3659450e-02   4.0712517e+00   6.4589873e-01  -1.3160181e+08
   3.2810937e-10  -2.3528163e-02   4.0620110e+00   6.5105003e-01  -1.3089553e+08
   3.2910970e-10  -2.3397581e-02   4.0527976e+00   6.5620747e-01  -1.3019271e+08
   3.3011004e-10  -2.3267700e-02   4.0436119e+00   6.6137078e-01  -1.2949333e+08
   3.3111037e-10  -2.3138517e-02   4.0344541e+00   6.6653968e-01  -1.2879738e+08
   3.3211070e-10  -2.3010029e-02   4.0253243e+00   6.7171390e-01  -1.2810484e+08
   3.3311104e-10  -2.2882231e-02   4.0162228e+00   6.7689316e-01  -1.2741571e+08
   3.3411137e-10  -2.2755122e-02   4.0071497e+00   6.8207719e-01  -1.2672997e+08
   3.3511170e-10  -2.2628696e-02   3.9981051e+00   6.8726572e-01  -1.2604762e+08
   3.3611204e-10  -2.2502951e-02   3.9890893e+00   6.9245848e-01  -1.2536864e+08
   3.3711237e-10  -2.2377884e-02   3.9801024e+00   6.9765520e-01  -1.2469302e+08
   3.3811270e-10  -2.2253491e-02   3.9711446e+00   7.0285562e-01  -1.2402074e+08
   3.3911304e-10  -2.2129769e-02   3.9622161e+00   7.0805946e-01  -1.2335181e+08
   3.4011337e-10  -2.2006714e-02   3.9533170e+00   7.1326647e-01  -1.2268620e+08
   3.4111370e-10  -2.1884323e-02   3.9444474e+00   7.1847638e-01  -1.2202390e+08
   3.4211404e-10  -2.1762593e-02   3.9356075e+00   7.2368893e-01  -1.2136490e+08
   3.4311437e-10  -2.1641521e-02   3.9267975e+00   7.2890386e-01  -1.2070919e+08
   3.4411470e-10  -2.1521103e-02   3.9180174e+00   7.3412092e-01  -1.2005676e+08
   3.4511504e-10  -2.1401336e-02   3.9092674e+00   7.3933984e-01  -1.1940760e+08
   3.4611537e-10  -2.1282216e-02   3.9005477e+00   7.4456039e-01  -1.1876169e+08
   3.4711571e-10  -2.1163741e-02   3.8918583e+00   7.4978229e-01  -1.1811902e+08
   3.4811604e-10  -2.1045908e-02   3.8831994e+00   7.5500531e-01  -1.1747958e+08
   3.4911637e-10  -2.0928712e-02   3.8745711e+00   7.6022919e-01  -1.1684336e+08
   3.5011671e-10  -2.0812151e-02   3.8659736e+00   7.6545368e-01  -1.1621034e+08
   3.5111704e-10  -2.0696222e-02   3.8574068e+00   7.7067855e-01  -1.1558051e+08
   3.5211737e-10  -2.0580921e-02   3.8488709e+00   7.7590355e-01  -1.1495387e+08
   3.5311771e-10  -2.0466245e-02   3.8403661e+00   7.8112843e-01  -1.1433039e+08
   3.5411804e-10  -2.0352191e-02   3.8318924e+00   7.8635296e-01  -1.1371007e+08
   3.5511837e-10  -2.0238757e-02   3.8234499e+00   7.9157691e-01  -1.1309289e+08
   3.5611871e-10  -2.0125938e-02   3.8150387e+00   7.9680002e-01  -1.1247885e+08
   3.5711904e-10  -2.0013731e-02   3.8066588e+00   8.0202208e-01  -1.1186792e+08
   3.5811937e-10  -1.9902135e-02   3.7983105e+00   8.0724285e-01  -1.1126010e+08
   3.5911971e-10  -1.9791144e-02   3.7899936e+00   8.1246209e-01  -1.1065537e+08
   3.6012004e-10  -1.9680757e-02   3.7817084e+00   8.1767960e-01  -1.1005373e+08
   3.6112037e-10  -1.9570971e-02   3.7734549e+00   8.2289512e-01  -1.0945515e+08
   3.6212071e-10  -1.9461781e-02   3.7652331e+00   8.2810845e-01  -1.0885964e+08
   3.6312104e-10  -1.9353186e-02   3.7570431e+00   8.3331937e-01  -1.0826716e+08
   3.6412137e-10  -1.9245182e-02   3.7488850e+00   8.3852765e-01  -1.0767772e+08
   3.6512171e-10  -1.9137765e-02   3.7407588e+00   8.4373307e-01  -1.0709130e+08
   3.6612204e-10  -1.9030934e-02   3.7326647e+00   8.4893542e-01  -1.0650788e+08
   3.6712237e-10  -1.8924685e-02   3.7246025e+00   8.5413450e-01  -1.0592746e+08
   3.6812271e-10  -1.8819015e-02   3.7165724e+00   8.5933008e-01  -1.0535002e+08
   3.6912304e-10  -1.8713922e-02   3.7085744e+00   8.6452196e-01  -1.0477555e+08
   3.7012337e-10  -1.8609401e-02   3.7006086e+00   8.6970993e-01  -1.0420404e+08
   3.7112371e-10  -1.8505450e-02   3.6926750e+00   8.7489379e-01  -1.0363547e+08
   3.7212404e-10  -1.8402067e-02   3.6847736e+00   8.8007333e-01  -1.0306984e+08
   3.7312437e-10  -1.8299248e-02   3.6769045e+00   8.8524836e-01  -1.0250712e+08
   3.7412471e-10  -1.8196991e-02   3.6690677e+00   8.9041868e-01  -1.0194731e+08
   3.7512504e-10  -1.8095292e-02   3.6612631e+00   8.9558409e-01  -1.0139040e+08
   3.7612538e-10  -1.7994148e-02   3.6534909e+00   9.0074440e-01  -1.0083637e+08
   3.7712571e-10  -1.7893558e-02   3.6457511e+00   9.0589941e-01  -1.0028520e+08
   3.7812604e-10  -1.7793517e-02   3.6380436e+00   9.1104895e-01  -9.9736897e+07
   3.7912638e-10  -1.7694023e-02   3.6303685e+00   9.1619281e-01  -9.9191436e+07
   3.8012671e-10  -1.7595073e-02   3.6227258e+00   9.2133082e-01  -9.8648808e+07
   3.8112704e-10  -1.7496665e-02   3.6151154e+00   9.2646280e-01  -9.8108999e+07
   3.8212738e-10  -1.7398795e-02   3.6075375e+00   9.3158856e-01  -9.7571997e+07
   3.8312771e-10  -1.7301462e-02   3.5999920e+00   9.3670792e-01  -9.7037790e+07
   3.8412804e-10  -1.7204661e-02   3.5924788e+00   9.4182072e-01  -9.6506366e+07
   3.8512838e-10  -1.7108390e-02   3.5849981e+00   9.4692677e-01  -9.5977712e+07
   3.8612871e-10  -1.7012646e-02   3.5775498e+00   9.5202590e-01  -9.5451816e+07
   3.8712904e-10  -1.6917428e-02   3.5701338e+00   9.5711795e-01  -9.4928666e+07
   3.8812938e-10  -1.6822731e-02   3.5627502e+00   9.6220274e-01  -9.4408248e+07
   3.8912971e-10  -1.6728553e-02   3.5553990e+00   9.6728012e-01  -9.3890551e+07
   3.9013004e-10  -1.6634892e-02   3.5480801e+00   9.7234992e-01  -9.3375563e+07
   3.9113038e-10  -1.6541744e-02   3.5407935e+00   9.7741198e-01  -9.2863271e+07
   3.9213071e-10  -1.6449108e-02   3.5335393e+00   9.8246614e-01  -9.2353663e+07
   3.9313104e-10  -1.6356980e-02   3.5263173e+00   9.8751225e-01  -9.1846727e+07
   3.9413138e-10  -1.6265358e-02   3.5191276e+00   9.9255014e-01  -9.1342450e+07
   3.9513171e-10  -1.6174239e-02   3.5119701e+00   9.9757968e-01  -9.0840820e+07
   3.9613204e-10  -1.6083620e-02   3.5048448e+00   1.0026007e+00  -9.0341826e+07
   3.9713238e-10  -1.5993499e-02   3.4977516e+00   1.0076131e+00  -8.9845455e+07
   3.9813271e-10  -1.5903874e-02   3.4906906e+00   1.0126166e+00  -8.9351694e+07
   3.9913304e-10  -1.5814741e-02   3.4836617e+00   1.0176112e+00  -8.8860533e+07
   4.0013338e-10  -1.5726098e-02   3.4766649e+00   1.0225968e+00  -8.8371958e+07
   4.0113371e-10  -1.5637942e-02   3.4697001e+00   1.0275731e+00  -8.7885958e+07
   4.0213404e-10  -1.5550271e-02   3.4627673e+00   1.0325400e+00  -8.7402521e+07
   4.0313438e-10  -1.5463082e-02   3.4558664e+00   1.0374974e+00  -8.6921634e+07
   4.0413471e-10  -1.5376374e-02   3.4489974e+00   1.0424452e+00  -8.6443286e+07
   4.0513505e-10  -1.5290142e-02   3.4421602e+00   1.0473833e+00  -8.5967465e+07
   4.0613538e-10  -1.5204385e-02   3.4353548e+00   1.0523114e+00  -8.5494159e+07
   4.0713571e-10  -1.5119100e-02   3.4285812e+00   1.0572296e+00  -8.5023356e+07
   4.0813605e-10  -1.5034285e-02   3.4218393e+00   1.0621376e+00  -8.4555045e+07
   4.0913638e-10  -1.4949937e-02   3.4151290e+00   1.0670353e+00  -8.4089212e+07
   4.1013671e-10  -1.4866054e-02   3.4084503e+00   1.0719226e+00  -8.3625848e+07
   4.1113705e-10  -1.4782633e-02   3.4018032e+00   1.0767995e+00  -8.3164939e+07
   4.1213738e-10  -1.4699672e-02   3.3951875e+00   1.0816657e+00  -8.2706475e+07
   4.1313771e-10  -1.4617169e-02   3.3886032e+00   1.0865212e+00  -8.2250443e+07
   4.1413805e-10  -1.4535120e-02   3.3820502e+00   1.0913658e+00  -8.1796833e+07
   4.1513838e-10  -1.4453524e-02   3.3755286e+00   1.0961995e+00  -8.1345631e+07
   4.1613871e-10  -1.4372377e-02   3.3690381e+00   1.1010221e+00  -8.0896828e+07
   4.1713905e-10  -1.4291679e-02   3.3625788e+00   1.1058336e+00  -8.0450410e+07
   4.1813938e-10  -1.4211426e-02   3.3561506e+00   1.1106337e+00  -8.0006367e+07
   4.1913971e-10  -1.4131616e-02   3.3497534e+00   1.1154225e+00  -7.9564688e+07
   4.2014005e-10  -1.4052246e-02   3.3433872e+00   1.1201999e+00  -7.9125361e+07
   4.2114038e-10  -1.3973315e-02   3.3370518e+00   1.1249656e+00  -7.8688373e+07
   4.2214071e-10  -1.3894820e-02   3.3307472e+00   1.1297197e+00  -7.8253715e+07
   4.2314105e-10  -1.3816758e-02   3.3244734e+00   1.1344620e+00  -7.7821375e+07
   4.2414138e-10  -1.3739128e-02   3.3182302e+00   1.1391924e+00  -7.7391341e+07
   4.2514171e-10  -1.3661926e-02   3.3120175e+00   1.1439109e+00  -7.6963603e+07
   4.2614205e-10  -1.3585152e-02   3.3058354e+00   1.1486174e+00  -7.6538149e+07
   4.2714238e-10  -1.3508801e-02   3.2996837e+00   1.1533117e+00  -7.6114967e+07
   4.2814271e-10  -1.3432873e-02   3.2935624e+00   1.1579938e+00  -7.5694047e+07
   4.2914305e-10  -1.3357365e-02   3.2874712e+00   1.1626636e+00  -7.5275378e+07
   4.3014338e-10  -1.3282275e-02   3.2814103e+00   1.1673211e+00  -7.4858948e+07
   4.3114371e-10  -1.3207600e-02   3.2753795e+00   1.1719661e+00  -7.4444747e+07
   4.3214405e-10  -1.3133338e-02   3.2693786e+00   1.1765985e+00  -7.4032764e+07
   4.3314438e-10  -1.3059487e-02   3.2634077e+00   1.1812183e+00  -7.3622987e+07
   4.3414471e-10  -1.2986045e-02   3.2574667e+00   1.1858254e+00  -7.3215406e+07
   4.3514505e-10  -1.2913009e-02   3.2515553e+00   1.1904198e+00  -7.2810010e+07
   4.3614538e-10  -1.2840378e-02   3.2456737e+00   1.1950013e+00  -7.2406788e+07
   4.3714572e-10  -1.2768149e-02   3.2398216e+00   1.1995700e+00  -7.2005729e+07
   4.3814605e-10  -1.2696321e-02   3.2339990e+00   1.2041256e+00  -7.1606822e+07
   4.3914638e-10  -1.2624890e-02   3.2282058e+00   1.2086683e+00  -7.1210058e+07
   4.4014672e-10  -1.2553855e-02   3.2224419e+00   1.2131978e+00  -7.0815425e+07
   4.4114705e-10  -1.2483213e-02   3.2167072e+00   1.2177141e+00  -7.0422912e+07
   4.4214738e-10  -1.2412964e-02   3.2110017e+00   1.2222172e+00  -7.0032509e+07
   4.4314772e-10  -1.2343103e-02   3.2053251e+00   1.2267071e+00  -6.9644206e+07
   4.4414805e-10  -1.2273630e-02   3.1996775e+00   1.2311836e+00  -6.9257991e+07
   4.4514838e-10  -1.2204543e-02   3.1940587e+00   1.2356466e+00  -6.8873855e+07
   4.4614872e-10  -1.2135838e-02   3.1884687e+00   1.2400963e+00  -6.8491787e+07
   4.4714905e-10  -1.2067515e-02   3.1829073e+00   1.2445324e+00  -6.8111777e+07
   4.4814938e-10  -1.1999571e-02   3.1773745e+00   1.2489549e+00  -6.7733814e+07
   4.4914972e-10  -1.1932004e-02   3.1718701e+00   1.2533638e+00  -6.7357888e+07
   4.5015005e-10  -1.1864811e-02   3.1663940e+00   1.2577591e+00  -6.6983988e+07
   4.5115038e-10  -1.1797992e-02   3.1609463e+00   1.2621406e+00  -6.6612106e+07
   4.5215072e-10  -1.1731544e-02   3.1555266e+00   1.2665084e+00  -6.6242229e+07
   4.5315105e-10  -1.1665465e-02   3.1501351e+00   1.2708624e+00  -6.5874349e+07
   4.5415138e-10  -1.1599753e-02   3.1447715e+00   1.2752025e+00  -6.5508455e+07
   4.5515172e-10  -1.1534405e-02   3.1394357e+00   1.2795288e+00  -6.5144537e+07
   4.5615205e-10  -1.1469421e-02   3.1341277e+00   1.2838411e+00  -6.4782585e+07
   4.5715238e-10  -1.1404798e-02   3.1288474e+00   1.2881395e+00  -6.4422590e+07
   4.5815272e-10  -1.1340534e-02   3.1235946e+00   1.2924238e+00  -6.4064540e+07
   4.5915305e-10  -1.1276627e-02   3.1183692e+00   1.2966941e+00  -6.3708427e+07
   4.6015338e-10  -1.1213076e-02   3.1131712e+00   1.3009503e+00  -6.3354240e+07
   4.6115372e-10  -1.1149878e-02   3.1080005e+00   1.3051924e+00  -6.3001970e+07
   4.6215405e-10  -1.1087031e-02   3.1028569e+00   1.3094204e+00  -6.2651606e+07
   4.6315438e-10  -1.1024533e-02   3.0977403e+00   1.3136342e+00  -6.2303140e+07
   4.6415472e-10  -1.0962384e-02   3.0926506e+00   1.3178337e+00  -6.1956562e+07
   4.6515505e-10  -1.0900580e-02   3.0875878e+00   1.3220191e+00  -6.1611861e+07
   4.6615539e-10  -1.0839120e-02   3.0825517e+00   1.3261902e+00  -6.1269028e+07
   4.6715572e-10  -1.0778002e-02   3.0775423e+00   1.3303470e+00  -6.0928054e+07
   4.6815605e-10  -1.0717224e-02   3.0725593e+00   1.3344894e+00  -6.0588929e+07
   4.6915639e-10  -1.0656784e-02   3.0676028e+00   1.3386176e+00  -6.0251644e+07
   4.7015672e-10  -1.0596681e-02   3.0626725e+00   1.3427314e+00  -5.9916189e+07
   4.7115705e-10  -1.0536912e-02   3.0577685e+00   1.3468308e+00  -5.9582555e+07
   4.7215739e-10  -1.0477477e-02   3.0528905e+00   1.3509158e+00  -5.9250733e+07
   4.7315772e-10  -1.0418372e-02   3.0480386e+00   1.3549863e+00  -5.8920712e+07
   4.7415805e-10  -1.0359597e-02   3.0432125e+00   1.3590425e+00  -5.8592485e+07
   4.7515839e-10  -1.0301149e-02   3.0384121e+00   1.3630842e+00  -5.8266041e+07
   4.7615872e-10  -1.0243026e-02   3.0336375e+00   1.3671114e+00  -5.7941372e+07
   4.7715905e-10  -1.0185228e-02   3.0288884e+00   1.3711241e+00  -5.7618468e+07
   4.7815939e-10  -1.0127751e-02   3.0241647e+00   1.3751224e+00  -5.7297320e+07
   4.7915972e-10  -1.0070595e-02   3.0194664e+00   1.3791061e+00  -5.6977920e+07
   4.8016005e-10  -1.0013758e-02   3.0147934e+00   1.3830753e+00  -5.6660258e+07
   4.8116039e-10  -9.9572373e-03   3.0101454e+00   1.3870300e+00  -5.6344324e+07
   4.8216072e-10  -9.9010319e-03   3.0055225e+00   1.3909701e+00  -5.6030112e+07
   4.8316105e-10  -9.8451400e-03   3.0009245e+00   1.3948957e+00  -5.5717610e+07
   4.8416139e-10  -9.7895598e-03   2.9963513e+00   1.3988067e+00  -5.5406811e+07
   4.8516172e-10  -9.7342897e-03   2.9918028e+00   1.4027032e+00  -5.5097705e+07
   4.8616205e-10  -9.6793280e-03   2.9872789e+00   1.4065850e+00  -5.4790284e+07
   4.8716239e-10  -9.6246729e-03   2.9827795e+00   1.4104524e+00  -5.4484540e+07
   4.8816272e-10  -9.5703228e-03   2.9783045e+00   1.4143051e+00  -5.4180462e+07
   4.8916305e-10  -9.5162760e-03   2.9738537e+00   1.4181433e+00  -5.3878044e+07
   4.9016339e-10  -9.4625309e-03   2.9694271e+00   1.4219668e+00  -5.3577275e+07
   4.9116372e-10  -9.4090859e-03   2.9650245e+00   1.4257758e+00  -5.3278148e+07
   4.9216405e-10  -9.3559392e-03   2.9606459e+00   1.4295703e+00  -5.2980654e+07
   4.9316439e-10  -9.3030894e-03   2.9562912e+00   1.4333501e+00  -5.2684784e+07
   4.9416472e-10  -9.2505347e-03   2.9519601e+00   1.4371154e+00  -5.2390531e+07
   4.9516506e-10  -9.1982735e-03   2.9476527e+00   1.4408661e+00  -5.2097885e+07
   4.9616539e-10  -9.1463042e-03   2.9433688e+00   1.4446022e+00  -5.1806838e+07
   4.9716572e-10  -9.0946253e-03   2.9391083e+00   1.4483237e+00  -5.1517381e+07
   4.9816606e-10  -9.0432351e-03   2.9348711e+00   1.4520307e+00  -5.1229508e+07
   4.9916639e-10  -8.9921321e-03   2.9306571e+00   1.4557232e+00  -5.0943208e+07
   5.0016672e-10  -8.9413147e-03   2.9264662e+00   1.4594010e+00  -5.0658475e+07
   5.0116706e-10  -8.8907814e-03   2.9222983e+00   1.4630644e+00  -5.0375299e+07
   5.0216739e-10  -8.8405305e-03   2.9181532e+00   1.4667132e+00  -5.0093673e+07
   5.0316772e-10  -8.7905606e-03   2.9140310e+00   1.4703475e+00  -4.9813588e+07
   5.0416806e-10  -8.7408701e-03   2.9099313e+00   1.4739673e+00  -4.9535037e+07
   5.0516839e-10  -8.6914574e-03   2.9058543e+00   1.4775726e+00  -4.9258011e+07
   5.0616872e-10  -8.6423211e-03   2.9017996e+00   1.4811633e+00  -4.8982503e+07
   5.0716906e-10  -8.5934596e-03   2.8977674e+00   1.4847396e+00  -4.8708504e+07
   5.0816939e-10  -8.5448715e-03   2.8937573e+00   1.4883015e+00  -4.8436007e+07
   5.0916972e-10  -8.4965552e-03   2.8897694e+00   1.4918489e+00  -4.8165003e+07
   5.1017006e-10  -8.4485092e-03   2.8858035e+00   1.4953818e+00  -4.7895484e+07
   5.1117039e-10  -8.4007321e-03   2.8818596e+00   1.4989004e+00  -4.7627444e+07
   5.1217072e-10  -8.3532224e-03   2.8779374e+00   1.5024045e+00  -4.7360874e+07
   5.1317106e-10  -8.3059786e-03   2.8740370e+00   1.5058942e+00  -4.7095766e+07
   5.1417139e-10  -8.2589993e-03   2.8701581e+00   1.5093696e+00  -4.6832113e+07
   5.1517172e-10  -8.2122830e-03   2.8663008e+00   1.5128306e+00  -4.6569907e+07
   5.1617206e-10  -8.1658282e-03   2.8624649e+00   1.5162773e+00  -4.6309141e+07
   5.1717239e-10  -8.1196336e-03   2.8586502e+00   1.5197096e+00  -4.6049806e+07
   5.1817272e-10  -8.0736976e-03   2.8548568e+00   1.5231277e+00  -4.5791895e+07
   5.1917306e-10  -8.0280190e-03   2.8510844e+00   1.5265314e+00  -4.5535401e+07
   5.2017339e-10  -7.9825962e-03   2.8473330e+00   1.5299209e+00  -4.5280317e+07
   5.2117372e-10  -7.9374279e-03   2.8436025e+00   1.5332962e+00  -4.5026634e+07
   5.2217406e-10  -7.8925127e-03   2.8398928e+00   1.5366572e+00  -4.4774345e+07
   5.2317439e-10  -7.8478491e-03   2.8362037e+00   1.5400041e+00  -4.4523444e+07
   5.2417472e-10  -7.8034358e-03   2.8325352e+00   1.5433368e+00  -4.4273922e+07
   5.2517506e-10  -7.7592714e-03   2.8288872e+00   1.5466553e+00  -4.4025772e+07
   5.2617539e-10  -7.7153546e-03   2.8252595e+00   1.5499597e+00  -4.3778988e+07
   5.2717573e-10  -7.6716839e-03   2.8216521e+00   1.5532500e+00  -4.3533561e+07
   5.2817606e-10  -7.6282581e-03   2.8180649e+00   1.5565263e+00  -4.3289485e+07
   5.2917639e-10  -7.5850757e-03   2.8144977e+00   1.5597884e+00  -4.3046752e+07
   5.3017673e-10  -7.5421355e-03   2.8109505e+00   1.5630366e+00  -4.2805356e+07
   5.3117706e-10  -7.4994361e-03   2.8074231e+00   1.5662707e+00  -4.2565289e+07
   5.3217739e-10  -7.4569762e-03   2.8039155e+00   1.5694909e+00  -4.2326544e+07
   5.3317773e-10  -7.4147545e-03   2.8004276e+00   1.5726971e+00  -4.2089115e+07
   5.3417806e-10  -7.3727696e-03   2.7969592e+00   1.5758895e+00  -4.1852993e+07
   5.3517839e-10  -7.3310202e-03   2.7935103e+00   1.5790679e+00  -4.1618173e+07
   5.3617873e-10  -7.2895051e-03   2.7900807e+00   1.5822324e+00  -4.1384647e+07
   5.3717906e-10  -7.2482229e-03   2.7866704e+00   1.5853832e+00  -4.1152408e+07
   5.3817939e-10  -7.2071724e-03   2.7832793e+00   1.5885201e+00  -4.0921450e+07
   5.3917973e-10  -7.1663523e-03   2.7799072e+00   1.5916432e+00  -4.0691766e+07
   5.4018006e-10  -7.1257613e-03   2.7765541e+00   1.5947526e+00  -4.0463349e+07
   5.4118039e-10  -7.0853982e-03   2.7732199e+00   1.5978483e+00  -4.0236192e+07
   5.4218073e-10  -7.0452617e-03   2.7699045e+00   1.6009303e+00  -4.0010288e+07
   5.4318106e-10  -7.0053505e-03   2.7666077e+00   1.6039987e+00  -3.9785631e+07
   5.4418139e-10  -6.9656635e-03   2.7633295e+00   1.6070534e+00  -3.9562214e+07
   5.4518173e-10  -6.9261993e-03   2.7600698e+00   1.6100945e+00  -3.9340031e+07
   5.4618206e-10  -6.8869567e-03   2.7568284e+00   1.6131221e+00  -3.9119074e+07
   5.4718239e-10  -6.8479346e-03   2.7536054e+00   1.6161362e+00  -3.8899338e+07
   5.4818273e-10  -6.8091317e-03   2.7504006e+00   1.6191367e+00  -3.8680816e+07
   5.4918306e-10  -6.7705467e-03   2.7472138e+00   1.6221238e+00  -3.8463501e+07
   5.5018339e-10  -6.7321786e-03   2.7440451e+00   1.6250975e+00  -3.8247387e+07
   5.5118373e-10  -6.6940260e-03   2.7408943e+00   1.6280578e+00  -3.8032468e+07
   5.5218406e-10  -6.6560878e-03   2.7377613e+00   1.6310047e+00  -3.7818736e+07
   5.5318439e-10  -6.6183628e-03   2.7346460e+00   1.6339383e+00  -3.7606187e+07
   5.5418473e-10  -6.5808499e-03   2.7315483e+00   1.6368587e+00  -3.7394812e+07
   5.5518506e-10  -6.5435478e-03   2.7284682e+00   1.6397657e+00  -3.7184607e+07
   5.5618540e-10  -6.5064554e-03   2.7254056e+00   1.6426596e+00  -3.6975565e+07
   5.5718573e-10  -6.4695715e-03   2.7223602e+00   1.6455402e+00  -3.6767679e+07
   5.5818606e-10  -6.4328951e-03   2.7193322e+00   1.6484077e+00  -3.6560943e+07
   5.5918640e-10  -6.3964248e-03   2.7163213e+00   1.6512621e+00  -3.6355352e+07
   5.6018673e-10  -6.3601596e-03   2.7133275e+00   1.6541035e+00  -3.6150899e+07
   5.6118706e-10  -6.3240984e-03   2.7103507e+00   1.6569317e+00  -3.5947578e+07
   5.6218740e-10  -6.2882400e-03   2.7073908e+00   1.6597470e+00  -3.5745383e+07
   5.6318773e-10  -6.2525833e-03   2.7044477e+00   1.6625493e+00  -3.5544307e+07
   5.6418806e-10  -6.2171272e-03   2.7015213e+00   1.6653387e+00  -3.5344346e+07
   5.6518840e-10  -6.1818705e-03   2.6986116e+00   1.6681152e+00  -3.5145492e+07
   5.6618873e-10  -6.1468123e-03   2.6957183e+00   1.6708789e+00  -3.4947740e+07
   5.6718906e-10  -6.1119513e-03   2.6928416e+00   1.6736297e+00  -3.4751084e+07
   5.6818940e-10  -6.0772864e-03   2.6899812e+00   1.6763678e+00  -3.4555518e+07
   5.6918973e-10  -6.0428167e-03   2.6871371e+00   1.6790931e+00  -3.4361036e+07
   5.7019006e-10  -6.0085409e-03   2.6843091e+00   1.6818057e+00  -3.4167633e+07
   5.7119040e-10  -5.9744581e-03   2.6814973e+00   1.6845056e+00  -3.3975302e+07
   5.7219073e-10  -5.9405672e-03   2.6787014e+00   1.6871929e+00  -3.3784038e+07
   5.7319106e-10  -5.9068670e-03   2.6759215e+00   1.6898677e+00  -3.3593835e+07
   5.7419140e-10  -5.8733566e-03   2.6731575e+00   1.6925299e+00  -3.3404687e+07
   5.7519173e-10  -5.8400348e-03   2.6704092e+00   1.6951796e+00  -3.3216589e+07
   5.7619206e-10  -5.8069007e-03   2.6676765e+00   1.6978168e+00  -3.3029534e+07
   5.7719240e-10  -5.7739532e-03   2.6649595e+00   1.7004416e+00  -3.2843518e+07
   5.7819273e-10  -5.7411913e-03   2.6622579e+00   1.7030540e+00  -3.2658535e+07
   5.7919306e-10  -5.7086139e-03   2.6595718e+00   1.7056540e+00  -3.2474579e+07
   5.8019340e-10  -5.6762199e-03   2.6569010e+00   1.7082418e+00  -3.2291644e+07
   5.8119373e-10  -5.6440085e-03   2.6542455e+00   1.7108173e+00  -3.2109726e+07
   5.8219406e-10  -5.6119786e-03   2.6516051e+00   1.7133805e+00  -3.1928818e+07
   5.8319440e-10  -5.5801291e-03   2.6489798e+00   1.7159316e+00  -3.1748915e+07
   5.8419473e-10  -5.5484590e-03   2.6463694e+00   1.7184705e+00  -3.1570012e+07
   5.8519507e-10  -5.5169675e-03   2.6437741e+00   1.7209973e+00  -3.1392103e+07
   5.8619540e-10  -5.4856534e-03   2.6411935e+00   1.7235120e+00  -3.1215183e+07
   5.8719573e-10  -5.4545158e-03   2.6386277e+00   1.7260148e+00  -3.1039246e+07
   5.8819607e-10  -5.4235537e-03   2.6360766e+00   1.7285055e+00  -3.0864288e+07
   5.8919640e-10  -5.3927661e-03   2.6335400e+00   1.7309843e+00  -3.0690302e+07
   5.9019673e-10  -5.3621521e-03   2.6310180e+00   1.7334512e+00  -3.0517285e+07
   5.9119707e-10  -5.3317107e-03   2.6285104e+00   1.7359062e+00  -3.0345229e+07
   5.9219740e-10  -5.3014409e-03   2.6260172e+00   1.7383494e+00  -3.0174131e+07
   5.9319773e-10  -5.2713418e-03   2.6235382e+00   1.7407808e+00  -3.0003985e+07
   5.9419807e-10  -5.2414124e-03   2.6210735e+00   1.7432005e+00  -2.9834786e+07
   5.9519840e-10  -5.2116518e-03   2.6186228e+00   1.7456085e+00  -2.9666528e+07
   5.9619873e-10  -5.1820590e-03   2.6161862e+00   1.7480048e+00  -2.9499207e+07
   5.9719907e-10  -5.1526332e-03   2.6137636e+00   1.7503896e+00  -2.9332817e+07
   5.9819940e-10  -5.1233733e-03   2.6113548e+00   1.7527627e+00  -2.9167354e+07
   5.9919973e-10  -5.0942785e-03   2.6089599e+00   1.7551243e+00  -2.9002812e+07
   6.0020007e-10  -5.0653478e-03   2.6065786e+00   1.7574745e+00  -2.8839187e+07
   6.0120040e-10  -5.0365804e-03   2.6042111e+00   1.7598132e+00  -2.8676473e+07
   6.0220073e-10  -5.0079753e-03   2.6018571e+00   1.7621405e+00  -2.8514666e+07
   6.0320107e-10  -4.9795315e-03   2.5995166e+00   1.7644564e+00  -2.8353760e+07
   6.0420140e-10  -4.9512483e-03   2.5971895e+00   1.7667610e+00  -2.8193751e+07
   6.0520173e-10  -4.9231247e-03   2.5948758e+00   1.7690543e+00  -2.8034633e+07
   6.0620207e-10  -4.8951598e-03   2.5925754e+00   1.7713364e+00  -2.7876403e+07
   6.0720240e-10  -4.8673528e-03   2.5902882e+00   1.7736073e+00  -2.7719055e+07
   6.0820273e-10  -4.8397027e-03   2.5880141e+00   1.7758670e+00  -2.7562584e+07
   6.0920307e-10  -4.8122088e-03   2.5857531e+00   1.7781156e+00  -2.7406985e+07
   6.1020340e-10  -4.7848700e-03   2.5835050e+00   1.7803532e+00  -2.7252254e+07
   6.1120373e-10  -4.7576856e-03   2.5812699e+00   1.7825797e+00  -2.7098386e+07
   6.1220407e-10  -4.7306546e-03   2.5790476e+00   1.7847953e+00  -2.6945377e+07
   6.1320440e-10  -4.7037764e-03   2.5768381e+00   1.7869999e+00  -2.6793221e+07
   6.1420473e-10  -4.6770498e-03   2.5746413e+00   1.7891936e+00  -2.6641915e+07
   6.1520507e-10  -4.6504743e-03   2.5724571e+00   1.7913764e+00  -2.6491452e+07
   6.1620540e-10  -4.6240488e-03   2.5702854e+00   1.7935484e+00  -2.6341830e+07
   6.1720574e-10  -4.5977725e-03   2.5681263e+00   1.7957097e+00  -2.6193042e+07
   6.1820607e-10  -4.5716447e-03   2.5659795e+00   1.7978602e+00  -2.6045086e+07
   6.1920640e-10  -4.5456645e-03   2.5638451e+00   1.8000000e+00  -2.5897955e+07
   6.2020674e-10  -4.5198311e-03   2.5617230e+00   1.8021292e+00  -2.5751646e+07
   6.2120707e-10  -4.4941435e-03   2.5596131e+00   1.8042478e+00  -2.5606154e+07
   6.2220740e-10  -4.4686012e-03   2.5575153e+00   1.8063558e+00  -2.5461475e+07
   6.2320774e-10  -4.4432031e-03   2.5554296e+00   1.8084533e+00  -2.5317604e+07
   6.2420807e-10  -4.4179486e-03   2.5533559e+00   1.8105403e+00  -2.5174537e+07
   6.2520840e-10  -4.3928368e-03   2.5512941e+00   1.8126169e+00  -2.5032269e+07
   6.2620874e-10  -4.3678669e-03   2.5492442e+00   1.8146830e+00  -2.4890796e+07
   6.2720907e-10  -4.3430381e-03   2.5472061e+00   1.8167388e+00  -2.4750114e+07
   6.2820940e-10  -4.3183497e-03   2.5451797e+00   1.8187843e+00  -2.4610218e+07
   6.2920974e-10  -4.2938008e-03   2.5431650e+00   1.8208196e+00  -2.4471104e+07
   6.3021007e-10  -4.2693907e-03   2.5411619e+00   1.8228446e+00  -2.4332768e+07
   6.3121040e-10  -4.2451186e-03   2.5391703e+00   1.8248594e+00  -2.4195206e+07
   6.3221074e-10  -4.2209837e-03   2.5371902e+00   1.8268641e+00  -2.4058413e+07
   6.3321107e-10  -4.1969852e-03   2.5352215e+00   1.8288586e+00  -2.3922385e+07
   6.3421140e-10  -4.1731225e-03   2.5332641e+00   1.8308431e+00  -2.3787118e+07
   6.3521174e-10  -4.1493946e-03   2.5313180e+00   1.8328176e+00  -2.3652607e+07
   6.3621207e-10  -4.1258010e-03   2.5293832e+00   1.8347821e+00  -2.3518849e+07
   6.3721240e-10  -4.1023408e-03   2.5274594e+00   1.8367367e+00  -2.3385840e+07
   6.3821274e-10  -4.0790133e-03   2.5255468e+00   1.8386814e+00  -2.3253575e+07
   6.3921307e-10  -4.0558177e-03   2.5236452e+00   1.8406162e+00  -2.3122050e+07
   6.4021340e-10  -4.0327533e-03   2.5217545e+00   1.8425412e+00  -2.2991261e+07
   6.4121374e-10  -4.0098194e-03   2.5198748e+00   1.8444564e+00  -2.2861205e+07
   6.4221407e-10  -3.9870152e-03   2.5180059e+00   1.8463619e+00  -2.2731877e+07
   6.4321440e-10  -3.9643400e-03   2.5161477e+00   1.8482577e+00  -2.2603272e+07
   6.4421474e-10  -3.9417931e-03   2.5143003e+00   1.8501439e+00  -2.2475388e+07
   6.4521507e-10  -3.9193738e-03   2.5124635e+00   1.8520205e+00  -2.2348221e+07
   6.4621541e-10  -3.8970813e-03   2.5106373e+00   1.8538874e+00  -2.2221765e+07
   6.4721574e-10  -3.8749150e-03   2.5088216e+00   1.8557449e+00  -2.2096018e+07
   6.4821607e-10  -3.8528741e-03   2.5070164e+00   1.8575929e+00  -2.1970976e+07
   6.4921641e-10  -3.8309580e-03   2.5052217e+00   1.8594314e+00  -2.1846634e+07
   6.5021674e-10  -3.8091658e-03   2.5034372e+00   1.8612605e+00  -2.1722988e+07
   6.5121707e-10  -3.7874971e-03   2.5016631e+00   1.8630803e+00  -2.1600036e+07
   6.5221741e-10  -3.7659509e-03   2.4998992e+00   1.8648907e+00  -2.1477773e+07
   6.5321774e-10  -3.7445268e-03   2.4981455e+00   1.8666919e+00  -2.1356195e+07
   6.5421807e-10  -3.7232239e-03   2.4964019e+00   1.8684838e+00  -2.1235299e+07
   6.5521841e-10  -3.7020416e-03   2.4946683e+00   1.8702665e+00  -2.1115081e+07
   6.5621874e-10  -3.6809792e-03   2.4929448e+00   1.8720401e+00  -2.0995536e+07
   6.5721907e-10  -3.6600361e-03   2.4912312e+00   1.8738045e+00  -2.0876663e+07
   6.5821941e-10  -3.6392115e-03   2.4895275e+00   1.8755599e+00  -2.0758455e+07
   6.5921974e-10  -3.6185049e-03   2.4878336e+00   1.8773062e+00  -2.0640911e+07
   6.6022007e-10  -3.5979155e-03   2.4861495e+00   1.8790435e+00  -2.0524026e+07
   6.6122041e-10  -3.5774428e-03   2.4844751e+00   1.8807719e+00  -2.0407797e+07
   6.6222074e-10  -3.5570859e-03   2.4828104e+00   1.8824913e+00  -2.0292220e+07
   6.6322107e-10  -3.5368444e-03   2.4811553e+00   1.8842018e+00  -2.0177292e+07
   6.6422141e-10  -3.5167175e-03   2.4795097e+00   1.8859035e+00  -2.0063008e+07
   6.6522174e-10  -3.4967046e-03   2.4778737e+00   1.8875964e+00  -1.9949366e+07
   6.6622207e-10  -3.4768050e-03   2.4762470e+00   1.8892806e+00  -1.9836362e+07
   6.6722241e-10  -3.4570182e-03   2.4746298e+00   1.8909560e+00  -1.9723992e+07
   6.6822274e-10  -3.4373435e-03   2.4730219e+00   1.8926227e+00  -1.9612253e+07
   6.6922307e-10  -3.4177802e-03   2.4714233e+00   1.8942808e+00  -1.9501142e+07
   6.7022341e-10  -3.3983278e-03   2.4698340e+00   1.8959303e+00  -1.9390654e+07
   6.7122374e-10  -3.3789856e-03   2.4682538e+00   1.8975712e+00  -1.9280787e+07
   6.7222407e-10  -3.3597530e-03   2.4666827e+00   1.8992035e+00  -1.9171537e+07
   6.7322441e-10  -3.3406293e-03   2.4651207e+00   1.9008274e+00  -1.9062900e+07
   6.7422474e-10  -3.3216141e-03   2.4635677e+00   1.9024429e+00  -1.8954874e+07
   6.7522508e-10  -3.3027066e-03   2.4620237e+00   1.9040499e+00  -1.8847454e+07
   6.7622541e-10  -3.2839062e-03   2.4604886e+00   1.9056485e+00  -1.8740638e+07
   6.7722574e-10  -3.2652124e-03   2.4589624e+00   1.9072388e+00  -1.8634423e+07
   6.7822608e-10  -3.2466246e-03   2.4574450e+00   1.9088208e+00  -1.8528804e+07
   6.7922641e-10  -3.2281421e-03   2.4559363e+00   1.9103946e+00  -1.8423779e+07
   6.8022674e-10  -3.2097644e-03   2.4544364e+00   1.9119601e+00  -1.8319344e+07
   6.8122708e-10  -3.1914908e-03   2.4529451e+00   1.9135174e+00  -1.8215496e+07
   6.8222741e-10  -3.1733208e-03   2.4514624e+00   1.9150666e+00  -1.8112232e+07
   6.8322774e-10  -3.1552539e-03   2.4499883e+00   1.9166077e+00  -1.8009548e+07
   6.8422808e-10  -3.1372894e-03   2.4485228e+00   1.9181407e+00  -1.7907442e+07
   6.8522841e-10  -3.1194267e-03   2.4470656e+00   1.9196657e+00  -1.7805910e+07
   6.8622874e-10  -3.1016653e-03   2.4456169e+00   1.9211826e+00  -1.7704949e+07
   6.8722908e-10  -3.0840046e-03   2.4441766e+00   1.9226916e+00  -1.7604556e+07
   6.8822941e-10  -3.0664441e-03   2.4427446e+00   1.9241927e+00  -1.7504727e+07
   6.8922974e-10  -3.0489832e-03   2.4413209e+00   1.9256859e+00  -1.7405460e+07
   6.9023008e-10  -3.0316212e-03   2.4399053e+00   1.9271713e+00  -1.7306751e+07
   6.9123041e-10  -3.0143578e-03   2.4384980e+00   1.9286488e+00  -1.7208598e+07
   6.9223074e-10  -2.9971922e-03   2.4370988e+00   1.9301186e+00  -1.7110997e+07
   6.9323108e-10  -2.9801240e-03   2.4357077e+00   1.9315806e+00  -1.7013945e+07
   6.9423141e-10  -2.9631526e-03   2.4343246e+00   1.9330349e+00  -1.6917440e+07
   6.9523174e-10  -2.9462775e-03   2.4329495e+00   1.9344815e+00  -1.6821477e+07
   6.9623208e-10  -2.9294981e-03   2.4315823e+00   1.9359206e+00  -1.6726055e+07
   6.9723241e-10  -2.9128139e-03   2.4302231e+00   1.9373520e+00  -1.6631170e+07
   6.9823274e-10  -2.8962244e-03   2.4288717e+00   1.9387758e+00  -1.6536819e+07
   6.9923308e-10  -2.8797289e-03   2.4275281e+00   1.9401922e+00  -1.6442999e+07
   7.0023341e-10  -2.8633271e-03   2.4261923e+00   1.9416010e+00  -1.6349707e+07
   7.0123374e-10  -2.8470183e-03   2.4248641e+00   1.9430024e+00  -1.6256941e+07
   7.0223408e-10  -2.8308020e-03   2.4235437e+00   1.9443964e+00  -1.6164697e+07
   7.0323441e-10  -2.8146778e-03   2.4222309e+00   1.9457830e+00  -1.6072973e+07
   7.0423474e-10  -2.7986450e-03   2.4209257e+00   1.9471623e+00  -1.5981765e+07
   7.0523508e-10  -2.7827033e-03   2.4196280e+00   1.9485342e+00  -1.5891071e+07
   7.0623541e-10  -2.7668520e-03   2.4183378e+00   1.9498989e+00  -1.5800888e+07
   7.0723575e-10  -2.7510906e-03   2.4170551e+00   1.9512563e+00  -1.5711213e+07
   7.0823608e-10  -2.7354188e-03   2.4157797e+00   1.9526065e+00  -1.5622044e+07
   7.0923641e-10  -2.7198358e-03   2.4145118e+00   1.9539496e+00  -1.5533376e+07
   7.1023675e-10  -2.7043413e-03   2.4132512e+00   1.9552855e+00  -1.5445209e+07
   7.1123708e-10  -2.6889348e-03   2.4119978e+00   1.9566143e+00  -1.5357538e+07
   7.1223741e-10  -2.6736157e-03   2.4107517e+00   1.9579360e+00  -1.5270361e+07
   7.1323775e-10  -2.6583836e-03   2.4095128e+00   1.9592507e+00  -1.5183676e+07
   7.1423808e-10  -2.6432379e-03   2.4082811e+00   1.9605584e+00  -1.5097479e+07
   7.1523841e-10  -2.6281783e-03   2.4070564e+00   1.9618592e+00  -1.5011768e+07
   7.1623875e-10  -2.6132041e-03   2.4058389e+00   1.9631530e+00  -1.4926541e+07
   7.1723908e-10  -2.5983149e-03   2.4046284e+00   1.9644399e+00  -1.4841794e+07
   7.1823941e-10  -2.5835103e-03   2.4034248e+00   1.9657199e+00  -1.4757525e+07
   7.1923975e-10  -2.5687898e-03   2.4022283e+00   1.9669931e+00  -1.4673731e+07
   7.2024008e-10  -2.5541528e-03   2.4010386e+00   1.9682596e+00  -1.4590409e+07
   7.2124041e-10  -2.5395989e-03   2.3998558e+00   1.9695192e+00  -1.4507558e+07
   7.2224075e-10  -2.5251277e-03   2.3986799e+00   1.9707721e+00  -1.4425174e+07
   7.2324108e-10  -2.5107387e-03   2.3975107e+00   1.9720183e+00  -1.4343254e+07
   7.2424141e-10  -2.4964314e-03   2.3963483e+00   1.9732579e+00  -1.4261797e+07
   7.2524175e-10  -2.4822053e-03   2.3951926e+00   1.9744908e+00  -1.4180799e+07
   7.2624208e-10  -2.4680600e-03   2.3940436e+00   1.9757171e+00  -1.4100258e+07
   7.2724241e-10  -2.4539951e-03   2.3929012e+00   1.9769369e+00  -1.4020172e+07
   7.2824275e-10  -2.4400101e-03   2.3917655e+00   1.9781501e+00  -1.3940537e+07
   7.2924308e-10  -2.4261045e-03   2.3906363e+00   1.9793568e+00  -1.3861352e+07
   7.3024341e-10  -2.4122779e-03   2.3895136e+00   1.9805570e+00  -1.3782614e+07
   7.3124375e-10  -2.3985298e-03   2.3883974e+00   1.9817508e+00  -1.3704320e+07
   7.3224408e-10  -2.3848598e-03   2.3872876e+00   1.9829382e+00  -1.3626469e+07
   7.3324441e-10  -2.3712675e-03   2.3861843e+00   1.9841192e+00  -1.3549056e+07
   7.3424475e-10  -2.3577524e-03   2.3850873e+00   1.9852938e+00  -1.3472081e+07
   7.3524508e-10  -2.3443141e-03   2.3839967e+00   1.9864622e+00  -1.3395540e+07
   7.3624542e-10  -2.3309522e-03   2.3829124e+00   1.9876243e+00  -1.3319431e+07
   7.3724575e-10  -2.3176661e-03   2.3818343e+00   1.9887801e+00  -1.3243752e+07
   7.3824608e-10  -2.3044556e-03   2.3807624e+00   1.9899297e+00  -1.3168501e+07
   7.3924642e-10  -2.2913201e-03   2.3796968e+00   1.9910731e+00  -1.3093674e+07
   7.4024675e-10  -2.2782592e-03   2.3786373e+00   1.9922103e+00  -1.3019270e+07
   7.4124708e-10  -2.2652726e-03   2.3775839e+00   1.9933414e+00  -1.2945287e+07
   7.4224742e-10  -2.2523598e-03   2.3765366e+00   1.9944665e+00  -1.2871721e+07
   7.4324775e-10  -2.2395204e-03   2.3754954e+00   1.9955854e+00  -1.2798570e+07
   7.4424808e-10  -2.2267539e-03   2.3744602e+00   1.9966983e+00  -1.2725833e+07
   7.4524842e-10  -2.2140600e-03   2.3734309e+00   1.9978053e+00  -1.2653507e+07
   7.4624875e-10  -2.2014382e-03   2.3724076e+00   1.9989062e+00  -1.2581590e+07
   7.4724908e-10  -2.1888882e-03   2.3713902e+00   2.0000012e+00  -1.2510078e+07
   7.4824942e-10  -2.1764095e-03   2.3703787e+00   2.0010903e+00  -1.2438971e+07
   7.4924975e-10  -2.1640017e-03   2.3693730e+00   2.0021735e+00  -1.2368266e+07
   7.5025008e-10  -2.1516645e-03   2.3683732e+00   2.0032508e+00  -1.2297960e+07
   7.5125042e-10  -2.1393974e-03   2.3673791e+00   2.0043223e+00  -1.2228052e+07
   7.5225075e-10  -2.1272000e-03   2.3663907e+00   2.0053880e+00  -1.2158539e+07
   7.5325108e-10  -2.1150720e-03   2.3654081e+00   2.0064480e+00  -1.2089419e+07
   7.5425142e-10  -2.1030129e-03   2.3644311e+00   2.0075022e+00  -1.2020689e+07
   7.5525175e-10  -2.0910223e-03   2.3634598e+00   2.0085507e+00  -1.1952348e+07
   7.5625208e-10  -2.0791000e-03   2.3624941e+00   2.0095935e+00  -1.1884393e+07
   7.5725242e-10  -2.0672454e-03   2.3615339e+00   2.0106306e+00  -1.1816823e+07
   7.5825275e-10  -2.0554583e-03   2.3605794e+00   2.0116622e+00  -1.1749634e+07
   7.5925308e-10  -2.0437381e-03   2.3596303e+00   2.0126881e+00  -1.1682826e+07
   7.6025342e-10  -2.0320846e-03   2.3586867e+00   2.0137085e+00  -1.1616395e+07
   7.6125375e-10  -2.0204974e-03   2.3577485e+00   2.0147233e+00  -1.1550340e+07
   7.6225408e-10  -2.0089760e-03   2.3568158e+00   2.0157327e+00  -1.1484659e+07
   7.6325442e-10  -1.9975202e-03   2.3558884e+00   2.0167365e+00  -1.1419349e+07
   7.6425475e-10  -1.9861295e-03   2.3549664e+00   2.0177349e+00  -1.1354408e+07
   7.6525509e-10  -1.9748036e-03   2.3540497e+00   2.0187279e+00  -1.1289835e+07
   7.6625542e-10  -1.9635421e-03   2.3531384e+00   2.0197155e+00  -1.1225627e+07
   7.6725575e-10  -1.9523447e-03   2.3522322e+00   2.0206976e+00  -1.1161783e+07
   7.6825609e-10  -1.9412109e-03   2.3513314e+00   2.0216745e+00  -1.1098299e+07
   7.6925642e-10  -1.9301405e-03   2.3504357e+00   2.0226460e+00  -1.1035175e+07
   7.7025675e-10  -1.9191330e-03   2.3495451e+00   2.0236123e+00  -1.0972408e+07
   7.7125709e-10  -1.9081882e-03   2.3486598e+00   2.0245733e+00  -1.0909996e+07
   7.7225742e-10  -1.8973056e-03   2.3477795e+00   2.0255290e+00  -1.0847937e+07
   7.7325775e-10  -1.8864849e-03   2.3469043e+00   2.0264796e+00  -1.0786230e+07
   7.7425809e-10  -1.8757258e-03   2.3460342e+00   2.0274249e+00  -1.0724872e+07
   7.7525842e-10  -1.8650278e-03   2.3451691e+00   2.0283651e+00  -1.0663861e+07
   7.7625875e-10  -1.8543907e-03   2.3443089e+00   2.0293002e+00  -1.0603195e+07
   7.7725909e-10  -1.8438142e-03   2.3434538e+00   2.0302302e+00  -1.0542873e+07
   7.7825942e-10  -1.8332978e-03   2.3426036e+00   2.0311551e+00  -1.0482892e+07
   7.7925975e-10  -1.8228412e-03   2.3417583e+00   2.0320750e+00  -1.0423251e+07
   7.8026009e-10  -1.8124442e-03   2.3409178e+00   2.0329898e+00  -1.0363947e+07
   7.8126042e-10  -1.8021063e-03   2.3400822e+00   2.0338996e+00  -1.0304980e+07
   7.8226075e-10  -1.7918272e-03   2.3392515e+00   2.0348045e+00  -1.0246346e+07
   7.8326109e-10  -1.7816066e-03   2.3384255e+00   2.0357044e+00  -1.0188044e+07
   7.8426142e-10  -1.7714441e-03   2.3376043e+00   2.0365994e+00  -1.0130072e+07
   7.8526175e-10  -1.7613395e-03   2.3367879e+00   2.0374895e+00  -1.0072429e+07
   7.8626209e-10  -1.7512924e-03   2.3359761e+00   2.0383748e+00  -1.0015112e+07
   7.8726242e-10  -1.7413025e-03   2.3351690e+00   2.0392552e+00  -9.9581194e+06
   7.8826275e-10  -1.7313694e-03   2.3343666e+00   2.0401307e+00  -9.9014498e+06
   7.8926309e-10  -1.7214928e-03   2.3335689e+00   2.0410015e+00  -9.8451013e+06
   7.9026342e-10  -1.7116725e-03   2.3327757e+00   2.0418675e+00  -9.7890719e+06
   7.9126375e-10  -1.7019080e-03   2.3319871e+00   2.0427288e+00  -9.7333599e+06
   7.9226409e-10  -1.6921991e-03   2.3312030e+00   2.0435853e+00  -9.6779636e+06
   7.9326442e-10  -1.6825455e-03   2.3304235e+00   2.0444372e+00  -9.6228811e+06
   7.9426475e-10  -1.6729468e-03   2.3296485e+00   2.0452844e+00  -9.5681107e+06
   7.9526509e-10  -1.6634027e-03   2.3288779e+00   2.0461269e+00  -9.5136506e+06
   7.9626542e-10  -1.6539130e-03   2.3281118e+00   2.0469648e+00  -9.4594991e+06
   7.9726576e-10  -1.6444773e-03   2.3273501e+00   2.0477981e+00  -9.4056544e+06
   7.9826609e-10  -1.6350953e-03   2.3265928e+00   2.0486269e+00  -9.3521149e+06
   7.9926642e-10  -1.6257667e-03   2.3258399e+00   2.0494511e+00  -9.2988788e+06
   8.0026676e-10  -1.6164912e-03   2.3250913e+00   2.0502707e+00  -9.2459444e+06
   8.0126709e-10  -1.6072685e-03   2.3243470e+00   2.0510859e+00  -9.1933100e+06
   8.0226742e-10  -1.5980983e-03   2.3236071e+00   2.0518966e+00  -9.1409740e+06
   8.0326776e-10  -1.5889803e-03   2.3228714e+00   2.0527028e+00  -9.0889346e+06
   8.0426809e-10  -1.5799142e-03   2.3221399e+00   2.0535046e+00  -9.0371902e+06
   8.0526842e-10  -1.5708998e-03   2.3214127e+00   2.0543020e+00  -8.9857391e+06
   8.0626876e-10  -1.5619366e-03   2.3206896e+00   2.0550950e+00  -8.9345797e+06
   8.0726909e-10  -1.5530245e-03   2.3199707e+00   2.0558837e+00  -8.8837104e+06
   8.0826942e-10  -1.5441632e-03   2.3192560e+00   2.0566680e+00  -8.8331295e+06
   8.0926976e-10  -1.5353523e-03   2.3185454e+00   2.0574480e+00  -8.7828353e+06
   8.1027009e-10  -1.5265915e-03   2.3178389e+00   2.0582237e+00  -8.7328264e+06
   8.1127042e-10  -1.5178807e-03   2.3171364e+00   2.0589951e+00  -8.6831010e+06
   8.1227076e-10  -1.5092194e-03   2.3164380e+00   2.0597623e+00  -8.6336575e+06
   8.1327109e-10  -1.5006075e-03   2.3157437e+00   2.0605252e+00  -8.5844945e+06
   8.1427142e-10  -1.4920446e-03   2.3150533e+00   2.0612840e+00  -8.5356103e+06
   8.1527176e-10  -1.4835305e-03   2.3143669e+00   2.0620385e+00  -8.4870033e+06
   8.1627209e-10  -1.4750648e-03   2.3136845e+00   2.0627889e+00  -8.4386721e+06
   8.1727242e-10  -1.4666474e-03   2.3130060e+00   2.0635352e+00  -8.3906149e+06
   8.1827276e-10  -1.4582779e-03   2.3123314e+00   2.0642774e+00  -8.3428304e+06
   8.1927309e-10  -1.4499561e-03   2.3116607e+00   2.0650154e+00  -8.2953169e+06
   8.2027342e-10  -1.4416816e-03   2.3109939e+00   2.0657494e+00  -8.2480729e+06
   8.2127376e-10  -1.4334543e-03   2.3103309e+00   2.0664793e+00  -8.2010970e+06
   8.2227409e-10  -1.4252739e-03   2.3096718e+00   2.0672052e+00  -8.1543875e+06
   8.2327442e-10  -1.4171400e-03   2.3090164e+00   2.0679271e+00  -8.1079431e+06
   8.2427476e-10  -1.4090525e-03   2.3083648e+00   2.0686450e+00  -8.0617622e+06
   8.2527509e-10  -1.4010110e-03   2.3077170e+00   2.0693590e+00  -8.0158433e+06
   8.2627543e-10  -1.3930154e-03   2.3070729e+00   2.0700690e+00  -7.9701850e+06
   8.2727576e-10  -1.3850652e-03   2.3064326e+00   2.0707751e+00  -7.9247857e+06
   8.2827609e-10  -1.3771604e-03   2.3057959e+00   2.0714772e+00  -7.8796441e+06
   8.2927643e-10  -1.3693006e-03   2.3051629e+00   2.0721755e+00  -7.8347587e+06
   8.3027676e-10  -1.3614856e-03   2.3045335e+00   2.0728700e+00  -7.7901280e+06
   8.3127709e-10  -1.3537151e-03   2.3039078e+00   2.0735605e+00  -7.7457506e+06
   8.3227743e-10  -1.3459888e-03   2.3032856e+00   2.0742473e+00  -7.7016250e+06
   8.3327776e-10  -1.3383066e-03   2.3026671e+00   2.0749303e+00  -7.6577500e+06
   8.3427809e-10  -1.3306681e-03   2.3020521e+00   2.0756095e+00  -7.6141239e+06
   8.3527843e-10  -1.3230732e-03   2.3014406e+00   2.0762849e+00  -7.5707455e+06
   8.3627876e-10  -1.3155215e-03   2.3008327e+00   2.0769566e+00  -7.5276134e+06
   8.3727909e-10  -1.3080129e-03   2.3002283e+00   2.0776246e+00  -7.4847261e+06
   8.3827943e-10  -1.3005470e-03   2.2996274e+00   2.0782888e+00  -7.4420823e+06
   8.3927976e-10  -1.2931237e-03   2.2990299e+00   2.0789494e+00  -7.3996805e+06
   8.4028009e-10  -1.2857426e-03   2.2984359e+00   2.0796063e+00  -7.3575196e+06
   8.4128043e-10  -1.2784036e-03   2.2978453e+00   2.0802596e+00  -7.3155980e+06
   8.4228076e-10  -1.2711065e-03   2.2972581e+00   2.0809093e+00  -7.2739144e+06
   8.4328109e-10  -1.2638509e-03   2.2966743e+00   2.0815554e+00  -7.2324675e+06
   8.4428143e-10  -1.2566367e-03   2.2960938e+00   2.0821978e+00  -7.1912560e+06
   8.4528176e-10  -1.2494635e-03   2.2955167e+00   2.0828368e+00  -7.1502785e+06
   8.4628209e-10  -1.2423313e-03   2.2949429e+00   2.0834721e+00  -7.1095337e+06
   8.4728243e-10  -1.2352397e-03   2.2943724e+00   2.0841040e+00  -7.0690203e+06
   8.4828276e-10  -1.2281884e-03   2.2938052e+00   2.0847323e+00  -7.0287370e+06
   8.4928309e-10  -1.2211774e-03   2.2932413e+00   2.0853572e+00  -6.9886824e+06
   8.5028343e-10  -1.2142064e-03   2.2926806e+00   2.0859786e+00  -6.9488554e+06
   8.5128376e-10  -1.2072750e-03   2.2921232e+00   2.0865965e+00  -6.9092546e+06
   8.5228409e-10  -1.2003832e-03   2.2915689e+00   2.0872110e+00  -6.8698787e+06
   8.5328443e-10  -1.1935306e-03   2.2910179e+00   2.0878221e+00  -6.8307265e+06
   8.5428476e-10  -1.1867171e-03   2.2904700e+00   2.0884298e+00  -6.7917967e+06
   8.5528510e-10  -1.1799424e-03   2.2899253e+00   2.0890341e+00  -6.7530881e+06
   8.5628543e-10  -1.1732064e-03   2.2893837e+00   2.0896351e+00  -6.7145994e+06
   8.5728576e-10  -1.1665087e-03   2.2888452e+00   2.0902327e+00  -6.6763293e+06
   8.5828610e-10  -1.1598492e-03   2.2883099e+00   2.0908270e+00  -6.6382766e+06
   8.5928643e-10  -1.1532277e-03   2.2877776e+00   2.0914180e+00  -6.6004402e+06
   8.6028676e-10  -1.1466439e-03   2.2872484e+00   2.0920057e+00  -6.5628187e+06
   8.6128710e-10  -1.1400976e-03   2.2867222e+00   2.0925901e+00  -6.5254110e+06
   8.6228743e-10  -1.1335887e-03   2.2861991e+00   2.0931713e+00  -6.4882159e+06
   8.6328776e-10  -1.1271168e-03   2.2856789e+00   2.0937493e+00  -6.4512321e+06
   8.6428810e-10  -1.1206819e-03   2.2851618e+00   2.0943240e+00  -6.4144585e+06
   8.6528843e-10  -1.1142836e-03   2.2846476e+00   2.0948955e+00  -6.3778938e+06
   8.6628876e-10  -1.1079218e-03   2.2841364e+00   2.0954639e+00  -6.3415370e+06
   8.6728910e-10  -1.1015962e-03   2.2836282e+00   2.0960291e+00  -6.3053868e+06
   8.6828943e-10  -1.0953068e-03   2.2831229e+00   2.0965911e+00  -6.2694420e+06
   8.6928976e-10  -1.0890531e-03   2.2826204e+00   2.0971500e+00  -6.2337016e+06
   8.7029010e-10  -1.0828352e-03   2.2821209e+00   2.0977058e+00  -6.1981642e+06
   8.7129043e-10  -1.0766526e-03   2.2816243e+00   2.0982585e+00  -6.1628289e+06
   8.7229076e-10  -1.0705054e-03   2.2811305e+00   2.0988082e+00  -6.1276944e+06
   8.7329110e-10  -1.0643931e-03   2.2806395e+00   2.0993547e+00  -6.0927597e+06
   8.7429143e-10  -1.0583157e-03   2.2801514e+00   2.0998982e+00  -6.0580235e+06
   8.7529176e-10  -1.0522730e-03   2.2796661e+00   2.1004387e+00  -6.0234848e+06
   8.7629210e-10  -1.0462647e-03   2.2791836e+00   2.1009762e+00  -5.9891424e+06
   8.7729243e-10  -1.0402907e-03   2.2787038e+00   2.1015106e+00  -5.9549953e+06
   8.7829276e-10  -1.0343507e-03   2.2782269e+00   2.1020421e+00  -5.9210423e+06
   8.7929310e-10  -1.0284446e-03   2.2777526e+00   2.1025706e+00  -5.8872824e+06
   8.8029343e-10  -1.0225722e-03   2.2772811e+00   2.1030962e+00  -5.8537144e+06
   8.8129376e-10  -1.0167333e-03   2.2768123e+00   2.1036189e+00  -5.8203373e+06
   8.8229410e-10  -1.0109276e-03   2.2763462e+00   2.1041386e+00  -5.7871499e+06
   8.8329443e-10  -1.0051551e-03   2.2758828e+00   2.1046554e+00  -5.7541513e+06
   8.8429476e-10  -9.9941547e-04   2.2754221e+00   2.1051693e+00  -5.7213403e+06
   8.8529510e-10  -9.9370857e-04   2.2749640e+00   2.1056804e+00  -5.6887159e+06
   8.8629543e-10  -9.8803422e-04   2.2745085e+00   2.1061886e+00  -5.6562770e+06
   8.8729577e-10  -9.8239223e-04   2.2740557e+00   2.1066940e+00  -5.6240226e+06
   8.8829610e-10  -9.7678241e-04   2.2736054e+00   2.1071966e+00  -5.5919516e+06
   8.8929643e-10  -9.7120457e-04   2.2731578e+00   2.1076963e+00  -5.5600630e+06
   8.9029677e-10  -9.6565855e-04   2.2727127e+00   2.1081933e+00  -5.5283558e+06
   8.9129710e-10  -9.6014416e-04   2.2722702e+00   2.1086874e+00  -5.4968289e+06
   8.9229743e-10  -9.5466121e-04   2.2718302e+00   2.1091788e+00  -5.4654813e+06
   8.9329777e-10  -9.4920954e-04   2.2713928e+00   2.1096675e+00  -5.4343121e+06
   8.9429810e-10  -9.4378895e-04   2.2709579e+00   2.1101534e+00  -5.4033201e+06
   8.9529843e-10  -9.3839928e-04   2.2705255e+00   2.1106367e+00  -5.3725044e+06
   8.9629877e-10  -9.3304035e-04   2.2700956e+00   2.1111172e+00  -5.3418640e+06
   8.9729910e-10  -9.2771198e-04   2.2696681e+00   2.1115950e+00  -5.3113980e+06
   8.9829943e-10  -9.2241400e-04   2.2692431e+00   2.1120702e+00  -5.2811052e+06
   8.9929977e-10  -9.1714623e-04   2.2688206e+00   2.1125427e+00  -5.2509847e+06
   9.0030010e-10  -9.1190852e-04   2.2684004e+00   2.1130125e+00  -5.2210357e+06
   9.0130043e-10  -9.0670067e-04   2.2679827e+00   2.1134797e+00  -5.1912570e+06
   9.0230077e-10  -9.0152253e-04   2.2675674e+00   2.1139443e+00  -5.1616477e+06
   9.0330110e-10  -8.9637393e-04   2.2671545e+00   2.1144063e+00  -5.1322069e+06
   9.0430143e-10  -8.9125469e-04   2.2667440e+00   2.1148658e+00  -5.1029336e+06
   9.0530177e-10  -8.8616465e-04   2.2663358e+00   2.1153226e+00  -5.0738269e+06
   9.0630210e-10  -8.8110365e-04   2.2659300e+00   2.1157769e+00  -5.0448858e+06
   9.0730243e-10  -8.7607151e-04   2.2655265e+00   2.1162286e+00  -5.0161094e+06
   9.0830277e-10  -8.7106808e-04   2.2651253e+00   2.1166779e+00  -4.9874967e+06
   9.0930310e-10  -8.6609319e-04   2.2647264e+00   2.1171246e+00  -4.9590468e+06
   9.1030343e-10  -8.6114668e-04   2.2643299e+00   2.1175688e+00  -4.9307588e+06
   9.1130377e-10  -8.5622838e-04   2.2639356e+00   2.1180105e+00  -4.9026319e+06
   9.1230410e-10  -8.5133814e-04   2.2635436e+00   2.1184497e+00  -4.8746650e+06
   9.1330443e-10  -8.4647580e-04   2.2631538e+00   2.1188865e+00  -4.8468572e+06
   9.1430477e-10  -8.4164120e-04   2.2627662e+00   2.1193208e+00  -4.8192077e+06
   9.1530510e-10  -8.3683417e-04   2.2623809e+00   2.1197527e+00  -4.7917156e+06
   9.1630544e-10  -8.3205457e-04   2.2619979e+00   2.1201821e+00  -4.7643800e+06
   9.1730577e-10  -8.2730224e-04   2.2616170e+00   2.1206092e+00  -4.7371999e+06
   9.1830610e-10  -8.2257702e-04   2.2612383e+00   2.1210339e+00  -4.7101745e+06
   9.1930644e-10  -8.1787875e-04   2.2608618e+00   2.1214561e+00  -4.6833030e+06
   9.2030677e-10  -8.1320729e-04   2.2604874e+00   2.1218761e+00  -4.6565844e+06
   9.2130710e-10  -8.0856249e-04   2.2601152e+00   2.1222936e+00  -4.6300180e+06
   9.2230744e-10  -8.0394418e-04   2.2597451e+00   2.1227088e+00  -4.6036027e+06
   9.2330777e-10  -7.9935222e-04   2.2593772e+00   2.1231217e+00  -4.5773378e+06
   9.2430810e-10  -7.9478646e-04   2.2590114e+00   2.1235323e+00  -4.5512225e+06
   9.2530844e-10  -7.9024675e-04   2.2586477e+00   2.1239405e+00  -4.5252558e+06
   9.2630877e-10  -7.8573294e-04   2.2582860e+00   2.1243465e+00  -4.4994369e+06
   9.2730910e-10  -7.8124488e-04   2.2579265e+00   2.1247502e+00  -4.4737651e+06
   9.2830944e-10  -7.7678243e-04   2.2575690e+00   2.1251516e+00  -4.4482393e+06
   9.2930977e-10  -7.7234545e-04   2.2572136e+00   2.1255508e+00  -4.4228590e+06
   9.3031010e-10  -7.6793378e-04   2.2568602e+00   2.1259477e+00  -4.3976231e+06
   9.3131044e-10  -7.6354728e-04   2.2565088e+00   2.1263424e+00  -4.3725309e+06
   9.3231077e-10  -7.5918581e-04   2.2561595e+00   2.1267349e+00  -4.3475816e+06
   9.3331110e-10  -7.5484923e-04   2.2558122e+00   2.1271252e+00  -4.3227743e+06
   9.3431144e-10  -7.5053740e-04   2.2554669e+00   2.1275133e+00  -4.2981083e+06
   9.3531177e-10  -7.4625017e-04   2.2551235e+00   2.1278992e+00  -4.2735828e+06
   9.3631210e-10  -7.4198740e-04   2.2547821e+00   2.1282829e+00  -4.2491969e+06
   9.3731244e-10  -7.3774895e-04   2.2544427e+00   2.1286645e+00  -4.2249498e+06
   9.3831277e-10  -7.3353470e-04   2.2541053e+00   2.1290439e+00  -4.2008409e+06
   9.3931310e-10  -7.2934449e-04   2.2537697e+00   2.1294212e+00  -4.1768692e+06
   9.4031344e-10  -7.2517819e-04   2.2534361e+00   2.1297964e+00  -4.1530341e+06
   9.4131377e-10  -7.2103567e-04   2.2531045e+00   2.1301695e+00  -4.1293347e+06
   9.4231410e-10  -7.1691678e-04   2.2527747e+00   2.1305405e+00  -4.1057703e+06
   9.4331444e-10  -7.1282141e-04   2.2524468e+00   2.1309094e+00  -4.0823401e+06
   9.4431477e-10  -7.0874940e-04   2.2521208e+00   2.1312762e+00  -4.0590433e+06
   9.4531511e-10  -7.0470063e-04   2.2517967e+00   2.1316409e+00  -4.0358792e+06
   9.4631544e-10  -7.0067497e-04   2.2514745e+00   2.1320036e+00  -4.0128471e+06
   9.4731577e-10  -6.9667229e-04   2.2511540e+00   2.1323643e+00  -3.9899461e+06
   9.4831611e-10  -6.9269244e-04   2.2508355e+00   2.1327229e+00  -3.9671756e+06
   9.4931644e-10  -6.8873531e-04   2.2505187e+00   2.1330795e+00  -3.9445348e+06
   9.5031677e-10  -6.8480076e-04   2.2502038e+00   2.1334341e+00  -3.9220229e+06
   9.5131711e-10  -6.8088867e-04   2.2498907e+00   2.1337867e+00  -3.8996393e+06
   9.5231744e-10  -6.7699891e-04   2.2495794e+00   2.1341374e+00  -3.8773832e+06
   9.5331777e-10  -6.7313134e-04   2.2492699e+00   2.1344860e+00  -3.8552538e+06
   9.5431811e-10  -6.6928585e-04   2.2489622e+00   2.1348327e+00  -3.8332506e+06
   9.5531844e-10  -6.6546231e-04   2.2486562e+00   2.1351774e+00  -3.8113727e+06
   9.5631877e-10  -6.6166059e-04   2.2483520e+00   2.1355202e+00  -3.7896194e+06
   9.5731911e-10  -6.5788057e-04   2.2480495e+00   2.1358611e+00  -3.7679900e+06
   9.5831944e-10  -6.5412212e-04   2.2477488e+00   2.1362000e+00  -3.7464839e+06
   9.5931977e-10  -6.5038513e-04   2.2474498e+00   2.1365371e+00  -3.7251003e+06
   9.6032011e-10  -6.4666947e-04   2.2471525e+00   2.1368722e+00  -3.7038385e+06
   9.6132044e-10  -6.4297501e-04   2.2468569e+00   2.1372055e+00  -3.6826979e+06
   9.6232077e-10  -6.3930164e-04   2.2465630e+00   2.1375368e+00  -3.6616777e+06
   9.6332111e-10  -6.3564924e-04   2.2462708e+00   2.1378664e+00  -3.6407773e+06
   9.6432144e-10  -6.3201769e-04   2.2459803e+00   2.1381940e+00  -3.6199960e+06
   9.6532177e-10  -6.2840686e-04   2.2456914e+00   2.1385198e+00  -3.5993330e+06
   9.6632211e-10  -6.2481665e-04   2.2454043e+00   2.1388438e+00  -3.5787879e+06
   9.6732244e-10  -6.2124693e-04   2.2451187e+00   2.1391659e+00  -3.5583598e+06
   9.6832277e-10  -6.1769759e-04   2.2448348e+00   2.1394862e+00  -3.5380481e+06
   9.6932311e-10  -6.1416851e-04   2.2445525e+00   2.1398048e+00  -3.5178521e+06
   9.7032344e-10  -6.1065957e-04   2.2442719e+00   2.1401215e+00  -3.4977712e+06
   9.7132377e-10  -6.0717066e-04   2.2439929e+00   2.1404364e+00  -3.4778048e+06
   9.7232411e-10  -6.0370167e-04   2.2437154e+00   2.1407496e+00  -3.4579521e+06
   9.7332444e-10  -6.0025248e-04   2.2434396e+00   2.1410610e+00  -3.4382126e+06
   9.7432477e-10  -5.9682299e-04   2.2431653e+00   2.1413706e+00  -3.4185856e+06
   9.7532511e-10  -5.9341306e-04   2.2428926e+00   2.1416785e+00  -3.3990704e+06
   9.7632544e-10  -5.9002261e-04   2.2426215e+00   2.1419847e+00  -3.3796664e+06
   9.7732578e-10  -5.8665151e-04   2.2423520e+00   2.1422891e+00  -3.3603731e+06
   9.7832611e-10  -5.8329966e-04   2.2420839e+00   2.1425918e+00  -3.3411897e+06
   9.7932644e-10  -5.7996694e-04   2.2418175e+00   2.1428928e+00  -3.3221156e+06
   9.8032678e-10  -5.7665324e-04   2.2415525e+00   2.1431921e+00  -3.3031502e+06
   9.8132711e-10  -5.7335847e-04   2.2412891e+00   2.1434898e+00  -3.2842930e+06
   9.8232744e-10  -5.7008250e-04   2.2410272e+00   2.1437857e+00  -3.2655432e+06
   9.8332778e-10  -5.6682524e-04   2.2407668e+00   2.1440800e+00  -3.2469003e+06
   9.8432811e-10  -5.6358657e-04   2.2405079e+00   2.1443726e+00  -3.2283636e+06
   9.8532844e-10  -5.6036639e-04   2.2402504e+00   2.1446635e+00  -3.2099327e+06
   9.8632878e-10  -5.5716460e-04   2.2399945e+00   2.1449528e+00  -3.1916067e+06
   9.8732911e-10  -5.5398109e-04   2.2397400e+00   2.1452405e+00  -3.1733853e+06
   9.8832944e-10  -5.5081575e-04   2.2394870e+00   2.1455266e+00  -3.1552677e+06
   9.8932978e-10  -5.4766848e-04   2.2392354e+00   2.1458110e+00  -3.1372534e+06
   9.9033011e-10  -5.4453919e-04   2.2389853e+00   2.1460939e+00  -3.1193417e+06
   9.9133044e-10  -5.4142776e-04   2.2387366e+00   2.1463751e+00  -3.1015322e+06
   9.9233078e-10  -5.3833409e-04   2.2384893e+00   2.1466548e+00  -3.0838242e+06
   9.9333111e-10  -5.3525809e-04   2.2382435e+00   2.1469328e+00  -3.0662172e+06
   9.9433144e-10  -5.3219965e-04   2.2379991e+00   2.1472093e+00  -3.0487106e+06
   9.9533178e-10  -5.2915867e-04   2.2377560e+00   2.1474843e+00  -3.0313037e+06
   9.9633211e-10  -5.2613506e-04   2.2375144e+00   2.1477576e+00  -3.0139961e+06
   9.9733244e-10  -5.2312871e-04   2.2372742e+00   2.1480295e+00  -2.9967872e+06
   9.9833278e-10  -5.2013952e-04   2.2370353e+00   2.1482998e+00  -2.9796763e+06
   9.9933311e-10  -5.1716741e-04   2.2367978e+00   2.1485686e+00  -2.9626631e+06
   1.0003334e-09  -5.1421226e-04   2.2365617e+00   2.1488358e+00  -2.9457468e+06
   1.0013338e-09  -5.1127399e-04   2.2363269e+00   2.1491016e+00  -2.9289270e+06
   1.0023341e-09  -5.0835249e-04   2.2360935e+00   2.1493658e+00  -2.9122031e+06
   1.0033344e-09  -5.0544768e-04   2.2358614e+00   2.1496286e+00  -2.8955745e+06
   1.0043348e-09  -5.0255945e-04   2.2356306e+00   2.1498899e+00  -2.8790408e+06
   1.0053351e-09  -4.9968772e-04   2.2354012e+00   2.1501496e+00  -2.8626013e+06
   1.0063354e-09  -4.9683238e-04   2.2351730e+00   2.1504080e+00  -2.8462556e+06
   1.0073358e-09  -4.9399335e-04   2.2349462e+00   2.1506648e+00  -2.8300030e+06
   1.0083361e-09  -4.9117053e-04   2.2347207e+00   2.1509202e+00  -2.8138432e+06
   1.0093364e-09  -4.8836382e-04   2.2344965e+00   2.1511742e+00  -2.7977755e+06
   1.0103368e-09  -4.8557315e-04   2.2342736e+00   2.1514267e+00  -2.7817994e+06
   1.0113371e-09  -4.8279841e-04   2.2340519e+00   2.1516778e+00  -2.7659144e+06
   1.0123374e-09  -4.8003952e-04   2.2338316e+00   2.1519275e+00  -2.7501201e+06
   1.0133378e-09  -4.7729638e-04   2.2336124e+00   2.1521758e+00  -2.7344157e+06
   1.0143381e-09  -4.7456890e-04   2.2333946e+00   2.1524227e+00  -2.7188010e+06
   1.0153384e-09  -4.7185700e-04   2.2331780e+00   2.1526681e+00  -2.7032753e+06
   1.0163388e-09  -4.6916059e-04   2.2329626e+00   2.1529122e+00  -2.6878381e+06
   1.0173391e-09  -4.6647957e-04   2.2327485e+00   2.1531549e+00  -2.6724890e+06
   1.0183394e-09  -4.6381387e-04   2.2325356e+00   2.1533962e+00  -2.6572274e+06
   1.0193398e-09  -4.6116339e-04   2.2323239e+00   2.1536362e+00  -2.6420528e+06
   1.0203401e-09  -4.5852804e-04   2.2321134e+00   2.1538748e+00  -2.6269648e+06
   1.0213404e-09  -4.5590775e-04   2.2319042e+00   2.1541121e+00  -2.6119629e+06
   1.0223408e-09  -4.5330242e-04   2.2316961e+00   2.1543480e+00  -2.5970465e+06
   1.0233411e-09  -4.5071197e-04   2.2314893e+00   2.1545825e+00  -2.5822152e+06
   1.0243414e-09  -4.4813631e-04   2.2312836e+00   2.1548158e+00  -2.5674685e+06
   1.0253418e-09  -4.4557536e-04   2.2310791e+00   2.1550477e+00  -2.5528058e+06
   1.0263421e-09  -4.4302903e-04   2.2308758e+00   2.1552783e+00  -2.5382269e+06
   1.0273424e-09  -4.4049725e-04   2.2306736e+00   2.1555076e+00  -2.5237310e+06
   1.0283428e-09  -4.3797993e-04   2.2304726e+00   2.1557357e+00  -2.5093179e+06
   1.0293431e-09  -4.3547699e-04   2.2302728e+00   2.1559624e+00  -2.4949870e+06
   1.0303434e-09  -4.3298834e-04   2.2300741e+00   2.1561878e+00  -2.4807378e+06
   1.0313438e-09  -4.3051390e-04   2.2298765e+00   2.1564120e+00  -2.4665699e+06
   1.0323441e-09  -4.2805359e-04   2.2296801e+00   2.1566349e+00  -2.4524828e+06
   1.0333444e-09  -4.2560734e-04   2.2294848e+00   2.1568565e+00  -2.4384761e+06
   1.0343448e-09  -4.2317506e-04   2.2292906e+00   2.1570769e+00  -2.4245492e+06
   1.0353451e-09  -4.2075667e-04   2.2290976e+00   2.1572960e+00  -2.4107019e+06
   1.0363454e-09  -4.1835209e-04   2.2289056e+00   2.1575139e+00  -2.3969335e+06
   1.0373458e-09  -4.1596124e-04   2.2287147e+00   2.1577305e+00  -2.3832436e+06
   1.0383461e-09  -4.1358406e-04   2.2285250e+00   2.1579460e+00  -2.3696319e+06
   1.0393464e-09  -4.1122044e-04   2.2283363e+00   2.1581602e+00  -2.3560978e+06
   1.0403468e-09  -4.0887033e-04   2.2281487e+00   2.1583732e+00  -2.3426409e+06
   1.0413471e-09  -4.0653364e-04   2.2279622e+00   2.1585850e+00  -2.3292608e+06
   1.0423474e-09  -4.0421030e-04   2.2277768e+00   2.1587955e+00  -2.3159570e+06
   1.0433478e-09  -4.0190023e-04   2.2275924e+00   2.1590049e+00  -2.3027291e+06
   1.0443481e-09  -3.9960335e-04   2.2274090e+00   2.1592131e+00  -2.2895767e+06
   1.0453484e-09  -3.9731959e-04   2.2272268e+00   2.1594202e+00  -2.2764993e+06
   1.0463488e-09  -3.9504887e-04   2.2270455e+00   2.1596260e+00  -2.2634965e+06
   1.0473491e-09  -3.9279113e-04   2.2268654e+00   2.1598307e+00  -2.2505679e+06
   1.0483494e-09  -3.9054628e-04   2.2266862e+00   2.1600342e+00  -2.2377131e+06
   1.0493498e-09  -3.8831425e-04   2.2265081e+00   2.1602366e+00  -2.2249316e+06
   1.0503501e-09  -3.8609498e-04   2.2263310e+00   2.1604378e+00  -2.2122231e+06
   1.0513505e-09  -3.8388837e-04   2.2261549e+00   2.1606379e+00  -2.1995870e+06
   1.0523508e-09  -3.8169438e-04   2.2259798e+00   2.1608369e+00  -2.1870231e+06
   1.0533511e-09  -3.7951291e-04   2.2258057e+00   2.1610347e+00  -2.1745308e+06
   1.0543515e-09  -3.7734391e-04   2.2256326e+00   2.1612314e+00  -2.1621099e+06
   1.0553518e-09  -3.7518729e-04   2.2254605e+00   2.1614270e+00  -2.1497597e+06
   1.0563521e-09  -3.7304300e-04   2.2252894e+00   2.1616214e+00  -2.1374801e+06
   1.0573525e-09  -3.7091095e-04   2.2251193e+00   2.1618148e+00  -2.1252705e+06
   1.0583528e-09  -3.6879108e-04   2.2249502e+00   2.1620071e+00  -2.1131306e+06
   1.0593531e-09  -3.6668332e-04   2.2247820e+00   2.1621983e+00  -2.1010600e+06
   1.0603535e-09  -3.6458760e-04   2.2246148e+00   2.1623884e+00  -2.0890583e+06
   1.0613538e-09  -3.6250386e-04   2.2244485e+00   2.1625774e+00  -2.0771250e+06
   1.0623541e-09  -3.6043201e-04   2.2242832e+00   2.1627654e+00  -2.0652598e+06
   1.0633545e-09  -3.5837200e-04   2.2241189e+00   2.1629522e+00  -2.0534624e+06
   1.0643548e-09  -3.5632376e-04   2.2239555e+00   2.1631381e+00  -2.0417322e+06
   1.0653551e-09  -3.5428722e-04   2.2237930e+00   2.1633229e+00  -2.0300690e+06
   1.0663555e-09  -3.5226231e-04   2.2236315e+00   2.1635066e+00  -2.0184724e+06
   1.0673558e-09  -3.5024897e-04   2.2234709e+00   2.1636893e+00  -2.0069419e+06
   1.0683561e-09  -3.4824713e-04   2.2233112e+00   2.1638709e+00  -1.9954773e+06
   1.0693565e-09  -3.4625673e-04   2.2231524e+00   2.1640515e+00  -1.9840780e+06
   1.0703568e-09  -3.4427769e-04   2.2229945e+00   2.1642311e+00  -1.9727438e+06
   1.0713571e-09  -3.4230997e-04   2.2228375e+00   2.1644097e+00  -1.9614744e+06
   1.0723575e-09  -3.4035348e-04   2.2226815e+00   2.1645872e+00  -1.9502692e+06
   1.0733578e-09  -3.3840817e-04   2.2225263e+00   2.1647638e+00  -1.9391279e+06
   1.0743581e-09  -3.3647397e-04   2.2223720e+00   2.1649393e+00  -1.9280503e+06
   1.0753585e-09  -3.3455083e-04   2.2222186e+00   2.1651139e+00  -1.9170359e+06
   1.0763588e-09  -3.3263866e-04   2.2220661e+00   2.1652875e+00  -1.9060843e+06
   1.0773591e-09  -3.3073743e-04   2.2219145e+00   2.1654600e+00  -1.8951952e+06
   1.0783595e-09  -3.2884705e-04   2.2217637e+00   2.1656316e+00  -1.8843683e+06
   1.0793598e-09  -3.2696748e-04   2.2216138e+00   2.1658023e+00  -1.8736032e+06
   1.0803601e-09  -3.2509864e-04   2.2214648e+00   2.1659719e+00  -1.8628995e+06
   1.0813605e-09  -3.2324048e-04   2.2213166e+00   2.1661406e+00  -1.8522570e+06
   1.0823608e-09  -3.2139293e-04   2.2211692e+00   2.1663084e+00  -1.8416751e+06
   1.0833611e-09  -3.1955594e-04   2.2210227e+00   2.1664751e+00  -1.8311537e+06
   1.0843615e-09  -3.1772944e-04   2.2208770e+00   2.1666410e+00  -1.8206923e+06
   1.0853618e-09  -3.1591338e-04   2.2207322e+00   2.1668059e+00  -1.8102906e+06
   1.0863621e-09  -3.1410770e-04   2.2205882e+00   2.1669698e+00  -1.7999483e+06
   1.0873625e-09  -3.1231233e-04   2.2204451e+00   2.1671329e+00  -1.7896650e+06
   1.0883628e-09  -3.1052721e-04   2.2203027e+00   2.1672950e+00  -1.7794405e+06
   1.0893631e-09  -3.0875230e-04   2.2201612e+00   2.1674561e+00  -1.7692743e+06
   1.0903635e-09  -3.0698753e-04   2.2200204e+00   2.1676164e+00  -1.7591661e+06
   1.0913638e-09  -3.0523283e-04   2.2198805e+00   2.1677758e+00  -1.7491156e+06
   1.0923641e-09  -3.0348817e-04   2.2197414e+00   2.1679342e+00  -1.7391225e+06
   1.0933645e-09  -3.0175347e-04   2.2196031e+00   2.1680918e+00  -1.7291864e+06
   1.0943648e-09  -3.0002868e-04   2.2194656e+00   2.1682484e+00  -1.7193071e+06
   1.0953651e-09  -2.9831375e-04   2.2193288e+00   2.1684042e+00  -1.7094841e+06
   1.0963655e-09  -2.9660862e-04   2.2191929e+00   2.1685591e+00  -1.6997172e+06
   1.0973658e-09  -2.9491322e-04   2.2190577e+00   2.1687131e+00  -1.6900061e+06
   1.0983661e-09  -2.9322752e-04   2.2189233e+00   2.1688662e+00  -1.6803504e+06
   1.0993665e-09  -2.9155144e-04   2.2187897e+00   2.1690185e+00  -1.6707498e+06
   1.1003668e-09  -2.8988494e-04   2.2186568e+00   2.1691699e+00  -1.6612040e+06
   1.1013671e-09  -2.8822796e-04   2.2185247e+00   2.1693204e+00  -1.6517128e+06
   1.1023675e-09  -2.8658045e-04   2.2183934e+00   2.1694701e+00  -1.6422757e+06
   1.1033678e-09  -2.8494236e-04   2.2182628e+00   2.1696189e+00  -1.6328925e+06
   1.1043681e-09  -2.8331362e-04   2.2181329e+00   2.1697669e+00  -1.6235628e+06
   1.1053685e-09  -2.8169419e-04   2.2180038e+00   2.1699140e+00  -1.6142864e+06
   1.1063688e-09  -2.8008401e-04   2.2178755e+00   2.1700603e+00  -1.6050630e+06
   1.1073691e-09  -2.7848303e-04   2.2177478e+00   2.1702058e+00  -1.5958922e+06
   1.1083695e-09  -2.7689120e-04   2.2176209e+00   2.1703504e+00  -1.5867738e+06
   1.1093698e-09  -2.7530846e-04   2.2174948e+00   2.1704943e+00  -1.5777075e+06
   1.1103701e-09  -2.7373477e-04   2.2173693e+00   2.1706373e+00  -1.5686929e+06
   1.1113705e-09  -2.7217007e-04   2.2172446e+00   2.1707795e+00  -1.5597297e+06
   1.1123708e-09  -2.7061431e-04   2.2171206e+00   2.1709209e+00  -1.5508178e+06
   1.1133711e-09  -2.6906744e-04   2.2169973e+00   2.1710614e+00  -1.5419567e+06
   1.1143715e-09  -2.6752941e-04   2.2168747e+00   2.1712012e+00  -1.5331462e+06
   1.1153718e-09  -2.6600016e-04   2.2167528e+00   2.1713402e+00  -1.5243860e+06
   1.1163721e-09  -2.6447966e-04   2.2166316e+00   2.1714784e+00  -1.5156759e+06
   1.1173725e-09  -2.6296784e-04   2.2165111e+00   2.1716158e+00  -1.5070154e+06
   1.1183728e-09  -2.6146466e-04   2.2163913e+00   2.1717525e+00  -1.4984044e+06
   1.1193731e-09  -2.5997007e-04   2.2162722e+00   2.1718883e+00  -1.4898426e+06
   1.1203735e-09  -2.5848402e-04   2.2161537e+00   2.1720234e+00  -1.4813297e+06
   1.1213738e-09  -2.5700646e-04   2.2160360e+00   2.1721577e+00  -1.4728653e+06
   1.1223741e-09  -2.5553734e-04   2.2159189e+00   2.1722913e+00  -1.4644493e+06
   1.1233745e-09  -2.5407662e-04   2.2158025e+00   2.1724241e+00  -1.4560814e+06
   1.1243748e-09  -2.5262424e-04   2.2156867e+00   2.1725561e+00  -1.4477612e+06
   1.1253751e-09  -2.5118017e-04   2.2155717e+00   2.1726874e+00  -1.4394886e+06
   1.1263755e-09  -2.4974434e-04   2.2154572e+00   2.1728179e+00  -1.4312631e+06
   1.1273758e-09  -2.4831672e-04   2.2153435e+00   2.1729477e+00  -1.4230847e+06
   1.1283761e-09  -2.4689726e-04   2.2152303e+00   2.1730768e+00  -1.4149529e+06
   1.1293765e-09  -2.4548591e-04   2.2151179e+00   2.1732051e+00  -1.4068676e+06
   1.1303768e-09  -2.4408263e-04   2.2150060e+00   2.1733327e+00  -1.3988284e+06
   1.1313771e-09  -2.4268736e-04   2.2148949e+00   2.1734596e+00  -1.3908352e+06
   1.1323775e-09  -2.4130006e-04   2.2147843e+00   2.1735858e+00  -1.3828876e+06
   1.1333778e-09  -2.3992070e-04   2.2146744e+00   2.1737112e+00  -1.3749853e+06
   1.1343781e-09  -2.3854921e-04   2.2145651e+00   2.1738359e+00  -1.3671282e+06
   1.1353785e-09  -2.3718556e-04   2.2144564e+00   2.1739599e+00  -1.3593160e+06
   1.1363788e-09  -2.3582971e-04   2.2143484e+00   2.1740832e+00  -1.3515484e+06
   1.1373791e-09  -2.3448160e-04   2.2142410e+00   2.1742058e+00  -1.3438251e+06
   1.1383795e-09  -2.3314120e-04   2.2141342e+00   2.1743277e+00  -1.3361459e+06
   1.1393798e-09  -2.3180845e-04   2.2140280e+00   2.1744489e+00  -1.3285106e+06
   1.1403801e-09  -2.3048332e-04   2.2139224e+00   2.1745695e+00  -1.3209189e+06
   1.1413805e-09  -2.2916577e-04   2.2138174e+00   2.1746893e+00  -1.3133705e+06
   1.1423808e-09  -2.2785574e-04   2.2137130e+00   2.1748085e+00  -1.3058653e+06
   1.1433811e-09  -2.2655320e-04   2.2136093e+00   2.1749269e+00  -1.2984029e+06
   1.1443815e-09  -2.2525810e-04   2.2135061e+00   2.1750447e+00  -1.2909831e+06
   1.1453818e-09  -2.2397041e-04   2.2134035e+00   2.1751619e+00  -1.2836057e+06
   1.1463821e-09  -2.2269007e-04   2.2133015e+00   2.1752783e+00  -1.2762704e+06
   1.1473825e-09  -2.2141705e-04   2.2132001e+00   2.1753941e+00  -1.2689770e+06
   1.1483828e-09  -2.2015130e-04   2.2130992e+00   2.1755093e+00  -1.2617253e+06
   1.1493831e-09  -2.1889279e-04   2.2129990e+00   2.1756238e+00  -1.2545150e+06
   1.1503835e-09  -2.1764147e-04   2.2128993e+00   2.1757376e+00  -1.2473458e+06
   1.1513838e-09  -2.1639730e-04   2.2128001e+00   2.1758508e+00  -1.2402176e+06
   1.1523841e-09  -2.1516024e-04   2.2127016e+00   2.1759634e+00  -1.2331301e+06
   1.1533845e-09  -2.1393025e-04   2.2126036e+00   2.1760753e+00  -1.2260831e+06
   1.1543848e-09  -2.1270729e-04   2.2125062e+00   2.1761865e+00  -1.2190764e+06
   1.1553851e-09  -2.1149132e-04   2.2124093e+00   2.1762972e+00  -1.2121096e+06
   1.1563855e-09  -2.1028229e-04   2.2123130e+00   2.1764072e+00  -1.2051827e+06
   1.1573858e-09  -2.0908018e-04   2.2122172e+00   2.1765166e+00  -1.1982953e+06
   1.1583861e-09  -2.0788494e-04   2.2121220e+00   2.1766253e+00  -1.1914472e+06
   1.1593865e-09  -2.0669652e-04   2.2120274e+00   2.1767335e+00  -1.1846383e+06
   1.1603868e-09  -2.0551490e-04   2.2119332e+00   2.1768410e+00  -1.1778682e+06
   1.1613871e-09  -2.0434003e-04   2.2118397e+00   2.1769479e+00  -1.1711368e+06
   1.1623875e-09  -2.0317188e-04   2.2117466e+00   2.1770542e+00  -1.1644438e+06
   1.1633878e-09  -2.0201040e-04   2.2116541e+00   2.1771599e+00  -1.1577891e+06
   1.1643881e-09  -2.0085556e-04   2.2115621e+00   2.1772650e+00  -1.1511724e+06
   1.1653885e-09  -1.9970732e-04   2.2114706e+00   2.1773695e+00  -1.1445935e+06
   1.1663888e-09  -1.9856564e-04   2.2113797e+00   2.1774734e+00  -1.1380521e+06
   1.1673891e-09  -1.9743049e-04   2.2112893e+00   2.1775767e+00  -1.1315481e+06
   1.1683895e-09  -1.9630182e-04   2.2111994e+00   2.1776794e+00  -1.1250813e+06
   1.1693898e-09  -1.9517960e-04   2.2111100e+00   2.1777816e+00  -1.1186514e+06
   1.1703901e-09  -1.9406380e-04   2.2110211e+00   2.1778831e+00  -1.1122582e+06
   1.1713905e-09  -1.9295438e-04   2.2109328e+00   2.1779841e+00  -1.1059016e+06
   1.1723908e-09  -1.9185129e-04   2.2108449e+00   2.1780845e+00  -1.0995812e+06
   1.1733911e-09  -1.9075451e-04   2.2107576e+00   2.1781843e+00  -1.0932970e+06
   1.1743915e-09  -1.8966400e-04   2.2106707e+00   2.1782836e+00  -1.0870486e+06
   1.1753918e-09  -1.8857972e-04   2.2105844e+00   2.1783823e+00  -1.0808360e+06
   1.1763921e-09  -1.8750163e-04   2.2104985e+00   2.1784804e+00  -1.0746588e+06
   1.1773925e-09  -1.8642971e-04   2.2104131e+00   2.1785780e+00  -1.0685169e+06
   1.1783928e-09  -1.8536392e-04   2.2103282e+00   2.1786750e+00  -1.0624101e+06
   1.1793931e-09  -1.8430421e-04   2.2102438e+00   2.1787715e+00  -1.0563381e+06
   1.1803935e-09  -1.8325056e-04   2.2101599e+00   2.1788674e+00  -1.0503009e+06
   1.1813938e-09  -1.8220294e-04   2.2100765e+00   2.1789628e+00  -1.0442981e+06
   1.1823941e-09  -1.8116130e-04   2.2099935e+00   2.1790576e+00  -1.0383297e+06
   1.1833945e-09  -1.8012561e-04   2.2099111e+00   2.1791519e+00  -1.0323953e+06
   1.1843948e-09  -1.7909585e-04   2.2098291e+00   2.1792457e+00  -1.0264948e+06
   1.1853951e-09  -1.7807197e-04   2.2097475e+00   2.1793389e+00  -1.0206280e+06
   1.1863955e-09  -1.7705394e-04   2.2096665e+00   2.1794316e+00  -1.0147948e+06
   1.1873958e-09  -1.7604173e-04   2.2095859e+00   2.1795238e+00  -1.0089948e+06
   1.1883961e-09  -1.7503530e-04   2.2095057e+00   2.1796154e+00  -1.0032280e+06
   1.1893965e-09  -1.7403463e-04   2.2094260e+00   2.1797065e+00  -9.9749416e+05
   1.1903968e-09  -1.7303968e-04   2.2093468e+00   2.1797971e+00  -9.9179305e+05
   1.1913971e-09  -1.7205041e-04   2.2092680e+00   2.1798872e+00  -9.8612450e+05
   1.1923975e-09  -1.7106680e-04   2.2091897e+00   2.1799767e+00  -9.8048834e+05
   1.1933978e-09  -1.7008881e-04   2.2091118e+00   2.1800658e+00  -9.7488437e+05
   1.1943981e-09  -1.6911641e-04   2.2090344e+00   2.1801544e+00  -9.6931242e+05
   1.1953985e-09  -1.6814956e-04   2.2089574e+00   2.1802424e+00  -9.6377230e+05
   1.1963988e-09  -1.6718824e-04   2.2088809e+00   2.1803299e+00  -9.5826382e+05
   1.1973991e-09  -1.6623242e-04   2.2088047e+00   2.1804170e+00  -9.5278681e+05
   1.1983995e-09  -1.6528206e-04   2.2087291e+00   2.1805035e+00  -9.4734110e+05
   1.1993998e-09  -1.6433713e-04   2.2086538e+00   2.1805896e+00  -9.4192649e+05
   1.2004001e-09  -1.6339761e-04   2.2085790e+00   2.1806751e+00  -9.3654281e+05
   1.2014005e-09  -1.6246345e-04   2.2085046e+00   2.1807602e+00  -9.3118989e+05
   1.2024008e-09  -1.6153463e-04   2.2084307e+00   2.1808448e+00  -9.2586755e+05
   1.2034011e-09  -1.6061112e-04   2.2083572e+00   2.1809289e+00  -9.2057561e+05
   1.2044015e-09  -1.5969289e-04   2.2082841e+00   2.1810126e+00  -9.1531391e+05
   1.2054018e-09  -1.5877991e-04   2.2082114e+00   2.1810957e+00  -9.1008227e+05
   1.2064021e-09  -1.5787214e-04   2.2081391e+00   2.1811784e+00  -9.0488051e+05
   1.2074025e-09  -1.5696957e-04   2.2080672e+00   2.1812606e+00  -8.9970848e+05
   1.2084028e-09  -1.5607215e-04   2.2079958e+00   2.1813423e+00  -8.9456599e+05
   1.2094031e-09  -1.5517986e-04   2.2079247e+00   2.1814236e+00  -8.8945288e+05
   1.2104035e-09  -1.5429268e-04   2.2078541e+00   2.1815044e+00  -8.8436898e+05
   1.2114038e-09  -1.5341056e-04   2.2077839e+00   2.1815848e+00  -8.7931412e+05
   1.2124041e-09  -1.5253348e-04   2.2077141e+00   2.1816647e+00  -8.7428815e+05
   1.2134045e-09  -1.5166142e-04   2.2076446e+00   2.1817441e+00  -8.6929088e+05
   1.2144048e-09  -1.5079435e-04   2.2075756e+00   2.1818231e+00  -8.6432217e+05
   1.2154051e-09  -1.4993223e-04   2.2075070e+00   2.1819016e+00  -8.5938185e+05
   1.2164055e-09  -1.4907503e-04   2.2074387e+00   2.1819797e+00  -8.5446975e+05
   1.2174058e-09  -1.4822274e-04   2.2073709e+00   2.1820574e+00  -8.4958571e+05
   1.2184061e-09  -1.4737532e-04   2.2073034e+00   2.1821346e+00  -8.4472958e+05
   1.2194065e-09  -1.4653274e-04   2.2072363e+00   2.1822113e+00  -8.3990120e+05
   1.2204068e-09  -1.4569498e-04   2.2071696e+00   2.1822877e+00  -8.3510040e+05
   1.2214071e-09  -1.4486200e-04   2.2071033e+00   2.1823635e+00  -8.3032702e+05
   1.2224075e-09  -1.4403379e-04   2.2070374e+00   2.1824390e+00  -8.2558093e+05
   1.2234078e-09  -1.4321031e-04   2.2069718e+00   2.1825140e+00  -8.2086194e+05
   1.2244081e-09  -1.4239154e-04   2.2069067e+00   2.1825886e+00  -8.1616992e+05
   1.2254085e-09  -1.4157745e-04   2.2068419e+00   2.1826628e+00  -8.1150471e+05
   1.2264088e-09  -1.4076801e-04   2.2067774e+00   2.1827366e+00  -8.0686615e+05
   1.2274091e-09  -1.3996320e-04   2.2067134e+00   2.1828099e+00  -8.0225409e+05
   1.2284095e-09  -1.3916299e-04   2.2066497e+00   2.1828828e+00  -7.9766839e+05
   1.2294098e-09  -1.3836736e-04   2.2065863e+00   2.1829553e+00  -7.9310888e+05
   1.2304101e-09  -1.3757627e-04   2.2065233e+00   2.1830274e+00  -7.8857543e+05
   1.2314105e-09  -1.3678970e-04   2.2064607e+00   2.1830990e+00  -7.8406788e+05
   1.2324108e-09  -1.3600763e-04   2.2063985e+00   2.1831703e+00  -7.7958608e+05
   1.2334111e-09  -1.3523003e-04   2.2063366e+00   2.1832412e+00  -7.7512989e+05
   1.2344115e-09  -1.3445687e-04   2.2062750e+00   2.1833116e+00  -7.7069917e+05
   1.2354118e-09  -1.3368814e-04   2.2062139e+00   2.1833817e+00  -7.6629376e+05
   1.2364121e-09  -1.3292379e-04   2.2061530e+00   2.1834513e+00  -7.6191352e+05
   1.2374125e-09  -1.3216382e-04   2.2060925e+00   2.1835206e+00  -7.5755830e+05
   1.2384128e-09  -1.3140819e-04   2.2060324e+00   2.1835894e+00  -7.5322798e+05
   1.2394131e-09  -1.3065688e-04   2.2059726e+00   2.1836579e+00  -7.4892239e+05
   1.2404135e-09  -1.2990987e-04   2.2059131e+00   2.1837260e+00  -7.4464141e+05
   1.2414138e-09  -1.2916712e-04   2.2058540e+00   2.1837937e+00  -7.4038489e+05
   1.2424141e-09  -1.2842862e-04   2.2057952e+00   2.1838610e+00  -7.3615269e+05
   1.2434145e-09  -1.2769435e-04   2.2057368e+00   2.1839279e+00  -7.3194467e+05
   1.2444148e-09  -1.2696427e-04   2.2056787e+00   2.1839944e+00  -7.2776070e+05
   1.2454151e-09  -1.2623836e-04   2.2056209e+00   2.1840606e+00  -7.2360063e+05
   1.2464155e-09  -1.2551660e-04   2.2055634e+00   2.1841264e+00  -7.1946434e+05
   1.2474158e-09  -1.2479897e-04   2.2055063e+00   2.1841918e+00  -7.1535168e+05
   1.2484161e-09  -1.2408544e-04   2.2054495e+00   2.1842568e+00  -7.1126252e+05
   1.2494165e-09  -1.2337599e-04   2.2053931e+00   2.1843215e+00  -7.0719672e+05
   1.2504168e-09  -1.2267059e-04   2.2053369e+00   2.1843858e+00  -7.0315416e+05
   1.2514171e-09  -1.2196923e-04   2.2052811e+00   2.1844497e+00  -6.9913470e+05
   1.2524175e-09  -1.2127188e-04   2.2052256e+00   2.1845133e+00  -6.9513820e+05
   1.2534178e-09  -1.2057851e-04   2.2051704e+00   2.1845764e+00  -6.9116455e+05
   1.2544181e-09  -1.1988910e-04   2.2051156e+00   2.1846393e+00  -6.8721359e+05
   1.2554185e-09  -1.1920364e-04   2.2050610e+00   2.1847018e+00  -6.8328522e+05
   1.2564188e-09  -1.1852209e-04   2.2050068e+00   2.1847639e+00  -6.7937929e+05
   1.2574191e-09  -1.1784445e-04   2.2049528e+00   2.1848257e+00  -6.7549568e+05
   1.2584195e-09  -1.1717067e-04   2.2048992e+00   2.1848871e+00  -6.7163427e+05
   1.2594198e-09  -1.1650075e-04   2.2048459e+00   2.1849481e+00  -6.6779492e+05
   1.2604201e-09  -1.1583465e-04   2.2047929e+00   2.1850089e+00  -6.6397751e+05
   1.2614205e-09  -1.1517237e-04   2.2047402e+00   2.1850692e+00  -6.6018191e+05
   1.2624208e-09  -1.1451386e-04   2.2046878e+00   2.1851293e+00  -6.5640801e+05
   1.2634211e-09  -1.1385913e-04   2.2046357e+00   2.1851890e+00  -6.5265566e+05
   1.2644215e-09  -1.1320813e-04   2.2045839e+00   2.1852483e+00  -6.4892476e+05
   1.2654218e-09  -1.1256086e-04   2.2045324e+00   2.1853073e+00  -6.4521519e+05
   1.2664221e-09  -1.1191729e-04   2.2044811e+00   2.1853660e+00  -6.4152681e+05
   1.2674225e-09  -1.1127740e-04   2.2044302e+00   2.1854243e+00  -6.3785950e+05
   1.2684228e-09  -1.1064116e-04   2.2043796e+00   2.1854823e+00  -6.3421316e+05
   1.2694231e-09  -1.1000856e-04   2.2043292e+00   2.1855400e+00  -6.3058765e+05
   1.2704235e-09  -1.0937958e-04   2.2042792e+00   2.1855973e+00  -6.2698286e+05
   1.2714238e-09  -1.0875420e-04   2.2042294e+00   2.1856544e+00  -6.2339866e+05
   1.2724241e-09  -1.0813238e-04   2.2041799e+00   2.1857110e+00  -6.1983496e+05
   1.2734245e-09  -1.0751413e-04   2.2041307e+00   2.1857674e+00  -6.1629161e+05
   1.2744248e-09  -1.0689941e-04   2.2040818e+00   2.1858235e+00  -6.1276852e+05
   1.2754251e-09  -1.0628820e-04   2.2040332e+00   2.1858792e+00  -6.0926556e+05
   1.2764255e-09  -1.0568048e-04   2.2039848e+00   2.1859346e+00  -6.0578261e+05
   1.2774258e-09  -1.0507624e-04   2.2039367e+00   2.1859897e+00  -6.0231957e+05
   1.2784261e-09  -1.0447546e-04   2.2038889e+00   2.1860445e+00  -5.9887633e+05
   1.2794265e-09  -1.0387811e-04   2.2038414e+00   2.1860989e+00  -5.9545275e+05
   1.2804268e-09  -1.0328417e-04   2.2037941e+00   2.1861531e+00  -5.9204875e+05
   1.2814271e-09  -1.0269363e-04   2.2037472e+00   2.1862069e+00  -5.8866420e+05
   1.2824275e-09  -1.0210646e-04   2.2037004e+00   2.1862605e+00  -5.8529898e+05
   1.2834278e-09  -1.0152265e-04   2.2036540e+00   2.1863137e+00  -5.8195300e+05
   1.2844281e-09  -1.0094218e-04   2.2036078e+00   2.1863666e+00  -5.7862615e+05
   1.2854285e-09  -1.0036503e-04   2.2035619e+00   2.1864193e+00  -5.7531830e+05
   1.2864288e-09  -9.9791177e-05   2.2035162e+00   2.1864716e+00  -5.7202936e+05
   1.2874291e-09  -9.9220604e-05   2.2034708e+00   2.1865236e+00  -5.6875922e+05
   1.2884295e-09  -9.8653293e-05   2.2034257e+00   2.1865753e+00  -5.6550776e+05
   1.2894298e-09  -9.8089225e-05   2.2033808e+00   2.1866268e+00  -5.6227489e+05
   1.2904301e-09  -9.7528382e-05   2.2033362e+00   2.1866779e+00  -5.5906049e+05
   1.2914305e-09  -9.6970745e-05   2.2032918e+00   2.1867288e+00  -5.5586446e+05
   1.2924308e-09  -9.6416296e-05   2.2032477e+00   2.1867793e+00  -5.5268670e+05
   1.2934311e-09  -9.5865016e-05   2.2032038e+00   2.1868296e+00  -5.4952709e+05
   1.2944315e-09  -9.5316888e-05   2.2031602e+00   2.1868796e+00  -5.4638555e+05
   1.2954318e-09  -9.4771894e-05   2.2031168e+00   2.1869293e+00  -5.4326196e+05
   1.2964321e-09  -9.4230015e-05   2.2030737e+00   2.1869787e+00  -5.4015622e+05
   1.2974325e-09  -9.3691234e-05   2.2030308e+00   2.1870278e+00  -5.3706823e+05
   1.2984328e-09  -9.3155533e-05   2.2029882e+00   2.1870767e+00  -5.3399789e+05
   1.2994331e-09  -9.2622894e-05   2.2029458e+00   2.1871253e+00  -5.3094510e+05
   1.3004335e-09  -9.2093301e-05   2.2029037e+00   2.1871736e+00  -5.2790975e+05
   1.3014338e-09  -9.1566735e-05   2.2028618e+00   2.1872216e+00  -5.2489175e+05
   1.3024341e-09  -9.1043180e-05   2.2028202e+00   2.1872694e+00  -5.2189100e+05
   1.3034345e-09  -9.0522617e-05   2.2027787e+00   2.1873168e+00  -5.1890740e+05
   1.3044348e-09  -9.0005031e-05   2.2027376e+00   2.1873640e+00  -5.1594085e+05
   1.3054351e-09  -8.9490403e-05   2.2026966e+00   2.1874110e+00  -5.1299126e+05
   1.3064355e-09  -8.8978718e-05   2.2026559e+00   2.1874576e+00  -5.1005852e+05
   1.3074358e-09  -8.8469958e-05   2.2026154e+00   2.1875040e+00  -5.0714255e+05
   1.3084361e-09  -8.7964106e-05   2.2025752e+00   2.1875502e+00  -5.0424324e+05
   1.3094365e-09  -8.7461147e-05   2.2025352e+00   2.1875960e+00  -5.0136050e+05
   1.3104368e-09  -8.6961062e-05   2.2024954e+00   2.1876417e+00  -4.9849424e+05
   1.3114371e-09  -8.6463837e-05   2.2024558e+00   2.1876870e+00  -4.9564436e+05
   1.3124375e-09  -8.5969454e-05   2.2024165e+00   2.1877321e+00  -4.9281076e+05
   1.3134378e-09  -8.5477898e-05   2.2023774e+00   2.1877769e+00  -4.8999337e+05
   1.3144381e-09  -8.4989152e-05   2.2023385e+00   2.1878215e+00  -4.8719207e+05
   1.3154385e-09  -8.4503200e-05   2.2022998e+00   2.1878658e+00  -4.8440679e+05
   1.3164388e-09  -8.4020026e-05   2.2022614e+00   2.1879099e+00  -4.8163742e+05
   1.3174391e-09  -8.3539615e-05   2.2022232e+00   2.1879537e+00  -4.7888389e+05
   1.3184395e-09  -8.3061950e-05   2.2021852e+00   2.1879973e+00  -4.7614609e+05
   1.3194398e-09  -8.2587016e-05   2.2021474e+00   2.1880406e+00  -4.7342393e+05
   1.3204401e-09  -8.2114797e-05   2.2021098e+00   2.1880837e+00  -4.7071734e+05
   1.3214405e-09  -8.1645277e-05   2.2020725e+00   2.1881265e+00  -4.6802622e+05
   1.3224408e-09  -8.1178442e-05   2.2020353e+00   2.1881691e+00  -4.6535048e+05
   1.3234411e-09  -8.0714276e-05   2.2019984e+00   2.1882115e+00  -4.6269003e+05
   1.3244415e-09  -8.0252764e-05   2.2019617e+00   2.1882536e+00  -4.6004479e+05
   1.3254418e-09  -7.9793890e-05   2.2019252e+00   2.1882954e+00  -4.5741466e+05
   1.3264421e-09  -7.9337639e-05   2.2018889e+00   2.1883370e+00  -4.5479957e+05
   1.3274425e-09  -7.8883997e-05   2.2018528e+00   2.1883784e+00  -4.5219943e+05
   1.3284428e-09  -7.8432949e-05   2.2018169e+00   2.1884196e+00  -4.4961415e+05
   1.3294431e-09  -7.7984479e-05   2.2017812e+00   2.1884605e+00  -4.4704364e+05
   1.3304435e-09  -7.7538573e-05   2.2017458e+00   2.1885012e+00  -4.4448783e+05
   1.3314438e-09  -7.7095216e-05   2.2017105e+00   2.1885416e+00  -4.4194662e+05
   1.3324441e-09  -7.6654394e-05   2.2016754e+00   2.1885818e+00  -4.3941994e+05
   1.3334445e-09  -7.6216093e-05   2.2016406e+00   2.1886218e+00  -4.3690770e+05
   1.3344448e-09  -7.5780297e-05   2.2016059e+00   2.1886616e+00  -4.3440982e+05
   1.3354451e-09  -7.5346993e-05   2.2015714e+00   2.1887011e+00  -4.3192622e+05
   1.3364455e-09  -7.4916166e-05   2.2015372e+00   2.1887404e+00  -4.2945681e+05
   1.3374458e-09  -7.4487802e-05   2.2015031e+00   2.1887795e+00  -4.2700152e+05
   1.3384461e-09  -7.4061887e-05   2.2014692e+00   2.1888183e+00  -4.2456026e+05
   1.3394465e-09  -7.3638407e-05   2.2014355e+00   2.1888570e+00  -4.2213296e+05
   1.3404468e-09  -7.3217348e-05   2.2014020e+00   2.1888954e+00  -4.1971953e+05
   1.3414471e-09  -7.2798696e-05   2.2013687e+00   2.1889336e+00  -4.1731990e+05
   1.3424475e-09  -7.2382438e-05   2.2013356e+00   2.1889716e+00  -4.1493398e+05
   1.3434478e-09  -7.1968560e-05   2.2013027e+00   2.1890093e+00  -4.1256169e+05
   1.3444481e-09  -7.1557048e-05   2.2012700e+00   2.1890469e+00  -4.1020297e+05
   1.3454485e-09  -7.1147889e-05   2.2012374e+00   2.1890842e+00  -4.0785773e+05
   1.3464488e-09  -7.0741069e-05   2.2012050e+00   2.1891213e+00  -4.0552590e+05
   1.3474491e-09  -7.0336575e-05   2.2011729e+00   2.1891582e+00  -4.0320739e+05
   1.3484495e-09  -6.9934394e-05   2.2011409e+00   2.1891949e+00  -4.0090214e+05
   1.3494498e-09  -6.9534511e-05   2.2011091e+00   2.1892314e+00  -3.9861006e+05
   1.3504502e-09  -6.9136916e-05   2.2010774e+00   2.1892677e+00  -3.9633109e+05
   1.3514505e-09  -6.8741593e-05   2.2010460e+00   2.1893037e+00  -3.9406514e+05
   1.3524508e-09  -6.8348530e-05   2.2010147e+00   2.1893396e+00  -3.9181214e+05
   1.3534512e-09  -6.7957715e-05   2.2009836e+00   2.1893753e+00  -3.8957203e+05
   1.3544515e-09  -6.7569134e-05   2.2009527e+00   2.1894107e+00  -3.8734471e+05
   1.3554518e-09  -6.7182775e-05   2.2009220e+00   2.1894460e+00  -3.8513013e+05
   1.3564522e-09  -6.6798625e-05   2.2008914e+00   2.1894810e+00  -3.8292821e+05
   1.3574525e-09  -6.6416671e-05   2.2008611e+00   2.1895159e+00  -3.8073887e+05
   1.3584528e-09  -6.6036900e-05   2.2008309e+00   2.1895505e+00  -3.7856205e+05
   1.3594532e-09  -6.5659301e-05   2.2008008e+00   2.1895850e+00  -3.7639767e+05
   1.3604535e-09  -6.5283861e-05   2.2007710e+00   2.1896192e+00  -3.7424566e+05
   1.3614538e-09  -6.4910568e-05   2.2007413e+00   2.1896533e+00  -3.7210595e+05
   1.3624542e-09  -6.4539408e-05   2.2007117e+00   2.1896872e+00  -3.6997848e+05
   1.3634545e-09  -6.4170371e-05   2.2006824e+00   2.1897208e+00  -3.6786316e+05
   1.3644548e-09  -6.3803443e-05   2.2006532e+00   2.1897543e+00  -3.6575994e+05
   1.3654552e-09  -6.3438614e-05   2.2006242e+00   2.1897876e+00  -3.6366874e+05
   1.3664555e-09  -6.3075870e-05   2.2005953e+00   2.1898207e+00  -3.6158949e+05
   1.3674558e-09  -6.2715201e-05   2.2005666e+00   2.1898536e+00  -3.5952213e+05
   1.3684562e-09  -6.2356593e-05   2.2005381e+00   2.1898863e+00  -3.5746658e+05
   1.3694565e-09  -6.2000036e-05   2.2005098e+00   2.1899189e+00  -3.5542279e+05
   1.3704568e-09  -6.1645517e-05   2.2004816e+00   2.1899512e+00  -3.5339068e+05
   1.3714572e-09  -6.1293025e-05   2.2004535e+00   2.1899834e+00  -3.5137018e+05
   1.3724575e-09  -6.0942549e-05   2.2004257e+00   2.1900154e+00  -3.4936124e+05
   1.3734578e-09  -6.0594076e-05   2.2003979e+00   2.1900472e+00  -3.4736378e+05
   1.3744582e-09  -6.0247596e-05   2.2003704e+00   2.1900788e+00  -3.4537773e+05
   1.3754585e-09  -5.9903096e-05   2.2003430e+00   2.1901102e+00  -3.4340304e+05
   1.3764588e-09  -5.9560567e-05   2.2003157e+00   2.1901415e+00  -3.4143964e+05
   1.3774592e-09  -5.9219995e-05   2.2002886e+00   2.1901726e+00  -3.3948746e+05
   1.3784595e-09  -5.8881371e-05   2.2002617e+00   2.1902035e+00  -3.3754644e+05
   1.3794598e-09  -5.8544683e-05   2.2002349e+00   2.1902342e+00  -3.3561651e+05
   1.3804602e-09  -5.8209920e-05   2.2002083e+00   2.1902648e+00  -3.3369762e+05
   1.3814605e-09  -5.7877072e-05   2.2001818e+00   2.1902951e+00  -3.3178970e+05
   1.3824608e-09  -5.7546126e-05   2.2001555e+00   2.1903253e+00  -3.2989268e+05
   1.3834612e-09  -5.7217072e-05   2.2001293e+00   2.1903554e+00  -3.2800651e+05
   1.3844615e-09  -5.6889900e-05   2.2001033e+00   2.1903852e+00  -3.2613112e+05
   1.3854618e-09  -5.6564598e-05   2.2000775e+00   2.1904149e+00  -3.2426645e+05
   1.3864622e-09  -5.6241156e-05   2.2000517e+00   2.1904444e+00  -3.2241244e+05
   1.3874625e-09  -5.5919563e-05   2.2000262e+00   2.1904738e+00  -3.2056903e+05
   1.3884628e-09  -5.5599810e-05   2.2000007e+00   2.1905030e+00  -3.1873615e+05
   1.3894632e-09  -5.5281884e-05   2.1999754e+00   2.1905320e+00  -3.1691375e+05
   1.3904635e-09  -5.4965776e-05   2.1999503e+00   2.1905608e+00  -3.1510178e+05
   1.3914638e-09  -5.4651475e-05   2.1999253e+00   2.1905895e+00  -3.1330015e+05
   1.3924642e-09  -5.4338972e-05   2.1999004e+00   2.1906180e+00  -3.1150883e+05
   1.3934645e-09  -5.4028255e-05   2.1998757e+00   2.1906464e+00  -3.0972775e+05
   1.3944648e-09  -5.3719315e-05   2.1998512e+00   2.1906746e+00  -3.0795685e+05
   1.3954652e-09  -5.3412141e-05   2.1998267e+00   2.1907026e+00  -3.0619607e+05
   1.3964655e-09  -5.3106724e-05   2.1998024e+00   2.1907305e+00  -3.0444536e+05
   1.3974658e-09  -5.2803052e-05   2.1997783e+00   2.1907582e+00  -3.0270466e+05
   1.3984662e-09  -5.2501117e-05   2.1997543e+00   2.1907858e+00  -3.0097391e+05
   1.3994665e-09  -5.2200909e-05   2.1997304e+00   2.1908132e+00  -2.9925305e+05
   1.4004668e-09  -5.1902416e-05   2.1997067e+00   2.1908404e+00  -2.9754203e+05
   1.4014672e-09  -5.1605631e-05   2.1996831e+00   2.1908675e+00  -2.9584079e+05
   1.4024675e-09  -5.1310542e-05   2.1996596e+00   2.1908944e+00  -2.9414928e+05
   1.4034678e-09  -5.1017141e-05   2.1996363e+00   2.1909212e+00  -2.9246743e+05
   1.4044682e-09  -5.0725417e-05   2.1996131e+00   2.1909478e+00  -2.9079520e+05
   1.4054685e-09  -5.0435361e-05   2.1995900e+00   2.1909743e+00  -2.8913253e+05
   1.4064688e-09  -5.0146963e-05   2.1995671e+00   2.1910006e+00  -2.8747937e+05
   1.4074692e-09  -4.9860215e-05   2.1995442e+00   2.1910268e+00  -2.8583565e+05
   1.4084695e-09  -4.9575106e-05   2.1995216e+00   2.1910528e+00  -2.8420133e+05
   1.4094698e-09  -4.9291627e-05   2.1994990e+00   2.1910787e+00  -2.8257636e+05
   1.4104702e-09  -4.9009769e-05   2.1994766e+00   2.1911044e+00  -2.8096067e+05
   1.4114705e-09  -4.8729523e-05   2.1994543e+00   2.1911300e+00  -2.7935422e+05
   1.4124708e-09  -4.8450878e-05   2.1994322e+00   2.1911555e+00  -2.7775696e+05
   1.4134712e-09  -4.8173828e-05   2.1994101e+00   2.1911807e+00  -2.7616882e+05
   1.4144715e-09  -4.7898361e-05   2.1993882e+00   2.1912059e+00  -2.7458977e+05
   1.4154718e-09  -4.7624469e-05   2.1993664e+00   2.1912309e+00  -2.7301974e+05
   1.4164722e-09  -4.7352143e-05   2.1993448e+00   2.1912557e+00  -2.7145869e+05
   1.4174725e-09  -4.7081374e-05   2.1993233e+00   2.1912805e+00  -2.6990656e+05
   1.4184728e-09  -4.6812154e-05   2.1993018e+00   2.1913050e+00  -2.6836331e+05
   1.4194732e-09  -4.6544473e-05   2.1992806e+00   2.1913295e+00  -2.6682887e+05
   1.4204735e-09  -4.6278322e-05   2.1992594e+00   2.1913538e+00  -2.6530321e+05
   1.4214738e-09  -4.6013693e-05   2.1992383e+00   2.1913779e+00  -2.6378627e+05
   1.4224742e-09  -4.5750577e-05   2.1992174e+00   2.1914019e+00  -2.6227801e+05
   1.4234745e-09  -4.5488966e-05   2.1991966e+00   2.1914258e+00  -2.6077836e+05
   1.4244748e-09  -4.5228850e-05   2.1991759e+00   2.1914496e+00  -2.5928729e+05
   1.4254752e-09  -4.4970222e-05   2.1991554e+00   2.1914732e+00  -2.5780475e+05
   1.4264755e-09  -4.4713072e-05   2.1991349e+00   2.1914966e+00  -2.5633067e+05
   1.4274758e-09  -4.4457393e-05   2.1991146e+00   2.1915200e+00  -2.5486503e+05
   1.4284762e-09  -4.4203176e-05   2.1990944e+00   2.1915432e+00  -2.5340777e+05
   1.4294765e-09  -4.3950412e-05   2.1990743e+00   2.1915663e+00  -2.5195883e+05
   1.4304768e-09  -4.3699094e-05   2.1990543e+00   2.1915892e+00  -2.5051818e+05
   1.4314772e-09  -4.3449212e-05   2.1990344e+00   2.1916120e+00  -2.4908577e+05
   1.4324775e-09  -4.3200759e-05   2.1990147e+00   2.1916347e+00  -2.4766154e+05
   1.4334778e-09  -4.2953727e-05   2.1989950e+00   2.1916572e+00  -2.4624546e+05
   1.4344782e-09  -4.2708107e-05   2.1989755e+00   2.1916797e+00  -2.4483747e+05
   1.4354785e-09  -4.2463892e-05   2.1989561e+00   2.1917020e+00  -2.4343753e+05
   1.4364788e-09  -4.2221073e-05   2.1989367e+00   2.1917241e+00  -2.4204560e+05
   1.4374792e-09  -4.1979643e-05   2.1989175e+00   2.1917462e+00  -2.4066162e+05
   1.4384795e-09  -4.1739592e-05   2.1988985e+00   2.1917681e+00  -2.3928556e+05
   1.4394798e-09  -4.1500915e-05   2.1988795e+00   2.1917899e+00  -2.3791736e+05
   1.4404802e-09  -4.1263602e-05   2.1988606e+00   2.1918115e+00  -2.3655698e+05
   1.4414805e-09  -4.1027646e-05   2.1988418e+00   2.1918331e+00  -2.3520438e+05
   1.4424808e-09  -4.0793039e-05   2.1988232e+00   2.1918545e+00  -2.3385952e+05
   1.4434812e-09  -4.0559774e-05   2.1988046e+00   2.1918758e+00  -2.3252234e+05
   1.4444815e-09  -4.0327842e-05   2.1987862e+00   2.1918970e+00  -2.3119281e+05
   1.4454818e-09  -4.0097237e-05   2.1987679e+00   2.1919180e+00  -2.2987088e+05
   1.4464822e-09  -3.9867950e-05   2.1987496e+00   2.1919389e+00  -2.2855650e+05
   1.4474825e-09  -3.9639974e-05   2.1987315e+00   2.1919598e+00  -2.2724965e+05
   1.4484828e-09  -3.9413302e-05   2.1987135e+00   2.1919805e+00  -2.2595026e+05
   1.4494832e-09  -3.9187926e-05   2.1986955e+00   2.1920010e+00  -2.2465830e+05
   1.4504835e-09  -3.8963838e-05   2.1986777e+00   2.1920215e+00  -2.2337373e+05
   1.4514838e-09  -3.8741032e-05   2.1986600e+00   2.1920418e+00  -2.2209650e+05
   1.4524842e-09  -3.8519500e-05   2.1986424e+00   2.1920621e+00  -2.2082657e+05
   1.4534845e-09  -3.8299234e-05   2.1986249e+00   2.1920822e+00  -2.1956390e+05
   1.4544848e-09  -3.8080228e-05   2.1986075e+00   2.1921022e+00  -2.1830846e+05
   1.4554852e-09  -3.7862474e-05   2.1985901e+00   2.1921220e+00  -2.1706019e+05
   1.4564855e-09  -3.7645965e-05   2.1985729e+00   2.1921418e+00  -2.1581905e+05
   1.4574858e-09  -3.7430695e-05   2.1985558e+00   2.1921615e+00  -2.1458501e+05
   1.4584862e-09  -3.7216655e-05   2.1985388e+00   2.1921810e+00  -2.1335803e+05
   1.4594865e-09  -3.7003839e-05   2.1985219e+00   2.1922004e+00  -2.1213806e+05
   1.4604868e-09  -3.6792239e-05   2.1985050e+00   2.1922197e+00  -2.1092507e+05
   1.4614872e-09  -3.6581850e-05   2.1984883e+00   2.1922390e+00  -2.0971901e+05
   1.4624875e-09  -3.6372664e-05   2.1984717e+00   2.1922581e+00  -2.0851985e+05
