   0.0000000e+00  -1.3153481e-01   6.2965855e+00   2.2590633e-04  -5.1986673e+08
   1.0003334e-12  -1.3101549e-01   6.2946300e+00   2.3514929e-04  -5.1845803e+08
   2.0006669e-12  -1.3049759e-01   6.2926412e+00   2.4474226e-04  -5.1704912e+08
   3.0010003e-12  -1.2998109e-01   6.2906186e+00   2.5469725e-04  -5.1564003e+08
   4.0013338e-12  -1.2946600e-01   6.2885618e+00   2.6502662e-04  -5.1423075e+08
   5.0016672e-12  -1.2895232e-01   6.2864704e+00   2.7574310e-04  -5.1282128e+08
   6.0020007e-12  -1.2844005e-01   6.2843440e+00   2.8685980e-04  -5.1141162e+08
   7.0023341e-12  -1.2792919e-01   6.2821820e+00   2.9839020e-04  -5.1000179e+08
   8.0026676e-12  -1.2741974e-01   6.2799842e+00   3.1034819e-04  -5.0859177e+08
   9.0030010e-12  -1.2691171e-01   6.2777500e+00   3.2274806e-04  -5.0718159e+08
   1.0003334e-11  -1.2640508e-01   6.2754790e+00   3.3560451e-04  -5.0577123e+08
   1.1003668e-11  -1.2589986e-01   6.2731708e+00   3.4893266e-04  -5.0436071e+08
   1.2004001e-11  -1.2539606e-01   6.2708250e+00   3.6274806e-04  -5.0295003e+08
   1.3004335e-11  -1.2489367e-01   6.2684410e+00   3.7706670e-04  -5.0153919e+08
   1.4004668e-11  -1.2439268e-01   6.2660186e+00   3.9190502e-04  -5.0012820e+08
   1.5005002e-11  -1.2389311e-01   6.2635572e+00   4.0727992e-04  -4.9871707e+08
   1.6005335e-11  -1.2339496e-01   6.2610563e+00   4.2320877e-04  -4.9730579e+08
   1.7005669e-11  -1.2289821e-01   6.2585156e+00   4.3970943e-04  -4.9589437e+08
   1.8006002e-11  -1.2240288e-01   6.2559346e+00   4.5680022e-04  -4.9448282e+08
   1.9006335e-11  -1.2190895e-01   6.2533129e+00   4.7449999e-04  -4.9307114e+08
   2.0006669e-11  -1.2141644e-01   6.2506500e+00   4.9282808e-04  -4.9165934e+08
   2.1007002e-11  -1.2092535e-01   6.2479455e+00   5.1180435e-04  -4.9024743e+08
   2.2007336e-11  -1.2043566e-01   6.2451989e+00   5.3144921e-04  -4.8883541e+08
   2.3007669e-11  -1.1994739e-01   6.2424099e+00   5.5178359e-04  -4.8742328e+08
   2.4008003e-11  -1.1946053e-01   6.2395778e+00   5.7282897e-04  -4.8601106e+08
   2.5008336e-11  -1.1897508e-01   6.2367024e+00   5.9460740e-04  -4.8459875e+08
   2.6008670e-11  -1.1849105e-01   6.2337831e+00   6.1714150e-04  -4.8318635e+08
   2.7009003e-11  -1.1800843e-01   6.2308196e+00   6.4045447e-04  -4.8177388e+08
   2.8009336e-11  -1.1752722e-01   6.2278113e+00   6.6457011e-04  -4.8036135e+08
   2.9009670e-11  -1.1704742e-01   6.2247579e+00   6.8951281e-04  -4.7894875e+08
   3.0010003e-11  -1.1656904e-01   6.2216589e+00   7.1530758e-04  -4.7753609e+08
   3.1010337e-11  -1.1609207e-01   6.2185138e+00   7.4198006e-04  -4.7612340e+08
   3.2010670e-11  -1.1561652e-01   6.2153223e+00   7.6955653e-04  -4.7471067e+08
   3.3011004e-11  -1.1514238e-01   6.2120839e+00   7.9806389e-04  -4.7329790e+08
   3.4011337e-11  -1.1466965e-01   6.2087981e+00   8.2752973e-04  -4.7188512e+08
   3.5011671e-11  -1.1419833e-01   6.2054645e+00   8.5798228e-04  -4.7047233e+08
   3.6012004e-11  -1.1372843e-01   6.2020828e+00   8.8945048e-04  -4.6905954e+08
   3.7012337e-11  -1.1325994e-01   6.1986524e+00   9.2196393e-04  -4.6764676e+08
   3.8012671e-11  -1.1279287e-01   6.1951729e+00   9.5555293e-04  -4.6623399e+08
   3.9013004e-11  -1.1232720e-01   6.1916440e+00   9.9024852e-04  -4.6482126e+08
   4.0013338e-11  -1.1186295e-01   6.1880651e+00   1.0260824e-03  -4.6340856e+08
   4.1013671e-11  -1.1140012e-01   6.1844359e+00   1.0630871e-03  -4.6199591e+08
   4.2014005e-11  -1.1093870e-01   6.1807560e+00   1.1012958e-03  -4.6058332e+08
   4.3014338e-11  -1.1047869e-01   6.1770249e+00   1.1407425e-03  -4.5917080e+08
   4.4014672e-11  -1.1002009e-01   6.1732423e+00   1.1814619e-03  -4.5775836e+08
   4.5015005e-11  -1.0956290e-01   6.1694076e+00   1.2234895e-03  -4.5634601e+08
   4.6015338e-11  -1.0910713e-01   6.1655206e+00   1.2668616e-03  -4.5493377e+08
   4.7015672e-11  -1.0865278e-01   6.1615808e+00   1.3116153e-03  -4.5352165e+08
   4.8016005e-11  -1.0819983e-01   6.1575878e+00   1.3577884e-03  -4.5210966e+08
   4.9016339e-11  -1.0774830e-01   6.1535413e+00   1.4054197e-03  -4.5069781e+08
   5.0016672e-11  -1.0729817e-01   6.1494408e+00   1.4545486e-03  -4.4928611e+08
   5.1017006e-11  -1.0684947e-01   6.1452859e+00   1.5052155e-03  -4.4787458e+08
   5.2017339e-11  -1.0640217e-01   6.1410764e+00   1.5574616e-03  -4.4646323e+08
   5.3017673e-11  -1.0595628e-01   6.1368117e+00   1.6113289e-03  -4.4505208e+08
   5.4018006e-11  -1.0551181e-01   6.1324915e+00   1.6668604e-03  -4.4364113e+08
   5.5018339e-11  -1.0506875e-01   6.1281155e+00   1.7240997e-03  -4.4223041e+08
   5.6018673e-11  -1.0462710e-01   6.1236833e+00   1.7830914e-03  -4.4081993e+08
   5.7019006e-11  -1.0418685e-01   6.1191946e+00   1.8438812e-03  -4.3940970e+08
   5.8019340e-11  -1.0374802e-01   6.1146489e+00   1.9065155e-03  -4.3799973e+08
   5.9019673e-11  -1.0331060e-01   6.1100460e+00   1.9710414e-03  -4.3659005e+08
   6.0020007e-11  -1.0287460e-01   6.1053855e+00   2.0375073e-03  -4.3518067e+08
   6.1020340e-11  -1.0243999e-01   6.1006671e+00   2.1059622e-03  -4.3377160e+08
   6.2020674e-11  -1.0200680e-01   6.0958904e+00   2.1764563e-03  -4.3236286e+08
   6.3021007e-11  -1.0157502e-01   6.0910552e+00   2.2490404e-03  -4.3095447e+08
   6.4021340e-11  -1.0114465e-01   6.0861611e+00   2.3237664e-03  -4.2954644e+08
   6.5021674e-11  -1.0071568e-01   6.0812078e+00   2.4006873e-03  -4.2813879e+08
   6.6022007e-11  -1.0028813e-01   6.0761950e+00   2.4798568e-03  -4.2673154e+08
   6.7022341e-11  -9.9861979e-02   6.0711224e+00   2.5613296e-03  -4.2532471e+08
   6.8022674e-11  -9.9437236e-02   6.0659897e+00   2.6451614e-03  -4.2391830e+08
   6.9023008e-11  -9.9013901e-02   6.0607967e+00   2.7314089e-03  -4.2251235e+08
   7.0023341e-11  -9.8591971e-02   6.0555431e+00   2.8201296e-03  -4.2110687e+08
   7.1023675e-11  -9.8171448e-02   6.0502285e+00   2.9113821e-03  -4.1970188e+08
   7.2024008e-11  -9.7752329e-02   6.0448529e+00   3.0052260e-03  -4.1829740e+08
   7.3024341e-11  -9.7334615e-02   6.0394158e+00   3.1017218e-03  -4.1689344e+08
   7.4024675e-11  -9.6918305e-02   6.0339171e+00   3.2009310e-03  -4.1549003e+08
   7.5025008e-11  -9.6503399e-02   6.0283565e+00   3.3029160e-03  -4.1408719e+08
   7.6025342e-11  -9.6089896e-02   6.0227339e+00   3.4077402e-03  -4.1268493e+08
   7.7025675e-11  -9.5677795e-02   6.0170489e+00   3.5154681e-03  -4.1128328e+08
   7.8026009e-11  -9.5267096e-02   6.0113014e+00   3.6261651e-03  -4.0988226e+08
   7.9026342e-11  -9.4857798e-02   6.0054913e+00   3.7398975e-03  -4.0848189e+08
   8.0026676e-11  -9.4449901e-02   5.9996182e+00   3.8567327e-03  -4.0708219e+08
   8.1027009e-11  -9.4043403e-02   5.9936820e+00   3.9767389e-03  -4.0568317e+08
   8.2027342e-11  -9.3638304e-02   5.9876827e+00   4.0999856e-03  -4.0428487e+08
   8.3027676e-11  -9.3234604e-02   5.9816199e+00   4.2265430e-03  -4.0288731e+08
   8.4028009e-11  -9.2832301e-02   5.9754935e+00   4.3564822e-03  -4.0149050e+08
   8.5028343e-11  -9.2431396e-02   5.9693035e+00   4.4898756e-03  -4.0009447e+08
   8.6028676e-11  -9.2031886e-02   5.9630496e+00   4.6267963e-03  -3.9869925e+08
   8.7029010e-11  -9.1633771e-02   5.9567318e+00   4.7673183e-03  -3.9730485e+08
   8.8029343e-11  -9.1237051e-02   5.9503499e+00   4.9115169e-03  -3.9591130e+08
   8.9029677e-11  -9.0841724e-02   5.9439038e+00   5.0594679e-03  -3.9451862e+08
   9.0030010e-11  -9.0447790e-02   5.9373935e+00   5.2112485e-03  -3.9312684e+08
   9.1030343e-11  -9.0055248e-02   5.9308189e+00   5.3669364e-03  -3.9173598e+08
   9.2030677e-11  -8.9664097e-02   5.9241798e+00   5.5266105e-03  -3.9034607e+08
   9.3031010e-11  -8.9274335e-02   5.9174763e+00   5.6903506e-03  -3.8895712e+08
   9.4031344e-11  -8.8885962e-02   5.9107083e+00   5.8582373e-03  -3.8756917e+08
   9.5031677e-11  -8.8498977e-02   5.9038758e+00   6.0303521e-03  -3.8618223e+08
   9.6032011e-11  -8.8113379e-02   5.8969787e+00   6.2067776e-03  -3.8479634e+08
   9.7032344e-11  -8.7729167e-02   5.8900170e+00   6.3875970e-03  -3.8341152e+08
   9.8032678e-11  -8.7346339e-02   5.8829907e+00   6.5728945e-03  -3.8202780e+08
   9.9033011e-11  -8.6964895e-02   5.8758998e+00   6.7627551e-03  -3.8064520e+08
   1.0003334e-10  -8.6584833e-02   5.8687443e+00   6.9572649e-03  -3.7926374e+08
   1.0103368e-10  -8.6206153e-02   5.8615243e+00   7.1565104e-03  -3.7788346e+08
   1.0203401e-10  -8.5828852e-02   5.8542399e+00   7.3605792e-03  -3.7650438e+08
   1.0303434e-10  -8.5452931e-02   5.8468909e+00   7.5695597e-03  -3.7512652e+08
   1.0403468e-10  -8.5078387e-02   5.8394776e+00   7.7835410e-03  -3.7374992e+08
   1.0503501e-10  -8.4705219e-02   5.8320000e+00   8.0026130e-03  -3.7237460e+08
   1.0603535e-10  -8.4333427e-02   5.8244582e+00   8.2268664e-03  -3.7100058e+08
   1.0703568e-10  -8.3963008e-02   5.8168523e+00   8.4563925e-03  -3.6962791e+08
   1.0803601e-10  -8.3593961e-02   5.8091823e+00   8.6912834e-03  -3.6825659e+08
   1.0903635e-10  -8.3226286e-02   5.8014485e+00   8.9316320e-03  -3.6688666e+08
   1.1003668e-10  -8.2859980e-02   5.7936510e+00   9.1775317e-03  -3.6551816e+08
   1.1103701e-10  -8.2495042e-02   5.7857898e+00   9.4290768e-03  -3.6415110e+08
   1.1203735e-10  -8.2131471e-02   5.7778652e+00   9.6863619e-03  -3.6278551e+08
   1.1303768e-10  -8.1769265e-02   5.7698773e+00   9.9494826e-03  -3.6142143e+08
   1.1403801e-10  -8.1408423e-02   5.7618263e+00   1.0218535e-02  -3.6005888e+08
   1.1503835e-10  -8.1048943e-02   5.7537124e+00   1.0493615e-02  -3.5869788e+08
   1.1603868e-10  -8.0690824e-02   5.7455359e+00   1.0774821e-02  -3.5733848e+08
   1.1703901e-10  -8.0334063e-02   5.7372968e+00   1.1062249e-02  -3.5598069e+08
   1.1803935e-10  -7.9978660e-02   5.7289955e+00   1.1355999e-02  -3.5462455e+08
   1.1903968e-10  -7.9624613e-02   5.7206322e+00   1.1656168e-02  -3.5327009e+08
   1.2004001e-10  -7.9271919e-02   5.7122072e+00   1.1962856e-02  -3.5191733e+08
   1.2104035e-10  -7.8920578e-02   5.7037206e+00   1.2276163e-02  -3.5056630e+08
   1.2204068e-10  -7.8570587e-02   5.6951728e+00   1.2596188e-02  -3.4921704e+08
   1.2304101e-10  -7.8221945e-02   5.6865641e+00   1.2923032e-02  -3.4786957e+08
   1.2404135e-10  -7.7874650e-02   5.6778948e+00   1.3256795e-02  -3.4652392e+08
   1.2504168e-10  -7.7528699e-02   5.6691651e+00   1.3597579e-02  -3.4518012e+08
   1.2604201e-10  -7.7184093e-02   5.6603755e+00   1.3945484e-02  -3.4383820e+08
   1.2704235e-10  -7.6840827e-02   5.6515262e+00   1.4300613e-02  -3.4249819e+08
   1.2804268e-10  -7.6498901e-02   5.6426175e+00   1.4663067e-02  -3.4116012e+08
   1.2904301e-10  -7.6158312e-02   5.6336499e+00   1.5032948e-02  -3.3982402e+08
   1.3004335e-10  -7.5819059e-02   5.6246237e+00   1.5410358e-02  -3.3848992e+08
   1.3104368e-10  -7.5481139e-02   5.6155393e+00   1.5795399e-02  -3.3715785e+08
   1.3204401e-10  -7.5144550e-02   5.6063970e+00   1.6188175e-02  -3.3582783e+08
   1.3304435e-10  -7.4809291e-02   5.5971973e+00   1.6588787e-02  -3.3449991e+08
   1.3404468e-10  -7.4475359e-02   5.5879406e+00   1.6997339e-02  -3.3317410e+08
   1.3504502e-10  -7.4142752e-02   5.5786272e+00   1.7413932e-02  -3.3185044e+08
   1.3604535e-10  -7.3811468e-02   5.5692577e+00   1.7838669e-02  -3.3052896e+08
   1.3704568e-10  -7.3481504e-02   5.5598324e+00   1.8271653e-02  -3.2920968e+08
   1.3804602e-10  -7.3152860e-02   5.5503519e+00   1.8712987e-02  -3.2789264e+08
   1.3904635e-10  -7.2825531e-02   5.5408166e+00   1.9162772e-02  -3.2657786e+08
   1.4004668e-10  -7.2499516e-02   5.5312269e+00   1.9621111e-02  -3.2526538e+08
   1.4104702e-10  -7.2174813e-02   5.5215833e+00   2.0088105e-02  -3.2395522e+08
   1.4204735e-10  -7.1851419e-02   5.5118864e+00   2.0563858e-02  -3.2264742e+08
   1.4304768e-10  -7.1529333e-02   5.5021365e+00   2.1048469e-02  -3.2134200e+08
   1.4404802e-10  -7.1208550e-02   5.4923344e+00   2.1542042e-02  -3.2003899e+08
   1.4504835e-10  -7.0889070e-02   5.4824803e+00   2.2044675e-02  -3.1873843e+08
   1.4604868e-10  -7.0570890e-02   5.4725750e+00   2.2556471e-02  -3.1744033e+08
   1.4704902e-10  -7.0254006e-02   5.4626189e+00   2.3077529e-02  -3.1614473e+08
   1.4804935e-10  -6.9938418e-02   5.4526125e+00   2.3607949e-02  -3.1485166e+08
   1.4904968e-10  -6.9624121e-02   5.4425565e+00   2.4147830e-02  -3.1356115e+08
   1.5005002e-10  -6.9311114e-02   5.4324513e+00   2.4697272e-02  -3.1227322e+08
   1.5105035e-10  -6.8999394e-02   5.4222977e+00   2.5256373e-02  -3.1098791e+08
   1.5205068e-10  -6.8688958e-02   5.4120960e+00   2.5825230e-02  -3.0970523e+08
   1.5305102e-10  -6.8379804e-02   5.4018470e+00   2.6403941e-02  -3.0842523e+08
   1.5405135e-10  -6.8071929e-02   5.3915512e+00   2.6992602e-02  -3.0714792e+08
   1.5505168e-10  -6.7765330e-02   5.3812093e+00   2.7591309e-02  -3.0587334e+08
   1.5605202e-10  -6.7460004e-02   5.3708217e+00   2.8200158e-02  -3.0460151e+08
   1.5705235e-10  -6.7155950e-02   5.3603892e+00   2.8819242e-02  -3.0333247e+08
   1.5805268e-10  -6.6853163e-02   5.3499124e+00   2.9448656e-02  -3.0206623e+08
   1.5905302e-10  -6.6551641e-02   5.3393919e+00   3.0088493e-02  -3.0080282e+08
   1.6005335e-10  -6.6251382e-02   5.3288284e+00   3.0738844e-02  -2.9954227e+08
   1.6105368e-10  -6.5952382e-02   5.3182225e+00   3.1399802e-02  -2.9828462e+08
   1.6205402e-10  -6.5654639e-02   5.3075747e+00   3.2071455e-02  -2.9702987e+08
   1.6305435e-10  -6.5358149e-02   5.2968859e+00   3.2753895e-02  -2.9577807e+08
   1.6405468e-10  -6.5062910e-02   5.2861567e+00   3.3447208e-02  -2.9452923e+08
   1.6505502e-10  -6.4768918e-02   5.2753876e+00   3.4151483e-02  -2.9328339e+08
   1.6605535e-10  -6.4476171e-02   5.2645795e+00   3.4866806e-02  -2.9204056e+08
   1.6705569e-10  -6.4184666e-02   5.2537329e+00   3.5593263e-02  -2.9080077e+08
   1.6805602e-10  -6.3894399e-02   5.2428487e+00   3.6330938e-02  -2.8956406e+08
   1.6905635e-10  -6.3605368e-02   5.2319273e+00   3.7079913e-02  -2.8833043e+08
   1.7005669e-10  -6.3317569e-02   5.2209696e+00   3.7840271e-02  -2.8709992e+08
   1.7105702e-10  -6.3030999e-02   5.2099762e+00   3.8612094e-02  -2.8587256e+08
   1.7205735e-10  -6.2745656e-02   5.1989479e+00   3.9395459e-02  -2.8464835e+08
   1.7305769e-10  -6.2461535e-02   5.1878853e+00   4.0190447e-02  -2.8342734e+08
   1.7405802e-10  -6.2178634e-02   5.1767891e+00   4.0997134e-02  -2.8220954e+08
   1.7505835e-10  -6.1896949e-02   5.1656601e+00   4.1815596e-02  -2.8099497e+08
   1.7605869e-10  -6.1616478e-02   5.1544990e+00   4.2645907e-02  -2.7978366e+08
   1.7705902e-10  -6.1337217e-02   5.1433065e+00   4.3488142e-02  -2.7857563e+08
   1.7805935e-10  -6.1059162e-02   5.1320832e+00   4.4342371e-02  -2.7737090e+08
   1.7905969e-10  -6.0782311e-02   5.1208300e+00   4.5208665e-02  -2.7616949e+08
   1.8006002e-10  -6.0506659e-02   5.1095476e+00   4.6087093e-02  -2.7497143e+08
   1.8106035e-10  -6.0232205e-02   5.0982366e+00   4.6977723e-02  -2.7377674e+08
   1.8206069e-10  -5.9958943e-02   5.0868978e+00   4.7880620e-02  -2.7258543e+08
   1.8306102e-10  -5.9686872e-02   5.0755320e+00   4.8795850e-02  -2.7139754e+08
   1.8406135e-10  -5.9415987e-02   5.0641398e+00   4.9723476e-02  -2.7021307e+08
   1.8506169e-10  -5.9146285e-02   5.0527221e+00   5.0663559e-02  -2.6903205e+08
   1.8606202e-10  -5.8877763e-02   5.0412794e+00   5.1616159e-02  -2.6785449e+08
   1.8706235e-10  -5.8610416e-02   5.0298127e+00   5.2581335e-02  -2.6668042e+08
   1.8806269e-10  -5.8344243e-02   5.0183225e+00   5.3559143e-02  -2.6550986e+08
   1.8906302e-10  -5.8079238e-02   5.0068097e+00   5.4549639e-02  -2.6434283e+08
   1.9006335e-10  -5.7815399e-02   4.9952750e+00   5.5552877e-02  -2.6317933e+08
   1.9106369e-10  -5.7552722e-02   4.9837191e+00   5.6568908e-02  -2.6201939e+08
   1.9206402e-10  -5.7291203e-02   4.9721427e+00   5.7597782e-02  -2.6086304e+08
   1.9306435e-10  -5.7030839e-02   4.9605466e+00   5.8639549e-02  -2.5971027e+08
   1.9406469e-10  -5.6771627e-02   4.9489315e+00   5.9694255e-02  -2.5856112e+08
   1.9506502e-10  -5.6513562e-02   4.9372982e+00   6.0761946e-02  -2.5741560e+08
   1.9606536e-10  -5.6256641e-02   4.9256473e+00   6.1842664e-02  -2.5627371e+08
   1.9706569e-10  -5.6000860e-02   4.9139796e+00   6.2936452e-02  -2.5513549e+08
   1.9806602e-10  -5.5746216e-02   4.9022959e+00   6.4043350e-02  -2.5400094e+08
   1.9906636e-10  -5.5492705e-02   4.8905969e+00   6.5163395e-02  -2.5287008e+08
   2.0006669e-10  -5.5240323e-02   4.8788833e+00   6.6296626e-02  -2.5174293e+08
   2.0106702e-10  -5.4989067e-02   4.8671557e+00   6.7443075e-02  -2.5061949e+08
   2.0206736e-10  -5.4738933e-02   4.8554151e+00   6.8602776e-02  -2.4949979e+08
   2.0306769e-10  -5.4489917e-02   4.8436620e+00   6.9775760e-02  -2.4838383e+08
   2.0406802e-10  -5.4242015e-02   4.8318971e+00   7.0962056e-02  -2.4727162e+08
   2.0506836e-10  -5.3995224e-02   4.8201213e+00   7.2161692e-02  -2.4616319e+08
   2.0606869e-10  -5.3749539e-02   4.8083352e+00   7.3374694e-02  -2.4505854e+08
   2.0706902e-10  -5.3504958e-02   4.7965395e+00   7.4601084e-02  -2.4395768e+08
   2.0806936e-10  -5.3261476e-02   4.7847349e+00   7.5840886e-02  -2.4286063e+08
   2.0906969e-10  -5.3019089e-02   4.7729222e+00   7.7094120e-02  -2.4176740e+08
   2.1007002e-10  -5.2777794e-02   4.7611020e+00   7.8360803e-02  -2.4067800e+08
   2.1107036e-10  -5.2537586e-02   4.7492750e+00   7.9640952e-02  -2.3959243e+08
   2.1207069e-10  -5.2298463e-02   4.7374419e+00   8.0934582e-02  -2.3851071e+08
   2.1307102e-10  -5.2060420e-02   4.7256035e+00   8.2241705e-02  -2.3743285e+08
   2.1407136e-10  -5.1823452e-02   4.7137603e+00   8.3562333e-02  -2.3635886e+08
   2.1507169e-10  -5.1587557e-02   4.7019132e+00   8.4896475e-02  -2.3528874e+08
   2.1607202e-10  -5.1352731e-02   4.6900626e+00   8.6244137e-02  -2.3422250e+08
   2.1707236e-10  -5.1118969e-02   4.6782094e+00   8.7605326e-02  -2.3316016e+08
   2.1807269e-10  -5.0886268e-02   4.6663542e+00   8.8980044e-02  -2.3210172e+08
   2.1907302e-10  -5.0654623e-02   4.6544977e+00   9.0368294e-02  -2.3104718e+08
   2.2007336e-10  -5.0424032e-02   4.6426405e+00   9.1770075e-02  -2.2999656e+08
   2.2107369e-10  -5.0194489e-02   4.6307832e+00   9.3185386e-02  -2.2894986e+08
   2.2207402e-10  -4.9965991e-02   4.6189266e+00   9.4614222e-02  -2.2790709e+08
   2.2307436e-10  -4.9738534e-02   4.6070712e+00   9.6056579e-02  -2.2686825e+08
   2.2407469e-10  -4.9512115e-02   4.5952177e+00   9.7512448e-02  -2.2583334e+08
   2.2507503e-10  -4.9286729e-02   4.5833668e+00   9.8981821e-02  -2.2480238e+08
   2.2607536e-10  -4.9062371e-02   4.5715190e+00   1.0046469e-01  -2.2377537e+08
   2.2707569e-10  -4.8839040e-02   4.5596751e+00   1.0196103e-01  -2.2275231e+08
   2.2807603e-10  -4.8616729e-02   4.5478355e+00   1.0347084e-01  -2.2173321e+08
   2.2907636e-10  -4.8395436e-02   4.5360010e+00   1.0499410e-01  -2.2071807e+08
   2.3007669e-10  -4.8175156e-02   4.5241720e+00   1.0653079e-01  -2.1970689e+08
   2.3107703e-10  -4.7955886e-02   4.5123494e+00   1.0808089e-01  -2.1869967e+08
   2.3207736e-10  -4.7737622e-02   4.5005335e+00   1.0964439e-01  -2.1769643e+08
   2.3307769e-10  -4.7520358e-02   4.4887251e+00   1.1122124e-01  -2.1669715e+08
   2.3407803e-10  -4.7304093e-02   4.4769246e+00   1.1281144e-01  -2.1570185e+08
   2.3507836e-10  -4.7088821e-02   4.4651327e+00   1.1441495e-01  -2.1471053e+08
   2.3607869e-10  -4.6874538e-02   4.4533500e+00   1.1603175e-01  -2.1372318e+08
   2.3707903e-10  -4.6661241e-02   4.4415770e+00   1.1766181e-01  -2.1273981e+08
   2.3807936e-10  -4.6448926e-02   4.4298142e+00   1.1930509e-01  -2.1176041e+08
   2.3907969e-10  -4.6237589e-02   4.4180623e+00   1.2096156e-01  -2.1078499e+08
   2.4008003e-10  -4.6027225e-02   4.4063217e+00   1.2263118e-01  -2.0981355e+08
   2.4108036e-10  -4.5817831e-02   4.3945930e+00   1.2431393e-01  -2.0884609e+08
   2.4208069e-10  -4.5609402e-02   4.3828768e+00   1.2600975e-01  -2.0788261e+08
   2.4308103e-10  -4.5401935e-02   4.3711736e+00   1.2771862e-01  -2.0692310e+08
   2.4408136e-10  -4.5195427e-02   4.3594838e+00   1.2944049e-01  -2.0596756e+08
   2.4508169e-10  -4.4989871e-02   4.3478080e+00   1.3117531e-01  -2.0501600e+08
   2.4608203e-10  -4.4785266e-02   4.3361468e+00   1.3292304e-01  -2.0406841e+08
   2.4708236e-10  -4.4581607e-02   4.3245005e+00   1.3468365e-01  -2.0312478e+08
   2.4808269e-10  -4.4378889e-02   4.3128698e+00   1.3645707e-01  -2.0218512e+08
   2.4908303e-10  -4.4177109e-02   4.3012551e+00   1.3824326e-01  -2.0124943e+08
   2.5008336e-10  -4.3976264e-02   4.2896568e+00   1.4004217e-01  -2.0031770e+08
   2.5108369e-10  -4.3776348e-02   4.2780755e+00   1.4185374e-01  -1.9938992e+08
   2.5208403e-10  -4.3577359e-02   4.2665116e+00   1.4367794e-01  -1.9846610e+08
   2.5308436e-10  -4.3379291e-02   4.2549656e+00   1.4551469e-01  -1.9754622e+08
   2.5408469e-10  -4.3182142e-02   4.2434379e+00   1.4736394e-01  -1.9663029e+08
   2.5508503e-10  -4.2985907e-02   4.2319290e+00   1.4922564e-01  -1.9571830e+08
   2.5608536e-10  -4.2790582e-02   4.2204393e+00   1.5109973e-01  -1.9481025e+08
   2.5708570e-10  -4.2596163e-02   4.2089693e+00   1.5298614e-01  -1.9390613e+08
   2.5808603e-10  -4.2402647e-02   4.1975193e+00   1.5488482e-01  -1.9300593e+08
   2.5908636e-10  -4.2210029e-02   4.1860899e+00   1.5679570e-01  -1.9210965e+08
   2.6008670e-10  -4.2018306e-02   4.1746814e+00   1.5871872e-01  -1.9121729e+08
   2.6108703e-10  -4.1827474e-02   4.1632942e+00   1.6065382e-01  -1.9032883e+08
   2.6208736e-10  -4.1637528e-02   4.1519288e+00   1.6260092e-01  -1.8944428e+08
   2.6308770e-10  -4.1448465e-02   4.1405855e+00   1.6455996e-01  -1.8856363e+08
   2.6408803e-10  -4.1260281e-02   4.1292647e+00   1.6653087e-01  -1.8768686e+08
   2.6508836e-10  -4.1072972e-02   4.1179667e+00   1.6851359e-01  -1.8681397e+08
   2.6608870e-10  -4.0886535e-02   4.1066921e+00   1.7050803e-01  -1.8594496e+08
   2.6708903e-10  -4.0700964e-02   4.0954411e+00   1.7251412e-01  -1.8507982e+08
   2.6808936e-10  -4.0516257e-02   4.0842141e+00   1.7453181e-01  -1.8421853e+08
   2.6908970e-10  -4.0332410e-02   4.0730114e+00   1.7656100e-01  -1.8336110e+08
   2.7009003e-10  -4.0149418e-02   4.0618335e+00   1.7860162e-01  -1.8250751e+08
   2.7109036e-10  -3.9967279e-02   4.0506806e+00   1.8065361e-01  -1.8165776e+08
   2.7209070e-10  -3.9785987e-02   4.0395531e+00   1.8271687e-01  -1.8081184e+08
   2.7309103e-10  -3.9605540e-02   4.0284512e+00   1.8479133e-01  -1.7996973e+08
   2.7409136e-10  -3.9425933e-02   4.0173755e+00   1.8687692e-01  -1.7913143e+08
   2.7509170e-10  -3.9247163e-02   4.0063260e+00   1.8897355e-01  -1.7829694e+08
   2.7609203e-10  -3.9069225e-02   3.9953032e+00   1.9108114e-01  -1.7746624e+08
   2.7709236e-10  -3.8892117e-02   3.9843074e+00   1.9319961e-01  -1.7663931e+08
   2.7809270e-10  -3.8715834e-02   3.9733389e+00   1.9532887e-01  -1.7581617e+08
   2.7909303e-10  -3.8540372e-02   3.9623978e+00   1.9746884e-01  -1.7499678e+08
   2.8009336e-10  -3.8365728e-02   3.9514847e+00   1.9961944e-01  -1.7418115e+08
   2.8109370e-10  -3.8191898e-02   3.9405996e+00   2.0178058e-01  -1.7336926e+08
   2.8209403e-10  -3.8018878e-02   3.9297429e+00   2.0395218e-01  -1.7256111e+08
   2.8309436e-10  -3.7846665e-02   3.9189149e+00   2.0613414e-01  -1.7175668e+08
   2.8409470e-10  -3.7675255e-02   3.9081158e+00   2.0832638e-01  -1.7095596e+08
   2.8509503e-10  -3.7504644e-02   3.8973458e+00   2.1052881e-01  -1.7015894e+08
   2.8609537e-10  -3.7334828e-02   3.8866053e+00   2.1274135e-01  -1.6936562e+08
   2.8709570e-10  -3.7165804e-02   3.8758944e+00   2.1496390e-01  -1.6857597e+08
   2.8809603e-10  -3.6997568e-02   3.8652134e+00   2.1719637e-01  -1.6779000e+08
   2.8909637e-10  -3.6830116e-02   3.8545625e+00   2.1943866e-01  -1.6700768e+08
   2.9009670e-10  -3.6663445e-02   3.8439420e+00   2.2169070e-01  -1.6622900e+08
   2.9109703e-10  -3.6497551e-02   3.8333521e+00   2.2395239e-01  -1.6545397e+08
   2.9209737e-10  -3.6332430e-02   3.8227929e+00   2.2622362e-01  -1.6468255e+08
   2.9309770e-10  -3.6168080e-02   3.8122647e+00   2.2850432e-01  -1.6391475e+08
   2.9409803e-10  -3.6004495e-02   3.8017677e+00   2.3079438e-01  -1.6315055e+08
   2.9509837e-10  -3.5841673e-02   3.7913021e+00   2.3309371e-01  -1.6238994e+08
   2.9609870e-10  -3.5679610e-02   3.7808681e+00   2.3540222e-01  -1.6163290e+08
   2.9709903e-10  -3.5518303e-02   3.7704659e+00   2.3771980e-01  -1.6087943e+08
   2.9809937e-10  -3.5357748e-02   3.7600956e+00   2.4004637e-01  -1.6012951e+08
   2.9909970e-10  -3.5197941e-02   3.7497574e+00   2.4238183e-01  -1.5938313e+08
   3.0010003e-10  -3.5038878e-02   3.7394515e+00   2.4472608e-01  -1.5864028e+08
   3.0110037e-10  -3.4880557e-02   3.7291781e+00   2.4707903e-01  -1.5790094e+08
   3.0210070e-10  -3.4722974e-02   3.7189373e+00   2.4944057e-01  -1.5716511e+08
   3.0310103e-10  -3.4566126e-02   3.7087293e+00   2.5181061e-01  -1.5643276e+08
   3.0410137e-10  -3.4410008e-02   3.6985542e+00   2.5418904e-01  -1.5570389e+08
   3.0510170e-10  -3.4254617e-02   3.6884122e+00   2.5657578e-01  -1.5497849e+08
   3.0610203e-10  -3.4099950e-02   3.6783033e+00   2.5897072e-01  -1.5425653e+08
   3.0710237e-10  -3.3946004e-02   3.6682279e+00   2.6137377e-01  -1.5353802e+08
   3.0810270e-10  -3.3792774e-02   3.6581858e+00   2.6378482e-01  -1.5282293e+08
   3.0910303e-10  -3.3640259e-02   3.6481774e+00   2.6620377e-01  -1.5211125e+08
   3.1010337e-10  -3.3488453e-02   3.6382027e+00   2.6863053e-01  -1.5140298e+08
   3.1110370e-10  -3.3337354e-02   3.6282619e+00   2.7106499e-01  -1.5069808e+08
   3.1210403e-10  -3.3186959e-02   3.6183550e+00   2.7350706e-01  -1.4999656e+08
   3.1310437e-10  -3.3037264e-02   3.6084821e+00   2.7595663e-01  -1.4929840e+08
   3.1410470e-10  -3.2888265e-02   3.5986434e+00   2.7841360e-01  -1.4860359e+08
   3.1510504e-10  -3.2739960e-02   3.5888390e+00   2.8087788e-01  -1.4791211e+08
   3.1610537e-10  -3.2592345e-02   3.5790689e+00   2.8334935e-01  -1.4722395e+08
   3.1710570e-10  -3.2445416e-02   3.5693332e+00   2.8582793e-01  -1.4653909e+08
   3.1810604e-10  -3.2299171e-02   3.5596321e+00   2.8831351e-01  -1.4585753e+08
   3.1910637e-10  -3.2153606e-02   3.5499656e+00   2.9080598e-01  -1.4517924e+08
   3.2010670e-10  -3.2008718e-02   3.5403337e+00   2.9330526e-01  -1.4450422e+08
   3.2110704e-10  -3.1864504e-02   3.5307366e+00   2.9581123e-01  -1.4383245e+08
   3.2210737e-10  -3.1720959e-02   3.5211744e+00   2.9832379e-01  -1.4316392e+08
   3.2310770e-10  -3.1578082e-02   3.5116470e+00   3.0084285e-01  -1.4249861e+08
   3.2410804e-10  -3.1435869e-02   3.5021546e+00   3.0336830e-01  -1.4183651e+08
   3.2510837e-10  -3.1294317e-02   3.4926972e+00   3.0590004e-01  -1.4117761e+08
   3.2610870e-10  -3.1153422e-02   3.4832748e+00   3.0843798e-01  -1.4052189e+08
   3.2710904e-10  -3.1013181e-02   3.4738875e+00   3.1098200e-01  -1.3986934e+08
   3.2810937e-10  -3.0873592e-02   3.4645355e+00   3.1353201e-01  -1.3921995e+08
   3.2910970e-10  -3.0734650e-02   3.4552186e+00   3.1608791e-01  -1.3857370e+08
   3.3011004e-10  -3.0596354e-02   3.4459369e+00   3.1864959e-01  -1.3793057e+08
   3.3111037e-10  -3.0458699e-02   3.4366905e+00   3.2121696e-01  -1.3729056e+08
   3.3211070e-10  -3.0321683e-02   3.4274794e+00   3.2378992e-01  -1.3665365e+08
   3.3311104e-10  -3.0185302e-02   3.4183037e+00   3.2636836e-01  -1.3601983e+08
   3.3411137e-10  -3.0049554e-02   3.4091633e+00   3.2895218e-01  -1.3538907e+08
   3.3511170e-10  -2.9914435e-02   3.4000583e+00   3.3154129e-01  -1.3476138e+08
   3.3611204e-10  -2.9779943e-02   3.3909887e+00   3.3413558e-01  -1.3413673e+08
   3.3711237e-10  -2.9646074e-02   3.3819545e+00   3.3673496e-01  -1.3351511e+08
   3.3811270e-10  -2.9512825e-02   3.3729558e+00   3.3933932e-01  -1.3289651e+08
   3.3911304e-10  -2.9380194e-02   3.3639924e+00   3.4194857e-01  -1.3228091e+08
   3.4011337e-10  -2.9248177e-02   3.3550646e+00   3.4456260e-01  -1.3166830e+08
   3.4111370e-10  -2.9116771e-02   3.3461721e+00   3.4718132e-01  -1.3105866e+08
   3.4211404e-10  -2.8985973e-02   3.3373151e+00   3.4980463e-01  -1.3045199e+08
   3.4311437e-10  -2.8855781e-02   3.3284936e+00   3.5243243e-01  -1.2984826e+08
   3.4411470e-10  -2.8726192e-02   3.3197075e+00   3.5506461e-01  -1.2924747e+08
   3.4511504e-10  -2.8597201e-02   3.3109568e+00   3.5770110e-01  -1.2864960e+08
   3.4611537e-10  -2.8468808e-02   3.3022415e+00   3.6034177e-01  -1.2805463e+08
   3.4711571e-10  -2.8341008e-02   3.2935617e+00   3.6298655e-01  -1.2746256e+08
   3.4811604e-10  -2.8213799e-02   3.2849172e+00   3.6563533e-01  -1.2687337e+08
   3.4911637e-10  -2.8087178e-02   3.2763081e+00   3.6828801e-01  -1.2628704e+08
   3.5011671e-10  -2.7961142e-02   3.2677344e+00   3.7094450e-01  -1.2570356e+08
   3.5111704e-10  -2.7835688e-02   3.2591959e+00   3.7360470e-01  -1.2512292e+08
   3.5211737e-10  -2.7710814e-02   3.2506928e+00   3.7626851e-01  -1.2454511e+08
   3.5311771e-10  -2.7586516e-02   3.2422249e+00   3.7893585e-01  -1.2397010e+08
   3.5411804e-10  -2.7462792e-02   3.2337923e+00   3.8160661e-01  -1.2339789e+08
   3.5511837e-10  -2.7339639e-02   3.2253949e+00   3.8428071e-01  -1.2282847e+08
   3.5611871e-10  -2.7217054e-02   3.2170327e+00   3.8695804e-01  -1.2226182e+08
   3.5711904e-10  -2.7095034e-02   3.2087055e+00   3.8963851e-01  -1.2169792e+08
   3.5811937e-10  -2.6973578e-02   3.2004135e+00   3.9232203e-01  -1.2113676e+08
   3.5911971e-10  -2.6852681e-02   3.1921565e+00   3.9500850e-01  -1.2057834e+08
   3.6012004e-10  -2.6732342e-02   3.1839346e+00   3.9769784e-01  -1.2002263e+08
   3.6112037e-10  -2.6612557e-02   3.1757476e+00   4.0038994e-01  -1.1946962e+08
   3.6212071e-10  -2.6493324e-02   3.1675955e+00   4.0308473e-01  -1.1891930e+08
   3.6312104e-10  -2.6374640e-02   3.1594782e+00   4.0578210e-01  -1.1837166e+08
   3.6412137e-10  -2.6256502e-02   3.1513958e+00   4.0848196e-01  -1.1782668e+08
   3.6512171e-10  -2.6138908e-02   3.1433481e+00   4.1118423e-01  -1.1728435e+08
   3.6612204e-10  -2.6021856e-02   3.1353351e+00   4.1388882e-01  -1.1674466e+08
   3.6712237e-10  -2.5905342e-02   3.1273567e+00   4.1659562e-01  -1.1620759e+08
   3.6812271e-10  -2.5789364e-02   3.1194130e+00   4.1930457e-01  -1.1567313e+08
   3.6912304e-10  -2.5673919e-02   3.1115037e+00   4.2201556e-01  -1.1514127e+08
   3.7012337e-10  -2.5559005e-02   3.1036289e+00   4.2472850e-01  -1.1461199e+08
   3.7112371e-10  -2.5444620e-02   3.0957885e+00   4.2744332e-01  -1.1408529e+08
   3.7212404e-10  -2.5330759e-02   3.0879824e+00   4.3015991e-01  -1.1356114e+08
   3.7312437e-10  -2.5217422e-02   3.0802106e+00   4.3287820e-01  -1.1303954e+08
   3.7412471e-10  -2.5104606e-02   3.0724730e+00   4.3559810e-01  -1.1252046e+08
   3.7512504e-10  -2.4992307e-02   3.0647694e+00   4.3831952e-01  -1.1200391e+08
   3.7612538e-10  -2.4880524e-02   3.0570999e+00   4.4104238e-01  -1.1148987e+08
   3.7712571e-10  -2.4769253e-02   3.0494644e+00   4.4376659e-01  -1.1097832e+08
   3.7812604e-10  -2.4658494e-02   3.0418628e+00   4.4649206e-01  -1.1046925e+08
   3.7912638e-10  -2.4548242e-02   3.0342950e+00   4.4921872e-01  -1.0996265e+08
   3.8012671e-10  -2.4438495e-02   3.0267609e+00   4.5194648e-01  -1.0945850e+08
   3.8112704e-10  -2.4329252e-02   3.0192605e+00   4.5467525e-01  -1.0895680e+08
   3.8212738e-10  -2.4220510e-02   3.0117937e+00   4.5740495e-01  -1.0845753e+08
   3.8312771e-10  -2.4112265e-02   3.0043603e+00   4.6013551e-01  -1.0796068e+08
   3.8412804e-10  -2.4004517e-02   2.9969604e+00   4.6286683e-01  -1.0746624e+08
   3.8512838e-10  -2.3897262e-02   2.9895938e+00   4.6559885e-01  -1.0697419e+08
   3.8612871e-10  -2.3790498e-02   2.9822605e+00   4.6833147e-01  -1.0648452e+08
   3.8712904e-10  -2.3684222e-02   2.9749603e+00   4.7106462e-01  -1.0599722e+08
   3.8812938e-10  -2.3578433e-02   2.9676932e+00   4.7379822e-01  -1.0551228e+08
   3.8912971e-10  -2.3473128e-02   2.9604590e+00   4.7653219e-01  -1.0502968e+08
   3.9013004e-10  -2.3368304e-02   2.9532578e+00   4.7926645e-01  -1.0454942e+08
   3.9113038e-10  -2.3263959e-02   2.9460893e+00   4.8200092e-01  -1.0407147e+08
   3.9213071e-10  -2.3160092e-02   2.9389536e+00   4.8473553e-01  -1.0359584e+08
   3.9313104e-10  -2.3056699e-02   2.9318505e+00   4.8747020e-01  -1.0312250e+08
   3.9413138e-10  -2.2953778e-02   2.9247799e+00   4.9020486e-01  -1.0265145e+08
   3.9513171e-10  -2.2851328e-02   2.9177417e+00   4.9293942e-01  -1.0218268e+08
   3.9613204e-10  -2.2749345e-02   2.9107359e+00   4.9567382e-01  -1.0171616e+08
   3.9713238e-10  -2.2647828e-02   2.9037623e+00   4.9840797e-01  -1.0125189e+08
   3.9813271e-10  -2.2546774e-02   2.8968208e+00   5.0114181e-01  -1.0078987e+08
   3.9913304e-10  -2.2446181e-02   2.8899114e+00   5.0387526e-01  -1.0033007e+08
   4.0013338e-10  -2.2346047e-02   2.8830339e+00   5.0660824e-01  -9.9872481e+07
   4.0113371e-10  -2.2246370e-02   2.8761883e+00   5.0934070e-01  -9.9417099e+07
   4.0213404e-10  -2.2147147e-02   2.8693744e+00   5.1207254e-01  -9.8963909e+07
   4.0313438e-10  -2.2048376e-02   2.8625922e+00   5.1480372e-01  -9.8512900e+07
   4.0413471e-10  -2.1950056e-02   2.8558415e+00   5.1753414e-01  -9.8064061e+07
   4.0513505e-10  -2.1852183e-02   2.8491222e+00   5.2026375e-01  -9.7617380e+07
   4.0613538e-10  -2.1754756e-02   2.8424343e+00   5.2299247e-01  -9.7172846e+07
   4.0713571e-10  -2.1657773e-02   2.8357776e+00   5.2572023e-01  -9.6730447e+07
   4.0813605e-10  -2.1561231e-02   2.8291521e+00   5.2844697e-01  -9.6290174e+07
   4.0913638e-10  -2.1465128e-02   2.8225575e+00   5.3117262e-01  -9.5852014e+07
   4.1013671e-10  -2.1369463e-02   2.8159939e+00   5.3389711e-01  -9.5415956e+07
   4.1113705e-10  -2.1274233e-02   2.8094612e+00   5.3662037e-01  -9.4981991e+07
   4.1213738e-10  -2.1179436e-02   2.8029591e+00   5.3934234e-01  -9.4550106e+07
   4.1313771e-10  -2.1085070e-02   2.7964876e+00   5.4206296e-01  -9.4120291e+07
   4.1413805e-10  -2.0991133e-02   2.7900466e+00   5.4478215e-01  -9.3692535e+07
   4.1513838e-10  -2.0897622e-02   2.7836361e+00   5.4749986e-01  -9.3266828e+07
   4.1613871e-10  -2.0804537e-02   2.7772558e+00   5.5021601e-01  -9.2843158e+07
   4.1713905e-10  -2.0711874e-02   2.7709056e+00   5.5293056e-01  -9.2421515e+07
   4.1813938e-10  -2.0619632e-02   2.7645856e+00   5.5564342e-01  -9.2001889e+07
   4.1913971e-10  -2.0527809e-02   2.7582955e+00   5.5835455e-01  -9.1584269e+07
   4.2014005e-10  -2.0436403e-02   2.7520352e+00   5.6106388e-01  -9.1168644e+07
   4.2114038e-10  -2.0345411e-02   2.7458047e+00   5.6377135e-01  -9.0755005e+07
   4.2214071e-10  -2.0254832e-02   2.7396038e+00   5.6647690e-01  -9.0343340e+07
   4.2314105e-10  -2.0164664e-02   2.7334325e+00   5.6918047e-01  -8.9933639e+07
   4.2414138e-10  -2.0074905e-02   2.7272905e+00   5.7188199e-01  -8.9525893e+07
   4.2514171e-10  -1.9985553e-02   2.7211779e+00   5.7458142e-01  -8.9120091e+07
   4.2614205e-10  -1.9896606e-02   2.7150944e+00   5.7727869e-01  -8.8716223e+07
   4.2714238e-10  -1.9808061e-02   2.7090400e+00   5.7997375e-01  -8.8314279e+07
   4.2814271e-10  -1.9719918e-02   2.7030145e+00   5.8266654e-01  -8.7914248e+07
   4.2914305e-10  -1.9632174e-02   2.6970180e+00   5.8535699e-01  -8.7516122e+07
   4.3014338e-10  -1.9544828e-02   2.6910501e+00   5.8804507e-01  -8.7119889e+07
   4.3114371e-10  -1.9457876e-02   2.6851109e+00   5.9073070e-01  -8.6725540e+07
   4.3214405e-10  -1.9371319e-02   2.6792002e+00   5.9341384e-01  -8.6333065e+07
   4.3314438e-10  -1.9285153e-02   2.6733179e+00   5.9609443e-01  -8.5942455e+07
   4.3414471e-10  -1.9199376e-02   2.6674639e+00   5.9877243e-01  -8.5553699e+07
   4.3514505e-10  -1.9113988e-02   2.6616381e+00   6.0144776e-01  -8.5166789e+07
   4.3614538e-10  -1.9028986e-02   2.6558404e+00   6.0412039e-01  -8.4781714e+07
   4.3714572e-10  -1.8944368e-02   2.6500706e+00   6.0679026e-01  -8.4398465e+07
   4.3814605e-10  -1.8860133e-02   2.6443286e+00   6.0945731e-01  -8.4017032e+07
   4.3914638e-10  -1.8776278e-02   2.6386144e+00   6.1212151e-01  -8.3637407e+07
   4.4014672e-10  -1.8692802e-02   2.6329278e+00   6.1478279e-01  -8.3259579e+07
   4.4114705e-10  -1.8609703e-02   2.6272687e+00   6.1744111e-01  -8.2883539e+07
   4.4214738e-10  -1.8526980e-02   2.6216370e+00   6.2009642e-01  -8.2509278e+07
   4.4314772e-10  -1.8444630e-02   2.6160326e+00   6.2274866e-01  -8.2136787e+07
   4.4414805e-10  -1.8362651e-02   2.6104553e+00   6.2539780e-01  -8.1766057e+07
   4.4514838e-10  -1.8281043e-02   2.6049051e+00   6.2804378e-01  -8.1397078e+07
   4.4614872e-10  -1.8199803e-02   2.5993818e+00   6.3068656e-01  -8.1029841e+07
   4.4714905e-10  -1.8118929e-02   2.5938853e+00   6.3332609e-01  -8.0664337e+07
   4.4814938e-10  -1.8038420e-02   2.5884156e+00   6.3596232e-01  -8.0300558e+07
   4.4914972e-10  -1.7958274e-02   2.5829725e+00   6.3859521e-01  -7.9938494e+07
   4.5015005e-10  -1.7878490e-02   2.5775558e+00   6.4122471e-01  -7.9578137e+07
   4.5115038e-10  -1.7799065e-02   2.5721655e+00   6.4385078e-01  -7.9219477e+07
   4.5215072e-10  -1.7719998e-02   2.5668015e+00   6.4647337e-01  -7.8862506e+07
   4.5315105e-10  -1.7641287e-02   2.5614636e+00   6.4909244e-01  -7.8507216e+07
   4.5415138e-10  -1.7562931e-02   2.5561518e+00   6.5170796e-01  -7.8153597e+07
   4.5515172e-10  -1.7484928e-02   2.5508659e+00   6.5431986e-01  -7.7801640e+07
   4.5615205e-10  -1.7407276e-02   2.5456058e+00   6.5692812e-01  -7.7451338e+07
   4.5715238e-10  -1.7329973e-02   2.5403714e+00   6.5953269e-01  -7.7102682e+07
   4.5815272e-10  -1.7253019e-02   2.5351626e+00   6.6213353e-01  -7.6755663e+07
   4.5915305e-10  -1.7176411e-02   2.5299793e+00   6.6473061e-01  -7.6410272e+07
   4.6015338e-10  -1.7100147e-02   2.5248213e+00   6.6732387e-01  -7.6066503e+07
   4.6115372e-10  -1.7024227e-02   2.5196886e+00   6.6991328e-01  -7.5724345e+07
   4.6215405e-10  -1.6948648e-02   2.5145810e+00   6.7249881e-01  -7.5383791e+07
   4.6315438e-10  -1.6873409e-02   2.5094985e+00   6.7508040e-01  -7.5044832e+07
   4.6415472e-10  -1.6798508e-02   2.5044409e+00   6.7765804e-01  -7.4707461e+07
   4.6515505e-10  -1.6723944e-02   2.4994081e+00   6.8023167e-01  -7.4371669e+07
   4.6615539e-10  -1.6649715e-02   2.4944000e+00   6.8280126e-01  -7.4037449e+07
   4.6715572e-10  -1.6575820e-02   2.4894164e+00   6.8536677e-01  -7.3704791e+07
   4.6815605e-10  -1.6502256e-02   2.4844574e+00   6.8792817e-01  -7.3373688e+07
   4.6915639e-10  -1.6429023e-02   2.4795227e+00   6.9048543e-01  -7.3044132e+07
   4.7015672e-10  -1.6356119e-02   2.4746122e+00   6.9303850e-01  -7.2716116e+07
   4.7115705e-10  -1.6283542e-02   2.4697260e+00   6.9558736e-01  -7.2389630e+07
   4.7215739e-10  -1.6211291e-02   2.4648637e+00   6.9813196e-01  -7.2064668e+07
   4.7315772e-10  -1.6139365e-02   2.4600254e+00   7.0067228e-01  -7.1741222e+07
   4.7415805e-10  -1.6067761e-02   2.4552109e+00   7.0320828e-01  -7.1419284e+07
   4.7515839e-10  -1.5996478e-02   2.4504201e+00   7.0573993e-01  -7.1098846e+07
   4.7615872e-10  -1.5925516e-02   2.4456529e+00   7.0826720e-01  -7.0779900e+07
   4.7715905e-10  -1.5854871e-02   2.4409092e+00   7.1079005e-01  -7.0462440e+07
   4.7815939e-10  -1.5784544e-02   2.4361889e+00   7.1330845e-01  -7.0146456e+07
   4.7915972e-10  -1.5714531e-02   2.4314918e+00   7.1582238e-01  -6.9831943e+07
   4.8016005e-10  -1.5644833e-02   2.4268180e+00   7.1833180e-01  -6.9518892e+07
   4.8116039e-10  -1.5575447e-02   2.4221671e+00   7.2083668e-01  -6.9207296e+07
   4.8216072e-10  -1.5506372e-02   2.4175393e+00   7.2333699e-01  -6.8897148e+07
   4.8316105e-10  -1.5437607e-02   2.4129343e+00   7.2583270e-01  -6.8588440e+07
   4.8416139e-10  -1.5369149e-02   2.4083520e+00   7.2832379e-01  -6.8281165e+07
   4.8516172e-10  -1.5300999e-02   2.4037924e+00   7.3081023e-01  -6.7975315e+07
   4.8616205e-10  -1.5233153e-02   2.3992553e+00   7.3329198e-01  -6.7670884e+07
   4.8716239e-10  -1.5165611e-02   2.3947406e+00   7.3576903e-01  -6.7367865e+07
   4.8816272e-10  -1.5098372e-02   2.3902482e+00   7.3824134e-01  -6.7066249e+07
   4.8916305e-10  -1.5031434e-02   2.3857781e+00   7.4070888e-01  -6.6766031e+07
   4.9016339e-10  -1.4964796e-02   2.3813300e+00   7.4317164e-01  -6.6467202e+07
   4.9116372e-10  -1.4898455e-02   2.3769040e+00   7.4562958e-01  -6.6169757e+07
   4.9216405e-10  -1.4832412e-02   2.3724999e+00   7.4808268e-01  -6.5873687e+07
   4.9316439e-10  -1.4766664e-02   2.3681175e+00   7.5053092e-01  -6.5578987e+07
   4.9416472e-10  -1.4701210e-02   2.3637569e+00   7.5297427e-01  -6.5285649e+07
   4.9516506e-10  -1.4636049e-02   2.3594178e+00   7.5541270e-01  -6.4993666e+07
   4.9616539e-10  -1.4571179e-02   2.3551002e+00   7.5784620e-01  -6.4703032e+07
   4.9716572e-10  -1.4506599e-02   2.3508040e+00   7.6027474e-01  -6.4413739e+07
   4.9816606e-10  -1.4442308e-02   2.3465291e+00   7.6269829e-01  -6.4125782e+07
   4.9916639e-10  -1.4378305e-02   2.3422754e+00   7.6511684e-01  -6.3839153e+07
   5.0016672e-10  -1.4314587e-02   2.3380427e+00   7.6753036e-01  -6.3553845e+07
   5.0116706e-10  -1.4251154e-02   2.3338310e+00   7.6993883e-01  -6.3269853e+07
   5.0216739e-10  -1.4188005e-02   2.3296402e+00   7.7234223e-01  -6.2987169e+07
   5.0316772e-10  -1.4125138e-02   2.3254702e+00   7.7474054e-01  -6.2705787e+07
   5.0416806e-10  -1.4062551e-02   2.3213209e+00   7.7713373e-01  -6.2425701e+07
   5.0516839e-10  -1.4000245e-02   2.3171921e+00   7.7952179e-01  -6.2146903e+07
   5.0616872e-10  -1.3938216e-02   2.3130838e+00   7.8190470e-01  -6.1869388e+07
   5.0716906e-10  -1.3876464e-02   2.3089958e+00   7.8428244e-01  -6.1593149e+07
   5.0816939e-10  -1.3814988e-02   2.3049282e+00   7.8665499e-01  -6.1318180e+07
   5.0916972e-10  -1.3753787e-02   2.3008807e+00   7.8902233e-01  -6.1044475e+07
   5.1017006e-10  -1.3692859e-02   2.2968533e+00   7.9138444e-01  -6.0772027e+07
   5.1117039e-10  -1.3632202e-02   2.2928459e+00   7.9374130e-01  -6.0500829e+07
   5.1217072e-10  -1.3571816e-02   2.2888584e+00   7.9609290e-01  -6.0230877e+07
   5.1317106e-10  -1.3511700e-02   2.2848907e+00   7.9843922e-01  -5.9962163e+07
   5.1417139e-10  -1.3451852e-02   2.2809426e+00   8.0078024e-01  -5.9694681e+07
   5.1517172e-10  -1.3392271e-02   2.2770142e+00   8.0311595e-01  -5.9428426e+07
   5.1617206e-10  -1.3332955e-02   2.2731053e+00   8.0544633e-01  -5.9163390e+07
   5.1717239e-10  -1.3273904e-02   2.2692157e+00   8.0777136e-01  -5.8899570e+07
   5.1817272e-10  -1.3215116e-02   2.2653455e+00   8.1009103e-01  -5.8636957e+07
   5.1917306e-10  -1.3156591e-02   2.2614945e+00   8.1240533e-01  -5.8375547e+07
   5.2017339e-10  -1.3098326e-02   2.2576626e+00   8.1471423e-01  -5.8115332e+07
   5.2117372e-10  -1.3040321e-02   2.2538497e+00   8.1701773e-01  -5.7856309e+07
   5.2217406e-10  -1.2982575e-02   2.2500558e+00   8.1931580e-01  -5.7598470e+07
   5.2317439e-10  -1.2925086e-02   2.2462807e+00   8.2160844e-01  -5.7341809e+07
   5.2417472e-10  -1.2867853e-02   2.2425243e+00   8.2389564e-01  -5.7086322e+07
   5.2517506e-10  -1.2810875e-02   2.2387866e+00   8.2617737e-01  -5.6832002e+07
   5.2617539e-10  -1.2754151e-02   2.2350674e+00   8.2845363e-01  -5.6578843e+07
   5.2717573e-10  -1.2697679e-02   2.2313668e+00   8.3072441e-01  -5.6326840e+07
   5.2817606e-10  -1.2641459e-02   2.2276845e+00   8.3298968e-01  -5.6075987e+07
   5.2917639e-10  -1.2585489e-02   2.2240204e+00   8.3524945e-01  -5.5826278e+07
   5.3017673e-10  -1.2529769e-02   2.2203746e+00   8.3750369e-01  -5.5577708e+07
   5.3117706e-10  -1.2474297e-02   2.2167469e+00   8.3975240e-01  -5.5330271e+07
   5.3217739e-10  -1.2419071e-02   2.2131372e+00   8.4199557e-01  -5.5083963e+07
   5.3317773e-10  -1.2364092e-02   2.2095454e+00   8.4423318e-01  -5.4838776e+07
   5.3417806e-10  -1.2309357e-02   2.2059715e+00   8.4646522e-01  -5.4594706e+07
   5.3517839e-10  -1.2254866e-02   2.2024153e+00   8.4869169e-01  -5.4351747e+07
   5.3617873e-10  -1.2200617e-02   2.1988767e+00   8.5091258e-01  -5.4109894e+07
   5.3717906e-10  -1.2146610e-02   2.1953558e+00   8.5312787e-01  -5.3869142e+07
   5.3817939e-10  -1.2092843e-02   2.1918523e+00   8.5533756e-01  -5.3629485e+07
   5.3917973e-10  -1.2039315e-02   2.1883662e+00   8.5754163e-01  -5.3390917e+07
   5.4018006e-10  -1.1986025e-02   2.1848974e+00   8.5974008e-01  -5.3153434e+07
   5.4118039e-10  -1.1932972e-02   2.1814458e+00   8.6193291e-01  -5.2917030e+07
   5.4218073e-10  -1.1880155e-02   2.1780114e+00   8.6412009e-01  -5.2681701e+07
   5.4318106e-10  -1.1827573e-02   2.1745940e+00   8.6630163e-01  -5.2447440e+07
   5.4418139e-10  -1.1775225e-02   2.1711936e+00   8.6847752e-01  -5.2214242e+07
   5.4518173e-10  -1.1723110e-02   2.1678100e+00   8.7064774e-01  -5.1982103e+07
   5.4618206e-10  -1.1671226e-02   2.1644432e+00   8.7281230e-01  -5.1751018e+07
   5.4718239e-10  -1.1619573e-02   2.1610932e+00   8.7497118e-01  -5.1520980e+07
   5.4818273e-10  -1.1568150e-02   2.1577598e+00   8.7712438e-01  -5.1291986e+07
   5.4918306e-10  -1.1516955e-02   2.1544429e+00   8.7927190e-01  -5.1064030e+07
   5.5018339e-10  -1.1465987e-02   2.1511425e+00   8.8141372e-01  -5.0837107e+07
   5.5118373e-10  -1.1415246e-02   2.1478584e+00   8.8354985e-01  -5.0611212e+07
   5.5218406e-10  -1.1364731e-02   2.1445906e+00   8.8568027e-01  -5.0386340e+07
   5.5318439e-10  -1.1314440e-02   2.1413391e+00   8.8780498e-01  -5.0162487e+07
   5.5418473e-10  -1.1264372e-02   2.1381036e+00   8.8992397e-01  -4.9939647e+07
   5.5518506e-10  -1.1214527e-02   2.1348843e+00   8.9203725e-01  -4.9717815e+07
   5.5618540e-10  -1.1164903e-02   2.1316808e+00   8.9414480e-01  -4.9496988e+07
   5.5718573e-10  -1.1115500e-02   2.1284933e+00   8.9624663e-01  -4.9277159e+07
   5.5818606e-10  -1.1066316e-02   2.1253216e+00   8.9834273e-01  -4.9058324e+07
   5.5918640e-10  -1.1017350e-02   2.1221656e+00   9.0043309e-01  -4.8840478e+07
   5.6018673e-10  -1.0968602e-02   2.1190252e+00   9.0251771e-01  -4.8623617e+07
   5.6118706e-10  -1.0920070e-02   2.1159004e+00   9.0459658e-01  -4.8407735e+07
   5.6218740e-10  -1.0871754e-02   2.1127911e+00   9.0666972e-01  -4.8192829e+07
   5.6318773e-10  -1.0823652e-02   2.1096972e+00   9.0873710e-01  -4.7978893e+07
   5.6418806e-10  -1.0775764e-02   2.1066186e+00   9.1079874e-01  -4.7765924e+07
   5.6518840e-10  -1.0728088e-02   2.1035553e+00   9.1285462e-01  -4.7553915e+07
   5.6618873e-10  -1.0680624e-02   2.1005071e+00   9.1490475e-01  -4.7342863e+07
   5.6718906e-10  -1.0633371e-02   2.0974740e+00   9.1694912e-01  -4.7132763e+07
   5.6818940e-10  -1.0586327e-02   2.0944560e+00   9.1898773e-01  -4.6923611e+07
   5.6918973e-10  -1.0539492e-02   2.0914529e+00   9.2102058e-01  -4.6715401e+07
   5.7019006e-10  -1.0492865e-02   2.0884647e+00   9.2304767e-01  -4.6508131e+07
   5.7119040e-10  -1.0446445e-02   2.0854912e+00   9.2506899e-01  -4.6301794e+07
   5.7219073e-10  -1.0400230e-02   2.0825325e+00   9.2708456e-01  -4.6096387e+07
   5.7319106e-10  -1.0354221e-02   2.0795884e+00   9.2909435e-01  -4.5891905e+07
   5.7419140e-10  -1.0308416e-02   2.0766589e+00   9.3109839e-01  -4.5688344e+07
   5.7519173e-10  -1.0262814e-02   2.0737439e+00   9.3309666e-01  -4.5485700e+07
   5.7619206e-10  -1.0217414e-02   2.0708433e+00   9.3508916e-01  -4.5283967e+07
   5.7719240e-10  -1.0172215e-02   2.0679571e+00   9.3707590e-01  -4.5083143e+07
   5.7819273e-10  -1.0127217e-02   2.0650851e+00   9.3905687e-01  -4.4883222e+07
   5.7919306e-10  -1.0082419e-02   2.0622273e+00   9.4103209e-01  -4.4684200e+07
   5.8019340e-10  -1.0037819e-02   2.0593837e+00   9.4300153e-01  -4.4486073e+07
   5.8119373e-10  -9.9934166e-03   2.0565541e+00   9.4496522e-01  -4.4288837e+07
   5.8219406e-10  -9.9492113e-03   2.0537384e+00   9.4692314e-01  -4.4092488e+07
   5.8319440e-10  -9.9052020e-03   2.0509367e+00   9.4887530e-01  -4.3897021e+07
   5.8419473e-10  -9.8613878e-03   2.0481489e+00   9.5082171e-01  -4.3702432e+07
   5.8519507e-10  -9.8177678e-03   2.0453748e+00   9.5276236e-01  -4.3508717e+07
   5.8619540e-10  -9.7743411e-03   2.0426144e+00   9.5469725e-01  -4.3315872e+07
   5.8719573e-10  -9.7311069e-03   2.0398677e+00   9.5662639e-01  -4.3123893e+07
   5.8819607e-10  -9.6880643e-03   2.0371345e+00   9.5854977e-01  -4.2932776e+07
   5.8919640e-10  -9.6452125e-03   2.0344148e+00   9.6046741e-01  -4.2742517e+07
   5.9019673e-10  -9.6025506e-03   2.0317085e+00   9.6237931e-01  -4.2553111e+07
   5.9119707e-10  -9.5600777e-03   2.0290155e+00   9.6428545e-01  -4.2364555e+07
   5.9219740e-10  -9.5177930e-03   2.0263359e+00   9.6618586e-01  -4.2176845e+07
   5.9319773e-10  -9.4756957e-03   2.0236695e+00   9.6808053e-01  -4.1989976e+07
   5.9419807e-10  -9.4337848e-03   2.0210162e+00   9.6996947e-01  -4.1803946e+07
   5.9519840e-10  -9.3920597e-03   2.0183760e+00   9.7185267e-01  -4.1618749e+07
   5.9619873e-10  -9.3505194e-03   2.0157488e+00   9.7373015e-01  -4.1434382e+07
   5.9719907e-10  -9.3091631e-03   2.0131346e+00   9.7560190e-01  -4.1250841e+07
   5.9819940e-10  -9.2679900e-03   2.0105333e+00   9.7746793e-01  -4.1068123e+07
   5.9919973e-10  -9.2269992e-03   2.0079447e+00   9.7932824e-01  -4.0886223e+07
   6.0020007e-10  -9.1861900e-03   2.0053690e+00   9.8118284e-01  -4.0705137e+07
   6.0120040e-10  -9.1455616e-03   2.0028059e+00   9.8303173e-01  -4.0524863e+07
   6.0220073e-10  -9.1051131e-03   2.0002554e+00   9.8487492e-01  -4.0345395e+07
   6.0320107e-10  -9.0648437e-03   1.9977175e+00   9.8671241e-01  -4.0166730e+07
   6.0420140e-10  -9.0247526e-03   1.9951921e+00   9.8854421e-01  -3.9988865e+07
   6.0520173e-10  -8.9848391e-03   1.9926791e+00   9.9037031e-01  -3.9811796e+07
   6.0620207e-10  -8.9451023e-03   1.9901785e+00   9.9219073e-01  -3.9635519e+07
   6.0720240e-10  -8.9055414e-03   1.9876902e+00   9.9400547e-01  -3.9460030e+07
   6.0820273e-10  -8.8661557e-03   1.9852141e+00   9.9581453e-01  -3.9285326e+07
   6.0920307e-10  -8.8269443e-03   1.9827502e+00   9.9761793e-01  -3.9111403e+07
   6.1020340e-10  -8.7879066e-03   1.9802984e+00   9.9941566e-01  -3.8938257e+07
   6.1120373e-10  -8.7490417e-03   1.9778586e+00   1.0012077e+00  -3.8765885e+07
   6.1220407e-10  -8.7103488e-03   1.9754309e+00   1.0029942e+00  -3.8594284e+07
   6.1320440e-10  -8.6718271e-03   1.9730151e+00   1.0047749e+00  -3.8423449e+07
   6.1420473e-10  -8.6334760e-03   1.9706111e+00   1.0065501e+00  -3.8253377e+07
   6.1520507e-10  -8.5952947e-03   1.9682190e+00   1.0083196e+00  -3.8084065e+07
   6.1620540e-10  -8.5572823e-03   1.9658386e+00   1.0100834e+00  -3.7915508e+07
   6.1720574e-10  -8.5194382e-03   1.9634699e+00   1.0118417e+00  -3.7747705e+07
   6.1820607e-10  -8.4817615e-03   1.9611128e+00   1.0135943e+00  -3.7580650e+07
   6.1920640e-10  -8.4442516e-03   1.9587673e+00   1.0153413e+00  -3.7414341e+07
   6.2020674e-10  -8.4069077e-03   1.9564332e+00   1.0170827e+00  -3.7248774e+07
   6.2120707e-10  -8.3697290e-03   1.9541107e+00   1.0188186e+00  -3.7083946e+07
   6.2220740e-10  -8.3327149e-03   1.9517995e+00   1.0205488e+00  -3.6919853e+07
   6.2320774e-10  -8.2958645e-03   1.9494997e+00   1.0222735e+00  -3.6756493e+07
   6.2420807e-10  -8.2591772e-03   1.9472111e+00   1.0239925e+00  -3.6593860e+07
   6.2520840e-10  -8.2226522e-03   1.9449337e+00   1.0257061e+00  -3.6431953e+07
   6.2620874e-10  -8.1862888e-03   1.9426675e+00   1.0274140e+00  -3.6270768e+07
   6.2720907e-10  -8.1500862e-03   1.9404124e+00   1.0291164e+00  -3.6110301e+07
   6.2820940e-10  -8.1140439e-03   1.9381684e+00   1.0308133e+00  -3.5950550e+07
   6.2920974e-10  -8.0781610e-03   1.9359353e+00   1.0325046e+00  -3.5791510e+07
   6.3021007e-10  -8.0424368e-03   1.9337132e+00   1.0341904e+00  -3.5633180e+07
   6.3121040e-10  -8.0068706e-03   1.9315020e+00   1.0358707e+00  -3.5475554e+07
   6.3221074e-10  -7.9714618e-03   1.9293015e+00   1.0375454e+00  -3.5318631e+07
   6.3321107e-10  -7.9362096e-03   1.9271119e+00   1.0392147e+00  -3.5162406e+07
   6.3421140e-10  -7.9011134e-03   1.9249329e+00   1.0408784e+00  -3.5006878e+07
   6.3521174e-10  -7.8661723e-03   1.9227646e+00   1.0425367e+00  -3.4852042e+07
   6.3621207e-10  -7.8313858e-03   1.9206069e+00   1.0441895e+00  -3.4697895e+07
   6.3721240e-10  -7.7967532e-03   1.9184597e+00   1.0458368e+00  -3.4544434e+07
   6.3821274e-10  -7.7622737e-03   1.9163231e+00   1.0474786e+00  -3.4391657e+07
   6.3921307e-10  -7.7279468e-03   1.9141968e+00   1.0491150e+00  -3.4239559e+07
   6.4021340e-10  -7.6937716e-03   1.9120810e+00   1.0507460e+00  -3.4088138e+07
   6.4121374e-10  -7.6597476e-03   1.9099755e+00   1.0523715e+00  -3.3937391e+07
   6.4221407e-10  -7.6258740e-03   1.9078803e+00   1.0539916e+00  -3.3787315e+07
   6.4321440e-10  -7.5921502e-03   1.9057953e+00   1.0556063e+00  -3.3637906e+07
   6.4421474e-10  -7.5585756e-03   1.9037204e+00   1.0572155e+00  -3.3489162e+07
   6.4521507e-10  -7.5251494e-03   1.9016557e+00   1.0588194e+00  -3.3341079e+07
   6.4621541e-10  -7.4918710e-03   1.8996011e+00   1.0604179e+00  -3.3193654e+07
   6.4721574e-10  -7.4587397e-03   1.8975565e+00   1.0620109e+00  -3.3046885e+07
   6.4821607e-10  -7.4257550e-03   1.8955218e+00   1.0635987e+00  -3.2900769e+07
   6.4921641e-10  -7.3929161e-03   1.8934971e+00   1.0651810e+00  -3.2755302e+07
   6.5021674e-10  -7.3602223e-03   1.8914822e+00   1.0667580e+00  -3.2610481e+07
   6.5121707e-10  -7.3276732e-03   1.8894772e+00   1.0683297e+00  -3.2466304e+07
   6.5221741e-10  -7.2952679e-03   1.8874819e+00   1.0698960e+00  -3.2322768e+07
   6.5321774e-10  -7.2630059e-03   1.8854963e+00   1.0714570e+00  -3.2179869e+07
   6.5421807e-10  -7.2308865e-03   1.8835204e+00   1.0730126e+00  -3.2037606e+07
   6.5521841e-10  -7.1989091e-03   1.8815541e+00   1.0745630e+00  -3.1895974e+07
   6.5621874e-10  -7.1670731e-03   1.8795974e+00   1.0761081e+00  -3.1754971e+07
   6.5721907e-10  -7.1353778e-03   1.8776502e+00   1.0776479e+00  -3.1614594e+07
   6.5821941e-10  -7.1038227e-03   1.8757125e+00   1.0791824e+00  -3.1474841e+07
   6.5921974e-10  -7.0724070e-03   1.8737842e+00   1.0807117e+00  -3.1335709e+07
   6.6022007e-10  -7.0411302e-03   1.8718652e+00   1.0822357e+00  -3.1197194e+07
   6.6122041e-10  -7.0099916e-03   1.8699556e+00   1.0837544e+00  -3.1059293e+07
   6.6222074e-10  -6.9789907e-03   1.8680553e+00   1.0852680e+00  -3.0922005e+07
   6.6322107e-10  -6.9481268e-03   1.8661642e+00   1.0867763e+00  -3.0785327e+07
   6.6422141e-10  -6.9173993e-03   1.8642823e+00   1.0882793e+00  -3.0649254e+07
   6.6522174e-10  -6.8868077e-03   1.8624095e+00   1.0897772e+00  -3.0513786e+07
   6.6622207e-10  -6.8563512e-03   1.8605458e+00   1.0912699e+00  -3.0378919e+07
   6.6722241e-10  -6.8260294e-03   1.8586912e+00   1.0927574e+00  -3.0244650e+07
   6.6822274e-10  -6.7958416e-03   1.8568456e+00   1.0942398e+00  -3.0110977e+07
   6.6922307e-10  -6.7657872e-03   1.8550089e+00   1.0957170e+00  -2.9977896e+07
   6.7022341e-10  -6.7358656e-03   1.8531811e+00   1.0971890e+00  -2.9845406e+07
   6.7122374e-10  -6.7060763e-03   1.8513622e+00   1.0986559e+00  -2.9713504e+07
   6.7222407e-10  -6.6764186e-03   1.8495521e+00   1.1001177e+00  -2.9582186e+07
   6.7322441e-10  -6.6468920e-03   1.8477507e+00   1.1015743e+00  -2.9451451e+07
   6.7422474e-10  -6.6174959e-03   1.8459581e+00   1.1030259e+00  -2.9321295e+07
   6.7522508e-10  -6.5882297e-03   1.8441742e+00   1.1044723e+00  -2.9191716e+07
   6.7622541e-10  -6.5590928e-03   1.8423989e+00   1.1059137e+00  -2.9062712e+07
   6.7722574e-10  -6.5300847e-03   1.8406322e+00   1.1073500e+00  -2.8934280e+07
   6.7822608e-10  -6.5012048e-03   1.8388741e+00   1.1087812e+00  -2.8806417e+07
   6.7922641e-10  -6.4724525e-03   1.8371245e+00   1.1102074e+00  -2.8679120e+07
   6.8022674e-10  -6.4438273e-03   1.8353833e+00   1.1116286e+00  -2.8552388e+07
   6.8122708e-10  -6.4153285e-03   1.8336506e+00   1.1130447e+00  -2.8426217e+07
   6.8222741e-10  -6.3869557e-03   1.8319262e+00   1.1144558e+00  -2.8300605e+07
   6.8322774e-10  -6.3587083e-03   1.8302102e+00   1.1158619e+00  -2.8175550e+07
   6.8422808e-10  -6.3305857e-03   1.8285024e+00   1.1172630e+00  -2.8051049e+07
   6.8522841e-10  -6.3025873e-03   1.8268030e+00   1.1186592e+00  -2.7927099e+07
   6.8622874e-10  -6.2747127e-03   1.8251117e+00   1.1200503e+00  -2.7803698e+07
   6.8722908e-10  -6.2469612e-03   1.8234286e+00   1.1214366e+00  -2.7680844e+07
   6.8822941e-10  -6.2193324e-03   1.8217536e+00   1.1228178e+00  -2.7558534e+07
   6.8922974e-10  -6.1918256e-03   1.8200867e+00   1.1241941e+00  -2.7436766e+07
   6.9023008e-10  -6.1644404e-03   1.8184279e+00   1.1255655e+00  -2.7315537e+07
   6.9123041e-10  -6.1371761e-03   1.8167770e+00   1.1269320e+00  -2.7194844e+07
   6.9223074e-10  -6.1100324e-03   1.8151341e+00   1.1282936e+00  -2.7074686e+07
   6.9323108e-10  -6.0830086e-03   1.8134992e+00   1.1296503e+00  -2.6955060e+07
   6.9423141e-10  -6.0561041e-03   1.8118721e+00   1.1310022e+00  -2.6835964e+07
   6.9523174e-10  -6.0293186e-03   1.8102528e+00   1.1323491e+00  -2.6717395e+07
   6.9623208e-10  -6.0026514e-03   1.8086414e+00   1.1336912e+00  -2.6599350e+07
   6.9723241e-10  -5.9761020e-03   1.8070377e+00   1.1350285e+00  -2.6481828e+07
   6.9823274e-10  -5.9496699e-03   1.8054418e+00   1.1363610e+00  -2.6364826e+07
   6.9923308e-10  -5.9233546e-03   1.8038535e+00   1.1376886e+00  -2.6248342e+07
   7.0023341e-10  -5.8971555e-03   1.8022729e+00   1.1390114e+00  -2.6132374e+07
   7.0123374e-10  -5.8710723e-03   1.8006999e+00   1.1403295e+00  -2.6016918e+07
   7.0223408e-10  -5.8451042e-03   1.7991345e+00   1.1416427e+00  -2.5901974e+07
   7.0323441e-10  -5.8192509e-03   1.7975766e+00   1.1429512e+00  -2.5787538e+07
   7.0423474e-10  -5.7935118e-03   1.7960262e+00   1.1442549e+00  -2.5673608e+07
   7.0523508e-10  -5.7678864e-03   1.7944832e+00   1.1455539e+00  -2.5560182e+07
   7.0623541e-10  -5.7423742e-03   1.7929477e+00   1.1468481e+00  -2.5447259e+07
   7.0723575e-10  -5.7169747e-03   1.7914195e+00   1.1481377e+00  -2.5334834e+07
   7.0823608e-10  -5.6916875e-03   1.7898987e+00   1.1494225e+00  -2.5222907e+07
   7.0923641e-10  -5.6665120e-03   1.7883852e+00   1.1507026e+00  -2.5111475e+07
   7.1023675e-10  -5.6414476e-03   1.7868789e+00   1.1519781e+00  -2.5000536e+07
   7.1123708e-10  -5.6164941e-03   1.7853799e+00   1.1532488e+00  -2.4890087e+07
   7.1223741e-10  -5.5916507e-03   1.7838881e+00   1.1545150e+00  -2.4780127e+07
   7.1323775e-10  -5.5669171e-03   1.7824034e+00   1.1557764e+00  -2.4670653e+07
   7.1423808e-10  -5.5422928e-03   1.7809259e+00   1.1570333e+00  -2.4561663e+07
   7.1523841e-10  -5.5177773e-03   1.7794554e+00   1.1582855e+00  -2.4453155e+07
   7.1623875e-10  -5.4933700e-03   1.7779920e+00   1.1595331e+00  -2.4345126e+07
   7.1723908e-10  -5.4690706e-03   1.7765357e+00   1.1607761e+00  -2.4237576e+07
   7.1823941e-10  -5.4448786e-03   1.7750863e+00   1.1620145e+00  -2.4130500e+07
   7.1923975e-10  -5.4207934e-03   1.7736438e+00   1.1632483e+00  -2.4023899e+07
   7.2024008e-10  -5.3968146e-03   1.7722083e+00   1.1644776e+00  -2.3917768e+07
   7.2124041e-10  -5.3729418e-03   1.7707796e+00   1.1657023e+00  -2.3812106e+07
   7.2224075e-10  -5.3491744e-03   1.7693578e+00   1.1669225e+00  -2.3706912e+07
   7.2324108e-10  -5.3255120e-03   1.7679427e+00   1.1681382e+00  -2.3602182e+07
   7.2424141e-10  -5.3019541e-03   1.7665345e+00   1.1693494e+00  -2.3497916e+07
   7.2524175e-10  -5.2785003e-03   1.7651330e+00   1.1705560e+00  -2.3394110e+07
   7.2624208e-10  -5.2551502e-03   1.7637382e+00   1.1717582e+00  -2.3290763e+07
   7.2724241e-10  -5.2319031e-03   1.7623501e+00   1.1729559e+00  -2.3187872e+07
   7.2824275e-10  -5.2087588e-03   1.7609686e+00   1.1741492e+00  -2.3085437e+07
   7.2924308e-10  -5.1857167e-03   1.7595937e+00   1.1753379e+00  -2.2983453e+07
   7.3024341e-10  -5.1627764e-03   1.7582253e+00   1.1765223e+00  -2.2881921e+07
   7.3124375e-10  -5.1399375e-03   1.7568636e+00   1.1777022e+00  -2.2780837e+07
   7.3224408e-10  -5.1171994e-03   1.7555083e+00   1.1788778e+00  -2.2680200e+07
   7.3324441e-10  -5.0945618e-03   1.7541595e+00   1.1800489e+00  -2.2580007e+07
   7.3424475e-10  -5.0720242e-03   1.7528171e+00   1.1812156e+00  -2.2480257e+07
   7.3524508e-10  -5.0495862e-03   1.7514812e+00   1.1823780e+00  -2.2380948e+07
   7.3624542e-10  -5.0272473e-03   1.7501516e+00   1.1835360e+00  -2.2282077e+07
   7.3724575e-10  -5.0050070e-03   1.7488284e+00   1.1846896e+00  -2.2183643e+07
   7.3824608e-10  -4.9828651e-03   1.7475114e+00   1.1858389e+00  -2.2085644e+07
   7.3924642e-10  -4.9608209e-03   1.7462008e+00   1.1869839e+00  -2.1988078e+07
   7.4024675e-10  -4.9388741e-03   1.7448964e+00   1.1881246e+00  -2.1890942e+07
   7.4124708e-10  -4.9170243e-03   1.7435982e+00   1.1892610e+00  -2.1794236e+07
   7.4224742e-10  -4.8952710e-03   1.7423062e+00   1.1903930e+00  -2.1697957e+07
   7.4324775e-10  -4.8736137e-03   1.7410204e+00   1.1915209e+00  -2.1602103e+07
   7.4424808e-10  -4.8520522e-03   1.7397407e+00   1.1926444e+00  -2.1506672e+07
   7.4524842e-10  -4.8305859e-03   1.7384671e+00   1.1937637e+00  -2.1411663e+07
   7.4624875e-10  -4.8092145e-03   1.7371995e+00   1.1948788e+00  -2.1317074e+07
   7.4724908e-10  -4.7879374e-03   1.7359380e+00   1.1959896e+00  -2.1222902e+07
   7.4824942e-10  -4.7667544e-03   1.7346825e+00   1.1970962e+00  -2.1129146e+07
   7.4924975e-10  -4.7456649e-03   1.7334330e+00   1.1981987e+00  -2.1035804e+07
   7.5025008e-10  -4.7246686e-03   1.7321894e+00   1.1992969e+00  -2.0942874e+07
   7.5125042e-10  -4.7037651e-03   1.7309517e+00   1.2003910e+00  -2.0850354e+07
   7.5225075e-10  -4.6829539e-03   1.7297199e+00   1.2014809e+00  -2.0758243e+07
   7.5325108e-10  -4.6622346e-03   1.7284940e+00   1.2025666e+00  -2.0666539e+07
   7.5425142e-10  -4.6416069e-03   1.7272739e+00   1.2036483e+00  -2.0575239e+07
   7.5525175e-10  -4.6210703e-03   1.7260596e+00   1.2047257e+00  -2.0484343e+07
   7.5625208e-10  -4.6006244e-03   1.7248510e+00   1.2057991e+00  -2.0393848e+07
   7.5725242e-10  -4.5802689e-03   1.7236482e+00   1.2068684e+00  -2.0303752e+07
   7.5825275e-10  -4.5600032e-03   1.7224511e+00   1.2079336e+00  -2.0214055e+07
   7.5925308e-10  -4.5398271e-03   1.7212597e+00   1.2089947e+00  -2.0124753e+07
   7.6025342e-10  -4.5197402e-03   1.7200740e+00   1.2100518e+00  -2.0035845e+07
   7.6125375e-10  -4.4997420e-03   1.7188938e+00   1.2111048e+00  -1.9947330e+07
   7.6225408e-10  -4.4798321e-03   1.7177193e+00   1.2121537e+00  -1.9859205e+07
   7.6325442e-10  -4.4600102e-03   1.7165503e+00   1.2131987e+00  -1.9771470e+07
   7.6425475e-10  -4.4402759e-03   1.7153869e+00   1.2142396e+00  -1.9684122e+07
   7.6525509e-10  -4.4206287e-03   1.7142290e+00   1.2152765e+00  -1.9597159e+07
   7.6625542e-10  -4.4010683e-03   1.7130766e+00   1.2163095e+00  -1.9510580e+07
   7.6725575e-10  -4.3815944e-03   1.7119297e+00   1.2173384e+00  -1.9424384e+07
   7.6825609e-10  -4.3622065e-03   1.7107881e+00   1.2183634e+00  -1.9338568e+07
   7.6925642e-10  -4.3429043e-03   1.7096520e+00   1.2193845e+00  -1.9253130e+07
   7.7025675e-10  -4.3236873e-03   1.7085213e+00   1.2204016e+00  -1.9168070e+07
   7.7125709e-10  -4.3045552e-03   1.7073959e+00   1.2214148e+00  -1.9083385e+07
   7.7225742e-10  -4.2855077e-03   1.7062759e+00   1.2224241e+00  -1.8999074e+07
   7.7325775e-10  -4.2665443e-03   1.7051611e+00   1.2234294e+00  -1.8915134e+07
   7.7425809e-10  -4.2476647e-03   1.7040516e+00   1.2244309e+00  -1.8831566e+07
   7.7525842e-10  -4.2288685e-03   1.7029474e+00   1.2254285e+00  -1.8748366e+07
   7.7625875e-10  -4.2101553e-03   1.7018484e+00   1.2264223e+00  -1.8665533e+07
   7.7725909e-10  -4.1915248e-03   1.7007546e+00   1.2274121e+00  -1.8583066e+07
   7.7825942e-10  -4.1729767e-03   1.6996659e+00   1.2283982e+00  -1.8500963e+07
   7.7925975e-10  -4.1545105e-03   1.6985824e+00   1.2293804e+00  -1.8419222e+07
   7.8026009e-10  -4.1361258e-03   1.6975041e+00   1.2303588e+00  -1.8337842e+07
   7.8126042e-10  -4.1178224e-03   1.6964308e+00   1.2313334e+00  -1.8256821e+07
   7.8226075e-10  -4.0995999e-03   1.6953626e+00   1.2323042e+00  -1.8176157e+07
   7.8326109e-10  -4.0814579e-03   1.6942994e+00   1.2332712e+00  -1.8095849e+07
   7.8426142e-10  -4.0633960e-03   1.6932413e+00   1.2342345e+00  -1.8015896e+07
   7.8526175e-10  -4.0454140e-03   1.6921881e+00   1.2351940e+00  -1.7936296e+07
   7.8626209e-10  -4.0275113e-03   1.6911399e+00   1.2361498e+00  -1.7857046e+07
   7.8726242e-10  -4.0096878e-03   1.6900967e+00   1.2371018e+00  -1.7778147e+07
   7.8826275e-10  -3.9919431e-03   1.6890584e+00   1.2380501e+00  -1.7699595e+07
   7.8926309e-10  -3.9742767e-03   1.6880249e+00   1.2389947e+00  -1.7621391e+07
   7.9026342e-10  -3.9566884e-03   1.6869964e+00   1.2399356e+00  -1.7543531e+07
   7.9126375e-10  -3.9391779e-03   1.6859727e+00   1.2408728e+00  -1.7466015e+07
   7.9226409e-10  -3.9217447e-03   1.6849538e+00   1.2418064e+00  -1.7388840e+07
   7.9326442e-10  -3.9043885e-03   1.6839397e+00   1.2427363e+00  -1.7312007e+07
   7.9426475e-10  -3.8871090e-03   1.6829304e+00   1.2436626e+00  -1.7235512e+07
   7.9526509e-10  -3.8699059e-03   1.6819259e+00   1.2445852e+00  -1.7159355e+07
   7.9626542e-10  -3.8527787e-03   1.6809260e+00   1.2455042e+00  -1.7083533e+07
   7.9726576e-10  -3.8357273e-03   1.6799309e+00   1.2464196e+00  -1.7008047e+07
   7.9826609e-10  -3.8187512e-03   1.6789405e+00   1.2473313e+00  -1.6932893e+07
   7.9926642e-10  -3.8018501e-03   1.6779547e+00   1.2482396e+00  -1.6858071e+07
   8.0026676e-10  -3.7850237e-03   1.6769736e+00   1.2491442e+00  -1.6783579e+07
   8.0126709e-10  -3.7682716e-03   1.6759971e+00   1.2500452e+00  -1.6709416e+07
   8.0226742e-10  -3.7515936e-03   1.6750252e+00   1.2509428e+00  -1.6635579e+07
   8.0326776e-10  -3.7349893e-03   1.6740578e+00   1.2518367e+00  -1.6562069e+07
   8.0426809e-10  -3.7184583e-03   1.6730950e+00   1.2527272e+00  -1.6488883e+07
   8.0526842e-10  -3.7020004e-03   1.6721368e+00   1.2536141e+00  -1.6416020e+07
   8.0626876e-10  -3.6856152e-03   1.6711830e+00   1.2544976e+00  -1.6343478e+07
   8.0726909e-10  -3.6693025e-03   1.6702337e+00   1.2553775e+00  -1.6271256e+07
   8.0826942e-10  -3.6530618e-03   1.6692888e+00   1.2562540e+00  -1.6199353e+07
   8.0926976e-10  -3.6368928e-03   1.6683484e+00   1.2571269e+00  -1.6127767e+07
   8.1027009e-10  -3.6207954e-03   1.6674125e+00   1.2579965e+00  -1.6056497e+07
   8.1127042e-10  -3.6047690e-03   1.6664809e+00   1.2588626e+00  -1.5985541e+07
   8.1227076e-10  -3.5888135e-03   1.6655537e+00   1.2597252e+00  -1.5914899e+07
   8.1327109e-10  -3.5729285e-03   1.6646308e+00   1.2605845e+00  -1.5844568e+07
   8.1427142e-10  -3.5571137e-03   1.6637122e+00   1.2614403e+00  -1.5774547e+07
   8.1527176e-10  -3.5413688e-03   1.6627980e+00   1.2622927e+00  -1.5704835e+07
   8.1627209e-10  -3.5256935e-03   1.6618881e+00   1.2631418e+00  -1.5635431e+07
   8.1727242e-10  -3.5100874e-03   1.6609824e+00   1.2639874e+00  -1.5566332e+07
   8.1827276e-10  -3.4945503e-03   1.6600810e+00   1.2648297e+00  -1.5497539e+07
   8.1927309e-10  -3.4790819e-03   1.6591838e+00   1.2656687e+00  -1.5429049e+07
   8.2027342e-10  -3.4636819e-03   1.6582908e+00   1.2665043e+00  -1.5360862e+07
   8.2127376e-10  -3.4483499e-03   1.6574019e+00   1.2673366e+00  -1.5292975e+07
   8.2227409e-10  -3.4330856e-03   1.6565173e+00   1.2681655e+00  -1.5225387e+07
   8.2327442e-10  -3.4178888e-03   1.6556368e+00   1.2689912e+00  -1.5158098e+07
   8.2427476e-10  -3.4027592e-03   1.6547604e+00   1.2698135e+00  -1.5091106e+07
   8.2527509e-10  -3.3876965e-03   1.6538881e+00   1.2706326e+00  -1.5024409e+07
   8.2627543e-10  -3.3727003e-03   1.6530199e+00   1.2714484e+00  -1.4958006e+07
   8.2727576e-10  -3.3577704e-03   1.6521557e+00   1.2722610e+00  -1.4891896e+07
   8.2827609e-10  -3.3429065e-03   1.6512956e+00   1.2730703e+00  -1.4826078e+07
   8.2927643e-10  -3.3281082e-03   1.6504396e+00   1.2738763e+00  -1.4760550e+07
   8.3027676e-10  -3.3133754e-03   1.6495875e+00   1.2746792e+00  -1.4695312e+07
   8.3127709e-10  -3.2987077e-03   1.6487394e+00   1.2754788e+00  -1.4630361e+07
   8.3227743e-10  -3.2841048e-03   1.6478953e+00   1.2762752e+00  -1.4565696e+07
   8.3327776e-10  -3.2695665e-03   1.6470551e+00   1.2770684e+00  -1.4501317e+07
   8.3427809e-10  -3.2550924e-03   1.6462188e+00   1.2778585e+00  -1.4437222e+07
   8.3527843e-10  -3.2406824e-03   1.6453865e+00   1.2786453e+00  -1.4373410e+07
   8.3627876e-10  -3.2263360e-03   1.6445580e+00   1.2794291e+00  -1.4309879e+07
   8.3727909e-10  -3.2120530e-03   1.6437334e+00   1.2802096e+00  -1.4246628e+07
   8.3827943e-10  -3.1978331e-03   1.6429127e+00   1.2809870e+00  -1.4183657e+07
   8.3927976e-10  -3.1836761e-03   1.6420958e+00   1.2817613e+00  -1.4120963e+07
   8.4028009e-10  -3.1695817e-03   1.6412827e+00   1.2825325e+00  -1.4058546e+07
   8.4128043e-10  -3.1555495e-03   1.6404734e+00   1.2833006e+00  -1.3996404e+07
   8.4228076e-10  -3.1415794e-03   1.6396678e+00   1.2840656e+00  -1.3934536e+07
   8.4328109e-10  -3.1276711e-03   1.6388661e+00   1.2848275e+00  -1.3872941e+07
   8.4428143e-10  -3.1138242e-03   1.6380680e+00   1.2855863e+00  -1.3811618e+07
   8.4528176e-10  -3.1000385e-03   1.6372737e+00   1.2863421e+00  -1.3750566e+07
   8.4628209e-10  -3.0863138e-03   1.6364831e+00   1.2870948e+00  -1.3689783e+07
   8.4728243e-10  -3.0726498e-03   1.6356962e+00   1.2878445e+00  -1.3629268e+07
   8.4828276e-10  -3.0590461e-03   1.6349130e+00   1.2885912e+00  -1.3569020e+07
   8.4928309e-10  -3.0455026e-03   1.6341334e+00   1.2893348e+00  -1.3509037e+07
   8.5028343e-10  -3.0320189e-03   1.6333574e+00   1.2900755e+00  -1.3449320e+07
   8.5128376e-10  -3.0185949e-03   1.6325850e+00   1.2908131e+00  -1.3389865e+07
   8.5228409e-10  -3.0052302e-03   1.6318163e+00   1.2915478e+00  -1.3330673e+07
   8.5328443e-10  -2.9919246e-03   1.6310511e+00   1.2922794e+00  -1.3271743e+07
   8.5428476e-10  -2.9786778e-03   1.6302895e+00   1.2930082e+00  -1.3213072e+07
   8.5528510e-10  -2.9654895e-03   1.6295314e+00   1.2937339e+00  -1.3154660e+07
   8.5628543e-10  -2.9523596e-03   1.6287769e+00   1.2944567e+00  -1.3096506e+07
   8.5728576e-10  -2.9392877e-03   1.6280258e+00   1.2951766e+00  -1.3038608e+07
   8.5828610e-10  -2.9262736e-03   1.6272783e+00   1.2958936e+00  -1.2980966e+07
   8.5928643e-10  -2.9133170e-03   1.6265342e+00   1.2966077e+00  -1.2923578e+07
   8.6028676e-10  -2.9004177e-03   1.6257936e+00   1.2973188e+00  -1.2866443e+07
   8.6128710e-10  -2.8875755e-03   1.6250564e+00   1.2980271e+00  -1.2809560e+07
   8.6228743e-10  -2.8747900e-03   1.6243227e+00   1.2987325e+00  -1.2752928e+07
   8.6328776e-10  -2.8620610e-03   1.6235924e+00   1.2994350e+00  -1.2696546e+07
   8.6428810e-10  -2.8493884e-03   1.6228655e+00   1.3001347e+00  -1.2640413e+07
   8.6528843e-10  -2.8367717e-03   1.6221419e+00   1.3008315e+00  -1.2584528e+07
   8.6628876e-10  -2.8242108e-03   1.6214217e+00   1.3015255e+00  -1.2528889e+07
   8.6728910e-10  -2.8117055e-03   1.6207049e+00   1.3022167e+00  -1.2473495e+07
   8.6828943e-10  -2.7992554e-03   1.6199914e+00   1.3029050e+00  -1.2418346e+07
   8.6928976e-10  -2.7868604e-03   1.6192812e+00   1.3035906e+00  -1.2363441e+07
   8.7029010e-10  -2.7745202e-03   1.6185743e+00   1.3042733e+00  -1.2308777e+07
   8.7129043e-10  -2.7622346e-03   1.6178706e+00   1.3049533e+00  -1.2254355e+07
   8.7229076e-10  -2.7500033e-03   1.6171703e+00   1.3056304e+00  -1.2200173e+07
   8.7329110e-10  -2.7378260e-03   1.6164732e+00   1.3063049e+00  -1.2146229e+07
   8.7429143e-10  -2.7257026e-03   1.6157793e+00   1.3069765e+00  -1.2092524e+07
   8.7529176e-10  -2.7136328e-03   1.6150886e+00   1.3076454e+00  -1.2039056e+07
   8.7629210e-10  -2.7016164e-03   1.6144012e+00   1.3083116e+00  -1.1985824e+07
   8.7729243e-10  -2.6896531e-03   1.6137169e+00   1.3089751e+00  -1.1932826e+07
   8.7829276e-10  -2.6777427e-03   1.6130358e+00   1.3096358e+00  -1.1880063e+07
   8.7929310e-10  -2.6658850e-03   1.6123579e+00   1.3102939e+00  -1.1827532e+07
   8.8029343e-10  -2.6540797e-03   1.6116831e+00   1.3109492e+00  -1.1775233e+07
   8.8129376e-10  -2.6423266e-03   1.6110114e+00   1.3116019e+00  -1.1723165e+07
   8.8229410e-10  -2.6306255e-03   1.6103428e+00   1.3122519e+00  -1.1671327e+07
   8.8329443e-10  -2.6189761e-03   1.6096774e+00   1.3128992e+00  -1.1619717e+07
   8.8429476e-10  -2.6073782e-03   1.6090150e+00   1.3135439e+00  -1.1568335e+07
   8.8529510e-10  -2.5958316e-03   1.6083557e+00   1.3141859e+00  -1.1517180e+07
   8.8629543e-10  -2.5843361e-03   1.6076994e+00   1.3148253e+00  -1.1466250e+07
   8.8729577e-10  -2.5728914e-03   1.6070462e+00   1.3154620e+00  -1.1415546e+07
   8.8829610e-10  -2.5614973e-03   1.6063960e+00   1.3160962e+00  -1.1365065e+07
   8.8929643e-10  -2.5501536e-03   1.6057488e+00   1.3167277e+00  -1.1314806e+07
   8.9029677e-10  -2.5388601e-03   1.6051046e+00   1.3173567e+00  -1.1264770e+07
   8.9129710e-10  -2.5276165e-03   1.6044634e+00   1.3179831e+00  -1.1214954e+07
   8.9229743e-10  -2.5164226e-03   1.6038251e+00   1.3186068e+00  -1.1165358e+07
   8.9329777e-10  -2.5052783e-03   1.6031898e+00   1.3192281e+00  -1.1115981e+07
   8.9429810e-10  -2.4941832e-03   1.6025575e+00   1.3198467e+00  -1.1066822e+07
   8.9529843e-10  -2.4831372e-03   1.6019280e+00   1.3204628e+00  -1.1017880e+07
   8.9629877e-10  -2.4721400e-03   1.6013015e+00   1.3210764e+00  -1.0969154e+07
   8.9729910e-10  -2.4611915e-03   1.6006779e+00   1.3216875e+00  -1.0920643e+07
   8.9829943e-10  -2.4502914e-03   1.6000571e+00   1.3222960e+00  -1.0872346e+07
   8.9929977e-10  -2.4394395e-03   1.5994393e+00   1.3229020e+00  -1.0824262e+07
   9.0030010e-10  -2.4286356e-03   1.5988242e+00   1.3235055e+00  -1.0776390e+07
   9.0130043e-10  -2.4178794e-03   1.5982120e+00   1.3241066e+00  -1.0728730e+07
   9.0230077e-10  -2.4071709e-03   1.5976027e+00   1.3247051e+00  -1.0681280e+07
   9.0330110e-10  -2.3965097e-03   1.5969961e+00   1.3253012e+00  -1.0634039e+07
   9.0430143e-10  -2.3858956e-03   1.5963924e+00   1.3258948e+00  -1.0587007e+07
   9.0530177e-10  -2.3753285e-03   1.5957914e+00   1.3264860e+00  -1.0540182e+07
   9.0630210e-10  -2.3648082e-03   1.5951932e+00   1.3270747e+00  -1.0493564e+07
   9.0730243e-10  -2.3543343e-03   1.5945978e+00   1.3276610e+00  -1.0447152e+07
   9.0830277e-10  -2.3439068e-03   1.5940051e+00   1.3282448e+00  -1.0400945e+07
   9.0930310e-10  -2.3335254e-03   1.5934152e+00   1.3288263e+00  -1.0354941e+07
   9.1030343e-10  -2.3231900e-03   1.5928279e+00   1.3294053e+00  -1.0309141e+07
   9.1130377e-10  -2.3129002e-03   1.5922434e+00   1.3299819e+00  -1.0263543e+07
   9.1230410e-10  -2.3026560e-03   1.5916616e+00   1.3305562e+00  -1.0218146e+07
   9.1330443e-10  -2.2924570e-03   1.5910825e+00   1.3311281e+00  -1.0172949e+07
   9.1430477e-10  -2.2823032e-03   1.5905060e+00   1.3316976e+00  -1.0127952e+07
   9.1530510e-10  -2.2721943e-03   1.5899322e+00   1.3322647e+00  -1.0083153e+07
   9.1630544e-10  -2.2621301e-03   1.5893610e+00   1.3328295e+00  -1.0038553e+07
   9.1730577e-10  -2.2521105e-03   1.5887925e+00   1.3333919e+00  -9.9941488e+06
   9.1830610e-10  -2.2421351e-03   1.5882265e+00   1.3339520e+00  -9.9499410e+06
   9.1930644e-10  -2.2322039e-03   1.5876632e+00   1.3345098e+00  -9.9059282e+06
   9.2030677e-10  -2.2223166e-03   1.5871025e+00   1.3350653e+00  -9.8621097e+06
   9.2130710e-10  -2.2124730e-03   1.5865444e+00   1.3356184e+00  -9.8184847e+06
   9.2230744e-10  -2.2026730e-03   1.5859888e+00   1.3361693e+00  -9.7750522e+06
   9.2330777e-10  -2.1929163e-03   1.5854358e+00   1.3367179e+00  -9.7318114e+06
   9.2430810e-10  -2.1832028e-03   1.5848853e+00   1.3372642e+00  -9.6887615e+06
   9.2530844e-10  -2.1735323e-03   1.5843374e+00   1.3378082e+00  -9.6459017e+06
   9.2630877e-10  -2.1639045e-03   1.5837920e+00   1.3383499e+00  -9.6032310e+06
   9.2730910e-10  -2.1543194e-03   1.5832491e+00   1.3388894e+00  -9.5607488e+06
   9.2830944e-10  -2.1447766e-03   1.5827087e+00   1.3394267e+00  -9.5184540e+06
   9.2930977e-10  -2.1352760e-03   1.5821708e+00   1.3399617e+00  -9.4763460e+06
   9.3031010e-10  -2.1258175e-03   1.5816353e+00   1.3404945e+00  -9.4344239e+06
   9.3131044e-10  -2.1164008e-03   1.5811023e+00   1.3410251e+00  -9.3926868e+06
   9.3231077e-10  -2.1070258e-03   1.5805718e+00   1.3415534e+00  -9.3511340e+06
   9.3331110e-10  -2.0976923e-03   1.5800437e+00   1.3420796e+00  -9.3097646e+06
   9.3431144e-10  -2.0884000e-03   1.5795180e+00   1.3426035e+00  -9.2685779e+06
   9.3531177e-10  -2.0791489e-03   1.5789948e+00   1.3431253e+00  -9.2275730e+06
   9.3631210e-10  -2.0699387e-03   1.5784739e+00   1.3436449e+00  -9.1867492e+06
   9.3731244e-10  -2.0607692e-03   1.5779555e+00   1.3441623e+00  -9.1461056e+06
   9.3831277e-10  -2.0516403e-03   1.5774394e+00   1.3446776e+00  -9.1056414e+06
   9.3931310e-10  -2.0425518e-03   1.5769257e+00   1.3451907e+00  -9.0653559e+06
   9.4031344e-10  -2.0335035e-03   1.5764144e+00   1.3457017e+00  -9.0252482e+06
   9.4131377e-10  -2.0244952e-03   1.5759054e+00   1.3462105e+00  -8.9853176e+06
   9.4231410e-10  -2.0155268e-03   1.5753987e+00   1.3467172e+00  -8.9455634e+06
   9.4331444e-10  -2.0065980e-03   1.5748944e+00   1.3472218e+00  -8.9059846e+06
   9.4431477e-10  -1.9977088e-03   1.5743924e+00   1.3477243e+00  -8.8665806e+06
   9.4531511e-10  -1.9888589e-03   1.5738926e+00   1.3482246e+00  -8.8273506e+06
   9.4631544e-10  -1.9800482e-03   1.5733952e+00   1.3487229e+00  -8.7882939e+06
   9.4731577e-10  -1.9712764e-03   1.5729001e+00   1.3492191e+00  -8.7494095e+06
   9.4831611e-10  -1.9625435e-03   1.5724072e+00   1.3497132e+00  -8.7106969e+06
   9.4931644e-10  -1.9538492e-03   1.5719166e+00   1.3502053e+00  -8.6721552e+06
   9.5031677e-10  -1.9451933e-03   1.5714282e+00   1.3506952e+00  -8.6337837e+06
   9.5131711e-10  -1.9365758e-03   1.5709421e+00   1.3511832e+00  -8.5955816e+06
   9.5231744e-10  -1.9279964e-03   1.5704582e+00   1.3516691e+00  -8.5575483e+06
   9.5331777e-10  -1.9194549e-03   1.5699766e+00   1.3521529e+00  -8.5196828e+06
   9.5431811e-10  -1.9109513e-03   1.5694971e+00   1.3526347e+00  -8.4819846e+06
   9.5531844e-10  -1.9024852e-03   1.5690198e+00   1.3531145e+00  -8.4444529e+06
   9.5631877e-10  -1.8940567e-03   1.5685448e+00   1.3535923e+00  -8.4070869e+06
   9.5731911e-10  -1.8856654e-03   1.5680718e+00   1.3540681e+00  -8.3698859e+06
   9.5831944e-10  -1.8773113e-03   1.5676011e+00   1.3545419e+00  -8.3328492e+06
   9.5931977e-10  -1.8689941e-03   1.5671325e+00   1.3550137e+00  -8.2959760e+06
   9.6032011e-10  -1.8607137e-03   1.5666661e+00   1.3554835e+00  -8.2592657e+06
   9.6132044e-10  -1.8524700e-03   1.5662018e+00   1.3559513e+00  -8.2227175e+06
   9.6232077e-10  -1.8442627e-03   1.5657396e+00   1.3564172e+00  -8.1863307e+06
   9.6332111e-10  -1.8360918e-03   1.5652796e+00   1.3568811e+00  -8.1501047e+06
   9.6432144e-10  -1.8279570e-03   1.5648216e+00   1.3573430e+00  -8.1140386e+06
   9.6532177e-10  -1.8198583e-03   1.5643658e+00   1.3578030e+00  -8.0781318e+06
   9.6632211e-10  -1.8117953e-03   1.5639120e+00   1.3582611e+00  -8.0423835e+06
   9.6732244e-10  -1.8037681e-03   1.5634603e+00   1.3587173e+00  -8.0067932e+06
   9.6832277e-10  -1.7957764e-03   1.5630107e+00   1.3591715e+00  -7.9713601e+06
   9.6932311e-10  -1.7878200e-03   1.5625631e+00   1.3596238e+00  -7.9360834e+06
   9.7032344e-10  -1.7798989e-03   1.5621176e+00   1.3600742e+00  -7.9009626e+06
   9.7132377e-10  -1.7720128e-03   1.5616741e+00   1.3605227e+00  -7.8659968e+06
   9.7232411e-10  -1.7641616e-03   1.5612326e+00   1.3609694e+00  -7.8311856e+06
   9.7332444e-10  -1.7563451e-03   1.5607932e+00   1.3614141e+00  -7.7965280e+06
   9.7432477e-10  -1.7485633e-03   1.5603558e+00   1.3618570e+00  -7.7620236e+06
   9.7532511e-10  -1.7408158e-03   1.5599204e+00   1.3622980e+00  -7.7276716e+06
   9.7632544e-10  -1.7331027e-03   1.5594869e+00   1.3627371e+00  -7.6934713e+06
   9.7732578e-10  -1.7254237e-03   1.5590555e+00   1.3631744e+00  -7.6594221e+06
   9.7832611e-10  -1.7177787e-03   1.5586260e+00   1.3636098e+00  -7.6255232e+06
   9.7932644e-10  -1.7101675e-03   1.5581985e+00   1.3640435e+00  -7.5917741e+06
   9.8032678e-10  -1.7025900e-03   1.5577729e+00   1.3644752e+00  -7.5581741e+06
   9.8132711e-10  -1.6950461e-03   1.5573493e+00   1.3649052e+00  -7.5247226e+06
   9.8232744e-10  -1.6875355e-03   1.5569276e+00   1.3653333e+00  -7.4914187e+06
   9.8332778e-10  -1.6800582e-03   1.5565078e+00   1.3657596e+00  -7.4582620e+06
   9.8432811e-10  -1.6726140e-03   1.5560900e+00   1.3661842e+00  -7.4252518e+06
   9.8532844e-10  -1.6652027e-03   1.5556740e+00   1.3666069e+00  -7.3923874e+06
   9.8632878e-10  -1.6578242e-03   1.5552600e+00   1.3670278e+00  -7.3596682e+06
   9.8732911e-10  -1.6504784e-03   1.5548478e+00   1.3674470e+00  -7.3270935e+06
   9.8832944e-10  -1.6431651e-03   1.5544375e+00   1.3678644e+00  -7.2946628e+06
   9.8932978e-10  -1.6358842e-03   1.5540292e+00   1.3682800e+00  -7.2623753e+06
   9.9033011e-10  -1.6286355e-03   1.5536226e+00   1.3686939e+00  -7.2302304e+06
   9.9133044e-10  -1.6214188e-03   1.5532179e+00   1.3691060e+00  -7.1982276e+06
   9.9233078e-10  -1.6142342e-03   1.5528151e+00   1.3695163e+00  -7.1663662e+06
   9.9333111e-10  -1.6070813e-03   1.5524141e+00   1.3699250e+00  -7.1346455e+06
   9.9433144e-10  -1.5999601e-03   1.5520149e+00   1.3703319e+00  -7.1030649e+06
   9.9533178e-10  -1.5928704e-03   1.5516176e+00   1.3707371e+00  -7.0716239e+06
   9.9633211e-10  -1.5858121e-03   1.5512221e+00   1.3711405e+00  -7.0403218e+06
   9.9733244e-10  -1.5787850e-03   1.5508283e+00   1.3715423e+00  -7.0091580e+06
   9.9833278e-10  -1.5717890e-03   1.5504364e+00   1.3719423e+00  -6.9781319e+06
   9.9933311e-10  -1.5648240e-03   1.5500463e+00   1.3723407e+00  -6.9472429e+06
   1.0003334e-09  -1.5578899e-03   1.5496579e+00   1.3727373e+00  -6.9164904e+06
   1.0013338e-09  -1.5509864e-03   1.5492713e+00   1.3731323e+00  -6.8858737e+06
   1.0023341e-09  -1.5441135e-03   1.5488864e+00   1.3735256e+00  -6.8553924e+06
   1.0033344e-09  -1.5372710e-03   1.5485034e+00   1.3739172e+00  -6.8250457e+06
   1.0043348e-09  -1.5304588e-03   1.5481220e+00   1.3743072e+00  -6.7948331e+06
   1.0053351e-09  -1.5236767e-03   1.5477424e+00   1.3746955e+00  -6.7647540e+06
   1.0063354e-09  -1.5169247e-03   1.5473645e+00   1.3750822e+00  -6.7348078e+06
   1.0073358e-09  -1.5102026e-03   1.5469884e+00   1.3754672e+00  -6.7049939e+06
   1.0083361e-09  -1.5035102e-03   1.5466140e+00   1.3758506e+00  -6.6753118e+06
   1.0093364e-09  -1.4968475e-03   1.5462412e+00   1.3762324e+00  -6.6457608e+06
   1.0103368e-09  -1.4902142e-03   1.5458702e+00   1.3766125e+00  -6.6163405e+06
   1.0113371e-09  -1.4836103e-03   1.5455008e+00   1.3769910e+00  -6.5870501e+06
   1.0123374e-09  -1.4770357e-03   1.5451332e+00   1.3773679e+00  -6.5578892e+06
   1.0133378e-09  -1.4704901e-03   1.5447672e+00   1.3777432e+00  -6.5288571e+06
   1.0143381e-09  -1.4639736e-03   1.5444029e+00   1.3781170e+00  -6.4999533e+06
   1.0153384e-09  -1.4574859e-03   1.5440402e+00   1.3784891e+00  -6.4711773e+06
   1.0163388e-09  -1.4510269e-03   1.5436792e+00   1.3788596e+00  -6.4425285e+06
   1.0173391e-09  -1.4445965e-03   1.5433198e+00   1.3792286e+00  -6.4140062e+06
   1.0183394e-09  -1.4381945e-03   1.5429620e+00   1.3795960e+00  -6.3856100e+06
   1.0193398e-09  -1.4318209e-03   1.5426059e+00   1.3799618e+00  -6.3573393e+06
   1.0203401e-09  -1.4254756e-03   1.5422514e+00   1.3803261e+00  -6.3291936e+06
   1.0213404e-09  -1.4191583e-03   1.5418986e+00   1.3806888e+00  -6.3011722e+06
   1.0223408e-09  -1.4128690e-03   1.5415473e+00   1.3810500e+00  -6.2732747e+06
   1.0233411e-09  -1.4066075e-03   1.5411976e+00   1.3814096e+00  -6.2455005e+06
   1.0243414e-09  -1.4003738e-03   1.5408495e+00   1.3817677e+00  -6.2178490e+06
   1.0253418e-09  -1.3941676e-03   1.5405030e+00   1.3821243e+00  -6.1903197e+06
   1.0263421e-09  -1.3879890e-03   1.5401581e+00   1.3824794e+00  -6.1629122e+06
   1.0273424e-09  -1.3818377e-03   1.5398147e+00   1.3828329e+00  -6.1356257e+06
   1.0283428e-09  -1.3757136e-03   1.5394729e+00   1.3831849e+00  -6.1084599e+06
   1.0293431e-09  -1.3696166e-03   1.5391327e+00   1.3835355e+00  -6.0814141e+06
   1.0303434e-09  -1.3635467e-03   1.5387940e+00   1.3838845e+00  -6.0544879e+06
   1.0313438e-09  -1.3575036e-03   1.5384568e+00   1.3842321e+00  -6.0276807e+06
   1.0323441e-09  -1.3514872e-03   1.5381212e+00   1.3845781e+00  -6.0009920e+06
   1.0333444e-09  -1.3454976e-03   1.5377870e+00   1.3849227e+00  -5.9744213e+06
   1.0343448e-09  -1.3395344e-03   1.5374545e+00   1.3852658e+00  -5.9479680e+06
   1.0353451e-09  -1.3335976e-03   1.5371234e+00   1.3856075e+00  -5.9216316e+06
   1.0363454e-09  -1.3276871e-03   1.5367938e+00   1.3859477e+00  -5.8954117e+06
   1.0373458e-09  -1.3218028e-03   1.5364657e+00   1.3862864e+00  -5.8693077e+06
   1.0383461e-09  -1.3159446e-03   1.5361391e+00   1.3866237e+00  -5.8433190e+06
   1.0393464e-09  -1.3101122e-03   1.5358140e+00   1.3869596e+00  -5.8174453e+06
   1.0403468e-09  -1.3043058e-03   1.5354904e+00   1.3872940e+00  -5.7916859e+06
   1.0413471e-09  -1.2985250e-03   1.5351682e+00   1.3876270e+00  -5.7660404e+06
   1.0423474e-09  -1.2927698e-03   1.5348475e+00   1.3879585e+00  -5.7405083e+06
   1.0433478e-09  -1.2870401e-03   1.5345283e+00   1.3882887e+00  -5.7150890e+06
   1.0443481e-09  -1.2813358e-03   1.5342105e+00   1.3886174e+00  -5.6897821e+06
   1.0453484e-09  -1.2756567e-03   1.5338941e+00   1.3889448e+00  -5.6645871e+06
   1.0463488e-09  -1.2700028e-03   1.5335792e+00   1.3892707e+00  -5.6395035e+06
   1.0473491e-09  -1.2643739e-03   1.5332657e+00   1.3895952e+00  -5.6145307e+06
   1.0483494e-09  -1.2587699e-03   1.5329536e+00   1.3899184e+00  -5.5896684e+06
   1.0493498e-09  -1.2531908e-03   1.5326430e+00   1.3902401e+00  -5.5649160e+06
   1.0503501e-09  -1.2476363e-03   1.5323337e+00   1.3905605e+00  -5.5402730e+06
   1.0513505e-09  -1.2421065e-03   1.5320259e+00   1.3908795e+00  -5.5157390e+06
   1.0523508e-09  -1.2366012e-03   1.5317194e+00   1.3911972e+00  -5.4913135e+06
   1.0533511e-09  -1.2311202e-03   1.5314144e+00   1.3915134e+00  -5.4669959e+06
   1.0543515e-09  -1.2256635e-03   1.5311107e+00   1.3918284e+00  -5.4427859e+06
   1.0553518e-09  -1.2202309e-03   1.5308084e+00   1.3921420e+00  -5.4186829e+06
   1.0563521e-09  -1.2148225e-03   1.5305075e+00   1.3924542e+00  -5.3946864e+06
   1.0573525e-09  -1.2094379e-03   1.5302079e+00   1.3927651e+00  -5.3707961e+06
   1.0583528e-09  -1.2040773e-03   1.5299097e+00   1.3930747e+00  -5.3470114e+06
   1.0593531e-09  -1.1987403e-03   1.5296128e+00   1.3933829e+00  -5.3233319e+06
   1.0603535e-09  -1.1934270e-03   1.5293173e+00   1.3936898e+00  -5.2997570e+06
   1.0613538e-09  -1.1881372e-03   1.5290232e+00   1.3939954e+00  -5.2762865e+06
   1.0623541e-09  -1.1828709e-03   1.5287303e+00   1.3942997e+00  -5.2529197e+06
   1.0633545e-09  -1.1776279e-03   1.5284388e+00   1.3946027e+00  -5.2296562e+06
   1.0643548e-09  -1.1724081e-03   1.5281486e+00   1.3949044e+00  -5.2064956e+06
   1.0653551e-09  -1.1672114e-03   1.5278597e+00   1.3952048e+00  -5.1834374e+06
   1.0663555e-09  -1.1620377e-03   1.5275722e+00   1.3955039e+00  -5.1604811e+06
   1.0673558e-09  -1.1568869e-03   1.5272859e+00   1.3958017e+00  -5.1376264e+06
   1.0683561e-09  -1.1517590e-03   1.5270009e+00   1.3960982e+00  -5.1148727e+06
   1.0693565e-09  -1.1466537e-03   1.5267173e+00   1.3963935e+00  -5.0922197e+06
   1.0703568e-09  -1.1415711e-03   1.5264349e+00   1.3966875e+00  -5.0696668e+06
   1.0713571e-09  -1.1365110e-03   1.5261537e+00   1.3969802e+00  -5.0472137e+06
   1.0723575e-09  -1.1314733e-03   1.5258739e+00   1.3972717e+00  -5.0248599e+06
   1.0733578e-09  -1.1264579e-03   1.5255953e+00   1.3975619e+00  -5.0026049e+06
   1.0743581e-09  -1.1214647e-03   1.5253180e+00   1.3978509e+00  -4.9804483e+06
   1.0753585e-09  -1.1164936e-03   1.5250419e+00   1.3981387e+00  -4.9583897e+06
   1.0763588e-09  -1.1115446e-03   1.5247671e+00   1.3984252e+00  -4.9364287e+06
   1.0773591e-09  -1.1066174e-03   1.5244936e+00   1.3987104e+00  -4.9145648e+06
   1.0783595e-09  -1.1017121e-03   1.5242212e+00   1.3989945e+00  -4.8927976e+06
   1.0793598e-09  -1.0968286e-03   1.5239501e+00   1.3992773e+00  -4.8711267e+06
   1.0803601e-09  -1.0919666e-03   1.5236802e+00   1.3995589e+00  -4.8495516e+06
   1.0813605e-09  -1.0871262e-03   1.5234116e+00   1.3998393e+00  -4.8280719e+06
   1.0823608e-09  -1.0823072e-03   1.5231442e+00   1.4001185e+00  -4.8066872e+06
   1.0833611e-09  -1.0775096e-03   1.5228779e+00   1.4003964e+00  -4.7853971e+06
   1.0843615e-09  -1.0727332e-03   1.5226129e+00   1.4006732e+00  -4.7642012e+06
   1.0853618e-09  -1.0679780e-03   1.5223491e+00   1.4009488e+00  -4.7430990e+06
   1.0863621e-09  -1.0632438e-03   1.5220864e+00   1.4012232e+00  -4.7220902e+06
   1.0873625e-09  -1.0585306e-03   1.5218250e+00   1.4014965e+00  -4.7011742e+06
   1.0883628e-09  -1.0538383e-03   1.5215647e+00   1.4017685e+00  -4.6803508e+06
   1.0893631e-09  -1.0491668e-03   1.5213056e+00   1.4020394e+00  -4.6596195e+06
   1.0903635e-09  -1.0445159e-03   1.5210477e+00   1.4023091e+00  -4.6389799e+06
   1.0913638e-09  -1.0398857e-03   1.5207910e+00   1.4025777e+00  -4.6184316e+06
   1.0923641e-09  -1.0352759e-03   1.5205354e+00   1.4028451e+00  -4.5979741e+06
   1.0933645e-09  -1.0306866e-03   1.5202809e+00   1.4031113e+00  -4.5776072e+06
   1.0943648e-09  -1.0261176e-03   1.5200276e+00   1.4033764e+00  -4.5573304e+06
   1.0953651e-09  -1.0215689e-03   1.5197755e+00   1.4036404e+00  -4.5371432e+06
   1.0963655e-09  -1.0170403e-03   1.5195245e+00   1.4039032e+00  -4.5170453e+06
   1.0973658e-09  -1.0125318e-03   1.5192746e+00   1.4041649e+00  -4.4970364e+06
   1.0983661e-09  -1.0080432e-03   1.5190259e+00   1.4044254e+00  -4.4771159e+06
   1.0993665e-09  -1.0035745e-03   1.5187783e+00   1.4046848e+00  -4.4572836e+06
   1.1003668e-09  -9.9912563e-04   1.5185318e+00   1.4049432e+00  -4.4375390e+06
   1.1013671e-09  -9.9469645e-04   1.5182864e+00   1.4052004e+00  -4.4178817e+06
   1.1023675e-09  -9.9028689e-04   1.5180421e+00   1.4054564e+00  -4.3983115e+06
   1.1033678e-09  -9.8589686e-04   1.5177989e+00   1.4057114e+00  -4.3788277e+06
   1.1043681e-09  -9.8152628e-04   1.5175569e+00   1.4059653e+00  -4.3594302e+06
   1.1053685e-09  -9.7717507e-04   1.5173159e+00   1.4062181e+00  -4.3401185e+06
   1.1063688e-09  -9.7284312e-04   1.5170760e+00   1.4064698e+00  -4.3208922e+06
   1.1073691e-09  -9.6853037e-04   1.5168372e+00   1.4067204e+00  -4.3017510e+06
   1.1083695e-09  -9.6423672e-04   1.5165994e+00   1.4069699e+00  -4.2826944e+06
   1.1093698e-09  -9.5996210e-04   1.5163628e+00   1.4072184e+00  -4.2637222e+06
   1.1103701e-09  -9.5570641e-04   1.5161272e+00   1.4074658e+00  -4.2448339e+06
   1.1113705e-09  -9.5146957e-04   1.5158926e+00   1.4077121e+00  -4.2260291e+06
   1.1123708e-09  -9.4725150e-04   1.5156592e+00   1.4079573e+00  -4.2073076e+06
   1.1133711e-09  -9.4305212e-04   1.5154267e+00   1.4082015e+00  -4.1886689e+06
   1.1143715e-09  -9.3887135e-04   1.5151954e+00   1.4084446e+00  -4.1701126e+06
   1.1153718e-09  -9.3470909e-04   1.5149650e+00   1.4086867e+00  -4.1516385e+06
   1.1163721e-09  -9.3056527e-04   1.5147358e+00   1.4089278e+00  -4.1332461e+06
   1.1173725e-09  -9.2643981e-04   1.5145075e+00   1.4091677e+00  -4.1149350e+06
   1.1183728e-09  -9.2233263e-04   1.5142803e+00   1.4094067e+00  -4.0967050e+06
   1.1193731e-09  -9.1824365e-04   1.5140541e+00   1.4096446e+00  -4.0785556e+06
   1.1203735e-09  -9.1417277e-04   1.5138289e+00   1.4098815e+00  -4.0604866e+06
   1.1213738e-09  -9.1011994e-04   1.5136047e+00   1.4101174e+00  -4.0424974e+06
   1.1223741e-09  -9.0608506e-04   1.5133816e+00   1.4103522e+00  -4.0245879e+06
   1.1233745e-09  -9.0206805e-04   1.5131594e+00   1.4105861e+00  -4.0067576e+06
   1.1243748e-09  -8.9806884e-04   1.5129383e+00   1.4108189e+00  -3.9890063e+06
   1.1253751e-09  -8.9408735e-04   1.5127181e+00   1.4110507e+00  -3.9713334e+06
   1.1263755e-09  -8.9012350e-04   1.5124990e+00   1.4112815e+00  -3.9537388e+06
   1.1273758e-09  -8.8617721e-04   1.5122808e+00   1.4115113e+00  -3.9362220e+06
   1.1283761e-09  -8.8224841e-04   1.5120636e+00   1.4117402e+00  -3.9187827e+06
   1.1293765e-09  -8.7833701e-04   1.5118474e+00   1.4119680e+00  -3.9014206e+06
   1.1303768e-09  -8.7444294e-04   1.5116322e+00   1.4121948e+00  -3.8841353e+06
   1.1313771e-09  -8.7056612e-04   1.5114179e+00   1.4124207e+00  -3.8669266e+06
   1.1323775e-09  -8.6670648e-04   1.5112046e+00   1.4126456e+00  -3.8497939e+06
   1.1333778e-09  -8.6286394e-04   1.5109923e+00   1.4128695e+00  -3.8327371e+06
   1.1343781e-09  -8.5903842e-04   1.5107809e+00   1.4130924e+00  -3.8157557e+06
   1.1353785e-09  -8.5522986e-04   1.5105705e+00   1.4133144e+00  -3.7988495e+06
   1.1363788e-09  -8.5143817e-04   1.5103610e+00   1.4135354e+00  -3.7820182e+06
   1.1373791e-09  -8.4766328e-04   1.5101525e+00   1.4137555e+00  -3.7652613e+06
   1.1383795e-09  -8.4390511e-04   1.5099449e+00   1.4139746e+00  -3.7485785e+06
   1.1393798e-09  -8.4016359e-04   1.5097382e+00   1.4141927e+00  -3.7319696e+06
   1.1403801e-09  -8.3643866e-04   1.5095325e+00   1.4144099e+00  -3.7154342e+06
   1.1413805e-09  -8.3273022e-04   1.5093277e+00   1.4146262e+00  -3.6989719e+06
   1.1423808e-09  -8.2903822e-04   1.5091238e+00   1.4148415e+00  -3.6825825e+06
   1.1433811e-09  -8.2536258e-04   1.5089209e+00   1.4150559e+00  -3.6662657e+06
   1.1443815e-09  -8.2170322e-04   1.5087188e+00   1.4152694e+00  -3.6500210e+06
   1.1453818e-09  -8.1806008e-04   1.5085177e+00   1.4154819e+00  -3.6338483e+06
   1.1463821e-09  -8.1443308e-04   1.5083174e+00   1.4156935e+00  -3.6177471e+06
   1.1473825e-09  -8.1082215e-04   1.5081181e+00   1.4159042e+00  -3.6017172e+06
   1.1483828e-09  -8.0722722e-04   1.5079197e+00   1.4161140e+00  -3.5857582e+06
   1.1493831e-09  -8.0364822e-04   1.5077221e+00   1.4163229e+00  -3.5698699e+06
   1.1503835e-09  -8.0008507e-04   1.5075255e+00   1.4165309e+00  -3.5540519e+06
   1.1513838e-09  -7.9653772e-04   1.5073297e+00   1.4167379e+00  -3.5383038e+06
   1.1523841e-09  -7.9300608e-04   1.5071348e+00   1.4169441e+00  -3.5226255e+06
   1.1533845e-09  -7.8949010e-04   1.5069408e+00   1.4171494e+00  -3.5070166e+06
   1.1543848e-09  -7.8598969e-04   1.5067477e+00   1.4173538e+00  -3.4914768e+06
   1.1553851e-09  -7.8250479e-04   1.5065554e+00   1.4175573e+00  -3.4760057e+06
   1.1563855e-09  -7.7903534e-04   1.5063640e+00   1.4177599e+00  -3.4606031e+06
   1.1573858e-09  -7.7558125e-04   1.5061735e+00   1.4179616e+00  -3.4452687e+06
   1.1583861e-09  -7.7214248e-04   1.5059838e+00   1.4181625e+00  -3.4300022e+06
   1.1593865e-09  -7.6871894e-04   1.5057950e+00   1.4183625e+00  -3.4148032e+06
   1.1603868e-09  -7.6531057e-04   1.5056070e+00   1.4185616e+00  -3.3996715e+06
   1.1613871e-09  -7.6191731e-04   1.5054198e+00   1.4187598e+00  -3.3846068e+06
   1.1623875e-09  -7.5853908e-04   1.5052335e+00   1.4189572e+00  -3.3696088e+06
   1.1633878e-09  -7.5517582e-04   1.5050481e+00   1.4191538e+00  -3.3546771e+06
   1.1643881e-09  -7.5182746e-04   1.5048635e+00   1.4193494e+00  -3.3398116e+06
   1.1653885e-09  -7.4849395e-04   1.5046797e+00   1.4195443e+00  -3.3250118e+06
   1.1663888e-09  -7.4517520e-04   1.5044967e+00   1.4197383e+00  -3.3102776e+06
   1.1673891e-09  -7.4187116e-04   1.5043146e+00   1.4199314e+00  -3.2956086e+06
   1.1683895e-09  -7.3858177e-04   1.5041332e+00   1.4201237e+00  -3.2810045e+06
   1.1693898e-09  -7.3530694e-04   1.5039527e+00   1.4203152e+00  -3.2664651e+06
   1.1703901e-09  -7.3204664e-04   1.5037730e+00   1.4205058e+00  -3.2519900e+06
   1.1713905e-09  -7.2880077e-04   1.5035941e+00   1.4206956e+00  -3.2375790e+06
   1.1723908e-09  -7.2556930e-04   1.5034161e+00   1.4208846e+00  -3.2232318e+06
   1.1733911e-09  -7.2235214e-04   1.5032388e+00   1.4210728e+00  -3.2089481e+06
   1.1743915e-09  -7.1914924e-04   1.5030623e+00   1.4212601e+00  -3.1947276e+06
   1.1753918e-09  -7.1596053e-04   1.5028866e+00   1.4214466e+00  -3.1805701e+06
   1.1763921e-09  -7.1278596e-04   1.5027117e+00   1.4216323e+00  -3.1664753e+06
   1.1773925e-09  -7.0962545e-04   1.5025376e+00   1.4218172e+00  -3.1524428e+06
   1.1783928e-09  -7.0647895e-04   1.5023642e+00   1.4220013e+00  -3.1384725e+06
   1.1793931e-09  -7.0334639e-04   1.5021917e+00   1.4221847e+00  -3.1245641e+06
   1.1803935e-09  -7.0022772e-04   1.5020199e+00   1.4223672e+00  -3.1107171e+06
   1.1813938e-09  -6.9712286e-04   1.5018489e+00   1.4225489e+00  -3.0969315e+06
   1.1823941e-09  -6.9403177e-04   1.5016786e+00   1.4227298e+00  -3.0832070e+06
   1.1833945e-09  -6.9095437e-04   1.5015092e+00   1.4229099e+00  -3.0695432e+06
   1.1843948e-09  -6.8789061e-04   1.5013405e+00   1.4230893e+00  -3.0559398e+06
   1.1853951e-09  -6.8484043e-04   1.5011725e+00   1.4232678e+00  -3.0423968e+06
   1.1863955e-09  -6.8180377e-04   1.5010053e+00   1.4234456e+00  -3.0289136e+06
   1.1873958e-09  -6.7878057e-04   1.5008388e+00   1.4236226e+00  -3.0154902e+06
   1.1883961e-09  -6.7577076e-04   1.5006731e+00   1.4237989e+00  -3.0021262e+06
   1.1893965e-09  -6.7277429e-04   1.5005082e+00   1.4239744e+00  -2.9888213e+06
   1.1903968e-09  -6.6979110e-04   1.5003440e+00   1.4241491e+00  -2.9755754e+06
   1.1913971e-09  -6.6682114e-04   1.5001805e+00   1.4243230e+00  -2.9623881e+06
   1.1923975e-09  -6.6386433e-04   1.5000177e+00   1.4244962e+00  -2.9492592e+06
   1.1933978e-09  -6.6092063e-04   1.4998557e+00   1.4246687e+00  -2.9361884e+06
   1.1943981e-09  -6.5798998e-04   1.4996944e+00   1.4248404e+00  -2.9231755e+06
   1.1953985e-09  -6.5507231e-04   1.4995338e+00   1.4250113e+00  -2.9102202e+06
   1.1963988e-09  -6.5216758e-04   1.4993740e+00   1.4251815e+00  -2.8973223e+06
   1.1973991e-09  -6.4927572e-04   1.4992149e+00   1.4253510e+00  -2.8844814e+06
   1.1983995e-09  -6.4639667e-04   1.4990565e+00   1.4255197e+00  -2.8716975e+06
   1.1993998e-09  -6.4353039e-04   1.4988988e+00   1.4256877e+00  -2.8589701e+06
   1.2004001e-09  -6.4067681e-04   1.4987418e+00   1.4258549e+00  -2.8462991e+06
   1.2014005e-09  -6.3783587e-04   1.4985855e+00   1.4260215e+00  -2.8336842e+06
   1.2024008e-09  -6.3500753e-04   1.4984299e+00   1.4261873e+00  -2.8211251e+06
   1.2034011e-09  -6.3219172e-04   1.4982750e+00   1.4263523e+00  -2.8086217e+06
   1.2044015e-09  -6.2938840e-04   1.4981208e+00   1.4265167e+00  -2.7961736e+06
   1.2054018e-09  -6.2659749e-04   1.4979673e+00   1.4266803e+00  -2.7837807e+06
   1.2064021e-09  -6.2381896e-04   1.4978145e+00   1.4268432e+00  -2.7714426e+06
   1.2074025e-09  -6.2105274e-04   1.4976624e+00   1.4270055e+00  -2.7591591e+06
   1.2084028e-09  -6.1829878e-04   1.4975109e+00   1.4271670e+00  -2.7469301e+06
   1.2094031e-09  -6.1555703e-04   1.4973601e+00   1.4273278e+00  -2.7347552e+06
   1.2104035e-09  -6.1282743e-04   1.4972101e+00   1.4274879e+00  -2.7226342e+06
   1.2114038e-09  -6.1010993e-04   1.4970606e+00   1.4276473e+00  -2.7105668e+06
   1.2124041e-09  -6.0740447e-04   1.4969119e+00   1.4278060e+00  -2.6985529e+06
   1.2134045e-09  -6.0471101e-04   1.4967638e+00   1.4279640e+00  -2.6865923e+06
   1.2144048e-09  -6.0202948e-04   1.4966164e+00   1.4281213e+00  -2.6746845e+06
   1.2154051e-09  -5.9935984e-04   1.4964696e+00   1.4282780e+00  -2.6628295e+06
   1.2164055e-09  -5.9670203e-04   1.4963235e+00   1.4284339e+00  -2.6510270e+06
   1.2174058e-09  -5.9405600e-04   1.4961781e+00   1.4285892e+00  -2.6392768e+06
   1.2184061e-09  -5.9142169e-04   1.4960333e+00   1.4287438e+00  -2.6275786e+06
   1.2194065e-09  -5.8879907e-04   1.4958892e+00   1.4288977e+00  -2.6159322e+06
   1.2204068e-09  -5.8618807e-04   1.4957457e+00   1.4290510e+00  -2.6043374e+06
   1.2214071e-09  -5.8358864e-04   1.4956028e+00   1.4292036e+00  -2.5927939e+06
   1.2224075e-09  -5.8100073e-04   1.4954606e+00   1.4293555e+00  -2.5813016e+06
   1.2234078e-09  -5.7842430e-04   1.4953191e+00   1.4295067e+00  -2.5698601e+06
   1.2244081e-09  -5.7585928e-04   1.4951781e+00   1.4296573e+00  -2.5584694e+06
   1.2254085e-09  -5.7330564e-04   1.4950378e+00   1.4298073e+00  -2.5471290e+06
   1.2264088e-09  -5.7076331e-04   1.4948981e+00   1.4299565e+00  -2.5358389e+06
   1.2274091e-09  -5.6823225e-04   1.4947591e+00   1.4301052e+00  -2.5245988e+06
   1.2284095e-09  -5.6571241e-04   1.4946207e+00   1.4302531e+00  -2.5134084e+06
   1.2294098e-09  -5.6320374e-04   1.4944829e+00   1.4304005e+00  -2.5022676e+06
   1.2304101e-09  -5.6070619e-04   1.4943457e+00   1.4305472e+00  -2.4911762e+06
   1.2314105e-09  -5.5821971e-04   1.4942091e+00   1.4306932e+00  -2.4801339e+06
   1.2324108e-09  -5.5574425e-04   1.4940731e+00   1.4308386e+00  -2.4691405e+06
   1.2334111e-09  -5.5327977e-04   1.4939378e+00   1.4309834e+00  -2.4581957e+06
   1.2344115e-09  -5.5082621e-04   1.4938030e+00   1.4311275e+00  -2.4472995e+06
   1.2354118e-09  -5.4838352e-04   1.4936689e+00   1.4312711e+00  -2.4364515e+06
   1.2364121e-09  -5.4595166e-04   1.4935353e+00   1.4314139e+00  -2.4256515e+06
   1.2374125e-09  -5.4353058e-04   1.4934024e+00   1.4315562e+00  -2.4148994e+06
   1.2384128e-09  -5.4112024e-04   1.4932701e+00   1.4316979e+00  -2.4041949e+06
   1.2394131e-09  -5.3872057e-04   1.4931383e+00   1.4318389e+00  -2.3935378e+06
   1.2404135e-09  -5.3633155e-04   1.4930071e+00   1.4319793e+00  -2.3829279e+06
   1.2414138e-09  -5.3395311e-04   1.4928766e+00   1.4321191e+00  -2.3723650e+06
   1.2424141e-09  -5.3158522e-04   1.4927466e+00   1.4322582e+00  -2.3618489e+06
   1.2434145e-09  -5.2922783e-04   1.4926172e+00   1.4323968e+00  -2.3513794e+06
   1.2444148e-09  -5.2688088e-04   1.4924883e+00   1.4325348e+00  -2.3409562e+06
   1.2454151e-09  -5.2454434e-04   1.4923601e+00   1.4326721e+00  -2.3305792e+06
   1.2464155e-09  -5.2221815e-04   1.4922324e+00   1.4328089e+00  -2.3202482e+06
   1.2474158e-09  -5.1990228e-04   1.4921053e+00   1.4329451e+00  -2.3099629e+06
   1.2484161e-09  -5.1759667e-04   1.4919788e+00   1.4330806e+00  -2.2997232e+06
   1.2494165e-09  -5.1530128e-04   1.4918528e+00   1.4332156e+00  -2.2895288e+06
   1.2504168e-09  -5.1301607e-04   1.4917274e+00   1.4333500e+00  -2.2793796e+06
   1.2514171e-09  -5.1074099e-04   1.4916026e+00   1.4334838e+00  -2.2692754e+06
   1.2524175e-09  -5.0847599e-04   1.4914783e+00   1.4336170e+00  -2.2592159e+06
   1.2534178e-09  -5.0622103e-04   1.4913545e+00   1.4337496e+00  -2.2492009e+06
   1.2544181e-09  -5.0397607e-04   1.4912314e+00   1.4338817e+00  -2.2392304e+06
   1.2554185e-09  -5.0174107e-04   1.4911087e+00   1.4340132e+00  -2.2293040e+06
   1.2564188e-09  -4.9951597e-04   1.4909867e+00   1.4341441e+00  -2.2194215e+06
   1.2574191e-09  -4.9730073e-04   1.4908651e+00   1.4342744e+00  -2.2095828e+06
   1.2584195e-09  -4.9509531e-04   1.4907442e+00   1.4344041e+00  -2.1997877e+06
   1.2594198e-09  -4.9289967e-04   1.4906237e+00   1.4345333e+00  -2.1900360e+06
   1.2604201e-09  -4.9071376e-04   1.4905038e+00   1.4346619e+00  -2.1803275e+06
   1.2614205e-09  -4.8853755e-04   1.4903845e+00   1.4347900e+00  -2.1706620e+06
   1.2624208e-09  -4.8637098e-04   1.4902656e+00   1.4349175e+00  -2.1610394e+06
   1.2634211e-09  -4.8421401e-04   1.4901473e+00   1.4350444e+00  -2.1514593e+06
   1.2644215e-09  -4.8206661e-04   1.4900296e+00   1.4351708e+00  -2.1419217e+06
   1.2654218e-09  -4.7992873e-04   1.4899123e+00   1.4352966e+00  -2.1324263e+06
   1.2664221e-09  -4.7780032e-04   1.4897956e+00   1.4354219e+00  -2.1229730e+06
   1.2674225e-09  -4.7568135e-04   1.4896794e+00   1.4355467e+00  -2.1135616e+06
   1.2684228e-09  -4.7357178e-04   1.4895637e+00   1.4356708e+00  -2.1041918e+06
   1.2694231e-09  -4.7147155e-04   1.4894486e+00   1.4357945e+00  -2.0948636e+06
   1.2704235e-09  -4.6938064e-04   1.4893339e+00   1.4359176e+00  -2.0855767e+06
   1.2714238e-09  -4.6729899e-04   1.4892198e+00   1.4360401e+00  -2.0763309e+06
   1.2724241e-09  -4.6522658e-04   1.4891062e+00   1.4361622e+00  -2.0671261e+06
   1.2734245e-09  -4.6316335e-04   1.4889931e+00   1.4362837e+00  -2.0579621e+06
   1.2744248e-09  -4.6110927e-04   1.4888805e+00   1.4364046e+00  -2.0488386e+06
   1.2754251e-09  -4.5906429e-04   1.4887684e+00   1.4365250e+00  -2.0397556e+06
   1.2764255e-09  -4.5702838e-04   1.4886568e+00   1.4366449e+00  -2.0307128e+06
   1.2774258e-09  -4.5500150e-04   1.4885457e+00   1.4367643e+00  -2.0217101e+06
   1.2784261e-09  -4.5298360e-04   1.4884351e+00   1.4368832e+00  -2.0127473e+06
   1.2794265e-09  -4.5097465e-04   1.4883249e+00   1.4370015e+00  -2.0038241e+06
   1.2804268e-09  -4.4897460e-04   1.4882153e+00   1.4371193e+00  -1.9949405e+06
   1.2814271e-09  -4.4698342e-04   1.4881062e+00   1.4372366e+00  -1.9860963e+06
   1.2824275e-09  -4.4500107e-04   1.4879976e+00   1.4373534e+00  -1.9772912e+06
   1.2834278e-09  -4.4302751e-04   1.4878894e+00   1.4374696e+00  -1.9685252e+06
   1.2844281e-09  -4.4106270e-04   1.4877817e+00   1.4375854e+00  -1.9597980e+06
   1.2854285e-09  -4.3910659e-04   1.4876746e+00   1.4377007e+00  -1.9511094e+06
   1.2864288e-09  -4.3715916e-04   1.4875679e+00   1.4378154e+00  -1.9424594e+06
   1.2874291e-09  -4.3522037e-04   1.4874616e+00   1.4379296e+00  -1.9338476e+06
   1.2884295e-09  -4.3329017e-04   1.4873559e+00   1.4380434e+00  -1.9252741e+06
   1.2894298e-09  -4.3136852e-04   1.4872506e+00   1.4381566e+00  -1.9167385e+06
   1.2904301e-09  -4.2945540e-04   1.4871458e+00   1.4382694e+00  -1.9082407e+06
   1.2914305e-09  -4.2755076e-04   1.4870414e+00   1.4383816e+00  -1.8997805e+06
   1.2924308e-09  -4.2565456e-04   1.4869376e+00   1.4384934e+00  -1.8913579e+06
   1.2934311e-09  -4.2376677e-04   1.4868342e+00   1.4386047e+00  -1.8829726e+06
   1.2944315e-09  -4.2188734e-04   1.4867312e+00   1.4387155e+00  -1.8746244e+06
   1.2954318e-09  -4.2001625e-04   1.4866287e+00   1.4388258e+00  -1.8663132e+06
   1.2964321e-09  -4.1815346e-04   1.4865267e+00   1.4389356e+00  -1.8580388e+06
   1.2974325e-09  -4.1629893e-04   1.4864251e+00   1.4390449e+00  -1.8498011e+06
   1.2984328e-09  -4.1445261e-04   1.4863240e+00   1.4391538e+00  -1.8415999e+06
   1.2994331e-09  -4.1261449e-04   1.4862233e+00   1.4392621e+00  -1.8334350e+06
   1.3004335e-09  -4.1078451e-04   1.4861231e+00   1.4393700e+00  -1.8253063e+06
   1.3014338e-09  -4.0896264e-04   1.4860233e+00   1.4394775e+00  -1.8172137e+06
   1.3024341e-09  -4.0714886e-04   1.4859240e+00   1.4395844e+00  -1.8091568e+06
   1.3034345e-09  -4.0534311e-04   1.4858251e+00   1.4396909e+00  -1.8011357e+06
   1.3044348e-09  -4.0354537e-04   1.4857267e+00   1.4397969e+00  -1.7931501e+06
   1.3054351e-09  -4.0175560e-04   1.4856287e+00   1.4399025e+00  -1.7851999e+06
   1.3064355e-09  -3.9997377e-04   1.4855311e+00   1.4400076e+00  -1.7772849e+06
   1.3074358e-09  -3.9819984e-04   1.4854340e+00   1.4401122e+00  -1.7694050e+06
   1.3084361e-09  -3.9643377e-04   1.4853373e+00   1.4402164e+00  -1.7615600e+06
   1.3094365e-09  -3.9467553e-04   1.4852411e+00   1.4403201e+00  -1.7537498e+06
   1.3104368e-09  -3.9292509e-04   1.4851452e+00   1.4404233e+00  -1.7459742e+06
   1.3114371e-09  -3.9118241e-04   1.4850498e+00   1.4405261e+00  -1.7382330e+06
   1.3124375e-09  -3.8944745e-04   1.4849549e+00   1.4406285e+00  -1.7305261e+06
   1.3134378e-09  -3.8772019e-04   1.4848603e+00   1.4407304e+00  -1.7228534e+06
   1.3144381e-09  -3.8600058e-04   1.4847662e+00   1.4408319e+00  -1.7152147e+06
   1.3154385e-09  -3.8428860e-04   1.4846725e+00   1.4409329e+00  -1.7076098e+06
   1.3164388e-09  -3.8258421e-04   1.4845792e+00   1.4410334e+00  -1.7000386e+06
   1.3174391e-09  -3.8088738e-04   1.4844863e+00   1.4411336e+00  -1.6925010e+06
   1.3184395e-09  -3.7919807e-04   1.4843939e+00   1.4412333e+00  -1.6849968e+06
   1.3194398e-09  -3.7751625e-04   1.4843018e+00   1.4413325e+00  -1.6775258e+06
   1.3204401e-09  -3.7584189e-04   1.4842102e+00   1.4414313e+00  -1.6700879e+06
   1.3214405e-09  -3.7417495e-04   1.4841190e+00   1.4415297e+00  -1.6626830e+06
   1.3224408e-09  -3.7251541e-04   1.4840282e+00   1.4416276e+00  -1.6553109e+06
   1.3234411e-09  -3.7086322e-04   1.4839378e+00   1.4417252e+00  -1.6479715e+06
   1.3244415e-09  -3.6921835e-04   1.4838477e+00   1.4418223e+00  -1.6406646e+06
   1.3254418e-09  -3.6758078e-04   1.4837581e+00   1.4419189e+00  -1.6333900e+06
   1.3264421e-09  -3.6595047e-04   1.4836689e+00   1.4420152e+00  -1.6261477e+06
   1.3274425e-09  -3.6432739e-04   1.4835801e+00   1.4421110e+00  -1.6189375e+06
   1.3284428e-09  -3.6271151e-04   1.4834917e+00   1.4422064e+00  -1.6117593e+06
   1.3294431e-09  -3.6110279e-04   1.4834037e+00   1.4423013e+00  -1.6046129e+06
   1.3304435e-09  -3.5950120e-04   1.4833161e+00   1.4423959e+00  -1.5974981e+06
   1.3314438e-09  -3.5790672e-04   1.4832289e+00   1.4424901e+00  -1.5904148e+06
   1.3324441e-09  -3.5631930e-04   1.4831420e+00   1.4425838e+00  -1.5833630e+06
   1.3334445e-09  -3.5473892e-04   1.4830556e+00   1.4426771e+00  -1.5763424e+06
   1.3344448e-09  -3.5316555e-04   1.4829695e+00   1.4427700e+00  -1.5693529e+06
   1.3354451e-09  -3.5159916e-04   1.4828838e+00   1.4428625e+00  -1.5623944e+06
   1.3364455e-09  -3.5003971e-04   1.4827985e+00   1.4429546e+00  -1.5554667e+06
   1.3374458e-09  -3.4848718e-04   1.4827136e+00   1.4430463e+00  -1.5485697e+06
   1.3384461e-09  -3.4694153e-04   1.4826291e+00   1.4431376e+00  -1.5417033e+06
   1.3394465e-09  -3.4540273e-04   1.4825449e+00   1.4432285e+00  -1.5348673e+06
   1.3404468e-09  -3.4387076e-04   1.4824611e+00   1.4433189e+00  -1.5280616e+06
   1.3414471e-09  -3.4234558e-04   1.4823777e+00   1.4434090e+00  -1.5212861e+06
   1.3424475e-09  -3.4082717e-04   1.4822947e+00   1.4434987e+00  -1.5145406e+06
   1.3434478e-09  -3.3931548e-04   1.4822120e+00   1.4435880e+00  -1.5078249e+06
   1.3444481e-09  -3.3781050e-04   1.4821297e+00   1.4436769e+00  -1.5011391e+06
   1.3454485e-09  -3.3631219e-04   1.4820478e+00   1.4437654e+00  -1.4944829e+06
   1.3464488e-09  -3.3482053e-04   1.4819662e+00   1.4438536e+00  -1.4878561e+06
   1.3474491e-09  -3.3333548e-04   1.4818850e+00   1.4439413e+00  -1.4812588e+06
   1.3484495e-09  -3.3185701e-04   1.4818042e+00   1.4440287e+00  -1.4746907e+06
   1.3494498e-09  -3.3038510e-04   1.4817237e+00   1.4441156e+00  -1.4681517e+06
   1.3504502e-09  -3.2891972e-04   1.4816436e+00   1.4442022e+00  -1.4616416e+06
   1.3514505e-09  -3.2746084e-04   1.4815638e+00   1.4442884e+00  -1.4551604e+06
   1.3524508e-09  -3.2600842e-04   1.4814844e+00   1.4443743e+00  -1.4487080e+06
   1.3534512e-09  -3.2456244e-04   1.4814054e+00   1.4444597e+00  -1.4422841e+06
   1.3544515e-09  -3.2312288e-04   1.4813267e+00   1.4445448e+00  -1.4358887e+06
   1.3554518e-09  -3.2168970e-04   1.4812483e+00   1.4446295e+00  -1.4295217e+06
   1.3564522e-09  -3.2026287e-04   1.4811703e+00   1.4447138e+00  -1.4231829e+06
   1.3574525e-09  -3.1884237e-04   1.4810927e+00   1.4447978e+00  -1.4168721e+06
   1.3584528e-09  -3.1742817e-04   1.4810154e+00   1.4448813e+00  -1.4105894e+06
   1.3594532e-09  -3.1602025e-04   1.4809384e+00   1.4449646e+00  -1.4043345e+06
   1.3604535e-09  -3.1461856e-04   1.4808618e+00   1.4450474e+00  -1.3981073e+06
   1.3614538e-09  -3.1322309e-04   1.4807855e+00   1.4451299e+00  -1.3919077e+06
   1.3624542e-09  -3.1183381e-04   1.4807096e+00   1.4452120e+00  -1.3857355e+06
   1.3634545e-09  -3.1045069e-04   1.4806340e+00   1.4452938e+00  -1.3795908e+06
   1.3644548e-09  -3.0907370e-04   1.4805587e+00   1.4453752e+00  -1.3734733e+06
   1.3654552e-09  -3.0770281e-04   1.4804838e+00   1.4454562e+00  -1.3673828e+06
   1.3664555e-09  -3.0633801e-04   1.4804092e+00   1.4455369e+00  -1.3613194e+06
   1.3674558e-09  -3.0497926e-04   1.4803350e+00   1.4456173e+00  -1.3552829e+06
   1.3684562e-09  -3.0362653e-04   1.4802611e+00   1.4456972e+00  -1.3492731e+06
   1.3694565e-09  -3.0227980e-04   1.4801875e+00   1.4457769e+00  -1.3432899e+06
   1.3704568e-09  -3.0093905e-04   1.4801142e+00   1.4458562e+00  -1.3373333e+06
   1.3714572e-09  -2.9960424e-04   1.4800413e+00   1.4459351e+00  -1.3314030e+06
   1.3724575e-09  -2.9827534e-04   1.4799687e+00   1.4460137e+00  -1.3254991e+06
   1.3734578e-09  -2.9695235e-04   1.4798964e+00   1.4460919e+00  -1.3196213e+06
   1.3744582e-09  -2.9563521e-04   1.4798244e+00   1.4461698e+00  -1.3137696e+06
   1.3754585e-09  -2.9432392e-04   1.4797528e+00   1.4462474e+00  -1.3079438e+06
   1.3764588e-09  -2.9301844e-04   1.4796814e+00   1.4463246e+00  -1.3021438e+06
   1.3774592e-09  -2.9171876e-04   1.4796104e+00   1.4464014e+00  -1.2963695e+06
   1.3784595e-09  -2.9042483e-04   1.4795397e+00   1.4464780e+00  -1.2906208e+06
   1.3794598e-09  -2.8913665e-04   1.4794694e+00   1.4465542e+00  -1.2848976e+06
   1.3804602e-09  -2.8785417e-04   1.4793993e+00   1.4466300e+00  -1.2791998e+06
   1.3814605e-09  -2.8657739e-04   1.4793296e+00   1.4467055e+00  -1.2735272e+06
   1.3824608e-09  -2.8530626e-04   1.4792601e+00   1.4467807e+00  -1.2678798e+06
   1.3834612e-09  -2.8404077e-04   1.4791910e+00   1.4468556e+00  -1.2622574e+06
   1.3844615e-09  -2.8278090e-04   1.4791222e+00   1.4469301e+00  -1.2566599e+06
   1.3854618e-09  -2.8152661e-04   1.4790537e+00   1.4470043e+00  -1.2510873e+06
   1.3864622e-09  -2.8027788e-04   1.4789855e+00   1.4470782e+00  -1.2455393e+06
   1.3874625e-09  -2.7903469e-04   1.4789176e+00   1.4471518e+00  -1.2400159e+06
   1.3884628e-09  -2.7779701e-04   1.4788500e+00   1.4472250e+00  -1.2345170e+06
   1.3894632e-09  -2.7656482e-04   1.4787827e+00   1.4472979e+00  -1.2290425e+06
   1.3904635e-09  -2.7533810e-04   1.4787157e+00   1.4473705e+00  -1.2235923e+06
   1.3914638e-09  -2.7411681e-04   1.4786490e+00   1.4474427e+00  -1.2181662e+06
   1.3924642e-09  -2.7290095e-04   1.4785826e+00   1.4475147e+00  -1.2127641e+06
   1.3934645e-09  -2.7169047e-04   1.4785165e+00   1.4475863e+00  -1.2073860e+06
   1.3944648e-09  -2.7048536e-04   1.4784506e+00   1.4476576e+00  -1.2020318e+06
   1.3954652e-09  -2.6928560e-04   1.4783851e+00   1.4477286e+00  -1.1967013e+06
   1.3964655e-09  -2.6809115e-04   1.4783199e+00   1.4477993e+00  -1.1913944e+06
   1.3974658e-09  -2.6690200e-04   1.4782550e+00   1.4478697e+00  -1.1861110e+06
   1.3984662e-09  -2.6571813e-04   1.4781903e+00   1.4479398e+00  -1.1808510e+06
   1.3994665e-09  -2.6453951e-04   1.4781260e+00   1.4480095e+00  -1.1756144e+06
   1.4004668e-09  -2.6336611e-04   1.4780619e+00   1.4480790e+00  -1.1704010e+06
   1.4014672e-09  -2.6219792e-04   1.4779981e+00   1.4481481e+00  -1.1652107e+06
   1.4024675e-09  -2.6103490e-04   1.4779346e+00   1.4482170e+00  -1.1600434e+06
   1.4034678e-09  -2.5987705e-04   1.4778714e+00   1.4482855e+00  -1.1548990e+06
   1.4044682e-09  -2.5872433e-04   1.4778085e+00   1.4483537e+00  -1.1497774e+06
   1.4054685e-09  -2.5757672e-04   1.4777458e+00   1.4484217e+00  -1.1446785e+06
   1.4064688e-09  -2.5643420e-04   1.4776834e+00   1.4484893e+00  -1.1396022e+06
   1.4074692e-09  -2.5529675e-04   1.4776213e+00   1.4485566e+00  -1.1345484e+06
   1.4084695e-09  -2.5416434e-04   1.4775595e+00   1.4486237e+00  -1.1295170e+06
   1.4094698e-09  -2.5303695e-04   1.4774980e+00   1.4486904e+00  -1.1245079e+06
   1.4104702e-09  -2.5191457e-04   1.4774367e+00   1.4487569e+00  -1.1195211e+06
   1.4114705e-09  -2.5079716e-04   1.4773757e+00   1.4488230e+00  -1.1145563e+06
   1.4124708e-09  -2.4968470e-04   1.4773150e+00   1.4488889e+00  -1.1096135e+06
   1.4134712e-09  -2.4857718e-04   1.4772545e+00   1.4489545e+00  -1.1046927e+06
   1.4144715e-09  -2.4747457e-04   1.4771943e+00   1.4490198e+00  -1.0997936e+06
   1.4154718e-09  -2.4637685e-04   1.4771344e+00   1.4490848e+00  -1.0949163e+06
   1.4164722e-09  -2.4528400e-04   1.4770748e+00   1.4491495e+00  -1.0900606e+06
   1.4174725e-09  -2.4419600e-04   1.4770154e+00   1.4492139e+00  -1.0852265e+06
   1.4184728e-09  -2.4311282e-04   1.4769563e+00   1.4492781e+00  -1.0804137e+06
   1.4194732e-09  -2.4203444e-04   1.4768974e+00   1.4493419e+00  -1.0756223e+06
   1.4204735e-09  -2.4096085e-04   1.4768388e+00   1.4494055e+00  -1.0708521e+06
   1.4214738e-09  -2.3989202e-04   1.4767805e+00   1.4494688e+00  -1.0661031e+06
   1.4224742e-09  -2.3882793e-04   1.4767224e+00   1.4495318e+00  -1.0613751e+06
   1.4234745e-09  -2.3776855e-04   1.4766646e+00   1.4495946e+00  -1.0566681e+06
   1.4244748e-09  -2.3671388e-04   1.4766070e+00   1.4496570e+00  -1.0519820e+06
   1.4254752e-09  -2.3566388e-04   1.4765497e+00   1.4497192e+00  -1.0473166e+06
   1.4264755e-09  -2.3461854e-04   1.4764927e+00   1.4497811e+00  -1.0426719e+06
   1.4274758e-09  -2.3357784e-04   1.4764359e+00   1.4498428e+00  -1.0380478e+06
   1.4284762e-09  -2.3254175e-04   1.4763794e+00   1.4499041e+00  -1.0334442e+06
   1.4294765e-09  -2.3151025e-04   1.4763231e+00   1.4499653e+00  -1.0288611e+06
   1.4304768e-09  -2.3048333e-04   1.4762670e+00   1.4500261e+00  -1.0242982e+06
   1.4314772e-09  -2.2946096e-04   1.4762113e+00   1.4500866e+00  -1.0197556e+06
   1.4324775e-09  -2.2844313e-04   1.4761557e+00   1.4501469e+00  -1.0152330e+06
   1.4334778e-09  -2.2742981e-04   1.4761004e+00   1.4502070e+00  -1.0107306e+06
   1.4344782e-09  -2.2642099e-04   1.4760454e+00   1.4502667e+00  -1.0062481e+06
   1.4354785e-09  -2.2541664e-04   1.4759906e+00   1.4503262e+00  -1.0017855e+06
   1.4364788e-09  -2.2441675e-04   1.4759360e+00   1.4503855e+00  -9.9734265e+05
   1.4374792e-09  -2.2342128e-04   1.4758817e+00   1.4504445e+00  -9.9291951e+05
   1.4384795e-09  -2.2243024e-04   1.4758277e+00   1.4505032e+00  -9.8851598e+05
   1.4394798e-09  -2.2144359e-04   1.4757738e+00   1.4505616e+00  -9.8413197e+05
   1.4404802e-09  -2.2046131e-04   1.4757202e+00   1.4506199e+00  -9.7976740e+05
   1.4414805e-09  -2.1948339e-04   1.4756669e+00   1.4506778e+00  -9.7542217e+05
   1.4424808e-09  -2.1850981e-04   1.4756138e+00   1.4507355e+00  -9.7109622e+05
   1.4434812e-09  -2.1754054e-04   1.4755609e+00   1.4507929e+00  -9.6678944e+05
   1.4444815e-09  -2.1657558e-04   1.4755083e+00   1.4508501e+00  -9.6250175e+05
   1.4454818e-09  -2.1561489e-04   1.4754559e+00   1.4509070e+00  -9.5823307e+05
   1.4464822e-09  -2.1465847e-04   1.4754037e+00   1.4509637e+00  -9.5398332e+05
   1.4474825e-09  -2.1370628e-04   1.4753518e+00   1.4510201e+00  -9.4975241e+05
   1.4484828e-09  -2.1275832e-04   1.4753000e+00   1.4510763e+00  -9.4554025e+05
   1.4494832e-09  -2.1181457e-04   1.4752486e+00   1.4511323e+00  -9.4134677e+05
   1.4504835e-09  -2.1087500e-04   1.4751973e+00   1.4511879e+00  -9.3717189e+05
   1.4514838e-09  -2.0993959e-04   1.4751463e+00   1.4512434e+00  -9.3301551e+05
   1.4524842e-09  -2.0900834e-04   1.4750955e+00   1.4512986e+00  -9.2887756e+05
   1.4534845e-09  -2.0808121e-04   1.4750449e+00   1.4513535e+00  -9.2475795e+05
   1.4544848e-09  -2.0715820e-04   1.4749946e+00   1.4514082e+00  -9.2065661e+05
   1.4554852e-09  -2.0623928e-04   1.4749445e+00   1.4514627e+00  -9.1657345e+05
   1.4564855e-09  -2.0532443e-04   1.4748946e+00   1.4515169e+00  -9.1250840e+05
   1.4574858e-09  -2.0441365e-04   1.4748449e+00   1.4515709e+00  -9.0846137e+05
   1.4584862e-09  -2.0350690e-04   1.4747955e+00   1.4516247e+00  -9.0443228e+05
   1.4594865e-09  -2.0260417e-04   1.4747462e+00   1.4516782e+00  -9.0042105e+05
   1.4604868e-09  -2.0170545e-04   1.4746972e+00   1.4517315e+00  -8.9642761e+05
   1.4614872e-09  -2.0081071e-04   1.4746484e+00   1.4517845e+00  -8.9245188e+05
   1.4624875e-09  -1.9991995e-04   1.4745999e+00   1.4518373e+00  -8.8849377e+05
