   0.0000000e+00  -1.3735019e-01   6.2729425e+00   1.4314153e-04  -5.1922345e+08
   1.0003334e-12  -1.3683153e-01   6.2705257e+00   1.4897945e-04  -5.1780891e+08
   2.0006669e-12  -1.3631428e-01   6.2680682e+00   1.5503736e-04  -5.1639412e+08
   3.0010003e-12  -1.3579845e-01   6.2655695e+00   1.6132275e-04  -5.1497910e+08
   4.0013338e-12  -1.3528403e-01   6.2630293e+00   1.6784332e-04  -5.1356385e+08
   5.0016672e-12  -1.3477103e-01   6.2604468e+00   1.7460701e-04  -5.1214837e+08
   6.0020007e-12  -1.3425944e-01   6.2578218e+00   1.8162197e-04  -5.1073266e+08
   7.0023341e-12  -1.3374928e-01   6.2551535e+00   1.8889660e-04  -5.0931674e+08
   8.0026676e-12  -1.3324052e-01   6.2524417e+00   1.9643955e-04  -5.0790060e+08
   9.0030010e-12  -1.3273319e-01   6.2496857e+00   2.0425969e-04  -5.0648425e+08
   1.0003334e-11  -1.3222727e-01   6.2468851e+00   2.1236618e-04  -5.0506770e+08
   1.1003668e-11  -1.3172277e-01   6.2440393e+00   2.2076840e-04  -5.0365094e+08
   1.2004001e-11  -1.3121969e-01   6.2411478e+00   2.2947601e-04  -5.0223399e+08
   1.3004335e-11  -1.3071802e-01   6.2382102e+00   2.3849894e-04  -5.0081685e+08
   1.4004668e-11  -1.3021777e-01   6.2352260e+00   2.4784739e-04  -4.9939952e+08
   1.5005002e-11  -1.2971894e-01   6.2321945e+00   2.5753185e-04  -4.9798202e+08
   1.6005335e-11  -1.2922153e-01   6.2291154e+00   2.6756309e-04  -4.9656434e+08
   1.7005669e-11  -1.2872554e-01   6.2259882e+00   2.7795215e-04  -4.9514650e+08
   1.8006002e-11  -1.2823096e-01   6.2228122e+00   2.8871041e-04  -4.9372850e+08
   1.9006335e-11  -1.2773781e-01   6.2195871e+00   2.9984952e-04  -4.9231034e+08
   2.0006669e-11  -1.2724607e-01   6.2163123e+00   3.1138145e-04  -4.9089205e+08
   2.1007002e-11  -1.2675575e-01   6.2129874e+00   3.2331848e-04  -4.8947361e+08
   2.2007336e-11  -1.2626685e-01   6.2096117e+00   3.3567322e-04  -4.8805504e+08
   2.3007669e-11  -1.2577937e-01   6.2061849e+00   3.4845860e-04  -4.8663635e+08
   2.4008003e-11  -1.2529331e-01   6.2027064e+00   3.6168790e-04  -4.8521755e+08
   2.5008336e-11  -1.2480867e-01   6.1991757e+00   3.7537470e-04  -4.8379864e+08
   2.6008670e-11  -1.2432545e-01   6.1955924e+00   3.8953296e-04  -4.8237963e+08
   2.7009003e-11  -1.2384365e-01   6.1919559e+00   4.0417698e-04  -4.8096053e+08
   2.8009336e-11  -1.2336326e-01   6.1882658e+00   4.1932142e-04  -4.7954135e+08
   2.9009670e-11  -1.2288430e-01   6.1845215e+00   4.3498130e-04  -4.7812211e+08
   3.0010003e-11  -1.2240676e-01   6.1807226e+00   4.5117201e-04  -4.7670280e+08
   3.1010337e-11  -1.2193064e-01   6.1768687e+00   4.6790931e-04  -4.7528344e+08
   3.2010670e-11  -1.2145593e-01   6.1729591e+00   4.8520934e-04  -4.7386404e+08
   3.3011004e-11  -1.2098265e-01   6.1689935e+00   5.0308865e-04  -4.7244461e+08
   3.4011337e-11  -1.2051079e-01   6.1649714e+00   5.2156415e-04  -4.7102517e+08
   3.5011671e-11  -1.2004034e-01   6.1608923e+00   5.4065317e-04  -4.6960571e+08
   3.6012004e-11  -1.1957132e-01   6.1567558e+00   5.6037344e-04  -4.6818626e+08
   3.7012337e-11  -1.1910372e-01   6.1525613e+00   5.8074310e-04  -4.6676682e+08
   3.8012671e-11  -1.1863753e-01   6.1483084e+00   6.0178071e-04  -4.6534741e+08
   3.9013004e-11  -1.1817277e-01   6.1439968e+00   6.2350525e-04  -4.6392804e+08
   4.0013338e-11  -1.1770943e-01   6.1396258e+00   6.4593613e-04  -4.6250871e+08
   4.1013671e-11  -1.1724750e-01   6.1351951e+00   6.6909319e-04  -4.6108946e+08
   4.2014005e-11  -1.1678700e-01   6.1307043e+00   6.9299671e-04  -4.5967028e+08
   4.3014338e-11  -1.1632792e-01   6.1261529e+00   7.1766743e-04  -4.5825119e+08
   4.4014672e-11  -1.1587025e-01   6.1215404e+00   7.4312650e-04  -4.5683220e+08
   4.5015005e-11  -1.1541401e-01   6.1168666e+00   7.6939558e-04  -4.5541334e+08
   4.6015338e-11  -1.1495918e-01   6.1121308e+00   7.9649675e-04  -4.5399460e+08
   4.7015672e-11  -1.1450577e-01   6.1073328e+00   8.2445258e-04  -4.5257602e+08
   4.8016005e-11  -1.1405379e-01   6.1024721e+00   8.5328610e-04  -4.5115760e+08
   4.9016339e-11  -1.1360322e-01   6.0975484e+00   8.8302082e-04  -4.4973935e+08
   5.0016672e-11  -1.1315407e-01   6.0925612e+00   9.1368073e-04  -4.4832130e+08
   5.1017006e-11  -1.1270634e-01   6.0875101e+00   9.4529031e-04  -4.4690345e+08
   5.2017339e-11  -1.1226002e-01   6.0823948e+00   9.7787452e-04  -4.4548584e+08
   5.3017673e-11  -1.1181513e-01   6.0772149e+00   1.0114588e-03  -4.4406846e+08
   5.4018006e-11  -1.1137165e-01   6.0719701e+00   1.0460692e-03  -4.4265134e+08
   5.5018339e-11  -1.1092959e-01   6.0666599e+00   1.0817321e-03  -4.4123450e+08
   5.6018673e-11  -1.1048895e-01   6.0612841e+00   1.1184745e-03  -4.3981795e+08
   5.7019006e-11  -1.1004972e-01   6.0558423e+00   1.1563239e-03  -4.3840171e+08
   5.8019340e-11  -1.0961191e-01   6.0503341e+00   1.1953083e-03  -4.3698581e+08
   5.9019673e-11  -1.0917552e-01   6.0447593e+00   1.2354562e-03  -4.3557024e+08
   6.0020007e-11  -1.0874054e-01   6.0391175e+00   1.2767967e-03  -4.3415505e+08
   6.1020340e-11  -1.0830698e-01   6.0334084e+00   1.3193593e-03  -4.3274024e+08
   6.2020674e-11  -1.0787483e-01   6.0276318e+00   1.3631741e-03  -4.3132584e+08
   6.3021007e-11  -1.0744410e-01   6.0217873e+00   1.4082718e-03  -4.2991186e+08
   6.4021340e-11  -1.0701478e-01   6.0158747e+00   1.4546834e-03  -4.2849832e+08
   6.5021674e-11  -1.0658688e-01   6.0098936e+00   1.5024408e-03  -4.2708525e+08
   6.6022007e-11  -1.0616039e-01   6.0038439e+00   1.5515762e-03  -4.2567266e+08
   6.7022341e-11  -1.0573531e-01   5.9977253e+00   1.6021223e-03  -4.2426059e+08
   6.8022674e-11  -1.0531165e-01   5.9915376e+00   1.6541124e-03  -4.2284903e+08
   6.9023008e-11  -1.0488939e-01   5.9852805e+00   1.7075804e-03  -4.2143803e+08
   7.0023341e-11  -1.0446855e-01   5.9789537e+00   1.7625608e-03  -4.2002760e+08
   7.1023675e-11  -1.0404912e-01   5.9725572e+00   1.8190884e-03  -4.1861776e+08
   7.2024008e-11  -1.0363110e-01   5.9660907e+00   1.8771987e-03  -4.1720854e+08
   7.3024341e-11  -1.0321448e-01   5.9595541e+00   1.9369279e-03  -4.1579996e+08
   7.4024675e-11  -1.0279928e-01   5.9529470e+00   1.9983125e-03  -4.1439204e+08
   7.5025008e-11  -1.0238548e-01   5.9462695e+00   2.0613896e-03  -4.1298480e+08
   7.6025342e-11  -1.0197309e-01   5.9395213e+00   2.1261969e-03  -4.1157827e+08
   7.7025675e-11  -1.0156211e-01   5.9327024e+00   2.1927727e-03  -4.1017248e+08
   7.8026009e-11  -1.0115253e-01   5.9258125e+00   2.2611556e-03  -4.0876744e+08
   7.9026342e-11  -1.0074436e-01   5.9188516e+00   2.3313851e-03  -4.0736319e+08
   8.0026676e-11  -1.0033760e-01   5.9118195e+00   2.4035009e-03  -4.0595974e+08
   8.1027009e-11  -9.9932233e-02   5.9047163e+00   2.4775434e-03  -4.0455712e+08
   8.2027342e-11  -9.9528273e-02   5.8975417e+00   2.5535537e-03  -4.0315536e+08
   8.3027676e-11  -9.9125714e-02   5.8902958e+00   2.6315730e-03  -4.0175448e+08
   8.4028009e-11  -9.8724555e-02   5.8829785e+00   2.7116435e-03  -4.0035452e+08
   8.5028343e-11  -9.8324797e-02   5.8755897e+00   2.7938077e-03  -3.9895548e+08
   8.6028676e-11  -9.7926438e-02   5.8681294e+00   2.8781085e-03  -3.9755741e+08
   8.7029010e-11  -9.7529476e-02   5.8605977e+00   2.9645895e-03  -3.9616033e+08
   8.8029343e-11  -9.7133912e-02   5.8529945e+00   3.0532948e-03  -3.9476426e+08
   8.9029677e-11  -9.6739743e-02   5.8453198e+00   3.1442690e-03  -3.9336924e+08
   9.0030010e-11  -9.6346970e-02   5.8375737e+00   3.2375572e-03  -3.9197528e+08
   9.1030343e-11  -9.5955590e-02   5.8297562e+00   3.3332050e-03  -3.9058242e+08
   9.2030677e-11  -9.5565603e-02   5.8218674e+00   3.4312584e-03  -3.8919069e+08
   9.3031010e-11  -9.5177008e-02   5.8139073e+00   3.5317640e-03  -3.8780012e+08
   9.4031344e-11  -9.4789803e-02   5.8058760e+00   3.6347689e-03  -3.8641072e+08
   9.5031677e-11  -9.4403987e-02   5.7977736e+00   3.7403205e-03  -3.8502254e+08
   9.6032011e-11  -9.4019559e-02   5.7896002e+00   3.8484670e-03  -3.8363560e+08
   9.7032344e-11  -9.3636517e-02   5.7813560e+00   3.9592567e-03  -3.8224992e+08
   9.8032678e-11  -9.3254862e-02   5.7730411e+00   4.0727385e-03  -3.8086555e+08
   9.9033011e-11  -9.2874590e-02   5.7646555e+00   4.1889619e-03  -3.7948250e+08
   1.0003334e-10  -9.2495701e-02   5.7561996e+00   4.3079765e-03  -3.7810081e+08
   1.0103368e-10  -9.2118193e-02   5.7476735e+00   4.4298326e-03  -3.7672051e+08
   1.0203401e-10  -9.1742065e-02   5.7390774e+00   4.5545809e-03  -3.7534163e+08
   1.0303434e-10  -9.1367316e-02   5.7304114e+00   4.6822724e-03  -3.7396419e+08
   1.0403468e-10  -9.0993944e-02   5.7216759e+00   4.8129584e-03  -3.7258823e+08
   1.0503501e-10  -9.0621948e-02   5.7128710e+00   4.9466909e-03  -3.7121378e+08
   1.0603535e-10  -9.0251325e-02   5.7039969e+00   5.0835221e-03  -3.6984087e+08
   1.0703568e-10  -8.9882075e-02   5.6950541e+00   5.2235044e-03  -3.6846953e+08
   1.0803601e-10  -8.9514196e-02   5.6860427e+00   5.3666909e-03  -3.6709979e+08
   1.0903635e-10  -8.9147686e-02   5.6769630e+00   5.5131348e-03  -3.6573169e+08
   1.1003668e-10  -8.8782544e-02   5.6678153e+00   5.6628897e-03  -3.6436524e+08
   1.1103701e-10  -8.8418768e-02   5.6586000e+00   5.8160095e-03  -3.6300049e+08
   1.1203735e-10  -8.8056356e-02   5.6493174e+00   5.9725485e-03  -3.6163747e+08
   1.1303768e-10  -8.7695306e-02   5.6399678e+00   6.1325611e-03  -3.6027620e+08
   1.1403801e-10  -8.7335618e-02   5.6305516e+00   6.2961023e-03  -3.5891672e+08
   1.1503835e-10  -8.6977288e-02   5.6210692e+00   6.4632269e-03  -3.5755907e+08
   1.1603868e-10  -8.6620315e-02   5.6115209e+00   6.6339904e-03  -3.5620326e+08
   1.1703901e-10  -8.6264697e-02   5.6019072e+00   6.8084484e-03  -3.5484934e+08
   1.1803935e-10  -8.5910433e-02   5.5922285e+00   6.9866565e-03  -3.5349734e+08
   1.1903968e-10  -8.5557520e-02   5.5824851e+00   7.1686708e-03  -3.5214728e+08
   1.2004001e-10  -8.5205957e-02   5.5726776e+00   7.3545476e-03  -3.5079920e+08
   1.2104035e-10  -8.4855740e-02   5.5628064e+00   7.5443431e-03  -3.4945314e+08
   1.2204068e-10  -8.4506870e-02   5.5528720e+00   7.7381140e-03  -3.4810912e+08
   1.2304101e-10  -8.4159342e-02   5.5428748e+00   7.9359168e-03  -3.4676717e+08
   1.2404135e-10  -8.3813156e-02   5.5328153e+00   8.1378085e-03  -3.4542733e+08
   1.2504168e-10  -8.3468309e-02   5.5226941e+00   8.3438460e-03  -3.4408963e+08
   1.2604201e-10  -8.3124799e-02   5.5125116e+00   8.5540863e-03  -3.4275411e+08
   1.2704235e-10  -8.2782623e-02   5.5022684e+00   8.7685865e-03  -3.4142078e+08
   1.2804268e-10  -8.2441780e-02   5.4919650e+00   8.9874039e-03  -3.4008970e+08
   1.2904301e-10  -8.2102267e-02   5.4816020e+00   9.2105957e-03  -3.3876087e+08
   1.3004335e-10  -8.1764083e-02   5.4711799e+00   9.4382193e-03  -3.3743435e+08
   1.3104368e-10  -8.1427224e-02   5.4606994e+00   9.6703318e-03  -3.3611016e+08
   1.3204401e-10  -8.1091688e-02   5.4501609e+00   9.9069907e-03  -3.3478833e+08
   1.3304435e-10  -8.0757473e-02   5.4395651e+00   1.0148253e-02  -3.3346890e+08
   1.3404468e-10  -8.0424577e-02   5.4289126e+00   1.0394176e-02  -3.3215189e+08
   1.3504502e-10  -8.0092997e-02   5.4182040e+00   1.0644818e-02  -3.3083734e+08
   1.3604535e-10  -7.9762730e-02   5.4074400e+00   1.0900235e-02  -3.2952528e+08
   1.3704568e-10  -7.9433775e-02   5.3966212e+00   1.1160484e-02  -3.2821573e+08
   1.3804602e-10  -7.9106128e-02   5.3857482e+00   1.1425622e-02  -3.2690874e+08
   1.3904635e-10  -7.8779787e-02   5.3748217e+00   1.1695706e-02  -3.2560433e+08
   1.4004668e-10  -7.8454749e-02   5.3638424e+00   1.1970793e-02  -3.2430253e+08
   1.4104702e-10  -7.8131012e-02   5.3528109e+00   1.2250940e-02  -3.2300338e+08
   1.4204735e-10  -7.7808574e-02   5.3417279e+00   1.2536202e-02  -3.2170690e+08
   1.4304768e-10  -7.7487430e-02   5.3305942e+00   1.2826636e-02  -3.2041312e+08
   1.4404802e-10  -7.7167580e-02   5.3194103e+00   1.3122298e-02  -3.1912208e+08
   1.4504835e-10  -7.6849019e-02   5.3081772e+00   1.3423243e-02  -3.1783380e+08
   1.4604868e-10  -7.6531746e-02   5.2968954e+00   1.3729528e-02  -3.1654832e+08
   1.4704902e-10  -7.6215757e-02   5.2855656e+00   1.4041207e-02  -3.1526566e+08
   1.4804935e-10  -7.5901049e-02   5.2741887e+00   1.4358335e-02  -3.1398586e+08
   1.4904968e-10  -7.5587620e-02   5.2627654e+00   1.4680967e-02  -3.1270894e+08
   1.5005002e-10  -7.5275467e-02   5.2512964e+00   1.5009157e-02  -3.1143493e+08
   1.5105035e-10  -7.4964586e-02   5.2397825e+00   1.5342959e-02  -3.1016386e+08
   1.5205068e-10  -7.4654976e-02   5.2282244e+00   1.5682427e-02  -3.0889576e+08
   1.5305102e-10  -7.4346632e-02   5.2166229e+00   1.6027614e-02  -3.0763065e+08
   1.5405135e-10  -7.4039552e-02   5.2049788e+00   1.6378573e-02  -3.0636858e+08
   1.5505168e-10  -7.3733733e-02   5.1932929e+00   1.6735356e-02  -3.0510955e+08
   1.5605202e-10  -7.3429172e-02   5.1815659e+00   1.7098016e-02  -3.0385361e+08
   1.5705235e-10  -7.3125865e-02   5.1697987e+00   1.7466604e-02  -3.0260078e+08
   1.5805268e-10  -7.2823810e-02   5.1579921e+00   1.7841172e-02  -3.0135108e+08
   1.5905302e-10  -7.2523004e-02   5.1461468e+00   1.8221769e-02  -3.0010454e+08
   1.6005335e-10  -7.2223442e-02   5.1342636e+00   1.8608446e-02  -2.9886119e+08
   1.6105368e-10  -7.1925123e-02   5.1223435e+00   1.9001254e-02  -2.9762106e+08
   1.6205402e-10  -7.1628042e-02   5.1103871e+00   1.9400240e-02  -2.9638416e+08
   1.6305435e-10  -7.1332197e-02   5.0983953e+00   1.9805454e-02  -2.9515053e+08
   1.6405468e-10  -7.1037584e-02   5.0863690e+00   2.0216945e-02  -2.9392020e+08
   1.6505502e-10  -7.0744200e-02   5.0743089e+00   2.0634758e-02  -2.9269317e+08
   1.6605535e-10  -7.0452041e-02   5.0622159e+00   2.1058942e-02  -2.9146949e+08
   1.6705569e-10  -7.0161105e-02   5.0500908e+00   2.1489542e-02  -2.9024918e+08
   1.6805602e-10  -6.9871388e-02   5.0379345e+00   2.1926605e-02  -2.8903225e+08
   1.6905635e-10  -6.9582886e-02   5.0257478e+00   2.2370176e-02  -2.8781873e+08
   1.7005669e-10  -6.9295596e-02   5.0135314e+00   2.2820298e-02  -2.8660865e+08
   1.7105702e-10  -6.9009515e-02   5.0012864e+00   2.3277017e-02  -2.8540203e+08
   1.7205735e-10  -6.8724639e-02   4.9890134e+00   2.3740374e-02  -2.8419889e+08
   1.7305769e-10  -6.8440964e-02   4.9767134e+00   2.4210414e-02  -2.8299925e+08
   1.7405802e-10  -6.8158488e-02   4.9643872e+00   2.4687176e-02  -2.8180314e+08
   1.7505835e-10  -6.7877206e-02   4.9520356e+00   2.5170704e-02  -2.8061057e+08
   1.7605869e-10  -6.7597115e-02   4.9396595e+00   2.5661036e-02  -2.7942157e+08
   1.7705902e-10  -6.7318212e-02   4.9272596e+00   2.6158213e-02  -2.7823615e+08
   1.7805935e-10  -6.7040493e-02   4.9148370e+00   2.6662274e-02  -2.7705434e+08
   1.7905969e-10  -6.6763954e-02   4.9023923e+00   2.7173256e-02  -2.7587616e+08
   1.8006002e-10  -6.6488591e-02   4.8899265e+00   2.7691197e-02  -2.7470163e+08
   1.8106035e-10  -6.6214401e-02   4.8774403e+00   2.8216135e-02  -2.7353076e+08
   1.8206069e-10  -6.5941381e-02   4.8649347e+00   2.8748104e-02  -2.7236358e+08
   1.8306102e-10  -6.5669526e-02   4.8524104e+00   2.9287140e-02  -2.7120010e+08
   1.8406135e-10  -6.5398833e-02   4.8398683e+00   2.9833278e-02  -2.7004034e+08
   1.8506169e-10  -6.5129298e-02   4.8273093e+00   3.0386550e-02  -2.6888432e+08
   1.8606202e-10  -6.4860918e-02   4.8147341e+00   3.0946990e-02  -2.6773205e+08
   1.8706235e-10  -6.4593688e-02   4.8021436e+00   3.1514628e-02  -2.6658356e+08
   1.8806269e-10  -6.4327605e-02   4.7895386e+00   3.2089498e-02  -2.6543885e+08
   1.8906302e-10  -6.4062665e-02   4.7769199e+00   3.2671627e-02  -2.6429795e+08
   1.9006335e-10  -6.3798864e-02   4.7642884e+00   3.3261047e-02  -2.6316087e+08
   1.9106369e-10  -6.3536198e-02   4.7516448e+00   3.3857784e-02  -2.6202762e+08
   1.9206402e-10  -6.3274665e-02   4.7389901e+00   3.4461868e-02  -2.6089821e+08
   1.9306435e-10  -6.3014258e-02   4.7263249e+00   3.5073325e-02  -2.5977268e+08
   1.9406469e-10  -6.2754976e-02   4.7136502e+00   3.5692180e-02  -2.5865101e+08
   1.9506502e-10  -6.2496814e-02   4.7009667e+00   3.6318459e-02  -2.5753324e+08
   1.9606536e-10  -6.2239767e-02   4.6882752e+00   3.6952186e-02  -2.5641937e+08
   1.9706569e-10  -6.1983833e-02   4.6755765e+00   3.7593384e-02  -2.5530941e+08
   1.9806602e-10  -6.1729007e-02   4.6628714e+00   3.8242075e-02  -2.5420338e+08
   1.9906636e-10  -6.1475285e-02   4.6501606e+00   3.8898282e-02  -2.5310129e+08
   2.0006669e-10  -6.1222664e-02   4.6374450e+00   3.9562024e-02  -2.5200315e+08
   2.0106702e-10  -6.0971139e-02   4.6247254e+00   4.0233321e-02  -2.5090897e+08
   2.0206736e-10  -6.0720706e-02   4.6120025e+00   4.0912192e-02  -2.4981876e+08
   2.0306769e-10  -6.0471362e-02   4.5992770e+00   4.1598656e-02  -2.4873254e+08
   2.0406802e-10  -6.0223102e-02   4.5865498e+00   4.2292728e-02  -2.4765030e+08
   2.0506836e-10  -5.9975923e-02   4.5738216e+00   4.2994425e-02  -2.4657206e+08
   2.0606869e-10  -5.9729820e-02   4.5610931e+00   4.3703763e-02  -2.4549783e+08
   2.0706902e-10  -5.9484790e-02   4.5483650e+00   4.4420754e-02  -2.4442761e+08
   2.0806936e-10  -5.9240828e-02   4.5356382e+00   4.5145414e-02  -2.4336142e+08
   2.0906969e-10  -5.8997930e-02   4.5229134e+00   4.5877754e-02  -2.4229926e+08
   2.1007002e-10  -5.8756093e-02   4.5101911e+00   4.6617786e-02  -2.4124114e+08
   2.1107036e-10  -5.8515312e-02   4.4974723e+00   4.7365519e-02  -2.4018706e+08
   2.1207069e-10  -5.8275584e-02   4.4847576e+00   4.8120966e-02  -2.3913704e+08
   2.1307102e-10  -5.8036903e-02   4.4720477e+00   4.8884132e-02  -2.3809107e+08
   2.1407136e-10  -5.7799267e-02   4.4593432e+00   4.9655028e-02  -2.3704916e+08
   2.1507169e-10  -5.7562671e-02   4.4466450e+00   5.0433659e-02  -2.3601132e+08
   2.1607202e-10  -5.7327110e-02   4.4339536e+00   5.1220033e-02  -2.3497755e+08
   2.1707236e-10  -5.7092582e-02   4.4212698e+00   5.2014153e-02  -2.3394786e+08
   2.1807269e-10  -5.6859082e-02   4.4085942e+00   5.2816025e-02  -2.3292225e+08
   2.1907302e-10  -5.6626605e-02   4.3959275e+00   5.3625651e-02  -2.3190072e+08
   2.2007336e-10  -5.6395148e-02   4.3832703e+00   5.4443034e-02  -2.3088328e+08
   2.2107369e-10  -5.6164707e-02   4.3706233e+00   5.5268176e-02  -2.2986993e+08
   2.2207402e-10  -5.5935277e-02   4.3579871e+00   5.6101078e-02  -2.2886066e+08
   2.2307436e-10  -5.5706854e-02   4.3453624e+00   5.6941739e-02  -2.2785550e+08
   2.2407469e-10  -5.5479435e-02   4.3327497e+00   5.7790159e-02  -2.2685442e+08
   2.2507503e-10  -5.5253016e-02   4.3201498e+00   5.8646335e-02  -2.2585744e+08
   2.2607536e-10  -5.5027591e-02   4.3075631e+00   5.9510264e-02  -2.2486456e+08
   2.2707569e-10  -5.4803157e-02   4.2949904e+00   6.0381944e-02  -2.2387577e+08
   2.2807603e-10  -5.4579710e-02   4.2824322e+00   6.1261369e-02  -2.2289108e+08
   2.2907636e-10  -5.4357247e-02   4.2698891e+00   6.2148534e-02  -2.2191049e+08
   2.3007669e-10  -5.4135761e-02   4.2573616e+00   6.3043434e-02  -2.2093399e+08
   2.3107703e-10  -5.3915251e-02   4.2448504e+00   6.3946060e-02  -2.1996159e+08
   2.3207736e-10  -5.3695711e-02   4.2323560e+00   6.4856406e-02  -2.1899328e+08
   2.3307769e-10  -5.3477137e-02   4.2198790e+00   6.5774461e-02  -2.1802906e+08
   2.3407803e-10  -5.3259526e-02   4.2074199e+00   6.6700218e-02  -2.1706893e+08
   2.3507836e-10  -5.3042874e-02   4.1949792e+00   6.7633666e-02  -2.1611289e+08
   2.3607869e-10  -5.2827175e-02   4.1825575e+00   6.8574792e-02  -2.1516093e+08
   2.3707903e-10  -5.2612426e-02   4.1701554e+00   6.9523587e-02  -2.1421306e+08
   2.3807936e-10  -5.2398624e-02   4.1577732e+00   7.0480036e-02  -2.1326926e+08
   2.3907969e-10  -5.2185763e-02   4.1454116e+00   7.1444126e-02  -2.1232954e+08
   2.4008003e-10  -5.1973841e-02   4.1330710e+00   7.2415844e-02  -2.1139389e+08
   2.4108036e-10  -5.1762852e-02   4.1207519e+00   7.3395173e-02  -2.1046230e+08
   2.4208069e-10  -5.1552793e-02   4.1084549e+00   7.4382099e-02  -2.0953477e+08
   2.4308103e-10  -5.1343660e-02   4.0961803e+00   7.5376604e-02  -2.0861131e+08
   2.4408136e-10  -5.1135448e-02   4.0839286e+00   7.6378671e-02  -2.0769189e+08
   2.4508169e-10  -5.0928154e-02   4.0717004e+00   7.7388282e-02  -2.0677652e+08
   2.4608203e-10  -5.0721773e-02   4.0594960e+00   7.8405418e-02  -2.0586519e+08
   2.4708236e-10  -5.0516302e-02   4.0473159e+00   7.9430061e-02  -2.0495789e+08
   2.4808269e-10  -5.0311736e-02   4.0351606e+00   8.0462189e-02  -2.0405462e+08
   2.4908303e-10  -5.0108072e-02   4.0230305e+00   8.1501781e-02  -2.0315537e+08
   2.5008336e-10  -4.9905305e-02   4.0109259e+00   8.2548817e-02  -2.0226014e+08
   2.5108369e-10  -4.9703432e-02   3.9988473e+00   8.3603273e-02  -2.0136891e+08
   2.5208403e-10  -4.9502448e-02   3.9867951e+00   8.4665127e-02  -2.0048169e+08
   2.5308436e-10  -4.9302350e-02   3.9747697e+00   8.5734355e-02  -1.9959845e+08
   2.5408469e-10  -4.9103133e-02   3.9627716e+00   8.6810933e-02  -1.9871921e+08
   2.5508503e-10  -4.8904793e-02   3.9508009e+00   8.7894835e-02  -1.9784393e+08
   2.5608536e-10  -4.8707327e-02   3.9388583e+00   8.8986037e-02  -1.9697263e+08
   2.5708570e-10  -4.8510731e-02   3.9269439e+00   9.0084511e-02  -1.9610528e+08
   2.5808603e-10  -4.8314999e-02   3.9150582e+00   9.1190232e-02  -1.9524189e+08
   2.5908636e-10  -4.8120130e-02   3.9032015e+00   9.2303171e-02  -1.9438243e+08
   2.6008670e-10  -4.7926118e-02   3.8913742e+00   9.3423300e-02  -1.9352691e+08
   2.6108703e-10  -4.7732960e-02   3.8795765e+00   9.4550591e-02  -1.9267532e+08
   2.6208736e-10  -4.7540652e-02   3.8678089e+00   9.5685015e-02  -1.9182763e+08
   2.6308770e-10  -4.7349190e-02   3.8560717e+00   9.6826541e-02  -1.9098385e+08
   2.6408803e-10  -4.7158570e-02   3.8443651e+00   9.7975140e-02  -1.9014396e+08
   2.6508836e-10  -4.6968788e-02   3.8326894e+00   9.9130779e-02  -1.8930796e+08
   2.6608870e-10  -4.6779840e-02   3.8210450e+00   1.0029343e-01  -1.8847583e+08
   2.6708903e-10  -4.6591722e-02   3.8094322e+00   1.0146306e-01  -1.8764756e+08
   2.6808936e-10  -4.6404432e-02   3.7978512e+00   1.0263963e-01  -1.8682314e+08
   2.6908970e-10  -4.6217963e-02   3.7863023e+00   1.0382311e-01  -1.8600256e+08
   2.7009003e-10  -4.6032314e-02   3.7747858e+00   1.0501348e-01  -1.8518581e+08
   2.7109036e-10  -4.5847480e-02   3.7633020e+00   1.0621068e-01  -1.8437287e+08
   2.7209070e-10  -4.5663456e-02   3.7518510e+00   1.0741470e-01  -1.8356375e+08
   2.7309103e-10  -4.5480241e-02   3.7404332e+00   1.0862549e-01  -1.8275842e+08
   2.7409136e-10  -4.5297829e-02   3.7290488e+00   1.0984303e-01  -1.8195687e+08
   2.7509170e-10  -4.5116216e-02   3.7176981e+00   1.1106726e-01  -1.8115909e+08
   2.7609203e-10  -4.4935400e-02   3.7063812e+00   1.1229816e-01  -1.8036507e+08
   2.7709236e-10  -4.4755376e-02   3.6950984e+00   1.1353570e-01  -1.7957479e+08
   2.7809270e-10  -4.4576141e-02   3.6838499e+00   1.1477982e-01  -1.7878825e+08
   2.7909303e-10  -4.4397691e-02   3.6726359e+00   1.1603050e-01  -1.7800544e+08
   2.8009336e-10  -4.4220022e-02   3.6614566e+00   1.1728770e-01  -1.7722633e+08
   2.8109370e-10  -4.4043130e-02   3.6503123e+00   1.1855137e-01  -1.7645091e+08
   2.8209403e-10  -4.3867012e-02   3.6392030e+00   1.1982149e-01  -1.7567918e+08
   2.8309436e-10  -4.3691664e-02   3.6281291e+00   1.2109800e-01  -1.7491112e+08
   2.8409470e-10  -4.3517082e-02   3.6170906e+00   1.2238088e-01  -1.7414672e+08
   2.8509503e-10  -4.3343263e-02   3.6060877e+00   1.2367007e-01  -1.7338595e+08
   2.8609537e-10  -4.3170204e-02   3.5951207e+00   1.2496555e-01  -1.7262882e+08
   2.8709570e-10  -4.2997900e-02   3.5841897e+00   1.2626726e-01  -1.7187531e+08
   2.8809603e-10  -4.2826347e-02   3.5732947e+00   1.2757518e-01  -1.7112540e+08
   2.8909637e-10  -4.2655543e-02   3.5624361e+00   1.2888925e-01  -1.7037908e+08
   2.9009670e-10  -4.2485484e-02   3.5516138e+00   1.3020943e-01  -1.6963633e+08
   2.9109703e-10  -4.2316166e-02   3.5408282e+00   1.3153569e-01  -1.6889715e+08
   2.9209737e-10  -4.2147585e-02   3.5300792e+00   1.3286798e-01  -1.6816151e+08
   2.9309770e-10  -4.1979739e-02   3.5193670e+00   1.3420625e-01  -1.6742941e+08
   2.9409803e-10  -4.1812623e-02   3.5086918e+00   1.3555048e-01  -1.6670083e+08
   2.9509837e-10  -4.1646234e-02   3.4980537e+00   1.3690060e-01  -1.6597576e+08
   2.9609870e-10  -4.1480569e-02   3.4874527e+00   1.3825658e-01  -1.6525417e+08
   2.9709903e-10  -4.1315623e-02   3.4768890e+00   1.3961838e-01  -1.6453606e+08
   2.9809937e-10  -4.1151394e-02   3.4663627e+00   1.4098595e-01  -1.6382142e+08
   2.9909970e-10  -4.0987879e-02   3.4558738e+00   1.4235925e-01  -1.6311023e+08
   3.0010003e-10  -4.0825072e-02   3.4454226e+00   1.4373822e-01  -1.6240246e+08
   3.0110037e-10  -4.0662972e-02   3.4350089e+00   1.4512284e-01  -1.6169812e+08
   3.0210070e-10  -4.0501575e-02   3.4246330e+00   1.4651305e-01  -1.6099719e+08
   3.0310103e-10  -4.0340878e-02   3.4142950e+00   1.4790880e-01  -1.6029964e+08
   3.0410137e-10  -4.0180876e-02   3.4039948e+00   1.4931006e-01  -1.5960547e+08
   3.0510170e-10  -4.0021567e-02   3.3937325e+00   1.5071678e-01  -1.5891466e+08
   3.0610203e-10  -3.9862947e-02   3.3835083e+00   1.5212890e-01  -1.5822720e+08
   3.0710237e-10  -3.9705014e-02   3.3733222e+00   1.5354640e-01  -1.5754307e+08
   3.0810270e-10  -3.9547763e-02   3.3631741e+00   1.5496921e-01  -1.5686225e+08
   3.0910303e-10  -3.9391191e-02   3.3530643e+00   1.5639729e-01  -1.5618474e+08
   3.1010337e-10  -3.9235295e-02   3.3429927e+00   1.5783060e-01  -1.5551051e+08
   3.1110370e-10  -3.9080072e-02   3.3329593e+00   1.5926910e-01  -1.5483956e+08
   3.1210403e-10  -3.8925519e-02   3.3229643e+00   1.6071272e-01  -1.5417186e+08
   3.1310437e-10  -3.8771632e-02   3.3130076e+00   1.6216144e-01  -1.5350741e+08
   3.1410470e-10  -3.8618407e-02   3.3030893e+00   1.6361519e-01  -1.5284618e+08
   3.1510504e-10  -3.8465843e-02   3.2932093e+00   1.6507394e-01  -1.5218817e+08
   3.1610537e-10  -3.8313935e-02   3.2833678e+00   1.6653763e-01  -1.5153335e+08
   3.1710570e-10  -3.8162681e-02   3.2735647e+00   1.6800623e-01  -1.5088171e+08
   3.1810604e-10  -3.8012077e-02   3.2638001e+00   1.6947967e-01  -1.5023325e+08
   3.1910637e-10  -3.7862120e-02   3.2540739e+00   1.7095792e-01  -1.4958793e+08
   3.2010670e-10  -3.7712806e-02   3.2443862e+00   1.7244093e-01  -1.4894576e+08
   3.2110704e-10  -3.7564134e-02   3.2347369e+00   1.7392864e-01  -1.4830670e+08
   3.2210737e-10  -3.7416099e-02   3.2251261e+00   1.7542102e-01  -1.4767075e+08
   3.2310770e-10  -3.7268699e-02   3.2155538e+00   1.7691802e-01  -1.4703790e+08
   3.2410804e-10  -3.7121930e-02   3.2060199e+00   1.7841958e-01  -1.4640812e+08
   3.2510837e-10  -3.6975790e-02   3.1965245e+00   1.7992565e-01  -1.4578140e+08
   3.2610870e-10  -3.6830275e-02   3.1870676e+00   1.8143620e-01  -1.4515774e+08
   3.2710904e-10  -3.6685382e-02   3.1776490e+00   1.8295118e-01  -1.4453710e+08
   3.2810937e-10  -3.6541109e-02   3.1682689e+00   1.8447052e-01  -1.4391948e+08
   3.2910970e-10  -3.6397452e-02   3.1589271e+00   1.8599420e-01  -1.4330487e+08
   3.3011004e-10  -3.6254408e-02   3.1496237e+00   1.8752215e-01  -1.4269324e+08
   3.3111037e-10  -3.6111975e-02   3.1403586e+00   1.8905434e-01  -1.4208458e+08
   3.3211070e-10  -3.5970148e-02   3.1311318e+00   1.9059071e-01  -1.4147888e+08
   3.3311104e-10  -3.5828927e-02   3.1219433e+00   1.9213121e-01  -1.4087613e+08
   3.3411137e-10  -3.5688306e-02   3.1127929e+00   1.9367581e-01  -1.4027630e+08
   3.3511170e-10  -3.5548285e-02   3.1036808e+00   1.9522444e-01  -1.3967939e+08
   3.3611204e-10  -3.5408858e-02   3.0946068e+00   1.9677706e-01  -1.3908538e+08
   3.3711237e-10  -3.5270025e-02   3.0855709e+00   1.9833363e-01  -1.3849424e+08
   3.3811270e-10  -3.5131781e-02   3.0765731e+00   1.9989409e-01  -1.3790598e+08
   3.3911304e-10  -3.4994125e-02   3.0676133e+00   2.0145840e-01  -1.3732057e+08
   3.4011337e-10  -3.4857052e-02   3.0586914e+00   2.0302652e-01  -1.3673801e+08
   3.4111370e-10  -3.4720561e-02   3.0498074e+00   2.0459838e-01  -1.3615826e+08
   3.4211404e-10  -3.4584649e-02   3.0409613e+00   2.0617395e-01  -1.3558133e+08
   3.4311437e-10  -3.4449312e-02   3.0321529e+00   2.0775317e-01  -1.3500719e+08
   3.4411470e-10  -3.4314548e-02   3.0233823e+00   2.0933601e-01  -1.3443584e+08
   3.4511504e-10  -3.4180354e-02   3.0146493e+00   2.1092240e-01  -1.3386725e+08
   3.4611537e-10  -3.4046727e-02   3.0059539e+00   2.1251231e-01  -1.3330141e+08
   3.4711571e-10  -3.3913666e-02   2.9972960e+00   2.1410568e-01  -1.3273831e+08
   3.4811604e-10  -3.3781166e-02   2.9886756e+00   2.1570248e-01  -1.3217793e+08
   3.4911637e-10  -3.3649225e-02   2.9800926e+00   2.1730264e-01  -1.3162027e+08
   3.5011671e-10  -3.3517840e-02   2.9715469e+00   2.1890613e-01  -1.3106530e+08
   3.5111704e-10  -3.3387010e-02   2.9630384e+00   2.2051290e-01  -1.3051300e+08
   3.5211737e-10  -3.3256730e-02   2.9545671e+00   2.2212290e-01  -1.2996338e+08
   3.5311771e-10  -3.3126999e-02   2.9461328e+00   2.2373607e-01  -1.2941641e+08
   3.5411804e-10  -3.2997814e-02   2.9377356e+00   2.2535239e-01  -1.2887207e+08
   3.5511837e-10  -3.2869172e-02   2.9293753e+00   2.2697179e-01  -1.2833036e+08
   3.5611871e-10  -3.2741071e-02   2.9210518e+00   2.2859424e-01  -1.2779126e+08
   3.5711904e-10  -3.2613507e-02   2.9127650e+00   2.3021968e-01  -1.2725475e+08
   3.5811937e-10  -3.2486479e-02   2.9045149e+00   2.3184807e-01  -1.2672083e+08
   3.5911971e-10  -3.2359984e-02   2.8963014e+00   2.3347936e-01  -1.2618948e+08
   3.6012004e-10  -3.2234018e-02   2.8881244e+00   2.3511351e-01  -1.2566068e+08
   3.6112037e-10  -3.2108581e-02   2.8799838e+00   2.3675047e-01  -1.2513442e+08
   3.6212071e-10  -3.1983669e-02   2.8718794e+00   2.3839020e-01  -1.2461069e+08
   3.6312104e-10  -3.1859279e-02   2.8638113e+00   2.4003264e-01  -1.2408947e+08
   3.6412137e-10  -3.1735409e-02   2.8557793e+00   2.4167775e-01  -1.2357075e+08
   3.6512171e-10  -3.1612057e-02   2.8477833e+00   2.4332549e-01  -1.2305451e+08
   3.6612204e-10  -3.1489221e-02   2.8398232e+00   2.4497581e-01  -1.2254075e+08
   3.6712237e-10  -3.1366896e-02   2.8318989e+00   2.4662866e-01  -1.2202945e+08
   3.6812271e-10  -3.1245083e-02   2.8240103e+00   2.4828401e-01  -1.2152060e+08
   3.6912304e-10  -3.1123776e-02   2.8161574e+00   2.4994180e-01  -1.2101417e+08
   3.7012337e-10  -3.1002976e-02   2.8083399e+00   2.5160199e-01  -1.2051017e+08
   3.7112371e-10  -3.0882678e-02   2.8005579e+00   2.5326453e-01  -1.2000857e+08
   3.7212404e-10  -3.0762880e-02   2.7928112e+00   2.5492938e-01  -1.1950937e+08
   3.7312437e-10  -3.0643581e-02   2.7850996e+00   2.5659650e-01  -1.1901254e+08
   3.7412471e-10  -3.0524778e-02   2.7774232e+00   2.5826585e-01  -1.1851809e+08
   3.7512504e-10  -3.0406468e-02   2.7697817e+00   2.5993736e-01  -1.1802598e+08
   3.7612538e-10  -3.0288649e-02   2.7621751e+00   2.6161101e-01  -1.1753622e+08
   3.7712571e-10  -3.0171319e-02   2.7546032e+00   2.6328675e-01  -1.1704878e+08
   3.7812604e-10  -3.0054475e-02   2.7470660e+00   2.6496453e-01  -1.1656366e+08
   3.7912638e-10  -2.9938116e-02   2.7395634e+00   2.6664432e-01  -1.1608085e+08
   3.8012671e-10  -2.9822238e-02   2.7320952e+00   2.6832606e-01  -1.1560032e+08
   3.8112704e-10  -2.9706840e-02   2.7246612e+00   2.7000972e-01  -1.1512207e+08
   3.8212738e-10  -2.9591919e-02   2.7172615e+00   2.7169524e-01  -1.1464608e+08
   3.8312771e-10  -2.9477473e-02   2.7098959e+00   2.7338260e-01  -1.1417235e+08
   3.8412804e-10  -2.9363500e-02   2.7025642e+00   2.7507174e-01  -1.1370086e+08
   3.8512838e-10  -2.9249997e-02   2.6952664e+00   2.7676262e-01  -1.1323159e+08
   3.8612871e-10  -2.9136963e-02   2.6880024e+00   2.7845521e-01  -1.1276454e+08
   3.8712904e-10  -2.9024394e-02   2.6807719e+00   2.8014945e-01  -1.1229969e+08
   3.8812938e-10  -2.8912290e-02   2.6735750e+00   2.8184531e-01  -1.1183704e+08
   3.8912971e-10  -2.8800647e-02   2.6664114e+00   2.8354274e-01  -1.1137656e+08
   3.9013004e-10  -2.8689464e-02   2.6592811e+00   2.8524171e-01  -1.1091825e+08
   3.9113038e-10  -2.8578738e-02   2.6521840e+00   2.8694216e-01  -1.1046209e+08
   3.9213071e-10  -2.8468467e-02   2.6451198e+00   2.8864407e-01  -1.1000808e+08
   3.9313104e-10  -2.8358650e-02   2.6380886e+00   2.9034738e-01  -1.0955619e+08
   3.9413138e-10  -2.8249283e-02   2.6310902e+00   2.9205206e-01  -1.0910643e+08
   3.9513171e-10  -2.8140366e-02   2.6241244e+00   2.9375807e-01  -1.0865877e+08
   3.9613204e-10  -2.8031895e-02   2.6171912e+00   2.9546536e-01  -1.0821321e+08
   3.9713238e-10  -2.7923868e-02   2.6102904e+00   2.9717390e-01  -1.0776974e+08
   3.9813271e-10  -2.7816284e-02   2.6034219e+00   2.9888364e-01  -1.0732833e+08
   3.9913304e-10  -2.7709141e-02   2.5965856e+00   3.0059455e-01  -1.0688899e+08
   4.0013338e-10  -2.7602436e-02   2.5897813e+00   3.0230659e-01  -1.0645170e+08
   4.0113371e-10  -2.7496168e-02   2.5830089e+00   3.0401971e-01  -1.0601644e+08
   4.0213404e-10  -2.7390334e-02   2.5762684e+00   3.0573388e-01  -1.0558321e+08
   4.0313438e-10  -2.7284932e-02   2.5695595e+00   3.0744905e-01  -1.0515200e+08
   4.0413471e-10  -2.7179961e-02   2.5628822e+00   3.0916519e-01  -1.0472279e+08
   4.0513505e-10  -2.7075418e-02   2.5562364e+00   3.1088227e-01  -1.0429558e+08
   4.0613538e-10  -2.6971301e-02   2.5496218e+00   3.1260023e-01  -1.0387035e+08
   4.0713571e-10  -2.6867609e-02   2.5430384e+00   3.1431905e-01  -1.0344709e+08
   4.0813605e-10  -2.6764339e-02   2.5364861e+00   3.1603868e-01  -1.0302579e+08
   4.0913638e-10  -2.6661490e-02   2.5299647e+00   3.1775909e-01  -1.0260644e+08
   4.1013671e-10  -2.6559059e-02   2.5234741e+00   3.1948023e-01  -1.0218903e+08
   4.1113705e-10  -2.6457044e-02   2.5170142e+00   3.2120208e-01  -1.0177355e+08
   4.1213738e-10  -2.6355445e-02   2.5105849e+00   3.2292459e-01  -1.0135998e+08
   4.1313771e-10  -2.6254258e-02   2.5041860e+00   3.2464773e-01  -1.0094832e+08
   4.1413805e-10  -2.6153481e-02   2.4978174e+00   3.2637146e-01  -1.0053856e+08
   4.1513838e-10  -2.6053114e-02   2.4914790e+00   3.2809574e-01  -1.0013069e+08
   4.1613871e-10  -2.5953154e-02   2.4851706e+00   3.2982054e-01  -9.9724687e+07
   4.1713905e-10  -2.5853599e-02   2.4788922e+00   3.3154582e-01  -9.9320553e+07
   4.1813938e-10  -2.5754448e-02   2.4726436e+00   3.3327154e-01  -9.8918274e+07
   4.1913971e-10  -2.5655697e-02   2.4664246e+00   3.3499767e-01  -9.8517839e+07
   4.2014005e-10  -2.5557347e-02   2.4602352e+00   3.3672417e-01  -9.8119239e+07
   4.2114038e-10  -2.5459394e-02   2.4540752e+00   3.3845101e-01  -9.7722464e+07
   4.2214071e-10  -2.5361838e-02   2.4479446e+00   3.4017815e-01  -9.7327503e+07
   4.2314105e-10  -2.5264675e-02   2.4418431e+00   3.4190556e-01  -9.6934346e+07
   4.2414138e-10  -2.5167905e-02   2.4357706e+00   3.4363320e-01  -9.6542984e+07
   4.2514171e-10  -2.5071525e-02   2.4297271e+00   3.4536104e-01  -9.6153407e+07
   4.2614205e-10  -2.4975535e-02   2.4237124e+00   3.4708904e-01  -9.5765604e+07
   4.2714238e-10  -2.4879931e-02   2.4177263e+00   3.4881717e-01  -9.5379567e+07
   4.2814271e-10  -2.4784712e-02   2.4117688e+00   3.5054540e-01  -9.4995285e+07
   4.2914305e-10  -2.4689878e-02   2.4058397e+00   3.5227368e-01  -9.4612749e+07
   4.3014338e-10  -2.4595424e-02   2.3999389e+00   3.5400200e-01  -9.4231949e+07
   4.3114371e-10  -2.4501351e-02   2.3940663e+00   3.5573031e-01  -9.3852875e+07
   4.3214405e-10  -2.4407657e-02   2.3882217e+00   3.5745858e-01  -9.3475519e+07
   4.3314438e-10  -2.4314339e-02   2.3824051e+00   3.5918677e-01  -9.3099871e+07
   4.3414471e-10  -2.4221395e-02   2.3766162e+00   3.6091487e-01  -9.2725922e+07
   4.3514505e-10  -2.4128825e-02   2.3708551e+00   3.6264283e-01  -9.2353661e+07
   4.3614538e-10  -2.4036627e-02   2.3651214e+00   3.6437062e-01  -9.1983081e+07
   4.3714572e-10  -2.3944798e-02   2.3594152e+00   3.6609821e-01  -9.1614172e+07
   4.3814605e-10  -2.3853338e-02   2.3537363e+00   3.6782556e-01  -9.1246924e+07
   4.3914638e-10  -2.3762244e-02   2.3480846e+00   3.6955265e-01  -9.0881330e+07
   4.4014672e-10  -2.3671515e-02   2.3424599e+00   3.7127945e-01  -9.0517378e+07
   4.4114705e-10  -2.3581149e-02   2.3368622e+00   3.7300592e-01  -9.0155062e+07
   4.4214738e-10  -2.3491145e-02   2.3312913e+00   3.7473203e-01  -8.9794372e+07
   4.4314772e-10  -2.3401501e-02   2.3257470e+00   3.7645776e-01  -8.9435299e+07
   4.4414805e-10  -2.3312216e-02   2.3202294e+00   3.7818306e-01  -8.9077834e+07
   4.4514838e-10  -2.3223287e-02   2.3147381e+00   3.7990792e-01  -8.8721969e+07
   4.4614872e-10  -2.3134713e-02   2.3092732e+00   3.8163230e-01  -8.8367695e+07
   4.4714905e-10  -2.3046493e-02   2.3038345e+00   3.8335617e-01  -8.8015003e+07
   4.4814938e-10  -2.2958624e-02   2.2984218e+00   3.8507950e-01  -8.7663885e+07
   4.4914972e-10  -2.2871107e-02   2.2930351e+00   3.8680226e-01  -8.7314332e+07
   4.5015005e-10  -2.2783938e-02   2.2876743e+00   3.8852442e-01  -8.6966336e+07
   4.5115038e-10  -2.2697116e-02   2.2823392e+00   3.9024596e-01  -8.6619889e+07
   4.5215072e-10  -2.2610641e-02   2.2770296e+00   3.9196685e-01  -8.6274982e+07
   4.5315105e-10  -2.2524509e-02   2.2717455e+00   3.9368705e-01  -8.5931606e+07
   4.5415138e-10  -2.2438720e-02   2.2664868e+00   3.9540654e-01  -8.5589755e+07
   4.5515172e-10  -2.2353273e-02   2.2612534e+00   3.9712529e-01  -8.5249419e+07
   4.5615205e-10  -2.2268165e-02   2.2560450e+00   3.9884327e-01  -8.4910590e+07
   4.5715238e-10  -2.2183395e-02   2.2508616e+00   4.0056045e-01  -8.4573260e+07
   4.5815272e-10  -2.2098962e-02   2.2457031e+00   4.0227682e-01  -8.4237422e+07
   4.5915305e-10  -2.2014865e-02   2.2405694e+00   4.0399233e-01  -8.3903067e+07
   4.6015338e-10  -2.1931101e-02   2.2354603e+00   4.0570696e-01  -8.3570188e+07
   4.6115372e-10  -2.1847669e-02   2.2303758e+00   4.0742070e-01  -8.3238775e+07
   4.6215405e-10  -2.1764568e-02   2.2253156e+00   4.0913350e-01  -8.2908823e+07
   4.6315438e-10  -2.1681796e-02   2.2202798e+00   4.1084534e-01  -8.2580322e+07
   4.6415472e-10  -2.1599352e-02   2.2152681e+00   4.1255620e-01  -8.2253266e+07
   4.6515505e-10  -2.1517235e-02   2.2102805e+00   4.1426605e-01  -8.1927646e+07
   4.6615539e-10  -2.1435442e-02   2.2053168e+00   4.1597487e-01  -8.1603455e+07
   4.6715572e-10  -2.1353974e-02   2.2003770e+00   4.1768262e-01  -8.1280686e+07
   4.6815605e-10  -2.1272827e-02   2.1954608e+00   4.1938929e-01  -8.0959330e+07
   4.6915639e-10  -2.1192001e-02   2.1905683e+00   4.2109484e-01  -8.0639380e+07
   4.7015672e-10  -2.1111495e-02   2.1856993e+00   4.2279926e-01  -8.0320830e+07
   4.7115705e-10  -2.1031306e-02   2.1808536e+00   4.2450252e-01  -8.0003671e+07
   4.7215739e-10  -2.0951434e-02   2.1760312e+00   4.2620460e-01  -7.9687896e+07
   4.7315772e-10  -2.0871877e-02   2.1712319e+00   4.2790546e-01  -7.9373497e+07
   4.7415805e-10  -2.0792634e-02   2.1664557e+00   4.2960509e-01  -7.9060469e+07
   4.7515839e-10  -2.0713704e-02   2.1617024e+00   4.3130346e-01  -7.8748803e+07
   4.7615872e-10  -2.0635084e-02   2.1569719e+00   4.3300055e-01  -7.8438492e+07
   4.7715905e-10  -2.0556775e-02   2.1522641e+00   4.3469633e-01  -7.8129530e+07
   4.7815939e-10  -2.0478773e-02   2.1475789e+00   4.3639078e-01  -7.7821909e+07
   4.7915972e-10  -2.0401079e-02   2.1429162e+00   4.3808388e-01  -7.7515622e+07
   4.8016005e-10  -2.0323690e-02   2.1382759e+00   4.3977561e-01  -7.7210662e+07
   4.8116039e-10  -2.0246606e-02   2.1336578e+00   4.4146594e-01  -7.6907022e+07
   4.8216072e-10  -2.0169825e-02   2.1290618e+00   4.4315485e-01  -7.6604695e+07
   4.8316105e-10  -2.0093346e-02   2.1244879e+00   4.4484231e-01  -7.6303676e+07
   4.8416139e-10  -2.0017167e-02   2.1199359e+00   4.4652831e-01  -7.6003955e+07
   4.8516172e-10  -1.9941287e-02   2.1154058e+00   4.4821283e-01  -7.5705528e+07
   4.8616205e-10  -1.9865705e-02   2.1108973e+00   4.4989583e-01  -7.5408388e+07
   4.8716239e-10  -1.9790420e-02   2.1064105e+00   4.5157731e-01  -7.5112526e+07
   4.8816272e-10  -1.9715430e-02   2.1019452e+00   4.5325723e-01  -7.4817938e+07
   4.8916305e-10  -1.9640735e-02   2.0975013e+00   4.5493559e-01  -7.4524617e+07
   4.9016339e-10  -1.9566331e-02   2.0930786e+00   4.5661234e-01  -7.4232555e+07
   4.9116372e-10  -1.9492220e-02   2.0886772e+00   4.5828749e-01  -7.3941746e+07
   4.9216405e-10  -1.9418399e-02   2.0842968e+00   4.5996100e-01  -7.3652185e+07
   4.9316439e-10  -1.9344866e-02   2.0799374e+00   4.6163285e-01  -7.3363864e+07
   4.9416472e-10  -1.9271622e-02   2.0755989e+00   4.6330303e-01  -7.3076778e+07
   4.9516506e-10  -1.9198664e-02   2.0712811e+00   4.6497151e-01  -7.2790919e+07
   4.9616539e-10  -1.9125992e-02   2.0669840e+00   4.6663828e-01  -7.2506282e+07
   4.9716572e-10  -1.9053603e-02   2.0627074e+00   4.6830331e-01  -7.2222860e+07
   4.9816606e-10  -1.8981498e-02   2.0584514e+00   4.6996659e-01  -7.1940647e+07
   4.9916639e-10  -1.8909674e-02   2.0542156e+00   4.7162809e-01  -7.1659638e+07
   5.0016672e-10  -1.8838131e-02   2.0500002e+00   4.7328780e-01  -7.1379825e+07
   5.0116706e-10  -1.8766867e-02   2.0458048e+00   4.7494570e-01  -7.1101203e+07
   5.0216739e-10  -1.8695881e-02   2.0416296e+00   4.7660177e-01  -7.0823765e+07
   5.0316772e-10  -1.8625172e-02   2.0374742e+00   4.7825599e-01  -7.0547506e+07
   5.0416806e-10  -1.8554739e-02   2.0333388e+00   4.7990834e-01  -7.0272420e+07
   5.0516839e-10  -1.8484580e-02   2.0292231e+00   4.8155881e-01  -6.9998501e+07
   5.0616872e-10  -1.8414695e-02   2.0251270e+00   4.8320737e-01  -6.9725743e+07
   5.0716906e-10  -1.8345082e-02   2.0210505e+00   4.8485402e-01  -6.9454139e+07
   5.0816939e-10  -1.8275740e-02   2.0169934e+00   4.8649872e-01  -6.9183685e+07
   5.0916972e-10  -1.8206669e-02   2.0129558e+00   4.8814147e-01  -6.8914374e+07
   5.1017006e-10  -1.8137866e-02   2.0089373e+00   4.8978224e-01  -6.8646201e+07
   5.1117039e-10  -1.8069330e-02   2.0049381e+00   4.9142103e-01  -6.8379160e+07
   5.1217072e-10  -1.8001062e-02   2.0009579e+00   4.9305780e-01  -6.8113245e+07
   5.1317106e-10  -1.7933059e-02   1.9969966e+00   4.9469255e-01  -6.7848451e+07
   5.1417139e-10  -1.7865320e-02   1.9930543e+00   4.9632527e-01  -6.7584772e+07
   5.1517172e-10  -1.7797844e-02   1.9891307e+00   4.9795592e-01  -6.7322202e+07
   5.1617206e-10  -1.7730630e-02   1.9852258e+00   4.9958450e-01  -6.7060736e+07
   5.1717239e-10  -1.7663678e-02   1.9813395e+00   5.0121099e-01  -6.6800368e+07
   5.1817272e-10  -1.7596985e-02   1.9774717e+00   5.0283538e-01  -6.6541094e+07
   5.1917306e-10  -1.7530551e-02   1.9736223e+00   5.0445764e-01  -6.6282907e+07
   5.2017339e-10  -1.7464375e-02   1.9697913e+00   5.0607777e-01  -6.6025802e+07
   5.2117372e-10  -1.7398455e-02   1.9659784e+00   5.0769575e-01  -6.5769773e+07
   5.2217406e-10  -1.7332791e-02   1.9621837e+00   5.0931156e-01  -6.5514817e+07
   5.2317439e-10  -1.7267382e-02   1.9584070e+00   5.1092519e-01  -6.5260926e+07
   5.2417472e-10  -1.7202226e-02   1.9546482e+00   5.1253662e-01  -6.5008096e+07
   5.2517506e-10  -1.7137322e-02   1.9509073e+00   5.1414585e-01  -6.4756322e+07
   5.2617539e-10  -1.7072670e-02   1.9471842e+00   5.1575284e-01  -6.4505598e+07
   5.2717573e-10  -1.7008268e-02   1.9434787e+00   5.1735760e-01  -6.4255920e+07
   5.2817606e-10  -1.6944115e-02   1.9397908e+00   5.1896010e-01  -6.4007281e+07
   5.2917639e-10  -1.6880211e-02   1.9361204e+00   5.2056033e-01  -6.3759678e+07
   5.3017673e-10  -1.6816553e-02   1.9324674e+00   5.2215828e-01  -6.3513104e+07
   5.3117706e-10  -1.6753142e-02   1.9288318e+00   5.2375393e-01  -6.3267556e+07
   5.3217739e-10  -1.6689976e-02   1.9252133e+00   5.2534728e-01  -6.3023027e+07
   5.3317773e-10  -1.6627054e-02   1.9216120e+00   5.2693830e-01  -6.2779513e+07
   5.3417806e-10  -1.6564375e-02   1.9180278e+00   5.2852699e-01  -6.2537009e+07
   5.3517839e-10  -1.6501938e-02   1.9144605e+00   5.3011332e-01  -6.2295511e+07
   5.3617873e-10  -1.6439742e-02   1.9109101e+00   5.3169730e-01  -6.2055012e+07
   5.3717906e-10  -1.6377786e-02   1.9073765e+00   5.3327890e-01  -6.1815509e+07
   5.3817939e-10  -1.6316070e-02   1.9038596e+00   5.3485811e-01  -6.1576996e+07
   5.3917973e-10  -1.6254591e-02   1.9003594e+00   5.3643493e-01  -6.1339469e+07
   5.4018006e-10  -1.6193350e-02   1.8968757e+00   5.3800933e-01  -6.1102923e+07
   5.4118039e-10  -1.6132345e-02   1.8934084e+00   5.3958131e-01  -6.0867353e+07
   5.4218073e-10  -1.6071574e-02   1.8899575e+00   5.4115085e-01  -6.0632755e+07
   5.4318106e-10  -1.6011038e-02   1.8865229e+00   5.4271794e-01  -6.0399123e+07
   5.4418139e-10  -1.5950736e-02   1.8831045e+00   5.4428258e-01  -6.0166454e+07
   5.4518173e-10  -1.5890665e-02   1.8797023e+00   5.4584474e-01  -5.9934742e+07
   5.4618206e-10  -1.5830826e-02   1.8763160e+00   5.4740442e-01  -5.9703983e+07
   5.4718239e-10  -1.5771217e-02   1.8729458e+00   5.4896161e-01  -5.9474172e+07
   5.4818273e-10  -1.5711838e-02   1.8695914e+00   5.5051629e-01  -5.9245305e+07
   5.4918306e-10  -1.5652687e-02   1.8662528e+00   5.5206846e-01  -5.9017378e+07
   5.5018339e-10  -1.5593764e-02   1.8629299e+00   5.5361810e-01  -5.8790385e+07
   5.5118373e-10  -1.5535067e-02   1.8596227e+00   5.5516520e-01  -5.8564323e+07
   5.5218406e-10  -1.5476596e-02   1.8563311e+00   5.5670976e-01  -5.8339186e+07
   5.5318439e-10  -1.5418350e-02   1.8530549e+00   5.5825176e-01  -5.8114972e+07
   5.5418473e-10  -1.5360327e-02   1.8497941e+00   5.5979119e-01  -5.7891674e+07
   5.5518506e-10  -1.5302528e-02   1.8465486e+00   5.6132804e-01  -5.7669289e+07
   5.5618540e-10  -1.5244950e-02   1.8433184e+00   5.6286231e-01  -5.7447813e+07
   5.5718573e-10  -1.5187593e-02   1.8401034e+00   5.6439397e-01  -5.7227241e+07
   5.5818606e-10  -1.5130457e-02   1.8369034e+00   5.6592303e-01  -5.7007568e+07
   5.5918640e-10  -1.5073540e-02   1.8337184e+00   5.6744948e-01  -5.6788792e+07
   5.6018673e-10  -1.5016842e-02   1.8305484e+00   5.6897329e-01  -5.6570907e+07
   5.6118706e-10  -1.4960361e-02   1.8273933e+00   5.7049447e-01  -5.6353909e+07
   5.6218740e-10  -1.4904096e-02   1.8242529e+00   5.7201301e-01  -5.6137794e+07
   5.6318773e-10  -1.4848047e-02   1.8211273e+00   5.7352889e-01  -5.5922558e+07
   5.6418806e-10  -1.4792214e-02   1.8180162e+00   5.7504211e-01  -5.5708197e+07
   5.6518840e-10  -1.4736594e-02   1.8149198e+00   5.7655266e-01  -5.5494707e+07
   5.6618873e-10  -1.4681187e-02   1.8118378e+00   5.7806053e-01  -5.5282083e+07
   5.6718906e-10  -1.4625992e-02   1.8087702e+00   5.7956571e-01  -5.5070322e+07
   5.6818940e-10  -1.4571009e-02   1.8057170e+00   5.8106820e-01  -5.4859420e+07
   5.6918973e-10  -1.4516237e-02   1.8026781e+00   5.8256798e-01  -5.4649372e+07
   5.7019006e-10  -1.4461674e-02   1.7996533e+00   5.8406504e-01  -5.4440175e+07
   5.7119040e-10  -1.4407320e-02   1.7966427e+00   5.8555939e-01  -5.4231824e+07
   5.7219073e-10  -1.4353174e-02   1.7936461e+00   5.8705101e-01  -5.4024316e+07
   5.7319106e-10  -1.4299235e-02   1.7906635e+00   5.8853989e-01  -5.3817647e+07
   5.7419140e-10  -1.4245503e-02   1.7876948e+00   5.9002603e-01  -5.3611813e+07
   5.7519173e-10  -1.4191976e-02   1.7847399e+00   5.9150942e-01  -5.3406810e+07
   5.7619206e-10  -1.4138653e-02   1.7817988e+00   5.9299005e-01  -5.3202634e+07
   5.7719240e-10  -1.4085535e-02   1.7788714e+00   5.9446791e-01  -5.2999281e+07
   5.7819273e-10  -1.4032619e-02   1.7759576e+00   5.9594300e-01  -5.2796748e+07
   5.7919306e-10  -1.3979906e-02   1.7730574e+00   5.9741532e-01  -5.2595031e+07
   5.8019340e-10  -1.3927394e-02   1.7701706e+00   5.9888484e-01  -5.2394126e+07
   5.8119373e-10  -1.3875083e-02   1.7672973e+00   6.0035158e-01  -5.2194030e+07
   5.8219406e-10  -1.3822971e-02   1.7644374e+00   6.0181551e-01  -5.1994738e+07
   5.8319440e-10  -1.3771058e-02   1.7615907e+00   6.0327664e-01  -5.1796247e+07
   5.8419473e-10  -1.3719344e-02   1.7587572e+00   6.0473495e-01  -5.1598553e+07
   5.8519507e-10  -1.3667827e-02   1.7559369e+00   6.0619045e-01  -5.1401653e+07
   5.8619540e-10  -1.3616506e-02   1.7531297e+00   6.0764312e-01  -5.1205543e+07
   5.8719573e-10  -1.3565381e-02   1.7503355e+00   6.0909297e-01  -5.1010219e+07
   5.8819607e-10  -1.3514452e-02   1.7475542e+00   6.1053997e-01  -5.0815678e+07
   5.8919640e-10  -1.3463716e-02   1.7447858e+00   6.1198413e-01  -5.0621917e+07
   5.9019673e-10  -1.3413174e-02   1.7420303e+00   6.1342545e-01  -5.0428931e+07
   5.9119707e-10  -1.3362824e-02   1.7392874e+00   6.1486391e-01  -5.0236717e+07
   5.9219740e-10  -1.3312667e-02   1.7365573e+00   6.1629952e-01  -5.0045272e+07
   5.9319773e-10  -1.3262700e-02   1.7338398e+00   6.1773226e-01  -4.9854593e+07
   5.9419807e-10  -1.3212924e-02   1.7311349e+00   6.1916213e-01  -4.9664675e+07
   5.9519840e-10  -1.3163338e-02   1.7284425e+00   6.2058912e-01  -4.9475516e+07
   5.9619873e-10  -1.3113940e-02   1.7257625e+00   6.2201324e-01  -4.9287111e+07
   5.9719907e-10  -1.3064730e-02   1.7230948e+00   6.2343447e-01  -4.9099458e+07
   5.9819940e-10  -1.3015708e-02   1.7204395e+00   6.2485282e-01  -4.8912553e+07
   5.9919973e-10  -1.2966872e-02   1.7177964e+00   6.2626827e-01  -4.8726393e+07
   6.0020007e-10  -1.2918223e-02   1.7151655e+00   6.2768082e-01  -4.8540974e+07
   6.0120040e-10  -1.2869758e-02   1.7125468e+00   6.2909047e-01  -4.8356294e+07
   6.0220073e-10  -1.2821478e-02   1.7099401e+00   6.3049721e-01  -4.8172348e+07
   6.0320107e-10  -1.2773381e-02   1.7073454e+00   6.3190104e-01  -4.7989134e+07
   6.0420140e-10  -1.2725467e-02   1.7047626e+00   6.3330195e-01  -4.7806648e+07
   6.0520173e-10  -1.2677736e-02   1.7021917e+00   6.3469995e-01  -4.7624886e+07
   6.0620207e-10  -1.2630186e-02   1.6996326e+00   6.3609502e-01  -4.7443847e+07
   6.0720240e-10  -1.2582816e-02   1.6970853e+00   6.3748717e-01  -4.7263526e+07
   6.0820273e-10  -1.2535627e-02   1.6945497e+00   6.3887638e-01  -4.7083921e+07
   6.0920307e-10  -1.2488617e-02   1.6920258e+00   6.4026266e-01  -4.6905028e+07
   6.1020340e-10  -1.2441785e-02   1.6895134e+00   6.4164600e-01  -4.6726843e+07
   6.1120373e-10  -1.2395132e-02   1.6870125e+00   6.4302640e-01  -4.6549365e+07
   6.1220407e-10  -1.2348655e-02   1.6845231e+00   6.4440386e-01  -4.6372589e+07
   6.1320440e-10  -1.2302355e-02   1.6820451e+00   6.4577837e-01  -4.6196513e+07
   6.1420473e-10  -1.2256231e-02   1.6795785e+00   6.4714992e-01  -4.6021134e+07
   6.1520507e-10  -1.2210282e-02   1.6771232e+00   6.4851852e-01  -4.5846447e+07
   6.1620540e-10  -1.2164508e-02   1.6746791e+00   6.4988417e-01  -4.5672452e+07
   6.1720574e-10  -1.2118907e-02   1.6722461e+00   6.5124685e-01  -4.5499143e+07
   6.1820607e-10  -1.2073479e-02   1.6698243e+00   6.5260657e-01  -4.5326519e+07
   6.1920640e-10  -1.2028223e-02   1.6674136e+00   6.5396332e-01  -4.5154576e+07
   6.2020674e-10  -1.1983140e-02   1.6650139e+00   6.5531711e-01  -4.4983312e+07
   6.2120707e-10  -1.1938227e-02   1.6626251e+00   6.5666792e-01  -4.4812723e+07
   6.2220740e-10  -1.1893484e-02   1.6602473e+00   6.5801576e-01  -4.4642806e+07
   6.2320774e-10  -1.1848911e-02   1.6578803e+00   6.5936063e-01  -4.4473558e+07
   6.2420807e-10  -1.1804507e-02   1.6555240e+00   6.6070252e-01  -4.4304977e+07
   6.2520840e-10  -1.1760271e-02   1.6531785e+00   6.6204142e-01  -4.4137060e+07
   6.2620874e-10  -1.1716203e-02   1.6508438e+00   6.6337735e-01  -4.3969804e+07
   6.2720907e-10  -1.1672302e-02   1.6485196e+00   6.6471029e-01  -4.3803205e+07
   6.2820940e-10  -1.1628568e-02   1.6462060e+00   6.6604024e-01  -4.3637261e+07
   6.2920974e-10  -1.1584999e-02   1.6439029e+00   6.6736721e-01  -4.3471969e+07
   6.3021007e-10  -1.1541595e-02   1.6416103e+00   6.6869118e-01  -4.3307327e+07
   6.3121040e-10  -1.1498355e-02   1.6393282e+00   6.7001217e-01  -4.3143331e+07
   6.3221074e-10  -1.1455279e-02   1.6370564e+00   6.7133016e-01  -4.2979978e+07
   6.3321107e-10  -1.1412366e-02   1.6347949e+00   6.7264516e-01  -4.2817267e+07
   6.3421140e-10  -1.1369616e-02   1.6325437e+00   6.7395716e-01  -4.2655193e+07
   6.3521174e-10  -1.1327027e-02   1.6303026e+00   6.7526616e-01  -4.2493755e+07
   6.3621207e-10  -1.1284600e-02   1.6280718e+00   6.7657217e-01  -4.2332949e+07
   6.3721240e-10  -1.1242333e-02   1.6258511e+00   6.7787517e-01  -4.2172773e+07
   6.3821274e-10  -1.1200226e-02   1.6236404e+00   6.7917518e-01  -4.2013225e+07
   6.3921307e-10  -1.1158278e-02   1.6214397e+00   6.8047218e-01  -4.1854300e+07
   6.4021340e-10  -1.1116489e-02   1.6192490e+00   6.8176618e-01  -4.1695998e+07
   6.4121374e-10  -1.1074858e-02   1.6170682e+00   6.8305718e-01  -4.1538314e+07
   6.4221407e-10  -1.1033385e-02   1.6148973e+00   6.8434517e-01  -4.1381247e+07
   6.4321440e-10  -1.0992068e-02   1.6127361e+00   6.8563015e-01  -4.1224794e+07
   6.4421474e-10  -1.0950907e-02   1.6105848e+00   6.8691214e-01  -4.1068951e+07
   6.4521507e-10  -1.0909903e-02   1.6084431e+00   6.8819111e-01  -4.0913717e+07
   6.4621541e-10  -1.0869053e-02   1.6063112e+00   6.8946708e-01  -4.0759090e+07
   6.4721574e-10  -1.0828357e-02   1.6041888e+00   6.9074004e-01  -4.0605065e+07
   6.4821607e-10  -1.0787815e-02   1.6020760e+00   6.9200999e-01  -4.0451641e+07
   6.4921641e-10  -1.0747427e-02   1.5999727e+00   6.9327693e-01  -4.0298815e+07
   6.5021674e-10  -1.0707191e-02   1.5978789e+00   6.9454087e-01  -4.0146585e+07
   6.5121707e-10  -1.0667106e-02   1.5957946e+00   6.9580179e-01  -3.9994948e+07
   6.5221741e-10  -1.0627174e-02   1.5937196e+00   6.9705971e-01  -3.9843901e+07
   6.5321774e-10  -1.0587392e-02   1.5916539e+00   6.9831462e-01  -3.9693443e+07
   6.5421807e-10  -1.0547760e-02   1.5895976e+00   6.9956652e-01  -3.9543570e+07
   6.5521841e-10  -1.0508278e-02   1.5875505e+00   7.0081541e-01  -3.9394280e+07
   6.5621874e-10  -1.0468945e-02   1.5855125e+00   7.0206130e-01  -3.9245571e+07
   6.5721907e-10  -1.0429761e-02   1.5834838e+00   7.0330418e-01  -3.9097439e+07
   6.5821941e-10  -1.0390724e-02   1.5814641e+00   7.0454405e-01  -3.8949884e+07
   6.5921974e-10  -1.0351835e-02   1.5794535e+00   7.0578091e-01  -3.8802901e+07
   6.6022007e-10  -1.0313092e-02   1.5774519e+00   7.0701476e-01  -3.8656490e+07
   6.6122041e-10  -1.0274496e-02   1.5754593e+00   7.0824561e-01  -3.8510647e+07
   6.6222074e-10  -1.0236045e-02   1.5734756e+00   7.0947346e-01  -3.8365369e+07
   6.6322107e-10  -1.0197740e-02   1.5715008e+00   7.1069829e-01  -3.8220656e+07
   6.6422141e-10  -1.0159578e-02   1.5695348e+00   7.1192013e-01  -3.8076504e+07
   6.6522174e-10  -1.0121561e-02   1.5675777e+00   7.1313896e-01  -3.7932910e+07
   6.6622207e-10  -1.0083687e-02   1.5656293e+00   7.1435479e-01  -3.7789873e+07
   6.6722241e-10  -1.0045956e-02   1.5636895e+00   7.1556761e-01  -3.7647390e+07
   6.6822274e-10  -1.0008367e-02   1.5617585e+00   7.1677744e-01  -3.7505460e+07
   6.6922307e-10  -9.9709198e-03   1.5598361e+00   7.1798427e-01  -3.7364078e+07
   6.7022341e-10  -9.9336138e-03   1.5579222e+00   7.1918809e-01  -3.7223244e+07
   6.7122374e-10  -9.8964484e-03   1.5560169e+00   7.2038892e-01  -3.7082955e+07
   6.7222407e-10  -9.8594230e-03   1.5541201e+00   7.2158676e-01  -3.6943209e+07
   6.7322441e-10  -9.8225372e-03   1.5522318e+00   7.2278159e-01  -3.6804003e+07
   6.7422474e-10  -9.7857903e-03   1.5503519e+00   7.2397344e-01  -3.6665335e+07
   6.7522508e-10  -9.7491819e-03   1.5484803e+00   7.2516229e-01  -3.6527203e+07
   6.7622541e-10  -9.7127114e-03   1.5466171e+00   7.2634815e-01  -3.6389605e+07
   6.7722574e-10  -9.6763783e-03   1.5447621e+00   7.2753102e-01  -3.6252538e+07
   6.7822608e-10  -9.6401820e-03   1.5429154e+00   7.2871090e-01  -3.6116000e+07
   6.7922641e-10  -9.6041220e-03   1.5410770e+00   7.2988780e-01  -3.5979990e+07
   6.8022674e-10  -9.5681979e-03   1.5392466e+00   7.3106171e-01  -3.5844504e+07
   6.8122708e-10  -9.5324090e-03   1.5374245e+00   7.3223264e-01  -3.5709541e+07
   6.8222741e-10  -9.4967548e-03   1.5356104e+00   7.3340059e-01  -3.5575098e+07
   6.8322774e-10  -9.4612349e-03   1.5338043e+00   7.3456555e-01  -3.5441174e+07
   6.8422808e-10  -9.4258487e-03   1.5320063e+00   7.3572754e-01  -3.5307766e+07
   6.8522841e-10  -9.3905957e-03   1.5302162e+00   7.3688656e-01  -3.5174872e+07
   6.8622874e-10  -9.3554754e-03   1.5284341e+00   7.3804260e-01  -3.5042490e+07
   6.8722908e-10  -9.3204872e-03   1.5266598e+00   7.3919566e-01  -3.4910618e+07
   6.8822941e-10  -9.2856307e-03   1.5248935e+00   7.4034576e-01  -3.4779253e+07
   6.8922974e-10  -9.2509054e-03   1.5231349e+00   7.4149289e-01  -3.4648394e+07
   6.9023008e-10  -9.2163107e-03   1.5213841e+00   7.4263705e-01  -3.4518039e+07
   6.9123041e-10  -9.1818461e-03   1.5196411e+00   7.4377825e-01  -3.4388185e+07
   6.9223074e-10  -9.1475112e-03   1.5179057e+00   7.4491649e-01  -3.4258830e+07
   6.9323108e-10  -9.1133055e-03   1.5161780e+00   7.4605177e-01  -3.4129973e+07
   6.9423141e-10  -9.0792284e-03   1.5144580e+00   7.4718409e-01  -3.4001611e+07
   6.9523174e-10  -9.0452794e-03   1.5127455e+00   7.4831346e-01  -3.3873742e+07
   6.9623208e-10  -9.0114581e-03   1.5110406e+00   7.4943988e-01  -3.3746365e+07
   6.9723241e-10  -8.9777640e-03   1.5093432e+00   7.5056335e-01  -3.3619477e+07
   6.9823274e-10  -8.9441966e-03   1.5076533e+00   7.5168387e-01  -3.3493076e+07
   6.9923308e-10  -8.9107554e-03   1.5059708e+00   7.5280145e-01  -3.3367160e+07
   7.0023341e-10  -8.8774399e-03   1.5042958e+00   7.5391608e-01  -3.3241727e+07
   7.0123374e-10  -8.8442497e-03   1.5026281e+00   7.5502778e-01  -3.3116776e+07
   7.0223408e-10  -8.8111841e-03   1.5009678e+00   7.5613653e-01  -3.2992304e+07
   7.0323441e-10  -8.7782429e-03   1.4993147e+00   7.5724236e-01  -3.2868309e+07
   7.0423474e-10  -8.7454255e-03   1.4976689e+00   7.5834525e-01  -3.2744789e+07
   7.0523508e-10  -8.7127314e-03   1.4960304e+00   7.5944522e-01  -3.2621743e+07
   7.0623541e-10  -8.6801601e-03   1.4943990e+00   7.6054226e-01  -3.2499169e+07
   7.0723575e-10  -8.6477112e-03   1.4927748e+00   7.6163638e-01  -3.2377064e+07
   7.0823608e-10  -8.6153842e-03   1.4911578e+00   7.6272758e-01  -3.2255427e+07
   7.0923641e-10  -8.5831787e-03   1.4895478e+00   7.6381586e-01  -3.2134255e+07
   7.1023675e-10  -8.5510942e-03   1.4879449e+00   7.6490123e-01  -3.2013548e+07
   7.1123708e-10  -8.5191301e-03   1.4863490e+00   7.6598369e-01  -3.1893302e+07
   7.1223741e-10  -8.4872862e-03   1.4847601e+00   7.6706324e-01  -3.1773517e+07
   7.1323775e-10  -8.4555618e-03   1.4831781e+00   7.6813989e-01  -3.1654189e+07
   7.1423808e-10  -8.4239565e-03   1.4816031e+00   7.6921364e-01  -3.1535318e+07
   7.1523841e-10  -8.3924700e-03   1.4800350e+00   7.7028449e-01  -3.1416902e+07
   7.1623875e-10  -8.3611016e-03   1.4784737e+00   7.7135244e-01  -3.1298938e+07
   7.1723908e-10  -8.3298511e-03   1.4769192e+00   7.7241750e-01  -3.1181426e+07
   7.1823941e-10  -8.2987179e-03   1.4753716e+00   7.7347968e-01  -3.1064362e+07
   7.1923975e-10  -8.2677015e-03   1.4738307e+00   7.7453897e-01  -3.0947745e+07
   7.2024008e-10  -8.2368016e-03   1.4722965e+00   7.7559538e-01  -3.0831574e+07
   7.2124041e-10  -8.2060177e-03   1.4707690e+00   7.7664891e-01  -3.0715847e+07
   7.2224075e-10  -8.1753493e-03   1.4692482e+00   7.7769957e-01  -3.0600561e+07
   7.2324108e-10  -8.1447960e-03   1.4677340e+00   7.7874735e-01  -3.0485716e+07
   7.2424141e-10  -8.1143574e-03   1.4662264e+00   7.7979227e-01  -3.0371308e+07
   7.2524175e-10  -8.0840330e-03   1.4647254e+00   7.8083433e-01  -3.0257337e+07
   7.2624208e-10  -8.0538224e-03   1.4632309e+00   7.8187352e-01  -3.0143801e+07
   7.2724241e-10  -8.0237252e-03   1.4617429e+00   7.8290986e-01  -3.0030698e+07
   7.2824275e-10  -7.9937409e-03   1.4602613e+00   7.8394335e-01  -2.9918026e+07
   7.2924308e-10  -7.9638691e-03   1.4587863e+00   7.8497398e-01  -2.9805784e+07
   7.3024341e-10  -7.9341093e-03   1.4573176e+00   7.8600177e-01  -2.9693970e+07
   7.3124375e-10  -7.9044612e-03   1.4558553e+00   7.8702672e-01  -2.9582581e+07
   7.3224408e-10  -7.8749243e-03   1.4543993e+00   7.8804884e-01  -2.9471617e+07
   7.3324441e-10  -7.8454982e-03   1.4529497e+00   7.8906811e-01  -2.9361076e+07
   7.3424475e-10  -7.8161824e-03   1.4515064e+00   7.9008456e-01  -2.9250956e+07
   7.3524508e-10  -7.7869766e-03   1.4500693e+00   7.9109818e-01  -2.9141255e+07
   7.3624542e-10  -7.7578804e-03   1.4486385e+00   7.9210898e-01  -2.9031971e+07
   7.3724575e-10  -7.7288932e-03   1.4472138e+00   7.9311696e-01  -2.8923104e+07
   7.3824608e-10  -7.7000147e-03   1.4457953e+00   7.9412212e-01  -2.8814650e+07
   7.3924642e-10  -7.6712446e-03   1.4443830e+00   7.9512447e-01  -2.8706610e+07
   7.4024675e-10  -7.6425822e-03   1.4429768e+00   7.9612402e-01  -2.8598980e+07
   7.4124708e-10  -7.6140274e-03   1.4415766e+00   7.9712077e-01  -2.8491760e+07
   7.4224742e-10  -7.5855796e-03   1.4401826e+00   7.9811471e-01  -2.8384948e+07
   7.4324775e-10  -7.5572384e-03   1.4387945e+00   7.9910586e-01  -2.8278541e+07
   7.4424808e-10  -7.5290035e-03   1.4374124e+00   8.0009422e-01  -2.8172539e+07
   7.4524842e-10  -7.5008745e-03   1.4360363e+00   8.0107980e-01  -2.8066940e+07
   7.4624875e-10  -7.4728508e-03   1.4346662e+00   8.0206259e-01  -2.7961742e+07
   7.4724908e-10  -7.4449322e-03   1.4333019e+00   8.0304261e-01  -2.7856944e+07
   7.4824942e-10  -7.4171182e-03   1.4319436e+00   8.0401985e-01  -2.7752544e+07
   7.4924975e-10  -7.3894085e-03   1.4305911e+00   8.0499432e-01  -2.7648541e+07
   7.5025008e-10  -7.3618026e-03   1.4292444e+00   8.0596603e-01  -2.7544932e+07
   7.5125042e-10  -7.3343001e-03   1.4279035e+00   8.0693497e-01  -2.7441717e+07
   7.5225075e-10  -7.3069007e-03   1.4265684e+00   8.0790116e-01  -2.7338893e+07
   7.5325108e-10  -7.2796040e-03   1.4252390e+00   8.0886460e-01  -2.7236460e+07
   7.5425142e-10  -7.2524095e-03   1.4239154e+00   8.0982529e-01  -2.7134415e+07
   7.5525175e-10  -7.2253170e-03   1.4225975e+00   8.1078323e-01  -2.7032758e+07
   7.5625208e-10  -7.1983259e-03   1.4212852e+00   8.1173844e-01  -2.6931486e+07
   7.5725242e-10  -7.1714359e-03   1.4199785e+00   8.1269091e-01  -2.6830598e+07
   7.5825275e-10  -7.1446467e-03   1.4186775e+00   8.1364065e-01  -2.6730093e+07
   7.5925308e-10  -7.1179578e-03   1.4173821e+00   8.1458767e-01  -2.6629969e+07
   7.6025342e-10  -7.0913689e-03   1.4160922e+00   8.1553196e-01  -2.6530224e+07
   7.6125375e-10  -7.0648795e-03   1.4148078e+00   8.1647354e-01  -2.6430858e+07
   7.6225408e-10  -7.0384894e-03   1.4135290e+00   8.1741241e-01  -2.6331868e+07
   7.6325442e-10  -7.0121981e-03   1.4122556e+00   8.1834857e-01  -2.6233253e+07
   7.6425475e-10  -6.9860053e-03   1.4109877e+00   8.1928202e-01  -2.6135012e+07
   7.6525509e-10  -6.9599105e-03   1.4097252e+00   8.2021278e-01  -2.6037143e+07
   7.6625542e-10  -6.9339135e-03   1.4084682e+00   8.2114084e-01  -2.5939644e+07
   7.6725575e-10  -6.9080138e-03   1.4072165e+00   8.2206622e-01  -2.5842515e+07
   7.6825609e-10  -6.8822111e-03   1.4059701e+00   8.2298891e-01  -2.5745754e+07
   7.6925642e-10  -6.8565050e-03   1.4047291e+00   8.2390891e-01  -2.5649358e+07
   7.7025675e-10  -6.8308952e-03   1.4034934e+00   8.2482625e-01  -2.5553328e+07
   7.7125709e-10  -6.8053812e-03   1.4022630e+00   8.2574091e-01  -2.5457661e+07
   7.7225742e-10  -6.7799628e-03   1.4010378e+00   8.2665291e-01  -2.5362356e+07
   7.7325775e-10  -6.7546395e-03   1.3998179e+00   8.2756225e-01  -2.5267412e+07
   7.7425809e-10  -6.7294110e-03   1.3986032e+00   8.2846893e-01  -2.5172827e+07
   7.7525842e-10  -6.7042769e-03   1.3973936e+00   8.2937296e-01  -2.5078599e+07
   7.7625875e-10  -6.6792370e-03   1.3961892e+00   8.3027434e-01  -2.4984728e+07
   7.7725909e-10  -6.6542907e-03   1.3949900e+00   8.3117308e-01  -2.4891212e+07
   7.7825942e-10  -6.6294378e-03   1.3937958e+00   8.3206918e-01  -2.4798049e+07
   7.7925975e-10  -6.6046780e-03   1.3926068e+00   8.3296265e-01  -2.4705239e+07
   7.8026009e-10  -6.5800108e-03   1.3914228e+00   8.3385349e-01  -2.4612779e+07
   7.8126042e-10  -6.5554359e-03   1.3902438e+00   8.3474172e-01  -2.4520669e+07
   7.8226075e-10  -6.5309530e-03   1.3890699e+00   8.3562732e-01  -2.4428907e+07
   7.8326109e-10  -6.5065617e-03   1.3879009e+00   8.3651031e-01  -2.4337492e+07
   7.8426142e-10  -6.4822617e-03   1.3867369e+00   8.3739069e-01  -2.4246421e+07
   7.8526175e-10  -6.4580526e-03   1.3855779e+00   8.3826847e-01  -2.4155695e+07
   7.8626209e-10  -6.4339341e-03   1.3844238e+00   8.3914365e-01  -2.4065312e+07
   7.8726242e-10  -6.4099058e-03   1.3832746e+00   8.4001624e-01  -2.3975270e+07
   7.8826275e-10  -6.3859674e-03   1.3821302e+00   8.4088624e-01  -2.3885568e+07
   7.8926309e-10  -6.3621186e-03   1.3809907e+00   8.4175366e-01  -2.3796204e+07
   7.9026342e-10  -6.3383590e-03   1.3798561e+00   8.4261850e-01  -2.3707178e+07
   7.9126375e-10  -6.3146883e-03   1.3787263e+00   8.4348076e-01  -2.3618488e+07
   7.9226409e-10  -6.2911062e-03   1.3776012e+00   8.4434046e-01  -2.3530132e+07
   7.9326442e-10  -6.2676123e-03   1.3764809e+00   8.4519759e-01  -2.3442110e+07
   7.9426475e-10  -6.2442062e-03   1.3753654e+00   8.4605217e-01  -2.3354420e+07
   7.9526509e-10  -6.2208878e-03   1.3742546e+00   8.4690419e-01  -2.3267061e+07
   7.9626542e-10  -6.1976565e-03   1.3731484e+00   8.4775367e-01  -2.3180031e+07
   7.9726576e-10  -6.1745121e-03   1.3720470e+00   8.4860060e-01  -2.3093330e+07
   7.9826609e-10  -6.1514543e-03   1.3709502e+00   8.4944500e-01  -2.3006956e+07
   7.9926642e-10  -6.1284828e-03   1.3698581e+00   8.5028686e-01  -2.2920907e+07
   8.0026676e-10  -6.1055971e-03   1.3687705e+00   8.5112619e-01  -2.2835183e+07
   8.0126709e-10  -6.0827971e-03   1.3676876e+00   8.5196300e-01  -2.2749781e+07
   8.0226742e-10  -6.0600823e-03   1.3666092e+00   8.5279730e-01  -2.2664702e+07
   8.0326776e-10  -6.0374525e-03   1.3655354e+00   8.5362908e-01  -2.2579944e+07
   8.0426809e-10  -6.0149073e-03   1.3644661e+00   8.5445836e-01  -2.2495505e+07
   8.0526842e-10  -5.9924464e-03   1.3634014e+00   8.5528513e-01  -2.2411384e+07
   8.0626876e-10  -5.9700694e-03   1.3623411e+00   8.5610941e-01  -2.2327580e+07
   8.0726909e-10  -5.9477762e-03   1.3612853e+00   8.5693119e-01  -2.2244091e+07
   8.0826942e-10  -5.9255663e-03   1.3602339e+00   8.5775049e-01  -2.2160918e+07
   8.0926976e-10  -5.9034395e-03   1.3591869e+00   8.5856731e-01  -2.2078057e+07
   8.1027009e-10  -5.8813954e-03   1.3581444e+00   8.5938165e-01  -2.1995509e+07
   8.1127042e-10  -5.8594337e-03   1.3571062e+00   8.6019352e-01  -2.1913271e+07
   8.1227076e-10  -5.8375541e-03   1.3560725e+00   8.6100293e-01  -2.1831343e+07
   8.1327109e-10  -5.8157564e-03   1.3550430e+00   8.6180987e-01  -2.1749724e+07
   8.1427142e-10  -5.7940401e-03   1.3540179e+00   8.6261436e-01  -2.1668412e+07
   8.1527176e-10  -5.7724050e-03   1.3529971e+00   8.6341640e-01  -2.1587406e+07
   8.1627209e-10  -5.7508508e-03   1.3519806e+00   8.6421599e-01  -2.1506705e+07
   8.1727242e-10  -5.7293771e-03   1.3509683e+00   8.6501315e-01  -2.1426307e+07
   8.1827276e-10  -5.7079838e-03   1.3499603e+00   8.6580787e-01  -2.1346212e+07
   8.1927309e-10  -5.6866704e-03   1.3489566e+00   8.6660016e-01  -2.1266419e+07
   8.2027342e-10  -5.6654367e-03   1.3479570e+00   8.6739003e-01  -2.1186925e+07
   8.2127376e-10  -5.6442823e-03   1.3469616e+00   8.6817748e-01  -2.1107731e+07
   8.2227409e-10  -5.6232070e-03   1.3459704e+00   8.6896252e-01  -2.1028835e+07
   8.2327442e-10  -5.6022105e-03   1.3449834e+00   8.6974515e-01  -2.0950235e+07
   8.2427476e-10  -5.5812925e-03   1.3440005e+00   8.7052538e-01  -2.0871931e+07
   8.2527509e-10  -5.5604527e-03   1.3430217e+00   8.7130321e-01  -2.0793922e+07
   8.2627543e-10  -5.5396907e-03   1.3420470e+00   8.7207865e-01  -2.0716206e+07
   8.2727576e-10  -5.5190063e-03   1.3410764e+00   8.7285170e-01  -2.0638782e+07
   8.2827609e-10  -5.4983993e-03   1.3401098e+00   8.7362237e-01  -2.0561649e+07
   8.2927643e-10  -5.4778692e-03   1.3391473e+00   8.7439066e-01  -2.0484806e+07
   8.3027676e-10  -5.4574159e-03   1.3381888e+00   8.7515659e-01  -2.0408252e+07
   8.3127709e-10  -5.4370390e-03   1.3372343e+00   8.7592014e-01  -2.0331986e+07
   8.3227743e-10  -5.4167383e-03   1.3362838e+00   8.7668134e-01  -2.0256006e+07
   8.3327776e-10  -5.3965134e-03   1.3353372e+00   8.7744019e-01  -2.0180312e+07
   8.3427809e-10  -5.3763641e-03   1.3343946e+00   8.7819668e-01  -2.0104902e+07
   8.3527843e-10  -5.3562901e-03   1.3334560e+00   8.7895083e-01  -2.0029776e+07
   8.3627876e-10  -5.3362911e-03   1.3325212e+00   8.7970264e-01  -1.9954932e+07
   8.3727909e-10  -5.3163668e-03   1.3315904e+00   8.8045212e-01  -1.9880369e+07
   8.3827943e-10  -5.2965170e-03   1.3306634e+00   8.8119927e-01  -1.9806086e+07
   8.3927976e-10  -5.2767414e-03   1.3297403e+00   8.8194410e-01  -1.9732082e+07
   8.4028009e-10  -5.2570396e-03   1.3288211e+00   8.8268661e-01  -1.9658356e+07
   8.4128043e-10  -5.2374115e-03   1.3279056e+00   8.8342681e-01  -1.9584907e+07
   8.4228076e-10  -5.2178567e-03   1.3269940e+00   8.8416471e-01  -1.9511734e+07
   8.4328109e-10  -5.1983749e-03   1.3260862e+00   8.8490030e-01  -1.9438836e+07
   8.4428143e-10  -5.1789659e-03   1.3251821e+00   8.8563359e-01  -1.9366211e+07
   8.4528176e-10  -5.1596295e-03   1.3242818e+00   8.8636460e-01  -1.9293859e+07
   8.4628209e-10  -5.1403653e-03   1.3233853e+00   8.8709332e-01  -1.9221779e+07
   8.4728243e-10  -5.1211730e-03   1.3224925e+00   8.8781976e-01  -1.9149969e+07
   8.4828276e-10  -5.1020525e-03   1.3216033e+00   8.8854393e-01  -1.9078429e+07
   8.4928309e-10  -5.0830033e-03   1.3207179e+00   8.8926583e-01  -1.9007157e+07
   8.5028343e-10  -5.0640254e-03   1.3198362e+00   8.8998546e-01  -1.8936152e+07
   8.5128376e-10  -5.0451183e-03   1.3189581e+00   8.9070284e-01  -1.8865415e+07
   8.5228409e-10  -5.0262819e-03   1.3180836e+00   8.9141796e-01  -1.8794942e+07
   8.5328443e-10  -5.0075158e-03   1.3172128e+00   8.9213084e-01  -1.8724734e+07
   8.5428476e-10  -4.9888199e-03   1.3163456e+00   8.9284147e-01  -1.8654790e+07
   8.5528510e-10  -4.9701937e-03   1.3154820e+00   8.9354987e-01  -1.8585108e+07
   8.5628543e-10  -4.9516372e-03   1.3146219e+00   8.9425604e-01  -1.8515687e+07
   8.5728576e-10  -4.9331499e-03   1.3137654e+00   8.9495998e-01  -1.8446526e+07
   8.5828610e-10  -4.9147317e-03   1.3129125e+00   8.9566170e-01  -1.8377625e+07
   8.5928643e-10  -4.8963823e-03   1.3120631e+00   8.9636121e-01  -1.8308983e+07
   8.6028676e-10  -4.8781015e-03   1.3112172e+00   8.9705850e-01  -1.8240598e+07
   8.6128710e-10  -4.8598889e-03   1.3103748e+00   8.9775359e-01  -1.8172469e+07
   8.6228743e-10  -4.8417443e-03   1.3095359e+00   8.9844649e-01  -1.8104596e+07
   8.6328776e-10  -4.8236675e-03   1.3087005e+00   8.9913719e-01  -1.8036978e+07
   8.6428810e-10  -4.8056583e-03   1.3078685e+00   8.9982570e-01  -1.7969612e+07
   8.6528843e-10  -4.7877162e-03   1.3070399e+00   9.0051203e-01  -1.7902500e+07
   8.6628876e-10  -4.7698412e-03   1.3062148e+00   9.0119618e-01  -1.7835639e+07
   8.6728910e-10  -4.7520330e-03   1.3053931e+00   9.0187816e-01  -1.7769029e+07
   8.6828943e-10  -4.7342912e-03   1.3045747e+00   9.0255797e-01  -1.7702668e+07
   8.6928976e-10  -4.7166158e-03   1.3037598e+00   9.0323562e-01  -1.7636556e+07
   8.7029010e-10  -4.6990063e-03   1.3029482e+00   9.0391112e-01  -1.7570692e+07
   8.7129043e-10  -4.6814626e-03   1.3021399e+00   9.0458446e-01  -1.7505075e+07
   8.7229076e-10  -4.6639844e-03   1.3013350e+00   9.0525566e-01  -1.7439703e+07
   8.7329110e-10  -4.6465715e-03   1.3005334e+00   9.0592472e-01  -1.7374577e+07
   8.7429143e-10  -4.6292236e-03   1.2997351e+00   9.0659165e-01  -1.7309695e+07
   8.7529176e-10  -4.6119405e-03   1.2989401e+00   9.0725645e-01  -1.7245055e+07
   8.7629210e-10  -4.5947219e-03   1.2981483e+00   9.0791912e-01  -1.7180658e+07
   8.7729243e-10  -4.5775676e-03   1.2973598e+00   9.0857967e-01  -1.7116503e+07
   8.7829276e-10  -4.5604774e-03   1.2965746e+00   9.0923812e-01  -1.7052587e+07
   8.7929310e-10  -4.5434510e-03   1.2957926e+00   9.0989445e-01  -1.6988911e+07
   8.8029343e-10  -4.5264882e-03   1.2950138e+00   9.1054868e-01  -1.6925474e+07
   8.8129376e-10  -4.5095887e-03   1.2942382e+00   9.1120082e-01  -1.6862274e+07
   8.8229410e-10  -4.4927523e-03   1.2934658e+00   9.1185087e-01  -1.6799311e+07
   8.8329443e-10  -4.4759788e-03   1.2926965e+00   9.1249882e-01  -1.6736583e+07
   8.8429476e-10  -4.4592679e-03   1.2919304e+00   9.1314470e-01  -1.6674091e+07
   8.8529510e-10  -4.4426194e-03   1.2911675e+00   9.1378850e-01  -1.6611833e+07
   8.8629543e-10  -4.4260331e-03   1.2904077e+00   9.1443024e-01  -1.6549807e+07
   8.8729577e-10  -4.4095087e-03   1.2896510e+00   9.1506990e-01  -1.6488014e+07
   8.8829610e-10  -4.3930460e-03   1.2888974e+00   9.1570751e-01  -1.6426453e+07
   8.8929643e-10  -4.3766447e-03   1.2881469e+00   9.1634307e-01  -1.6365121e+07
   8.9029677e-10  -4.3603047e-03   1.2873995e+00   9.1697657e-01  -1.6304020e+07
   8.9129710e-10  -4.3440257e-03   1.2866552e+00   9.1760803e-01  -1.6243147e+07
   8.9229743e-10  -4.3278075e-03   1.2859138e+00   9.1823746e-01  -1.6182502e+07
   8.9329777e-10  -4.3116499e-03   1.2851756e+00   9.1886485e-01  -1.6122084e+07
   8.9429810e-10  -4.2955525e-03   1.2844403e+00   9.1949021e-01  -1.6061893e+07
   8.9529843e-10  -4.2795153e-03   1.2837081e+00   9.2011355e-01  -1.6001926e+07
   8.9629877e-10  -4.2635379e-03   1.2829788e+00   9.2073488e-01  -1.5942184e+07
   8.9729910e-10  -4.2476202e-03   1.2822526e+00   9.2135419e-01  -1.5882666e+07
   8.9829943e-10  -4.2317619e-03   1.2815293e+00   9.2197150e-01  -1.5823370e+07
   8.9929977e-10  -4.2159629e-03   1.2808089e+00   9.2258680e-01  -1.5764297e+07
   9.0030010e-10  -4.2002228e-03   1.2800915e+00   9.2320011e-01  -1.5705444e+07
   9.0130043e-10  -4.1845414e-03   1.2793771e+00   9.2381143e-01  -1.5646811e+07
   9.0230077e-10  -4.1689186e-03   1.2786655e+00   9.2442077e-01  -1.5588398e+07
   9.0330110e-10  -4.1533542e-03   1.2779569e+00   9.2502812e-01  -1.5530204e+07
   9.0430143e-10  -4.1378478e-03   1.2772512e+00   9.2563350e-01  -1.5472227e+07
   9.0530177e-10  -4.1223993e-03   1.2765483e+00   9.2623692e-01  -1.5414467e+07
   9.0630210e-10  -4.1070085e-03   1.2758483e+00   9.2683836e-01  -1.5356924e+07
   9.0730243e-10  -4.0916752e-03   1.2751511e+00   9.2743785e-01  -1.5299595e+07
   9.0830277e-10  -4.0763991e-03   1.2744568e+00   9.2803539e-01  -1.5242481e+07
   9.0930310e-10  -4.0611800e-03   1.2737654e+00   9.2863097e-01  -1.5185581e+07
   9.1030343e-10  -4.0460177e-03   1.2730767e+00   9.2922462e-01  -1.5128893e+07
   9.1130377e-10  -4.0309120e-03   1.2723909e+00   9.2981632e-01  -1.5072418e+07
   9.1230410e-10  -4.0158627e-03   1.2717078e+00   9.3040609e-01  -1.5016153e+07
   9.1330443e-10  -4.0008696e-03   1.2710275e+00   9.3099394e-01  -1.4960100e+07
   9.1430477e-10  -3.9859325e-03   1.2703500e+00   9.3157986e-01  -1.4904255e+07
   9.1530510e-10  -3.9710511e-03   1.2696753e+00   9.3216387e-01  -1.4848620e+07
   9.1630544e-10  -3.9562253e-03   1.2690033e+00   9.3274596e-01  -1.4793193e+07
   9.1730577e-10  -3.9414548e-03   1.2683340e+00   9.3332615e-01  -1.4737973e+07
   9.1830610e-10  -3.9267394e-03   1.2676675e+00   9.3390444e-01  -1.4682959e+07
   9.1930644e-10  -3.9120790e-03   1.2670036e+00   9.3448083e-01  -1.4628151e+07
   9.2030677e-10  -3.8974733e-03   1.2663425e+00   9.3505533e-01  -1.4573549e+07
   9.2130710e-10  -3.8829221e-03   1.2656840e+00   9.3562794e-01  -1.4519150e+07
   9.2230744e-10  -3.8684253e-03   1.2650282e+00   9.3619868e-01  -1.4464955e+07
   9.2330777e-10  -3.8539825e-03   1.2643751e+00   9.3676754e-01  -1.4410962e+07
   9.2430810e-10  -3.8395937e-03   1.2637246e+00   9.3733452e-01  -1.4357171e+07
   9.2530844e-10  -3.8252585e-03   1.2630768e+00   9.3789965e-01  -1.4303581e+07
   9.2630877e-10  -3.8109769e-03   1.2624316e+00   9.3846291e-01  -1.4250192e+07
   9.2730910e-10  -3.7967486e-03   1.2617890e+00   9.3902432e-01  -1.4197002e+07
   9.2830944e-10  -3.7825734e-03   1.2611490e+00   9.3958387e-01  -1.4144011e+07
   9.2930977e-10  -3.7684511e-03   1.2605116e+00   9.4014159e-01  -1.4091218e+07
   9.3031010e-10  -3.7543815e-03   1.2598768e+00   9.4069746e-01  -1.4038623e+07
   9.3131044e-10  -3.7403644e-03   1.2592446e+00   9.4125150e-01  -1.3986224e+07
   9.3231077e-10  -3.7263996e-03   1.2586149e+00   9.4180371e-01  -1.3934020e+07
   9.3331110e-10  -3.7124870e-03   1.2579878e+00   9.4235410e-01  -1.3882012e+07
   9.3431144e-10  -3.6986263e-03   1.2573632e+00   9.4290266e-01  -1.3830199e+07
   9.3531177e-10  -3.6848173e-03   1.2567412e+00   9.4344942e-01  -1.3778579e+07
   9.3631210e-10  -3.6710599e-03   1.2561216e+00   9.4399436e-01  -1.3727152e+07
   9.3731244e-10  -3.6573538e-03   1.2555046e+00   9.4453750e-01  -1.3675917e+07
   9.3831277e-10  -3.6436989e-03   1.2548900e+00   9.4507884e-01  -1.3624873e+07
   9.3931310e-10  -3.6300949e-03   1.2542780e+00   9.4561839e-01  -1.3574021e+07
   9.4031344e-10  -3.6165417e-03   1.2536684e+00   9.4615615e-01  -1.3523358e+07
   9.4131377e-10  -3.6030391e-03   1.2530613e+00   9.4669212e-01  -1.3472884e+07
   9.4231410e-10  -3.5895869e-03   1.2524566e+00   9.4722632e-01  -1.3422600e+07
   9.4331444e-10  -3.5761849e-03   1.2518544e+00   9.4775874e-01  -1.3372503e+07
   9.4431477e-10  -3.5628329e-03   1.2512546e+00   9.4828940e-01  -1.3322593e+07
   9.4531511e-10  -3.5495308e-03   1.2506572e+00   9.4881829e-01  -1.3272870e+07
   9.4631544e-10  -3.5362782e-03   1.2500623e+00   9.4934542e-01  -1.3223332e+07
   9.4731577e-10  -3.5230752e-03   1.2494697e+00   9.4987080e-01  -1.3173980e+07
   9.4831611e-10  -3.5099214e-03   1.2488795e+00   9.5039443e-01  -1.3124812e+07
   9.4931644e-10  -3.4968168e-03   1.2482918e+00   9.5091632e-01  -1.3075828e+07
   9.5031677e-10  -3.4837610e-03   1.2477063e+00   9.5143647e-01  -1.3027026e+07
   9.5131711e-10  -3.4707540e-03   1.2471233e+00   9.5195488e-01  -1.2978407e+07
   9.5231744e-10  -3.4577955e-03   1.2465426e+00   9.5247157e-01  -1.2929970e+07
   9.5331777e-10  -3.4448853e-03   1.2459642e+00   9.5298653e-01  -1.2881713e+07
   9.5431811e-10  -3.4320234e-03   1.2453881e+00   9.5349978e-01  -1.2833637e+07
   9.5531844e-10  -3.4192095e-03   1.2448144e+00   9.5401131e-01  -1.2785740e+07
   9.5631877e-10  -3.4064433e-03   1.2442430e+00   9.5452113e-01  -1.2738022e+07
   9.5731911e-10  -3.3937249e-03   1.2436739e+00   9.5502925e-01  -1.2690483e+07
   9.5831944e-10  -3.3810538e-03   1.2431071e+00   9.5553567e-01  -1.2643121e+07
   9.5931977e-10  -3.3684301e-03   1.2425425e+00   9.5604039e-01  -1.2595936e+07
   9.6032011e-10  -3.3558535e-03   1.2419802e+00   9.5654343e-01  -1.2548927e+07
   9.6132044e-10  -3.3433238e-03   1.2414202e+00   9.5704478e-01  -1.2502094e+07
   9.6232077e-10  -3.3308409e-03   1.2408625e+00   9.5754445e-01  -1.2455435e+07
   9.6332111e-10  -3.3184046e-03   1.2403069e+00   9.5804244e-01  -1.2408951e+07
   9.6432144e-10  -3.3060147e-03   1.2397536e+00   9.5853877e-01  -1.2362640e+07
   9.6532177e-10  -3.2936710e-03   1.2392026e+00   9.5903343e-01  -1.2316503e+07
   9.6632211e-10  -3.2813734e-03   1.2386537e+00   9.5952644e-01  -1.2270537e+07
   9.6732244e-10  -3.2691217e-03   1.2381071e+00   9.6001778e-01  -1.2224744e+07
   9.6832277e-10  -3.2569157e-03   1.2375626e+00   9.6050748e-01  -1.2179121e+07
   9.6932311e-10  -3.2447553e-03   1.2370203e+00   9.6099553e-01  -1.2133669e+07
   9.7032344e-10  -3.2326402e-03   1.2364802e+00   9.6148194e-01  -1.2088386e+07
   9.7132377e-10  -3.2205704e-03   1.2359423e+00   9.6196672e-01  -1.2043273e+07
   9.7232411e-10  -3.2085456e-03   1.2354065e+00   9.6244986e-01  -1.1998328e+07
   9.7332444e-10  -3.1965657e-03   1.2348729e+00   9.6293138e-01  -1.1953550e+07
   9.7432477e-10  -3.1846305e-03   1.2343414e+00   9.6341127e-01  -1.1908940e+07
   9.7532511e-10  -3.1727398e-03   1.2338120e+00   9.6388955e-01  -1.1864497e+07
   9.7632544e-10  -3.1608935e-03   1.2332848e+00   9.6436622e-01  -1.1820219e+07
   9.7732578e-10  -3.1490914e-03   1.2327596e+00   9.6484128e-01  -1.1776107e+07
   9.7832611e-10  -3.1373334e-03   1.2322366e+00   9.6531473e-01  -1.1732159e+07
   9.7932644e-10  -3.1256192e-03   1.2317157e+00   9.6578659e-01  -1.1688376e+07
   9.8032678e-10  -3.1139488e-03   1.2311968e+00   9.6625686e-01  -1.1644756e+07
   9.8132711e-10  -3.1023219e-03   1.2306801e+00   9.6672554e-01  -1.1601298e+07
   9.8232744e-10  -3.0907384e-03   1.2301654e+00   9.6719263e-01  -1.1558003e+07
   9.8332778e-10  -3.0791981e-03   1.2296527e+00   9.6765815e-01  -1.1514870e+07
   9.8432811e-10  -3.0677009e-03   1.2291421e+00   9.6812209e-01  -1.1471898e+07
   9.8532844e-10  -3.0562466e-03   1.2286336e+00   9.6858446e-01  -1.1429086e+07
   9.8632878e-10  -3.0448351e-03   1.2281270e+00   9.6904527e-01  -1.1386433e+07
   9.8732911e-10  -3.0334661e-03   1.2276225e+00   9.6950452e-01  -1.1343941e+07
   9.8832944e-10  -3.0221396e-03   1.2271200e+00   9.6996221e-01  -1.1301606e+07
   9.8932978e-10  -3.0108553e-03   1.2266196e+00   9.7041835e-01  -1.1259430e+07
   9.9033011e-10  -2.9996132e-03   1.2261211e+00   9.7087294e-01  -1.1217411e+07
   9.9133044e-10  -2.9884130e-03   1.2256246e+00   9.7132599e-01  -1.1175549e+07
   9.9233078e-10  -2.9772546e-03   1.2251301e+00   9.7177751e-01  -1.1133843e+07
   9.9333111e-10  -2.9661378e-03   1.2246376e+00   9.7222749e-01  -1.1092293e+07
   9.9433144e-10  -2.9550625e-03   1.2241470e+00   9.7267595e-01  -1.1050898e+07
   9.9533178e-10  -2.9440286e-03   1.2236584e+00   9.7312288e-01  -1.1009658e+07
   9.9633211e-10  -2.9330358e-03   1.2231717e+00   9.7356829e-01  -1.0968571e+07
   9.9733244e-10  -2.9220841e-03   1.2226870e+00   9.7401219e-01  -1.0927638e+07
   9.9833278e-10  -2.9111732e-03   1.2222042e+00   9.7445458e-01  -1.0886857e+07
   9.9933311e-10  -2.9003031e-03   1.2217233e+00   9.7489547e-01  -1.0846229e+07
   1.0003334e-09  -2.8894735e-03   1.2212444e+00   9.7533485e-01  -1.0805752e+07
   1.0013338e-09  -2.8786843e-03   1.2207673e+00   9.7577274e-01  -1.0765427e+07
   1.0023341e-09  -2.8679354e-03   1.2202922e+00   9.7620914e-01  -1.0725252e+07
   1.0033344e-09  -2.8572266e-03   1.2198189e+00   9.7664405e-01  -1.0685227e+07
   1.0043348e-09  -2.8465578e-03   1.2193475e+00   9.7707748e-01  -1.0645351e+07
   1.0053351e-09  -2.8359288e-03   1.2188780e+00   9.7750943e-01  -1.0605624e+07
   1.0063354e-09  -2.8253394e-03   1.2184104e+00   9.7793990e-01  -1.0566045e+07
   1.0073358e-09  -2.8147896e-03   1.2179447e+00   9.7836891e-01  -1.0526614e+07
   1.0083361e-09  -2.8042791e-03   1.2174807e+00   9.7879646e-01  -1.0487330e+07
   1.0093364e-09  -2.7938079e-03   1.2170187e+00   9.7922254e-01  -1.0448193e+07
   1.0103368e-09  -2.7833757e-03   1.2165584e+00   9.7964717e-01  -1.0409202e+07
   1.0113371e-09  -2.7729825e-03   1.2161000e+00   9.8007035e-01  -1.0370356e+07
   1.0123374e-09  -2.7626280e-03   1.2156435e+00   9.8049208e-01  -1.0331655e+07
   1.0133378e-09  -2.7523122e-03   1.2151887e+00   9.8091237e-01  -1.0293099e+07
   1.0143381e-09  -2.7420349e-03   1.2147357e+00   9.8133122e-01  -1.0254686e+07
   1.0153384e-09  -2.7317960e-03   1.2142846e+00   9.8174864e-01  -1.0216417e+07
   1.0163388e-09  -2.7215952e-03   1.2138352e+00   9.8216463e-01  -1.0178291e+07
   1.0173391e-09  -2.7114325e-03   1.2133876e+00   9.8257919e-01  -1.0140307e+07
   1.0183394e-09  -2.7013078e-03   1.2129418e+00   9.8299234e-01  -1.0102464e+07
   1.0193398e-09  -2.6912208e-03   1.2124978e+00   9.8340407e-01  -1.0064763e+07
   1.0203401e-09  -2.6811715e-03   1.2120555e+00   9.8381438e-01  -1.0027203e+07
   1.0213404e-09  -2.6711597e-03   1.2116150e+00   9.8422329e-01  -9.9897823e+06
   1.0223408e-09  -2.6611852e-03   1.2111762e+00   9.8463080e-01  -9.9525015e+06
   1.0233411e-09  -2.6512480e-03   1.2107391e+00   9.8503691e-01  -9.9153599e+06
   1.0243414e-09  -2.6413479e-03   1.2103038e+00   9.8544163e-01  -9.8783568e+06
   1.0253418e-09  -2.6314847e-03   1.2098702e+00   9.8584495e-01  -9.8414918e+06
   1.0263421e-09  -2.6216583e-03   1.2094384e+00   9.8624689e-01  -9.8047644e+06
   1.0273424e-09  -2.6118685e-03   1.2090082e+00   9.8664745e-01  -9.7681740e+06
   1.0283428e-09  -2.6021154e-03   1.2085798e+00   9.8704663e-01  -9.7317200e+06
   1.0293431e-09  -2.5923986e-03   1.2081530e+00   9.8744444e-01  -9.6954021e+06
   1.0303434e-09  -2.5827180e-03   1.2077280e+00   9.8784088e-01  -9.6592197e+06
   1.0313438e-09  -2.5730736e-03   1.2073046e+00   9.8823596e-01  -9.6231723e+06
   1.0323441e-09  -2.5634652e-03   1.2068829e+00   9.8862967e-01  -9.5872594e+06
   1.0333444e-09  -2.5538927e-03   1.2064628e+00   9.8902204e-01  -9.5514805e+06
   1.0343448e-09  -2.5443559e-03   1.2060445e+00   9.8941305e-01  -9.5158350e+06
   1.0353451e-09  -2.5348546e-03   1.2056278e+00   9.8980271e-01  -9.4803225e+06
   1.0363454e-09  -2.5253889e-03   1.2052127e+00   9.9019103e-01  -9.4449425e+06
   1.0373458e-09  -2.5159584e-03   1.2047993e+00   9.9057801e-01  -9.4096945e+06
   1.0383461e-09  -2.5065631e-03   1.2043875e+00   9.9096365e-01  -9.3745780e+06
   1.0393464e-09  -2.4972030e-03   1.2039773e+00   9.9134797e-01  -9.3395925e+06
   1.0403468e-09  -2.4878777e-03   1.2035687e+00   9.9173096e-01  -9.3047376e+06
   1.0413471e-09  -2.4785872e-03   1.2031618e+00   9.9211263e-01  -9.2700126e+06
   1.0423474e-09  -2.4693314e-03   1.2027565e+00   9.9249298e-01  -9.2354172e+06
   1.0433478e-09  -2.4601102e-03   1.2023528e+00   9.9287201e-01  -9.2009509e+06
   1.0443481e-09  -2.4509234e-03   1.2019506e+00   9.9324974e-01  -9.1666131e+06
   1.0453484e-09  -2.4417708e-03   1.2015501e+00   9.9362616e-01  -9.1324034e+06
   1.0463488e-09  -2.4326524e-03   1.2011511e+00   9.9400127e-01  -9.0983214e+06
   1.0473491e-09  -2.4235681e-03   1.2007537e+00   9.9437510e-01  -9.0643665e+06
   1.0483494e-09  -2.4145176e-03   1.2003579e+00   9.9474762e-01  -9.0305382e+06
   1.0493498e-09  -2.4055009e-03   1.1999636e+00   9.9511886e-01  -8.9968361e+06
   1.0503501e-09  -2.3965179e-03   1.1995709e+00   9.9548882e-01  -8.9632598e+06
   1.0513505e-09  -2.3875684e-03   1.1991798e+00   9.9585749e-01  -8.9298087e+06
   1.0523508e-09  -2.3786523e-03   1.1987902e+00   9.9622488e-01  -8.8964824e+06
   1.0533511e-09  -2.3697694e-03   1.1984021e+00   9.9659100e-01  -8.8632804e+06
   1.0543515e-09  -2.3609198e-03   1.1980155e+00   9.9695586e-01  -8.8302023e+06
   1.0553518e-09  -2.3521031e-03   1.1976305e+00   9.9731945e-01  -8.7972476e+06
   1.0563521e-09  -2.3433194e-03   1.1972470e+00   9.9768177e-01  -8.7644158e+06
   1.0573525e-09  -2.3345684e-03   1.1968650e+00   9.9804284e-01  -8.7317064e+06
   1.0583528e-09  -2.3258501e-03   1.1964845e+00   9.9840266e-01  -8.6991191e+06
   1.0593531e-09  -2.3171643e-03   1.1961055e+00   9.9876123e-01  -8.6666533e+06
   1.0603535e-09  -2.3085110e-03   1.1957280e+00   9.9911855e-01  -8.6343086e+06
   1.0613538e-09  -2.2998899e-03   1.1953520e+00   9.9947463e-01  -8.6020846e+06
   1.0623541e-09  -2.2913010e-03   1.1949775e+00   9.9982948e-01  -8.5699808e+06
   1.0633545e-09  -2.2827442e-03   1.1946044e+00   1.0001831e+00  -8.5379967e+06
   1.0643548e-09  -2.2742193e-03   1.1942328e+00   1.0005355e+00  -8.5061320e+06
   1.0653551e-09  -2.2657262e-03   1.1938627e+00   1.0008866e+00  -8.4743861e+06
   1.0663555e-09  -2.2572648e-03   1.1934940e+00   1.0012366e+00  -8.4427586e+06
   1.0673558e-09  -2.2488350e-03   1.1931268e+00   1.0015853e+00  -8.4112491e+06
   1.0683561e-09  -2.2404367e-03   1.1927610e+00   1.0019328e+00  -8.3798571e+06
   1.0693565e-09  -2.2320697e-03   1.1923966e+00   1.0022791e+00  -8.3485822e+06
   1.0703568e-09  -2.2237339e-03   1.1920337e+00   1.0026242e+00  -8.3174239e+06
   1.0713571e-09  -2.2154292e-03   1.1916722e+00   1.0029681e+00  -8.2863819e+06
   1.0723575e-09  -2.2071556e-03   1.1913122e+00   1.0033107e+00  -8.2554557e+06
   1.0733578e-09  -2.1989128e-03   1.1909535e+00   1.0036522e+00  -8.2246448e+06
   1.0743581e-09  -2.1907008e-03   1.1905963e+00   1.0039925e+00  -8.1939489e+06
   1.0753585e-09  -2.1825194e-03   1.1902404e+00   1.0043317e+00  -8.1633674e+06
   1.0763588e-09  -2.1743685e-03   1.1898860e+00   1.0046696e+00  -8.1329000e+06
   1.0773591e-09  -2.1662481e-03   1.1895329e+00   1.0050063e+00  -8.1025463e+06
   1.0783595e-09  -2.1581580e-03   1.1891812e+00   1.0053419e+00  -8.0723057e+06
   1.0793598e-09  -2.1500981e-03   1.1888309e+00   1.0056763e+00  -8.0421780e+06
   1.0803601e-09  -2.1420683e-03   1.1884820e+00   1.0060096e+00  -8.0121626e+06
   1.0813605e-09  -2.1340684e-03   1.1881345e+00   1.0063416e+00  -7.9822592e+06
   1.0823608e-09  -2.1260984e-03   1.1877883e+00   1.0066726e+00  -7.9524673e+06
   1.0833611e-09  -2.1181581e-03   1.1874435e+00   1.0070023e+00  -7.9227866e+06
   1.0843615e-09  -2.1102475e-03   1.1871000e+00   1.0073309e+00  -7.8932165e+06
   1.0853618e-09  -2.1023664e-03   1.1867579e+00   1.0076584e+00  -7.8637568e+06
   1.0863621e-09  -2.0945147e-03   1.1864171e+00   1.0079847e+00  -7.8344069e+06
   1.0873625e-09  -2.0866923e-03   1.1860776e+00   1.0083099e+00  -7.8051665e+06
   1.0883628e-09  -2.0788991e-03   1.1857395e+00   1.0086339e+00  -7.7760352e+06
   1.0893631e-09  -2.0711350e-03   1.1854027e+00   1.0089568e+00  -7.7470125e+06
   1.0903635e-09  -2.0633999e-03   1.1850672e+00   1.0092786e+00  -7.7180980e+06
   1.0913638e-09  -2.0556936e-03   1.1847331e+00   1.0095992e+00  -7.6892914e+06
   1.0923641e-09  -2.0480161e-03   1.1844002e+00   1.0099187e+00  -7.6605923e+06
   1.0933645e-09  -2.0403673e-03   1.1840686e+00   1.0102371e+00  -7.6320002e+06
   1.0943648e-09  -2.0327470e-03   1.1837384e+00   1.0105544e+00  -7.6035147e+06
   1.0953651e-09  -2.0251552e-03   1.1834094e+00   1.0108706e+00  -7.5751355e+06
   1.0963655e-09  -2.0175917e-03   1.1830817e+00   1.0111856e+00  -7.5468621e+06
   1.0973658e-09  -2.0100564e-03   1.1827553e+00   1.0114996e+00  -7.5186942e+06
   1.0983661e-09  -2.0025492e-03   1.1824302e+00   1.0118124e+00  -7.4906313e+06
   1.0993665e-09  -1.9950701e-03   1.1821064e+00   1.0121242e+00  -7.4626732e+06
   1.1003668e-09  -1.9876189e-03   1.1817838e+00   1.0124349e+00  -7.4348192e+06
   1.1013671e-09  -1.9801954e-03   1.1814625e+00   1.0127444e+00  -7.4070692e+06
   1.1023675e-09  -1.9727997e-03   1.1811424e+00   1.0130529e+00  -7.3794227e+06
   1.1033678e-09  -1.9654316e-03   1.1808236e+00   1.0133603e+00  -7.3518793e+06
   1.1043681e-09  -1.9580911e-03   1.1805060e+00   1.0136666e+00  -7.3244386e+06
   1.1053685e-09  -1.9507779e-03   1.1801897e+00   1.0139719e+00  -7.2971003e+06
   1.1063688e-09  -1.9434920e-03   1.1798746e+00   1.0142761e+00  -7.2698639e+06
   1.1073691e-09  -1.9362332e-03   1.1795608e+00   1.0145792e+00  -7.2427292e+06
   1.1083695e-09  -1.9290016e-03   1.1792481e+00   1.0148812e+00  -7.2156956e+06
   1.1093698e-09  -1.9217970e-03   1.1789367e+00   1.0151822e+00  -7.1887628e+06
   1.1103701e-09  -1.9146193e-03   1.1786265e+00   1.0154821e+00  -7.1619305e+06
   1.1113705e-09  -1.9074683e-03   1.1783175e+00   1.0157809e+00  -7.1351983e+06
   1.1123708e-09  -1.9003441e-03   1.1780097e+00   1.0160787e+00  -7.1085658e+06
   1.1133711e-09  -1.8932464e-03   1.1777032e+00   1.0163755e+00  -7.0820327e+06
   1.1143715e-09  -1.8861753e-03   1.1773978e+00   1.0166712e+00  -7.0555984e+06
   1.1153718e-09  -1.8791305e-03   1.1770936e+00   1.0169659e+00  -7.0292628e+06
   1.1163721e-09  -1.8721120e-03   1.1767906e+00   1.0172595e+00  -7.0030254e+06
   1.1173725e-09  -1.8651197e-03   1.1764888e+00   1.0175521e+00  -6.9768859e+06
   1.1183728e-09  -1.8581536e-03   1.1761881e+00   1.0178437e+00  -6.9508439e+06
   1.1193731e-09  -1.8512134e-03   1.1758886e+00   1.0181342e+00  -6.9248989e+06
   1.1203735e-09  -1.8442991e-03   1.1755903e+00   1.0184237e+00  -6.8990508e+06
   1.1213738e-09  -1.8374107e-03   1.1752932e+00   1.0187122e+00  -6.8732991e+06
   1.1223741e-09  -1.8305479e-03   1.1749972e+00   1.0189997e+00  -6.8476434e+06
   1.1233745e-09  -1.8237108e-03   1.1747024e+00   1.0192861e+00  -6.8220834e+06
   1.1243748e-09  -1.8168992e-03   1.1744087e+00   1.0195716e+00  -6.7966187e+06
   1.1253751e-09  -1.8101130e-03   1.1741161e+00   1.0198560e+00  -6.7712490e+06
   1.1263755e-09  -1.8033521e-03   1.1738247e+00   1.0201395e+00  -6.7459740e+06
   1.1273758e-09  -1.7966165e-03   1.1735345e+00   1.0204219e+00  -6.7207932e+06
   1.1283761e-09  -1.7899060e-03   1.1732453e+00   1.0207033e+00  -6.6957063e+06
   1.1293765e-09  -1.7832206e-03   1.1729573e+00   1.0209838e+00  -6.6707130e+06
   1.1303768e-09  -1.7765601e-03   1.1726704e+00   1.0212632e+00  -6.6458129e+06
   1.1313771e-09  -1.7699245e-03   1.1723847e+00   1.0215417e+00  -6.6210057e+06
   1.1323775e-09  -1.7633136e-03   1.1721000e+00   1.0218192e+00  -6.5962910e+06
   1.1333778e-09  -1.7567275e-03   1.1718164e+00   1.0220957e+00  -6.5716685e+06
   1.1343781e-09  -1.7501659e-03   1.1715340e+00   1.0223712e+00  -6.5471378e+06
   1.1353785e-09  -1.7436288e-03   1.1712526e+00   1.0226457e+00  -6.5226986e+06
   1.1363788e-09  -1.7371161e-03   1.1709724e+00   1.0229193e+00  -6.4983506e+06
   1.1373791e-09  -1.7306277e-03   1.1706932e+00   1.0231919e+00  -6.4740934e+06
   1.1383795e-09  -1.7241636e-03   1.1704151e+00   1.0234635e+00  -6.4499267e+06
   1.1393798e-09  -1.7177236e-03   1.1701381e+00   1.0237342e+00  -6.4258501e+06
   1.1403801e-09  -1.7113076e-03   1.1698622e+00   1.0240039e+00  -6.4018633e+06
   1.1413805e-09  -1.7049155e-03   1.1695874e+00   1.0242727e+00  -6.3779659e+06
   1.1423808e-09  -1.6985474e-03   1.1693136e+00   1.0245405e+00  -6.3541577e+06
   1.1433811e-09  -1.6922029e-03   1.1690409e+00   1.0248074e+00  -6.3304384e+06
   1.1443815e-09  -1.6858822e-03   1.1687692e+00   1.0250733e+00  -6.3068074e+06
   1.1453818e-09  -1.6795851e-03   1.1684986e+00   1.0253382e+00  -6.2832646e+06
   1.1463821e-09  -1.6733115e-03   1.1682290e+00   1.0256023e+00  -6.2598097e+06
   1.1473825e-09  -1.6670613e-03   1.1679605e+00   1.0258654e+00  -6.2364422e+06
   1.1483828e-09  -1.6608344e-03   1.1676931e+00   1.0261275e+00  -6.2131618e+06
   1.1493831e-09  -1.6546308e-03   1.1674266e+00   1.0263888e+00  -6.1899683e+06
   1.1503835e-09  -1.6484503e-03   1.1671612e+00   1.0266491e+00  -6.1668614e+06
   1.1513838e-09  -1.6422929e-03   1.1668969e+00   1.0269084e+00  -6.1438406e+06
   1.1523841e-09  -1.6361585e-03   1.1666335e+00   1.0271669e+00  -6.1209056e+06
   1.1533845e-09  -1.6300470e-03   1.1663712e+00   1.0274244e+00  -6.0980562e+06
   1.1543848e-09  -1.6239583e-03   1.1661099e+00   1.0276810e+00  -6.0752921e+06
   1.1553851e-09  -1.6178923e-03   1.1658497e+00   1.0279368e+00  -6.0526128e+06
   1.1563855e-09  -1.6118490e-03   1.1655904e+00   1.0281916e+00  -6.0300181e+06
   1.1573858e-09  -1.6058282e-03   1.1653321e+00   1.0284455e+00  -6.0075077e+06
   1.1583861e-09  -1.5998300e-03   1.1650748e+00   1.0286985e+00  -5.9850813e+06
   1.1593865e-09  -1.5938541e-03   1.1648186e+00   1.0289505e+00  -5.9627385e+06
   1.1603868e-09  -1.5879005e-03   1.1645633e+00   1.0292017e+00  -5.9404791e+06
   1.1613871e-09  -1.5819691e-03   1.1643090e+00   1.0294520e+00  -5.9183027e+06
   1.1623875e-09  -1.5760599e-03   1.1640557e+00   1.0297015e+00  -5.8962090e+06
   1.1633878e-09  -1.5701727e-03   1.1638034e+00   1.0299500e+00  -5.8741977e+06
   1.1643881e-09  -1.5643076e-03   1.1635521e+00   1.0301976e+00  -5.8522685e+06
   1.1653885e-09  -1.5584643e-03   1.1633017e+00   1.0304444e+00  -5.8304211e+06
   1.1663888e-09  -1.5526428e-03   1.1630523e+00   1.0306903e+00  -5.8086553e+06
   1.1673891e-09  -1.5468431e-03   1.1628039e+00   1.0309353e+00  -5.7869705e+06
   1.1683895e-09  -1.5410650e-03   1.1625564e+00   1.0311794e+00  -5.7653667e+06
   1.1693898e-09  -1.5353085e-03   1.1623099e+00   1.0314227e+00  -5.7438435e+06
   1.1703901e-09  -1.5295734e-03   1.1620643e+00   1.0316651e+00  -5.7224005e+06
   1.1713905e-09  -1.5238598e-03   1.1618197e+00   1.0319066e+00  -5.7010376e+06
   1.1723908e-09  -1.5181675e-03   1.1615761e+00   1.0321473e+00  -5.6797543e+06
   1.1733911e-09  -1.5124965e-03   1.1613333e+00   1.0323871e+00  -5.6585504e+06
   1.1743915e-09  -1.5068466e-03   1.1610916e+00   1.0326260e+00  -5.6374256e+06
   1.1753918e-09  -1.5012178e-03   1.1608507e+00   1.0328641e+00  -5.6163796e+06
   1.1763921e-09  -1.4956101e-03   1.1606108e+00   1.0331014e+00  -5.5954121e+06
   1.1773925e-09  -1.4900233e-03   1.1603718e+00   1.0333378e+00  -5.5745228e+06
   1.1783928e-09  -1.4844573e-03   1.1601338e+00   1.0335734e+00  -5.5537114e+06
   1.1793931e-09  -1.4789121e-03   1.1598966e+00   1.0338081e+00  -5.5329776e+06
   1.1803935e-09  -1.4733876e-03   1.1596604e+00   1.0340420e+00  -5.5123212e+06
   1.1813938e-09  -1.4678838e-03   1.1594251e+00   1.0342750e+00  -5.4917419e+06
   1.1823941e-09  -1.4624005e-03   1.1591907e+00   1.0345072e+00  -5.4712393e+06
   1.1833945e-09  -1.4569376e-03   1.1589572e+00   1.0347386e+00  -5.4508132e+06
   1.1843948e-09  -1.4514952e-03   1.1587246e+00   1.0349692e+00  -5.4304633e+06
   1.1853951e-09  -1.4460730e-03   1.1584929e+00   1.0351989e+00  -5.4101893e+06
   1.1863955e-09  -1.4406712e-03   1.1582621e+00   1.0354278e+00  -5.3899909e+06
   1.1873958e-09  -1.4352894e-03   1.1580322e+00   1.0356559e+00  -5.3698679e+06
   1.1883961e-09  -1.4299278e-03   1.1578032e+00   1.0358832e+00  -5.3498199e+06
   1.1893965e-09  -1.4245862e-03   1.1575751e+00   1.0361097e+00  -5.3298467e+06
   1.1903968e-09  -1.4192645e-03   1.1573478e+00   1.0363354e+00  -5.3099480e+06
   1.1913971e-09  -1.4139627e-03   1.1571215e+00   1.0365602e+00  -5.2901236e+06
   1.1923975e-09  -1.4086807e-03   1.1568960e+00   1.0367843e+00  -5.2703731e+06
   1.1933978e-09  -1.4034185e-03   1.1566714e+00   1.0370075e+00  -5.2506963e+06
   1.1943981e-09  -1.3981758e-03   1.1564476e+00   1.0372300e+00  -5.2310928e+06
   1.1953985e-09  -1.3929528e-03   1.1562247e+00   1.0374516e+00  -5.2115626e+06
   1.1963988e-09  -1.3877492e-03   1.1560027e+00   1.0376725e+00  -5.1921051e+06
   1.1973991e-09  -1.3825651e-03   1.1557815e+00   1.0378925e+00  -5.1727203e+06
   1.1983995e-09  -1.3774003e-03   1.1555612e+00   1.0381118e+00  -5.1534077e+06
   1.1993998e-09  -1.3722548e-03   1.1553417e+00   1.0383303e+00  -5.1341672e+06
   1.2004001e-09  -1.3671285e-03   1.1551231e+00   1.0385480e+00  -5.1149985e+06
   1.2014005e-09  -1.3620214e-03   1.1549053e+00   1.0387650e+00  -5.0959013e+06
   1.2024008e-09  -1.3569333e-03   1.1546883e+00   1.0389811e+00  -5.0768753e+06
   1.2034011e-09  -1.3518642e-03   1.1544722e+00   1.0391965e+00  -5.0579203e+06
   1.2044015e-09  -1.3468140e-03   1.1542569e+00   1.0394111e+00  -5.0390360e+06
   1.2054018e-09  -1.3417827e-03   1.1540425e+00   1.0396249e+00  -5.0202221e+06
   1.2064021e-09  -1.3367702e-03   1.1538289e+00   1.0398380e+00  -5.0014785e+06
   1.2074025e-09  -1.3317764e-03   1.1536161e+00   1.0400503e+00  -4.9828047e+06
   1.2084028e-09  -1.3268013e-03   1.1534041e+00   1.0402619e+00  -4.9642007e+06
   1.2094031e-09  -1.3218447e-03   1.1531930e+00   1.0404726e+00  -4.9456660e+06
   1.2104035e-09  -1.3169066e-03   1.1529826e+00   1.0406827e+00  -4.9272005e+06
   1.2114038e-09  -1.3119870e-03   1.1527731e+00   1.0408919e+00  -4.9088038e+06
   1.2124041e-09  -1.3070857e-03   1.1525644e+00   1.0411005e+00  -4.8904758e+06
   1.2134045e-09  -1.3022027e-03   1.1523564e+00   1.0413082e+00  -4.8722162e+06
   1.2144048e-09  -1.2973380e-03   1.1521493e+00   1.0415153e+00  -4.8540247e+06
   1.2154051e-09  -1.2924914e-03   1.1519430e+00   1.0417216e+00  -4.8359010e+06
   1.2164055e-09  -1.2876630e-03   1.1517375e+00   1.0419271e+00  -4.8178450e+06
   1.2174058e-09  -1.2828525e-03   1.1515327e+00   1.0421319e+00  -4.7998563e+06
   1.2184061e-09  -1.2780600e-03   1.1513288e+00   1.0423360e+00  -4.7819347e+06
   1.2194065e-09  -1.2732854e-03   1.1511256e+00   1.0425393e+00  -4.7640800e+06
   1.2204068e-09  -1.2685287e-03   1.1509232e+00   1.0427419e+00  -4.7462919e+06
   1.2214071e-09  -1.2637897e-03   1.1507216e+00   1.0429438e+00  -4.7285701e+06
   1.2224075e-09  -1.2590684e-03   1.1505208e+00   1.0431450e+00  -4.7109145e+06
   1.2234078e-09  -1.2543647e-03   1.1503207e+00   1.0433454e+00  -4.6933248e+06
   1.2244081e-09  -1.2496786e-03   1.1501215e+00   1.0435451e+00  -4.6758006e+06
   1.2254085e-09  -1.2450099e-03   1.1499229e+00   1.0437441e+00  -4.6583419e+06
   1.2264088e-09  -1.2403587e-03   1.1497252e+00   1.0439424e+00  -4.6409482e+06
   1.2274091e-09  -1.2357249e-03   1.1495282e+00   1.0441399e+00  -4.6236195e+06
   1.2284095e-09  -1.2311084e-03   1.1493320e+00   1.0443368e+00  -4.6063554e+06
   1.2294098e-09  -1.2265091e-03   1.1491365e+00   1.0445329e+00  -4.5891557e+06
   1.2304101e-09  -1.2219270e-03   1.1489418e+00   1.0447284e+00  -4.5720202e+06
   1.2314105e-09  -1.2173620e-03   1.1487478e+00   1.0449231e+00  -4.5549487e+06
   1.2324108e-09  -1.2128140e-03   1.1485545e+00   1.0451171e+00  -4.5379408e+06
   1.2334111e-09  -1.2082831e-03   1.1483621e+00   1.0453105e+00  -4.5209964e+06
   1.2344115e-09  -1.2037690e-03   1.1481703e+00   1.0455031e+00  -4.5041151e+06
   1.2354118e-09  -1.1992718e-03   1.1479793e+00   1.0456950e+00  -4.4872969e+06
   1.2364121e-09  -1.1947914e-03   1.1477890e+00   1.0458863e+00  -4.4705414e+06
   1.2374125e-09  -1.1903277e-03   1.1475995e+00   1.0460768e+00  -4.4538485e+06
   1.2384128e-09  -1.1858807e-03   1.1474106e+00   1.0462667e+00  -4.4372178e+06
   1.2394131e-09  -1.1814503e-03   1.1472225e+00   1.0464559e+00  -4.4206491e+06
   1.2404135e-09  -1.1770365e-03   1.1470352e+00   1.0466444e+00  -4.4041423e+06
   1.2414138e-09  -1.1726391e-03   1.1468485e+00   1.0468323e+00  -4.3876971e+06
   1.2424141e-09  -1.1682581e-03   1.1466626e+00   1.0470194e+00  -4.3713132e+06
   1.2434145e-09  -1.1638935e-03   1.1464774e+00   1.0472059e+00  -4.3549904e+06
   1.2444148e-09  -1.1595452e-03   1.1462928e+00   1.0473917e+00  -4.3387286e+06
   1.2454151e-09  -1.1552131e-03   1.1461090e+00   1.0475768e+00  -4.3225274e+06
   1.2464155e-09  -1.1508973e-03   1.1459259e+00   1.0477613e+00  -4.3063867e+06
   1.2474158e-09  -1.1465975e-03   1.1457436e+00   1.0479451e+00  -4.2903061e+06
   1.2484161e-09  -1.1423138e-03   1.1455619e+00   1.0481282e+00  -4.2742856e+06
   1.2494165e-09  -1.1380460e-03   1.1453809e+00   1.0483107e+00  -4.2583249e+06
   1.2504168e-09  -1.1337942e-03   1.1452006e+00   1.0484925e+00  -4.2424237e+06
   1.2514171e-09  -1.1295583e-03   1.1450210e+00   1.0486737e+00  -4.2265818e+06
   1.2524175e-09  -1.1253382e-03   1.1448420e+00   1.0488542e+00  -4.2107991e+06
   1.2534178e-09  -1.1211339e-03   1.1446638e+00   1.0490341e+00  -4.1950752e+06
   1.2544181e-09  -1.1169453e-03   1.1444862e+00   1.0492133e+00  -4.1794100e+06
   1.2554185e-09  -1.1127723e-03   1.1443094e+00   1.0493918e+00  -4.1638033e+06
   1.2564188e-09  -1.1086149e-03   1.1441332e+00   1.0495697e+00  -4.1482548e+06
   1.2574191e-09  -1.1044730e-03   1.1439577e+00   1.0497470e+00  -4.1327643e+06
   1.2584195e-09  -1.1003466e-03   1.1437828e+00   1.0499236e+00  -4.1173316e+06
   1.2594198e-09  -1.0962356e-03   1.1436087e+00   1.0500996e+00  -4.1019565e+06
   1.2604201e-09  -1.0921399e-03   1.1434352e+00   1.0502750e+00  -4.0866387e+06
   1.2614205e-09  -1.0880595e-03   1.1432623e+00   1.0504497e+00  -4.0713781e+06
   1.2624208e-09  -1.0839944e-03   1.1430901e+00   1.0506238e+00  -4.0561745e+06
   1.2634211e-09  -1.0799445e-03   1.1429186e+00   1.0507973e+00  -4.0410276e+06
   1.2644215e-09  -1.0759096e-03   1.1427478e+00   1.0509701e+00  -4.0259372e+06
   1.2654218e-09  -1.0718899e-03   1.1425776e+00   1.0511423e+00  -4.0109031e+06
   1.2664221e-09  -1.0678851e-03   1.1424080e+00   1.0513139e+00  -3.9959251e+06
   1.2674225e-09  -1.0638954e-03   1.1422391e+00   1.0514849e+00  -3.9810030e+06
   1.2684228e-09  -1.0599205e-03   1.1420709e+00   1.0516552e+00  -3.9661365e+06
   1.2694231e-09  -1.0559604e-03   1.1419032e+00   1.0518249e+00  -3.9513256e+06
   1.2704235e-09  -1.0520152e-03   1.1417363e+00   1.0519941e+00  -3.9365699e+06
   1.2714238e-09  -1.0480846e-03   1.1415700e+00   1.0521626e+00  -3.9218693e+06
   1.2724241e-09  -1.0441688e-03   1.1414043e+00   1.0523305e+00  -3.9072235e+06
   1.2734245e-09  -1.0402676e-03   1.1412392e+00   1.0524977e+00  -3.8926323e+06
   1.2744248e-09  -1.0363809e-03   1.1410748e+00   1.0526644e+00  -3.8780957e+06
   1.2754251e-09  -1.0325088e-03   1.1409110e+00   1.0528305e+00  -3.8636132e+06
   1.2764255e-09  -1.0286511e-03   1.1407478e+00   1.0529960e+00  -3.8491848e+06
   1.2774258e-09  -1.0248078e-03   1.1405853e+00   1.0531609e+00  -3.8348103e+06
   1.2784261e-09  -1.0209789e-03   1.1404234e+00   1.0533251e+00  -3.8204894e+06
   1.2794265e-09  -1.0171643e-03   1.1402621e+00   1.0534888e+00  -3.8062219e+06
   1.2804268e-09  -1.0133639e-03   1.1401014e+00   1.0536519e+00  -3.7920077e+06
   1.2814271e-09  -1.0095777e-03   1.1399413e+00   1.0538144e+00  -3.7778465e+06
   1.2824275e-09  -1.0058057e-03   1.1397818e+00   1.0539763e+00  -3.7637381e+06
   1.2834278e-09  -1.0020477e-03   1.1396230e+00   1.0541376e+00  -3.7496824e+06
   1.2844281e-09  -9.9830378e-04   1.1394648e+00   1.0542984e+00  -3.7356792e+06
   1.2854285e-09  -9.9457384e-04   1.1393071e+00   1.0544585e+00  -3.7217282e+06
   1.2864288e-09  -9.9085782e-04   1.1391501e+00   1.0546181e+00  -3.7078292e+06
   1.2874291e-09  -9.8715569e-04   1.1389937e+00   1.0547771e+00  -3.6939822e+06
   1.2884295e-09  -9.8346738e-04   1.1388378e+00   1.0549355e+00  -3.6801868e+06
   1.2894298e-09  -9.7979284e-04   1.1386826e+00   1.0550934e+00  -3.6664429e+06
   1.2904301e-09  -9.7613203e-04   1.1385280e+00   1.0552507e+00  -3.6527502e+06
   1.2914305e-09  -9.7248489e-04   1.1383739e+00   1.0554074e+00  -3.6391087e+06
   1.2924308e-09  -9.6885137e-04   1.1382205e+00   1.0555635e+00  -3.6255181e+06
   1.2934311e-09  -9.6523142e-04   1.1380676e+00   1.0557191e+00  -3.6119782e+06
   1.2944315e-09  -9.6162499e-04   1.1379153e+00   1.0558741e+00  -3.5984888e+06
   1.2954318e-09  -9.5803203e-04   1.1377636e+00   1.0560285e+00  -3.5850498e+06
   1.2964321e-09  -9.5445248e-04   1.1376125e+00   1.0561824e+00  -3.5716609e+06
   1.2974325e-09  -9.5088631e-04   1.1374619e+00   1.0563357e+00  -3.5583220e+06
   1.2984328e-09  -9.4733345e-04   1.1373119e+00   1.0564885e+00  -3.5450328e+06
   1.2994331e-09  -9.4379386e-04   1.1371625e+00   1.0566407e+00  -3.5317933e+06
   1.3004335e-09  -9.4026749e-04   1.1370137e+00   1.0567923e+00  -3.5186031e+06
   1.3014338e-09  -9.3675429e-04   1.1368654e+00   1.0569435e+00  -3.5054622e+06
   1.3024341e-09  -9.3325421e-04   1.1367177e+00   1.0570940e+00  -3.4923704e+06
   1.3034345e-09  -9.2976720e-04   1.1365706e+00   1.0572440e+00  -3.4793273e+06
   1.3044348e-09  -9.2629322e-04   1.1364240e+00   1.0573935e+00  -3.4663330e+06
   1.3054351e-09  -9.2283221e-04   1.1362780e+00   1.0575424e+00  -3.4533872e+06
   1.3064355e-09  -9.1938413e-04   1.1361326e+00   1.0576908e+00  -3.4404896e+06
   1.3074358e-09  -9.1594892e-04   1.1359877e+00   1.0578386e+00  -3.4276402e+06
   1.3084361e-09  -9.1252654e-04   1.1358433e+00   1.0579859e+00  -3.4148388e+06
   1.3094365e-09  -9.0911695e-04   1.1356996e+00   1.0581327e+00  -3.4020851e+06
   1.3104368e-09  -9.0572009e-04   1.1355563e+00   1.0582789e+00  -3.3893791e+06
   1.3114371e-09  -9.0233592e-04   1.1354136e+00   1.0584246e+00  -3.3767204e+06
   1.3124375e-09  -8.9896438e-04   1.1352715e+00   1.0585698e+00  -3.3641090e+06
   1.3134378e-09  -8.9560544e-04   1.1351299e+00   1.0587145e+00  -3.3515447e+06
   1.3144381e-09  -8.9225904e-04   1.1349888e+00   1.0588586e+00  -3.3390272e+06
   1.3154385e-09  -8.8892514e-04   1.1348483e+00   1.0590022e+00  -3.3265565e+06
   1.3164388e-09  -8.8560369e-04   1.1347083e+00   1.0591453e+00  -3.3141323e+06
   1.3174391e-09  -8.8229465e-04   1.1345688e+00   1.0592878e+00  -3.3017545e+06
   1.3184395e-09  -8.7899797e-04   1.1344299e+00   1.0594298e+00  -3.2894229e+06
   1.3194398e-09  -8.7571360e-04   1.1342915e+00   1.0595714e+00  -3.2771373e+06
   1.3204401e-09  -8.7244149e-04   1.1341536e+00   1.0597124e+00  -3.2648975e+06
   1.3214405e-09  -8.6918161e-04   1.1340163e+00   1.0598529e+00  -3.2527035e+06
   1.3224408e-09  -8.6593390e-04   1.1338795e+00   1.0599928e+00  -3.2405549e+06
   1.3234411e-09  -8.6269832e-04   1.1337432e+00   1.0601323e+00  -3.2284517e+06
   1.3244415e-09  -8.5947483e-04   1.1336074e+00   1.0602713e+00  -3.2163937e+06
   1.3254418e-09  -8.5626338e-04   1.1334721e+00   1.0604097e+00  -3.2043806e+06
   1.3264421e-09  -8.5306392e-04   1.1333374e+00   1.0605477e+00  -3.1924124e+06
   1.3274425e-09  -8.4987641e-04   1.1332031e+00   1.0606851e+00  -3.1804889e+06
   1.3284428e-09  -8.4670080e-04   1.1330694e+00   1.0608221e+00  -3.1686099e+06
   1.3294431e-09  -8.4353706e-04   1.1329362e+00   1.0609585e+00  -3.1567752e+06
   1.3304435e-09  -8.4038513e-04   1.1328035e+00   1.0610945e+00  -3.1449847e+06
   1.3314438e-09  -8.3724498e-04   1.1326713e+00   1.0612299e+00  -3.1332382e+06
   1.3324441e-09  -8.3411655e-04   1.1325396e+00   1.0613649e+00  -3.1215355e+06
   1.3334445e-09  -8.3099981e-04   1.1324085e+00   1.0614993e+00  -3.1098765e+06
   1.3344448e-09  -8.2789471e-04   1.1322778e+00   1.0616333e+00  -3.0982610e+06
   1.3354451e-09  -8.2480121e-04   1.1321476e+00   1.0617668e+00  -3.0866889e+06
   1.3364455e-09  -8.2171926e-04   1.1320179e+00   1.0618998e+00  -3.0751600e+06
   1.3374458e-09  -8.1864882e-04   1.1318887e+00   1.0620323e+00  -3.0636741e+06
   1.3384461e-09  -8.1558985e-04   1.1317600e+00   1.0621644e+00  -3.0522311e+06
   1.3394465e-09  -8.1254231e-04   1.1316318e+00   1.0622959e+00  -3.0408308e+06
   1.3404468e-09  -8.0950615e-04   1.1315040e+00   1.0624270e+00  -3.0294730e+06
   1.3414471e-09  -8.0648133e-04   1.1313768e+00   1.0625576e+00  -3.0181576e+06
   1.3424475e-09  -8.0346781e-04   1.1312500e+00   1.0626877e+00  -3.0068845e+06
   1.3434478e-09  -8.0046554e-04   1.1311238e+00   1.0628174e+00  -2.9956535e+06
   1.3444481e-09  -7.9747449e-04   1.1309980e+00   1.0629465e+00  -2.9844643e+06
   1.3454485e-09  -7.9449461e-04   1.1308726e+00   1.0630753e+00  -2.9733170e+06
   1.3464488e-09  -7.9152586e-04   1.1307478e+00   1.0632035e+00  -2.9622112e+06
   1.3474491e-09  -7.8856820e-04   1.1306234e+00   1.0633313e+00  -2.9511469e+06
   1.3484495e-09  -7.8562158e-04   1.1304996e+00   1.0634585e+00  -2.9401239e+06
   1.3494498e-09  -7.8268598e-04   1.1303761e+00   1.0635854e+00  -2.9291420e+06
   1.3504502e-09  -7.7976133e-04   1.1302532e+00   1.0637118e+00  -2.9182012e+06
   1.3514505e-09  -7.7684761e-04   1.1301307e+00   1.0638377e+00  -2.9073011e+06
   1.3524508e-09  -7.7394478e-04   1.1300087e+00   1.0639631e+00  -2.8964418e+06
   1.3534512e-09  -7.7105278e-04   1.1298872e+00   1.0640881e+00  -2.8856230e+06
   1.3544515e-09  -7.6817159e-04   1.1297661e+00   1.0642126e+00  -2.8748446e+06
   1.3554518e-09  -7.6530117e-04   1.1296454e+00   1.0643367e+00  -2.8641064e+06
   1.3564522e-09  -7.6244146e-04   1.1295253e+00   1.0644604e+00  -2.8534083e+06
   1.3574525e-09  -7.5959243e-04   1.1294056e+00   1.0645835e+00  -2.8427501e+06
   1.3584528e-09  -7.5675405e-04   1.1292863e+00   1.0647063e+00  -2.8321317e+06
   1.3594532e-09  -7.5392627e-04   1.1291675e+00   1.0648285e+00  -2.8215530e+06
   1.3604535e-09  -7.5110905e-04   1.1290492e+00   1.0649504e+00  -2.8110137e+06
   1.3614538e-09  -7.4830235e-04   1.1289313e+00   1.0650718e+00  -2.8005138e+06
   1.3624542e-09  -7.4550614e-04   1.1288138e+00   1.0651927e+00  -2.7900531e+06
   1.3634545e-09  -7.4272037e-04   1.1286968e+00   1.0653132e+00  -2.7796314e+06
   1.3644548e-09  -7.3994501e-04   1.1285803e+00   1.0654333e+00  -2.7692486e+06
   1.3654552e-09  -7.3718002e-04   1.1284642e+00   1.0655529e+00  -2.7589046e+06
   1.3664555e-09  -7.3442535e-04   1.1283485e+00   1.0656721e+00  -2.7485992e+06
   1.3674558e-09  -7.3168097e-04   1.1282333e+00   1.0657908e+00  -2.7383323e+06
   1.3684562e-09  -7.2894684e-04   1.1281185e+00   1.0659091e+00  -2.7281037e+06
   1.3694565e-09  -7.2622293e-04   1.1280041e+00   1.0660270e+00  -2.7179132e+06
   1.3704568e-09  -7.2350919e-04   1.1278902e+00   1.0661445e+00  -2.7077609e+06
   1.3714572e-09  -7.2080559e-04   1.1277767e+00   1.0662615e+00  -2.6976464e+06
   1.3724575e-09  -7.1811209e-04   1.1276636e+00   1.0663781e+00  -2.6875697e+06
   1.3734578e-09  -7.1542865e-04   1.1275510e+00   1.0664942e+00  -2.6775305e+06
   1.3744582e-09  -7.1275523e-04   1.1274388e+00   1.0666100e+00  -2.6675289e+06
   1.3754585e-09  -7.1009180e-04   1.1273270e+00   1.0667253e+00  -2.6575646e+06
   1.3764588e-09  -7.0743832e-04   1.1272157e+00   1.0668402e+00  -2.6476375e+06
   1.3774592e-09  -7.0479475e-04   1.1271048e+00   1.0669547e+00  -2.6377475e+06
   1.3784595e-09  -7.0216105e-04   1.1269943e+00   1.0670687e+00  -2.6278944e+06
   1.3794598e-09  -6.9953719e-04   1.1268842e+00   1.0671824e+00  -2.6180780e+06
   1.3804602e-09  -6.9692314e-04   1.1267745e+00   1.0672956e+00  -2.6082984e+06
   1.3814605e-09  -6.9431884e-04   1.1266653e+00   1.0674084e+00  -2.5985552e+06
   1.3824608e-09  -6.9172428e-04   1.1265564e+00   1.0675208e+00  -2.5888484e+06
   1.3834612e-09  -6.8913941e-04   1.1264480e+00   1.0676328e+00  -2.5791778e+06
   1.3844615e-09  -6.8656419e-04   1.1263400e+00   1.0677444e+00  -2.5695433e+06
   1.3854618e-09  -6.8399860e-04   1.1262324e+00   1.0678555e+00  -2.5599448e+06
   1.3864622e-09  -6.8144258e-04   1.1261252e+00   1.0679663e+00  -2.5503822e+06
   1.3874625e-09  -6.7889612e-04   1.1260184e+00   1.0680767e+00  -2.5408552e+06
   1.3884628e-09  -6.7635917e-04   1.1259121e+00   1.0681866e+00  -2.5313638e+06
   1.3894632e-09  -6.7383169e-04   1.1258061e+00   1.0682962e+00  -2.5219079e+06
   1.3904635e-09  -6.7131366e-04   1.1257005e+00   1.0684053e+00  -2.5124872e+06
   1.3914638e-09  -6.6880503e-04   1.1255953e+00   1.0685140e+00  -2.5031017e+06
   1.3924642e-09  -6.6630577e-04   1.1254906e+00   1.0686224e+00  -2.4937513e+06
   1.3934645e-09  -6.6381585e-04   1.1253862e+00   1.0687303e+00  -2.4844357e+06
   1.3944648e-09  -6.6133523e-04   1.1252822e+00   1.0688379e+00  -2.4751549e+06
   1.3954652e-09  -6.5886388e-04   1.1251786e+00   1.0689451e+00  -2.4659088e+06
   1.3964655e-09  -6.5640176e-04   1.1250755e+00   1.0690518e+00  -2.4566972e+06
   1.3974658e-09  -6.5394884e-04   1.1249727e+00   1.0691582e+00  -2.4475200e+06
   1.3984662e-09  -6.5150508e-04   1.1248703e+00   1.0692642e+00  -2.4383771e+06
   1.3994665e-09  -6.4907044e-04   1.1247682e+00   1.0693698e+00  -2.4292683e+06
   1.4004668e-09  -6.4664491e-04   1.1246666e+00   1.0694750e+00  -2.4201935e+06
   1.4014672e-09  -6.4422843e-04   1.1245654e+00   1.0695798e+00  -2.4111525e+06
   1.4024675e-09  -6.4182098e-04   1.1244645e+00   1.0696843e+00  -2.4021454e+06
   1.4034678e-09  -6.3942253e-04   1.1243640e+00   1.0697884e+00  -2.3931718e+06
   1.4044682e-09  -6.3703303e-04   1.1242639e+00   1.0698920e+00  -2.3842318e+06
   1.4054685e-09  -6.3465246e-04   1.1241642e+00   1.0699953e+00  -2.3753251e+06
   1.4064688e-09  -6.3228079e-04   1.1240649e+00   1.0700982e+00  -2.3664517e+06
   1.4074692e-09  -6.2991797e-04   1.1239659e+00   1.0702008e+00  -2.3576115e+06
   1.4084695e-09  -6.2756398e-04   1.1238673e+00   1.0703030e+00  -2.3488042e+06
   1.4094698e-09  -6.2521878e-04   1.1237691e+00   1.0704048e+00  -2.3400298e+06
   1.4104702e-09  -6.2288235e-04   1.1236713e+00   1.0705062e+00  -2.3312882e+06
   1.4114705e-09  -6.2055464e-04   1.1235738e+00   1.0706072e+00  -2.3225792e+06
   1.4124708e-09  -6.1823563e-04   1.1234767e+00   1.0707079e+00  -2.3139027e+06
   1.4134712e-09  -6.1592528e-04   1.1233800e+00   1.0708082e+00  -2.3052586e+06
   1.4144715e-09  -6.1362357e-04   1.1232836e+00   1.0709081e+00  -2.2966468e+06
   1.4154718e-09  -6.1133045e-04   1.1231876e+00   1.0710077e+00  -2.2880672e+06
   1.4164722e-09  -6.0904590e-04   1.1230920e+00   1.0711069e+00  -2.2795196e+06
   1.4174725e-09  -6.0676988e-04   1.1229967e+00   1.0712058e+00  -2.2710039e+06
   1.4184728e-09  -6.0450236e-04   1.1229018e+00   1.0713042e+00  -2.2625200e+06
   1.4194732e-09  -6.0224332e-04   1.1228073e+00   1.0714024e+00  -2.2540677e+06
   1.4204735e-09  -5.9999271e-04   1.1227131e+00   1.0715001e+00  -2.2456471e+06
   1.4214738e-09  -5.9775052e-04   1.1226192e+00   1.0715975e+00  -2.2372578e+06
   1.4224742e-09  -5.9551670e-04   1.1225258e+00   1.0716946e+00  -2.2288999e+06
   1.4234745e-09  -5.9329122e-04   1.1224326e+00   1.0717912e+00  -2.2205732e+06
   1.4244748e-09  -5.9107406e-04   1.1223399e+00   1.0718876e+00  -2.2122776e+06
   1.4254752e-09  -5.8886518e-04   1.1222475e+00   1.0719835e+00  -2.2040130e+06
   1.4264755e-09  -5.8666455e-04   1.1221554e+00   1.0720792e+00  -2.1957792e+06
   1.4274758e-09  -5.8447215e-04   1.1220637e+00   1.0721744e+00  -2.1875761e+06
   1.4284762e-09  -5.8228793e-04   1.1219723e+00   1.0722694e+00  -2.1794037e+06
   1.4294765e-09  -5.8011187e-04   1.1218813e+00   1.0723639e+00  -2.1712618e+06
   1.4304768e-09  -5.7794395e-04   1.1217906e+00   1.0724582e+00  -2.1631504e+06
   1.4314772e-09  -5.7578412e-04   1.1217002e+00   1.0725520e+00  -2.1550692e+06
   1.4324775e-09  -5.7363236e-04   1.1216103e+00   1.0726456e+00  -2.1470181e+06
   1.4334778e-09  -5.7148864e-04   1.1215206e+00   1.0727388e+00  -2.1389972e+06
   1.4344782e-09  -5.6935293e-04   1.1214313e+00   1.0728316e+00  -2.1310061e+06
   1.4354785e-09  -5.6722520e-04   1.1213423e+00   1.0729241e+00  -2.1230450e+06
   1.4364788e-09  -5.6510542e-04   1.1212537e+00   1.0730163e+00  -2.1151135e+06
   1.4374792e-09  -5.6299355e-04   1.1211654e+00   1.0731081e+00  -2.1072117e+06
   1.4384795e-09  -5.6088958e-04   1.1210774e+00   1.0731996e+00  -2.0993393e+06
   1.4394798e-09  -5.5879346e-04   1.1209898e+00   1.0732908e+00  -2.0914964e+06
   1.4404802e-09  -5.5670518e-04   1.1209025e+00   1.0733816e+00  -2.0836828e+06
   1.4414805e-09  -5.5462470e-04   1.1208155e+00   1.0734721e+00  -2.0758983e+06
   1.4424808e-09  -5.5255199e-04   1.1207288e+00   1.0735622e+00  -2.0681429e+06
   1.4434812e-09  -5.5048702e-04   1.1206425e+00   1.0736521e+00  -2.0604164e+06
   1.4444815e-09  -5.4842977e-04   1.1205565e+00   1.0737416e+00  -2.0527188e+06
   1.4454818e-09  -5.4638021e-04   1.1204709e+00   1.0738307e+00  -2.0450500e+06
   1.4464822e-09  -5.4433830e-04   1.1203855e+00   1.0739196e+00  -2.0374098e+06
   1.4474825e-09  -5.4230402e-04   1.1203005e+00   1.0740081e+00  -2.0297981e+06
   1.4484828e-09  -5.4027734e-04   1.1202158e+00   1.0740963e+00  -2.0222148e+06
   1.4494832e-09  -5.3825823e-04   1.1201315e+00   1.0741841e+00  -2.0146599e+06
   1.4504835e-09  -5.3624667e-04   1.1200474e+00   1.0742717e+00  -2.0071331e+06
   1.4514838e-09  -5.3424262e-04   1.1199637e+00   1.0743589e+00  -1.9996345e+06
   1.4524842e-09  -5.3224606e-04   1.1198802e+00   1.0744458e+00  -1.9921639e+06
   1.4534845e-09  -5.3025695e-04   1.1197971e+00   1.0745323e+00  -1.9847211e+06
   1.4544848e-09  -5.2827528e-04   1.1197144e+00   1.0746186e+00  -1.9773062e+06
   1.4554852e-09  -5.2630101e-04   1.1196319e+00   1.0747045e+00  -1.9699190e+06
   1.4564855e-09  -5.2433412e-04   1.1195497e+00   1.0747902e+00  -1.9625593e+06
   1.4574858e-09  -5.2237458e-04   1.1194679e+00   1.0748755e+00  -1.9552271e+06
   1.4584862e-09  -5.2042235e-04   1.1193863e+00   1.0749605e+00  -1.9479223e+06
   1.4594865e-09  -5.1847742e-04   1.1193051e+00   1.0750451e+00  -1.9406448e+06
   1.4604868e-09  -5.1653976e-04   1.1192242e+00   1.0751295e+00  -1.9333945e+06
   1.4614872e-09  -5.1460934e-04   1.1191435e+00   1.0752136e+00  -1.9261712e+06
   1.4624875e-09  -5.1268612e-04   1.1190632e+00   1.0752973e+00  -1.9189749e+06
