   0.0000000e+00  -1.7231985e-01   6.2046657e+00   9.3158900e-06  -5.1736105e+08
   2.6675559e-12  -1.7094506e-01   6.1946012e+00   1.0350941e-05  -5.1354514e+08
   5.3351117e-12  -1.6958046e-01   6.1840994e+00   1.1491036e-05  -5.0972687e+08
   8.0026676e-12  -1.6822605e-01   6.1731479e+00   1.2745627e-05  -5.0590638e+08
   1.0670223e-11  -1.6688184e-01   6.1617344e+00   1.4124876e-05  -5.0208382e+08
   1.3337779e-11  -1.6554784e-01   6.1498467e+00   1.5639695e-05  -4.9825934e+08
   1.6005335e-11  -1.6422404e-01   6.1374729e+00   1.7301785e-05  -4.9443312e+08
   1.8672891e-11  -1.6291045e-01   6.1246012e+00   1.9123673e-05  -4.9060537e+08
   2.1340447e-11  -1.6160708e-01   6.1112200e+00   2.1118757e-05  -4.8677629e+08
   2.4008003e-11  -1.6031394e-01   6.0973179e+00   2.3301336e-05  -4.8294613e+08
   2.6675559e-11  -1.5903101e-01   6.0828842e+00   2.5686660e-05  -4.7911512e+08
   2.9343114e-11  -1.5775831e-01   6.0679081e+00   2.8290960e-05  -4.7528355e+08
   3.2010670e-11  -1.5649583e-01   6.0523795e+00   3.1131488e-05  -4.7145170e+08
   3.4678226e-11  -1.5524358e-01   6.0362886e+00   3.4226556e-05  -4.6761988e+08
   3.7345782e-11  -1.5400155e-01   6.0196262e+00   3.7595570e-05  -4.6378843e+08
   4.0013338e-11  -1.5276974e-01   6.0023834e+00   4.1259062e-05  -4.5995771e+08
   4.2680894e-11  -1.5154816e-01   5.9845522e+00   4.5238724e-05  -4.5612807e+08
   4.5348449e-11  -1.5033679e-01   5.9661250e+00   4.9557435e-05  -4.5229993e+08
   4.8016005e-11  -1.4913563e-01   5.9470948e+00   5.4239291e-05  -4.4847369e+08
   5.0683561e-11  -1.4794468e-01   5.9274555e+00   5.9309627e-05  -4.4464980e+08
   5.3351117e-11  -1.4676393e-01   5.9072016e+00   6.4795038e-05  -4.4082871e+08
   5.6018673e-11  -1.4559338e-01   5.8863285e+00   7.0723395e-05  -4.3701091e+08
   5.8686229e-11  -1.4443300e-01   5.8648321e+00   7.7123860e-05  -4.3319689e+08
   6.1353785e-11  -1.4328279e-01   5.8427094e+00   8.4026896e-05  -4.2938717e+08
   6.4021340e-11  -1.4214274e-01   5.8199583e+00   9.1464268e-05  -4.2558230e+08
   6.6688896e-11  -1.4101284e-01   5.7965774e+00   9.9469048e-05  -4.2178285e+08
   6.9356452e-11  -1.3989307e-01   5.7725665e+00   1.0807561e-04  -4.1798938e+08
   7.2024008e-11  -1.3878340e-01   5.7479259e+00   1.1731960e-04  -4.1420250e+08
   7.4691564e-11  -1.3768383e-01   5.7226574e+00   1.2723797e-04  -4.1042282e+08
   7.7359120e-11  -1.3659434e-01   5.6967633e+00   1.3786890e-04  -4.0665098e+08
   8.0026676e-11  -1.3551490e-01   5.6702473e+00   1.4925181e-04  -4.0288763e+08
   8.2694231e-11  -1.3444548e-01   5.6431137e+00   1.6142730e-04  -3.9913342e+08
   8.5361787e-11  -1.3338606e-01   5.6153682e+00   1.7443715e-04  -3.9538905e+08
   8.8029343e-11  -1.3233663e-01   5.5870172e+00   1.8832424e-04  -3.9165518e+08
   9.0696899e-11  -1.3129713e-01   5.5580682e+00   2.0313251e-04  -3.8793254e+08
   9.3364455e-11  -1.3026755e-01   5.5285297e+00   2.1890692e-04  -3.8422183e+08
   9.6032011e-11  -1.2924786e-01   5.4984113e+00   2.3569339e-04  -3.8052376e+08
   9.8699567e-11  -1.2823801e-01   5.4677232e+00   2.5353870e-04  -3.7683907e+08
   1.0136712e-10  -1.2723797e-01   5.4364769e+00   2.7249048e-04  -3.7316849e+08
   1.0403468e-10  -1.2624770e-01   5.4046848e+00   2.9259707e-04  -3.6951276e+08
   1.0670223e-10  -1.2526716e-01   5.3723599e+00   3.1390750e-04  -3.6587260e+08
   1.0936979e-10  -1.2429631e-01   5.3395163e+00   3.3647136e-04  -3.6224878e+08
   1.1203735e-10  -1.2333510e-01   5.3061688e+00   3.6033875e-04  -3.5864201e+08
   1.1470490e-10  -1.2238349e-01   5.2723332e+00   3.8556016e-04  -3.5505305e+08
   1.1737246e-10  -1.2144142e-01   5.2380256e+00   4.1218642e-04  -3.5148261e+08
   1.2004001e-10  -1.2050886e-01   5.2032633e+00   4.4026855e-04  -3.4793144e+08
   1.2270757e-10  -1.1958573e-01   5.1680640e+00   4.6985771e-04  -3.4440025e+08
   1.2537513e-10  -1.1867200e-01   5.1324458e+00   5.0100508e-04  -3.4088975e+08
   1.2804268e-10  -1.1776760e-01   5.0964278e+00   5.3376178e-04  -3.3740064e+08
   1.3071024e-10  -1.1687248e-01   5.0600292e+00   5.6817876e-04  -3.3393361e+08
   1.3337779e-10  -1.1598658e-01   5.0232699e+00   6.0430669e-04  -3.3048933e+08
   1.3604535e-10  -1.1510982e-01   4.9861700e+00   6.4219591e-04  -3.2706847e+08
   1.3871290e-10  -1.1424216e-01   4.9487500e+00   6.8189627e-04  -3.2367166e+08
   1.4138046e-10  -1.1338353e-01   4.9110307e+00   7.2345709e-04  -3.2029953e+08
   1.4404802e-10  -1.1253385e-01   4.8730332e+00   7.6692706e-04  -3.1695269e+08
   1.4671557e-10  -1.1169306e-01   4.8347785e+00   8.1235413e-04  -3.1363172e+08
   1.4938313e-10  -1.1086110e-01   4.7962879e+00   8.5978545e-04  -3.1033718e+08
   1.5205068e-10  -1.1003788e-01   4.7575827e+00   9.0926726e-04  -3.0706962e+08
   1.5471824e-10  -1.0922334e-01   4.7186844e+00   9.6084485e-04  -3.0382955e+08
   1.5738580e-10  -1.0841740e-01   4.6796140e+00   1.0145625e-03  -3.0061747e+08
   1.6005335e-10  -1.0761999e-01   4.6403929e+00   1.0704633e-03  -2.9743383e+08
   1.6272091e-10  -1.0683103e-01   4.6010420e+00   1.1285892e-03  -2.9427910e+08
   1.6538846e-10  -1.0605044e-01   4.5615822e+00   1.1889809e-03  -2.9115367e+08
   1.6805602e-10  -1.0527815e-01   4.5220339e+00   1.2516780e-03  -2.8805794e+08
   1.7072357e-10  -1.0451407e-01   4.4824177e+00   1.3167186e-03  -2.8499227e+08
   1.7339113e-10  -1.0375812e-01   4.4427533e+00   1.3841393e-03  -2.8195699e+08
   1.7605869e-10  -1.0301023e-01   4.4030606e+00   1.4539755e-03  -2.7895241e+08
   1.7872624e-10  -1.0227030e-01   4.3633587e+00   1.5262612e-03  -2.7597880e+08
   1.8139380e-10  -1.0153827e-01   4.3236664e+00   1.6010286e-03  -2.7303642e+08
   1.8406135e-10  -1.0081403e-01   4.2840022e+00   1.6783088e-03  -2.7012549e+08
   1.8672891e-10  -1.0009751e-01   4.2443839e+00   1.7581312e-03  -2.6724620e+08
   1.8939647e-10  -9.9388634e-02   4.2048291e+00   1.8405235e-03  -2.6439872e+08
   1.9206402e-10  -9.8687302e-02   4.1653545e+00   1.9255122e-03  -2.6158318e+08
   1.9473158e-10  -9.7993433e-02   4.1259766e+00   2.0131221e-03  -2.5879971e+08
   1.9739913e-10  -9.7306943e-02   4.0867111e+00   2.1033765e-03  -2.5604839e+08
   2.0006669e-10  -9.6627746e-02   4.0475734e+00   2.1962971e-03  -2.5332928e+08
   2.0273424e-10  -9.5955754e-02   4.0085782e+00   2.2919041e-03  -2.5064241e+08
   2.0540180e-10  -9.5290883e-02   3.9697396e+00   2.3902162e-03  -2.4798780e+08
   2.0806936e-10  -9.4633047e-02   3.9310710e+00   2.4912508e-03  -2.4536544e+08
   2.1073691e-10  -9.3982159e-02   3.8925855e+00   2.5950234e-03  -2.4277529e+08
   2.1340447e-10  -9.3338133e-02   3.8542955e+00   2.7015484e-03  -2.4021729e+08
   2.1607202e-10  -9.2700884e-02   3.8162126e+00   2.8108387e-03  -2.3769136e+08
   2.1873958e-10  -9.2070327e-02   3.7783482e+00   2.9229058e-03  -2.3519742e+08
   2.2140714e-10  -9.1446377e-02   3.7407128e+00   3.0377597e-03  -2.3273532e+08
   2.2407469e-10  -9.0828948e-02   3.7033165e+00   3.1554092e-03  -2.3030495e+08
   2.2674225e-10  -9.0217956e-02   3.6661686e+00   3.2758618e-03  -2.2790613e+08
   2.2940980e-10  -8.9613318e-02   3.6292783e+00   3.3991236e-03  -2.2553870e+08
   2.3207736e-10  -8.9014949e-02   3.5926537e+00   3.5251996e-03  -2.2320247e+08
   2.3474491e-10  -8.8422768e-02   3.5563028e+00   3.6540935e-03  -2.2089723e+08
   2.3741247e-10  -8.7836692e-02   3.5202329e+00   3.7858079e-03  -2.1862276e+08
   2.4008003e-10  -8.7256639e-02   3.4844506e+00   3.9203443e-03  -2.1637882e+08
   2.4274758e-10  -8.6682527e-02   3.4489623e+00   4.0577030e-03  -2.1416518e+08
   2.4541514e-10  -8.6114277e-02   3.4137738e+00   4.1978834e-03  -2.1198157e+08
   2.4808269e-10  -8.5551809e-02   3.3788903e+00   4.3408837e-03  -2.0982772e+08
   2.5075025e-10  -8.4995044e-02   3.3443167e+00   4.4867014e-03  -2.0770335e+08
   2.5341781e-10  -8.4443904e-02   3.3100575e+00   4.6353327e-03  -2.0560817e+08
   2.5608536e-10  -8.3898311e-02   3.2761165e+00   4.7867733e-03  -2.0354188e+08
   2.5875292e-10  -8.3358188e-02   3.2424974e+00   4.9410177e-03  -2.0150419e+08
   2.6142047e-10  -8.2823461e-02   3.2092032e+00   5.0980599e-03  -1.9949476e+08
   2.6408803e-10  -8.2294053e-02   3.1762367e+00   5.2578930e-03  -1.9751329e+08
   2.6675559e-10  -8.1769891e-02   3.1436003e+00   5.4205091e-03  -1.9555945e+08
   2.6942314e-10  -8.1250902e-02   3.1112960e+00   5.5859000e-03  -1.9363290e+08
   2.7209070e-10  -8.0737014e-02   3.0793255e+00   5.7540565e-03  -1.9173331e+08
   2.7475825e-10  -8.0228154e-02   3.0476902e+00   5.9249691e-03  -1.8986035e+08
   2.7742581e-10  -7.9724253e-02   3.0163910e+00   6.0986273e-03  -1.8801366e+08
   2.8009336e-10  -7.9225241e-02   2.9854289e+00   6.2750203e-03  -1.8619291e+08
   2.8276092e-10  -7.8731049e-02   2.9548041e+00   6.4541367e-03  -1.8439774e+08
   2.8542848e-10  -7.8241609e-02   2.9245169e+00   6.6359646e-03  -1.8262782e+08
   2.8809603e-10  -7.7756856e-02   2.8945673e+00   6.8204915e-03  -1.8088277e+08
   2.9076359e-10  -7.7276722e-02   2.8649549e+00   7.0077045e-03  -1.7916227e+08
   2.9343114e-10  -7.6801143e-02   2.8356793e+00   7.1975905e-03  -1.7746595e+08
   2.9609870e-10  -7.6330055e-02   2.8067395e+00   7.3901355e-03  -1.7579346e+08
   2.9876626e-10  -7.5863395e-02   2.7781348e+00   7.5853257e-03  -1.7414446e+08
   3.0143381e-10  -7.5401100e-02   2.7498639e+00   7.7831466e-03  -1.7251858e+08
   3.0410137e-10  -7.4943111e-02   2.7219256e+00   7.9835834e-03  -1.7091550e+08
   3.0676892e-10  -7.4489365e-02   2.6943182e+00   8.1866211e-03  -1.6933485e+08
   3.0943648e-10  -7.4039805e-02   2.6670402e+00   8.3922444e-03  -1.6777629e+08
   3.1210403e-10  -7.3594371e-02   2.6400898e+00   8.6004376e-03  -1.6623948e+08
   3.1477159e-10  -7.3153006e-02   2.6134649e+00   8.8111849e-03  -1.6472407e+08
   3.1743915e-10  -7.2715654e-02   2.5871636e+00   9.0244702e-03  -1.6322974e+08
   3.2010670e-10  -7.2282258e-02   2.5611836e+00   9.2402773e-03  -1.6175614e+08
   3.2277426e-10  -7.1852764e-02   2.5355227e+00   9.4585898e-03  -1.6030294e+08
   3.2544181e-10  -7.1427119e-02   2.5101783e+00   9.6793909e-03  -1.5886982e+08
   3.2810937e-10  -7.1005268e-02   2.4851481e+00   9.9026639e-03  -1.5745644e+08
   3.3077693e-10  -7.0587160e-02   2.4604294e+00   1.0128392e-02  -1.5606248e+08
   3.3344448e-10  -7.0172743e-02   2.4360195e+00   1.0356558e-02  -1.5468763e+08
   3.3611204e-10  -6.9761967e-02   2.4119157e+00   1.0587144e-02  -1.5333156e+08
   3.3877959e-10  -6.9354783e-02   2.3881152e+00   1.0820134e-02  -1.5199397e+08
   3.4144715e-10  -6.8951140e-02   2.3646151e+00   1.1055510e-02  -1.5067455e+08
   3.4411470e-10  -6.8550993e-02   2.3414125e+00   1.1293255e-02  -1.4937300e+08
   3.4678226e-10  -6.8154292e-02   2.3185045e+00   1.1533351e-02  -1.4808901e+08
   3.4944982e-10  -6.7760992e-02   2.2958879e+00   1.1775780e-02  -1.4682230e+08
   3.5211737e-10  -6.7371047e-02   2.2735598e+00   1.2020526e-02  -1.4557256e+08
   3.5478493e-10  -6.6984413e-02   2.2515170e+00   1.2267569e-02  -1.4433951e+08
   3.5745248e-10  -6.6601044e-02   2.2297565e+00   1.2516893e-02  -1.4312288e+08
   3.6012004e-10  -6.6220898e-02   2.2082752e+00   1.2768480e-02  -1.4192237e+08
   3.6278760e-10  -6.5843933e-02   2.1870698e+00   1.3022311e-02  -1.4073772e+08
   3.6545515e-10  -6.5470105e-02   2.1661372e+00   1.3278370e-02  -1.3956866e+08
   3.6812271e-10  -6.5099375e-02   2.1454743e+00   1.3536639e-02  -1.3841491e+08
   3.7079026e-10  -6.4731701e-02   2.1250778e+00   1.3797099e-02  -1.3727623e+08
   3.7345782e-10  -6.4367043e-02   2.1049445e+00   1.4059733e-02  -1.3615234e+08
   3.7612538e-10  -6.4005364e-02   2.0850713e+00   1.4324524e-02  -1.3504301e+08
   3.7879293e-10  -6.3646623e-02   2.0654550e+00   1.4591453e-02  -1.3394797e+08
   3.8146049e-10  -6.3290784e-02   2.0460923e+00   1.4860502e-02  -1.3286699e+08
   3.8412804e-10  -6.2937809e-02   2.0269801e+00   1.5131655e-02  -1.3179983e+08
   3.8679560e-10  -6.2587662e-02   2.0081153e+00   1.5404893e-02  -1.3074624e+08
   3.8946315e-10  -6.2240307e-02   1.9894946e+00   1.5680199e-02  -1.2970600e+08
   3.9213071e-10  -6.1895708e-02   1.9711149e+00   1.5957555e-02  -1.2867888e+08
   3.9479827e-10  -6.1553831e-02   1.9529731e+00   1.6236944e-02  -1.2766466e+08
   3.9746582e-10  -6.1214642e-02   1.9350660e+00   1.6518348e-02  -1.2666311e+08
   4.0013338e-10  -6.0878107e-02   1.9173906e+00   1.6801750e-02  -1.2567402e+08
   4.0280093e-10  -6.0544194e-02   1.8999438e+00   1.7087131e-02  -1.2469718e+08
   4.0546849e-10  -6.0212869e-02   1.8827225e+00   1.7374476e-02  -1.2373238e+08
   4.0813605e-10  -5.9884102e-02   1.8657237e+00   1.7663767e-02  -1.2277942e+08
   4.1080360e-10  -5.9557860e-02   1.8489444e+00   1.7954986e-02  -1.2183809e+08
   4.1347116e-10  -5.9234114e-02   1.8323815e+00   1.8248115e-02  -1.2090820e+08
   4.1613871e-10  -5.8912833e-02   1.8160322e+00   1.8543139e-02  -1.1998955e+08
   4.1880627e-10  -5.8593987e-02   1.7998934e+00   1.8840040e-02  -1.1908196e+08
   4.2147382e-10  -5.8277546e-02   1.7839624e+00   1.9138801e-02  -1.1818524e+08
   4.2414138e-10  -5.7963483e-02   1.7682361e+00   1.9439404e-02  -1.1729921e+08
   4.2680894e-10  -5.7651769e-02   1.7527119e+00   1.9741834e-02  -1.1642369e+08
   4.2947649e-10  -5.7342376e-02   1.7373867e+00   2.0046073e-02  -1.1555851e+08
   4.3214405e-10  -5.7035277e-02   1.7222579e+00   2.0352104e-02  -1.1470348e+08
   4.3481160e-10  -5.6730445e-02   1.7073227e+00   2.0659911e-02  -1.1385845e+08
   4.3747916e-10  -5.6427853e-02   1.6925783e+00   2.0969476e-02  -1.1302324e+08
   4.4014672e-10  -5.6127476e-02   1.6780221e+00   2.1280784e-02  -1.1219770e+08
   4.4281427e-10  -5.5829288e-02   1.6636513e+00   2.1593818e-02  -1.1138166e+08
   4.4548183e-10  -5.5533264e-02   1.6494634e+00   2.1908562e-02  -1.1057498e+08
   4.4814938e-10  -5.5239379e-02   1.6354558e+00   2.2224998e-02  -1.0977749e+08
   4.5081694e-10  -5.4947609e-02   1.6216258e+00   2.2543112e-02  -1.0898904e+08
   4.5348449e-10  -5.4657929e-02   1.6079710e+00   2.2862885e-02  -1.0820950e+08
   4.5615205e-10  -5.4370317e-02   1.5944888e+00   2.3184303e-02  -1.0743871e+08
   4.5881961e-10  -5.4084750e-02   1.5811768e+00   2.3507349e-02  -1.0667653e+08
   4.6148716e-10  -5.3801204e-02   1.5680324e+00   2.3832007e-02  -1.0592282e+08
   4.6415472e-10  -5.3519657e-02   1.5550534e+00   2.4158262e-02  -1.0517745e+08
   4.6682227e-10  -5.3240087e-02   1.5422372e+00   2.4486096e-02  -1.0444028e+08
   4.6948983e-10  -5.2962472e-02   1.5295817e+00   2.4815495e-02  -1.0371119e+08
   4.7215739e-10  -5.2686791e-02   1.5170844e+00   2.5146442e-02  -1.0299004e+08
   4.7482494e-10  -5.2413023e-02   1.5047431e+00   2.5478922e-02  -1.0227670e+08
   4.7749250e-10  -5.2141147e-02   1.4925554e+00   2.5812920e-02  -1.0157106e+08
   4.8016005e-10  -5.1871144e-02   1.4805193e+00   2.6148419e-02  -1.0087300e+08
   4.8282761e-10  -5.1602992e-02   1.4686325e+00   2.6485403e-02  -1.0018238e+08
   4.8549517e-10  -5.1336672e-02   1.4568929e+00   2.6823859e-02  -9.9499106e+07
   4.8816272e-10  -5.1072165e-02   1.4452983e+00   2.7163770e-02  -9.8823052e+07
   4.9083028e-10  -5.0809452e-02   1.4338466e+00   2.7505120e-02  -9.8154108e+07
   4.9349783e-10  -5.0548514e-02   1.4225357e+00   2.7847896e-02  -9.7492165e+07
   4.9616539e-10  -5.0289332e-02   1.4113637e+00   2.8192080e-02  -9.6837113e+07
   4.9883294e-10  -5.0031888e-02   1.4003285e+00   2.8537659e-02  -9.6188849e+07
   5.0150050e-10  -4.9776164e-02   1.3894282e+00   2.8884618e-02  -9.5547267e+07
   5.0416806e-10  -4.9522142e-02   1.3786607e+00   2.9232940e-02  -9.4912265e+07
   5.0683561e-10  -4.9269806e-02   1.3680242e+00   2.9582612e-02  -9.4283745e+07
   5.0950317e-10  -4.9019137e-02   1.3575168e+00   2.9933618e-02  -9.3661608e+07
   5.1217072e-10  -4.8770120e-02   1.3471367e+00   3.0285944e-02  -9.3045757e+07
   5.1483828e-10  -4.8522736e-02   1.3368819e+00   3.0639575e-02  -9.2436099e+07
   5.1750584e-10  -4.8276971e-02   1.3267507e+00   3.0994496e-02  -9.1832541e+07
   5.2017339e-10  -4.8032807e-02   1.3167413e+00   3.1350692e-02  -9.1234992e+07
   5.2284095e-10  -4.7790230e-02   1.3068519e+00   3.1708150e-02  -9.0643363e+07
   5.2550850e-10  -4.7549222e-02   1.2970809e+00   3.2066854e-02  -9.0057566e+07
   5.2817606e-10  -4.7309770e-02   1.2874265e+00   3.2426790e-02  -8.9477517e+07
   5.3084361e-10  -4.7071857e-02   1.2778871e+00   3.2787944e-02  -8.8903130e+07
   5.3351117e-10  -4.6835468e-02   1.2684609e+00   3.3150301e-02  -8.8334323e+07
   5.3617873e-10  -4.6600590e-02   1.2591465e+00   3.3513847e-02  -8.7771015e+07
   5.3884628e-10  -4.6367206e-02   1.2499421e+00   3.3878569e-02  -8.7213126e+07
   5.4151384e-10  -4.6135304e-02   1.2408463e+00   3.4244451e-02  -8.6660579e+07
   5.4418139e-10  -4.5904868e-02   1.2318574e+00   3.4611480e-02  -8.6113297e+07
   5.4684895e-10  -4.5675885e-02   1.2229740e+00   3.4979641e-02  -8.5571205e+07
   5.4951651e-10  -4.5448341e-02   1.2141946e+00   3.5348921e-02  -8.5034228e+07
   5.5218406e-10  -4.5222223e-02   1.2055176e+00   3.5719307e-02  -8.4502295e+07
   5.5485162e-10  -4.4997517e-02   1.1969416e+00   3.6090783e-02  -8.3975333e+07
   5.5751917e-10  -4.4774210e-02   1.1884652e+00   3.6463336e-02  -8.3453274e+07
   5.6018673e-10  -4.4552289e-02   1.1800870e+00   3.6836953e-02  -8.2936049e+07
   5.6285428e-10  -4.4331741e-02   1.1718055e+00   3.7211620e-02  -8.2423591e+07
   5.6552184e-10  -4.4112554e-02   1.1636195e+00   3.7587323e-02  -8.1915832e+07
   5.6818940e-10  -4.3894715e-02   1.1555276e+00   3.7964048e-02  -8.1412710e+07
   5.7085695e-10  -4.3678212e-02   1.1475285e+00   3.8341783e-02  -8.0914159e+07
   5.7352451e-10  -4.3463033e-02   1.1396208e+00   3.8720514e-02  -8.0420117e+07
   5.7619206e-10  -4.3249165e-02   1.1318033e+00   3.9100227e-02  -7.9930523e+07
   5.7885962e-10  -4.3036598e-02   1.1240747e+00   3.9480909e-02  -7.9445316e+07
   5.8152718e-10  -4.2825319e-02   1.1164337e+00   3.9862547e-02  -7.8964437e+07
   5.8419473e-10  -4.2615317e-02   1.1088793e+00   4.0245127e-02  -7.8487828e+07
   5.8686229e-10  -4.2406581e-02   1.1014100e+00   4.0628637e-02  -7.8015431e+07
   5.8952984e-10  -4.2199099e-02   1.0940249e+00   4.1013063e-02  -7.7547191e+07
   5.9219740e-10  -4.1992860e-02   1.0867226e+00   4.1398392e-02  -7.7083053e+07
   5.9486495e-10  -4.1787855e-02   1.0795021e+00   4.1784612e-02  -7.6622961e+07
   5.9753251e-10  -4.1584071e-02   1.0723623e+00   4.2171709e-02  -7.6166863e+07
   6.0020007e-10  -4.1381498e-02   1.0653019e+00   4.2559670e-02  -7.5714706e+07
   6.0286762e-10  -4.1180127e-02   1.0583200e+00   4.2948483e-02  -7.5266439e+07
   6.0553518e-10  -4.0979946e-02   1.0514154e+00   4.3338135e-02  -7.4822011e+07
   6.0820273e-10  -4.0780945e-02   1.0445871e+00   4.3728613e-02  -7.4381373e+07
   6.1087029e-10  -4.0583115e-02   1.0378340e+00   4.4119905e-02  -7.3944476e+07
   6.1353785e-10  -4.0386445e-02   1.0311552e+00   4.4511997e-02  -7.3511271e+07
   6.1620540e-10  -4.0190925e-02   1.0245495e+00   4.4904878e-02  -7.3081713e+07
   6.1887296e-10  -3.9996547e-02   1.0180161e+00   4.5298535e-02  -7.2655753e+07
   6.2154051e-10  -3.9803300e-02   1.0115538e+00   4.5692955e-02  -7.2233348e+07
   6.2420807e-10  -3.9611176e-02   1.0051619e+00   4.6088125e-02  -7.1814451e+07
   6.2687563e-10  -3.9420164e-02   9.9883925e-01   4.6484035e-02  -7.1399019e+07
   6.2954318e-10  -3.9230255e-02   9.9258499e-01   4.6880671e-02  -7.0987009e+07
   6.3221074e-10  -3.9041441e-02   9.8639819e-01   4.7278021e-02  -7.0578378e+07
   6.3487829e-10  -3.8853713e-02   9.8027795e-01   4.7676073e-02  -7.0173084e+07
   6.3754585e-10  -3.8667061e-02   9.7422336e-01   4.8074815e-02  -6.9771086e+07
   6.4021340e-10  -3.8481477e-02   9.6823357e-01   4.8474234e-02  -6.9372343e+07
   6.4288096e-10  -3.8296953e-02   9.6230769e-01   4.8874319e-02  -6.8976816e+07
   6.4554852e-10  -3.8113479e-02   9.5644488e-01   4.9275058e-02  -6.8584466e+07
   6.4821607e-10  -3.7931048e-02   9.5064430e-01   4.9676439e-02  -6.8195254e+07
   6.5088363e-10  -3.7749651e-02   9.4490513e-01   5.0078450e-02  -6.7809142e+07
   6.5355118e-10  -3.7569279e-02   9.3922656e-01   5.0481079e-02  -6.7426094e+07
   6.5621874e-10  -3.7389926e-02   9.3360778e-01   5.0884314e-02  -6.7046071e+07
   6.5888630e-10  -3.7211582e-02   9.2804801e-01   5.1288144e-02  -6.6669039e+07
   6.6155385e-10  -3.7034239e-02   9.2254647e-01   5.1692557e-02  -6.6294961e+07
   6.6422141e-10  -3.6857891e-02   9.1710240e-01   5.2097541e-02  -6.5923804e+07
   6.6688896e-10  -3.6682529e-02   9.1171506e-01   5.2503086e-02  -6.5555532e+07
   6.6955652e-10  -3.6508145e-02   9.0638369e-01   5.2909179e-02  -6.5190112e+07
   6.7222407e-10  -3.6334733e-02   9.0110757e-01   5.3315809e-02  -6.4827510e+07
   6.7489163e-10  -3.6162284e-02   8.9588598e-01   5.3722964e-02  -6.4467694e+07
   6.7755919e-10  -3.5990791e-02   8.9071822e-01   5.4130634e-02  -6.4110632e+07
   6.8022674e-10  -3.5820247e-02   8.8560359e-01   5.4538806e-02  -6.3756292e+07
   6.8289430e-10  -3.5650644e-02   8.8054140e-01   5.4947471e-02  -6.3404643e+07
   6.8556185e-10  -3.5481976e-02   8.7553099e-01   5.5356616e-02  -6.3055653e+07
   6.8822941e-10  -3.5314235e-02   8.7057167e-01   5.5766230e-02  -6.2709294e+07
   6.9089697e-10  -3.5147415e-02   8.6566281e-01   5.6176303e-02  -6.2365535e+07
   6.9356452e-10  -3.4981508e-02   8.6080376e-01   5.6586823e-02  -6.2024346e+07
   6.9623208e-10  -3.4816508e-02   8.5599387e-01   5.6997780e-02  -6.1685700e+07
   6.9889963e-10  -3.4652408e-02   8.5123253e-01   5.7409162e-02  -6.1349567e+07
   7.0156719e-10  -3.4489201e-02   8.4651912e-01   5.7820958e-02  -6.1015920e+07
   7.0423474e-10  -3.4326881e-02   8.4185303e-01   5.8233159e-02  -6.0684731e+07
   7.0690230e-10  -3.4165441e-02   8.3723367e-01   5.8645752e-02  -6.0355973e+07
   7.0956986e-10  -3.4004875e-02   8.3266044e-01   5.9058728e-02  -6.0029619e+07
   7.1223741e-10  -3.3845176e-02   8.2813276e-01   5.9472075e-02  -5.9705644e+07
   7.1490497e-10  -3.3686339e-02   8.2365007e-01   5.9885783e-02  -5.9384020e+07
   7.1757252e-10  -3.3528356e-02   8.1921180e-01   6.0299842e-02  -5.9064724e+07
   7.2024008e-10  -3.3371222e-02   8.1481740e-01   6.0714241e-02  -5.8747729e+07
   7.2290764e-10  -3.3214930e-02   8.1046632e-01   6.1128970e-02  -5.8433011e+07
   7.2557519e-10  -3.3059475e-02   8.0615802e-01   6.1544018e-02  -5.8120545e+07
   7.2824275e-10  -3.2904850e-02   8.0189197e-01   6.1959374e-02  -5.7810308e+07
   7.3091030e-10  -3.2751050e-02   7.9766765e-01   6.2375029e-02  -5.7502276e+07
   7.3357786e-10  -3.2598068e-02   7.9348454e-01   6.2790973e-02  -5.7196425e+07
   7.3624542e-10  -3.2445900e-02   7.8934215e-01   6.3207194e-02  -5.6892733e+07
   7.3891297e-10  -3.2294539e-02   7.8523996e-01   6.3623684e-02  -5.6591177e+07
   7.4158053e-10  -3.2143979e-02   7.8117748e-01   6.4040431e-02  -5.6291735e+07
   7.4424808e-10  -3.1994216e-02   7.7715423e-01   6.4457426e-02  -5.5994384e+07
   7.4691564e-10  -3.1845243e-02   7.7316974e-01   6.4874659e-02  -5.5699103e+07
   7.4958319e-10  -3.1697054e-02   7.6922352e-01   6.5292121e-02  -5.5405871e+07
   7.5225075e-10  -3.1549646e-02   7.6531512e-01   6.5709800e-02  -5.5114667e+07
   7.5491831e-10  -3.1403011e-02   7.6144408e-01   6.6127688e-02  -5.4825470e+07
   7.5758586e-10  -3.1257145e-02   7.5760995e-01   6.6545774e-02  -5.4538259e+07
   7.6025342e-10  -3.1112043e-02   7.5381228e-01   6.6964049e-02  -5.4253014e+07
   7.6292097e-10  -3.0967699e-02   7.5005063e-01   6.7382503e-02  -5.3969717e+07
   7.6558853e-10  -3.0824108e-02   7.4632457e-01   6.7801126e-02  -5.3688346e+07
   7.6825609e-10  -3.0681265e-02   7.4263368e-01   6.8219910e-02  -5.3408883e+07
   7.7092364e-10  -3.0539165e-02   7.3897754e-01   6.8638844e-02  -5.3131308e+07
   7.7359120e-10  -3.0397803e-02   7.3535573e-01   6.9057919e-02  -5.2855603e+07
   7.7625875e-10  -3.0257174e-02   7.3176785e-01   6.9477126e-02  -5.2581750e+07
   7.7892631e-10  -3.0117273e-02   7.2821349e-01   6.9896455e-02  -5.2309730e+07
   7.8159386e-10  -2.9978095e-02   7.2469225e-01   7.0315898e-02  -5.2039525e+07
   7.8426142e-10  -2.9839635e-02   7.2120376e-01   7.0735443e-02  -5.1771118e+07
   7.8692898e-10  -2.9701890e-02   7.1774762e-01   7.1155084e-02  -5.1504490e+07
   7.8959653e-10  -2.9564853e-02   7.1432345e-01   7.1574810e-02  -5.1239625e+07
   7.9226409e-10  -2.9428520e-02   7.1093088e-01   7.1994612e-02  -5.0976506e+07
   7.9493164e-10  -2.9292887e-02   7.0756953e-01   7.2414482e-02  -5.0715116e+07
   7.9759920e-10  -2.9157948e-02   7.0423906e-01   7.2834409e-02  -5.0455438e+07
   8.0026676e-10  -2.9023700e-02   7.0093909e-01   7.3254387e-02  -5.0197456e+07
   8.0293431e-10  -2.8890139e-02   6.9766927e-01   7.3674405e-02  -4.9941154e+07
   8.0560187e-10  -2.8757258e-02   6.9442926e-01   7.4094454e-02  -4.9686516e+07
   8.0826942e-10  -2.8625055e-02   6.9121871e-01   7.4514526e-02  -4.9433526e+07
   8.1093698e-10  -2.8493524e-02   6.8803728e-01   7.4934613e-02  -4.9182169e+07
   8.1360453e-10  -2.8362662e-02   6.8488464e-01   7.5354705e-02  -4.8932429e+07
   8.1627209e-10  -2.8232463e-02   6.8176045e-01   7.5774794e-02  -4.8684292e+07
   8.1893965e-10  -2.8102925e-02   6.7866440e-01   7.6194872e-02  -4.8437743e+07
   8.2160720e-10  -2.7974042e-02   6.7559616e-01   7.6614929e-02  -4.8192766e+07
   8.2427476e-10  -2.7845810e-02   6.7255541e-01   7.7034958e-02  -4.7949348e+07
   8.2694231e-10  -2.7718226e-02   6.6954185e-01   7.7454950e-02  -4.7707474e+07
   8.2960987e-10  -2.7591285e-02   6.6655516e-01   7.7874896e-02  -4.7467131e+07
   8.3227743e-10  -2.7464983e-02   6.6359505e-01   7.8294789e-02  -4.7228303e+07
   8.3494498e-10  -2.7339316e-02   6.6066121e-01   7.8714620e-02  -4.6990977e+07
   8.3761254e-10  -2.7214280e-02   6.5775334e-01   7.9134381e-02  -4.6755141e+07
   8.4028009e-10  -2.7089871e-02   6.5487117e-01   7.9554063e-02  -4.6520780e+07
   8.4294765e-10  -2.6966086e-02   6.5201439e-01   7.9973659e-02  -4.6287881e+07
   8.4561521e-10  -2.6842919e-02   6.4918272e-01   8.0393161e-02  -4.6056431e+07
   8.4828276e-10  -2.6720369e-02   6.4637589e-01   8.0812560e-02  -4.5826417e+07
   8.5095032e-10  -2.6598430e-02   6.4359363e-01   8.1231849e-02  -4.5597827e+07
   8.5361787e-10  -2.6477098e-02   6.4083565e-01   8.1651020e-02  -4.5370648e+07
   8.5628543e-10  -2.6356371e-02   6.3810168e-01   8.2070065e-02  -4.5144868e+07
   8.5895298e-10  -2.6236245e-02   6.3539148e-01   8.2488976e-02  -4.4920474e+07
   8.6162054e-10  -2.6116715e-02   6.3270477e-01   8.2907746e-02  -4.4697454e+07
   8.6428810e-10  -2.5997778e-02   6.3004129e-01   8.3326366e-02  -4.4475796e+07
   8.6695565e-10  -2.5879431e-02   6.2740079e-01   8.3744830e-02  -4.4255489e+07
   8.6962321e-10  -2.5761669e-02   6.2478302e-01   8.4163129e-02  -4.4036520e+07
   8.7229076e-10  -2.5644490e-02   6.2218774e-01   8.4581256e-02  -4.3818879e+07
   8.7495832e-10  -2.5527890e-02   6.1961469e-01   8.4999203e-02  -4.3602554e+07
   8.7762588e-10  -2.5411865e-02   6.1706364e-01   8.5416964e-02  -4.3387534e+07
   8.8029343e-10  -2.5296412e-02   6.1453435e-01   8.5834531e-02  -4.3173807e+07
   8.8296099e-10  -2.5181527e-02   6.1202658e-01   8.6251896e-02  -4.2961363e+07
   8.8562854e-10  -2.5067207e-02   6.0954010e-01   8.6669053e-02  -4.2750191e+07
   8.8829610e-10  -2.4953449e-02   6.0707468e-01   8.7085993e-02  -4.2540280e+07
   8.9096365e-10  -2.4840250e-02   6.0463011e-01   8.7502710e-02  -4.2331619e+07
   8.9363121e-10  -2.4727605e-02   6.0220614e-01   8.7919197e-02  -4.2124199e+07
   8.9629877e-10  -2.4615511e-02   5.9980257e-01   8.8335447e-02  -4.1918008e+07
   8.9896632e-10  -2.4503967e-02   5.9741918e-01   8.8751452e-02  -4.1713037e+07
   9.0163388e-10  -2.4392967e-02   5.9505575e-01   8.9167207e-02  -4.1509276e+07
   9.0430143e-10  -2.4282509e-02   5.9271207e-01   8.9582702e-02  -4.1306714e+07
   9.0696899e-10  -2.4172590e-02   5.9038793e-01   8.9997933e-02  -4.1105342e+07
   9.0963655e-10  -2.4063207e-02   5.8808313e-01   9.0412892e-02  -4.0905150e+07
   9.1230410e-10  -2.3954356e-02   5.8579746e-01   9.0827573e-02  -4.0706129e+07
   9.1497166e-10  -2.3846034e-02   5.8353072e-01   9.1241968e-02  -4.0508268e+07
   9.1763921e-10  -2.3738239e-02   5.8128271e-01   9.1656071e-02  -4.0311559e+07
   9.2030677e-10  -2.3630967e-02   5.7905325e-01   9.2069875e-02  -4.0115992e+07
   9.2297432e-10  -2.3524215e-02   5.7684212e-01   9.2483374e-02  -3.9921559e+07
   9.2564188e-10  -2.3417980e-02   5.7464915e-01   9.2896562e-02  -3.9728249e+07
   9.2830944e-10  -2.3312260e-02   5.7247415e-01   9.3309432e-02  -3.9536055e+07
   9.3097699e-10  -2.3207050e-02   5.7031692e-01   9.3721977e-02  -3.9344967e+07
   9.3364455e-10  -2.3102349e-02   5.6817729e-01   9.4134191e-02  -3.9154976e+07
   9.3631210e-10  -2.2998153e-02   5.6605507e-01   9.4546068e-02  -3.8966075e+07
   9.3897966e-10  -2.2894460e-02   5.6395009e-01   9.4957602e-02  -3.8778253e+07
   9.4164722e-10  -2.2791266e-02   5.6186216e-01   9.5368786e-02  -3.8591504e+07
   9.4431477e-10  -2.2688569e-02   5.5979112e-01   9.5779615e-02  -3.8405817e+07
   9.4698233e-10  -2.2586366e-02   5.5773679e-01   9.6190081e-02  -3.8221186e+07
   9.4964988e-10  -2.2484654e-02   5.5569900e-01   9.6600180e-02  -3.8037602e+07
   9.5231744e-10  -2.2383431e-02   5.5367758e-01   9.7009905e-02  -3.7855057e+07
   9.5498499e-10  -2.2282693e-02   5.5167236e-01   9.7419250e-02  -3.7673543e+07
   9.5765255e-10  -2.2182437e-02   5.4968319e-01   9.7828209e-02  -3.7493052e+07
   9.6032011e-10  -2.2082662e-02   5.4770990e-01   9.8236776e-02  -3.7313576e+07
   9.6298766e-10  -2.1983365e-02   5.4575232e-01   9.8644946e-02  -3.7135107e+07
   9.6565522e-10  -2.1884542e-02   5.4381031e-01   9.9052713e-02  -3.6957638e+07
   9.6832277e-10  -2.1786191e-02   5.4188371e-01   9.9460071e-02  -3.6781162e+07
   9.7099033e-10  -2.1688309e-02   5.3997235e-01   9.9867015e-02  -3.6605670e+07
   9.7365789e-10  -2.1590895e-02   5.3807609e-01   1.0027354e-01  -3.6431155e+07
   9.7632544e-10  -2.1493944e-02   5.3619479e-01   1.0067964e-01  -3.6257611e+07
   9.7899300e-10  -2.1397456e-02   5.3432828e-01   1.0108530e-01  -3.6085029e+07
   9.8166055e-10  -2.1301426e-02   5.3247642e-01   1.0149053e-01  -3.5913402e+07
   9.8432811e-10  -2.1205853e-02   5.3063907e-01   1.0189532e-01  -3.5742724e+07
   9.8699567e-10  -2.1110734e-02   5.2881609e-01   1.0229966e-01  -3.5572988e+07
   9.8966322e-10  -2.1016066e-02   5.2700733e-01   1.0270355e-01  -3.5404186e+07
   9.9233078e-10  -2.0921848e-02   5.2521265e-01   1.0310697e-01  -3.5236311e+07
   9.9499833e-10  -2.0828076e-02   5.2343192e-01   1.0350994e-01  -3.5069358e+07
   9.9766589e-10  -2.0734748e-02   5.2166500e-01   1.0391244e-01  -3.4903318e+07
   1.0003334e-09  -2.0641862e-02   5.1991174e-01   1.0431446e-01  -3.4738186e+07
   1.0030010e-09  -2.0549416e-02   5.1817203e-01   1.0471601e-01  -3.4573954e+07
   1.0056686e-09  -2.0457406e-02   5.1644573e-01   1.0511707e-01  -3.4410617e+07
   1.0083361e-09  -2.0365830e-02   5.1473271e-01   1.0551764e-01  -3.4248168e+07
   1.0110037e-09  -2.0274687e-02   5.1303283e-01   1.0591772e-01  -3.4086600e+07
   1.0136712e-09  -2.0183974e-02   5.1134598e-01   1.0631730e-01  -3.3925908e+07
   1.0163388e-09  -2.0093688e-02   5.0967202e-01   1.0671637e-01  -3.3766084e+07
   1.0190063e-09  -2.0003827e-02   5.0801084e-01   1.0711494e-01  -3.3607123e+07
   1.0216739e-09  -1.9914390e-02   5.0636231e-01   1.0751300e-01  -3.3449019e+07
   1.0243414e-09  -1.9825373e-02   5.0472631e-01   1.0791053e-01  -3.3291765e+07
   1.0270090e-09  -1.9736774e-02   5.0310271e-01   1.0830755e-01  -3.3135355e+07
   1.0296766e-09  -1.9648591e-02   5.0149141e-01   1.0870404e-01  -3.2979784e+07
   1.0323441e-09  -1.9560822e-02   4.9989228e-01   1.0909999e-01  -3.2825046e+07
   1.0350117e-09  -1.9473465e-02   4.9830521e-01   1.0949541e-01  -3.2671134e+07
   1.0376792e-09  -1.9386517e-02   4.9673008e-01   1.0989029e-01  -3.2518043e+07
   1.0403468e-09  -1.9299977e-02   4.9516679e-01   1.1028463e-01  -3.2365768e+07
   1.0430143e-09  -1.9213842e-02   4.9361521e-01   1.1067841e-01  -3.2214303e+07
   1.0456819e-09  -1.9128110e-02   4.9207525e-01   1.1107164e-01  -3.2063641e+07
   1.0483494e-09  -1.9042778e-02   4.9054678e-01   1.1146432e-01  -3.1913778e+07
   1.0510170e-09  -1.8957845e-02   4.8902970e-01   1.1185643e-01  -3.1764708e+07
   1.0536846e-09  -1.8873309e-02   4.8752392e-01   1.1224797e-01  -3.1616426e+07
   1.0563521e-09  -1.8789168e-02   4.8602931e-01   1.1263894e-01  -3.1468926e+07
   1.0590197e-09  -1.8705418e-02   4.8454577e-01   1.1302934e-01  -3.1322203e+07
   1.0616872e-09  -1.8622060e-02   4.8307321e-01   1.1341916e-01  -3.1176251e+07
   1.0643548e-09  -1.8539089e-02   4.8161153e-01   1.1380840e-01  -3.1031066e+07
   1.0670223e-09  -1.8456505e-02   4.8016061e-01   1.1419705e-01  -3.0886642e+07
   1.0696899e-09  -1.8374305e-02   4.7872036e-01   1.1458510e-01  -3.0742974e+07
   1.0723575e-09  -1.8292487e-02   4.7729069e-01   1.1497257e-01  -3.0600057e+07
   1.0750250e-09  -1.8211050e-02   4.7587149e-01   1.1535943e-01  -3.0457886e+07
   1.0776926e-09  -1.8129990e-02   4.7446267e-01   1.1574570e-01  -3.0316456e+07
   1.0803601e-09  -1.8049307e-02   4.7306414e-01   1.1613135e-01  -3.0175762e+07
   1.0830277e-09  -1.7968999e-02   4.7167579e-01   1.1651640e-01  -3.0035799e+07
   1.0856952e-09  -1.7889062e-02   4.7029755e-01   1.1690083e-01  -2.9896562e+07
   1.0883628e-09  -1.7809497e-02   4.6892930e-01   1.1728464e-01  -2.9758047e+07
   1.0910303e-09  -1.7730299e-02   4.6757098e-01   1.1766784e-01  -2.9620248e+07
   1.0936979e-09  -1.7651469e-02   4.6622247e-01   1.1805041e-01  -2.9483162e+07
   1.0963655e-09  -1.7573003e-02   4.6488371e-01   1.1843235e-01  -2.9346783e+07
   1.0990330e-09  -1.7494900e-02   4.6355459e-01   1.1881366e-01  -2.9211106e+07
   1.1017006e-09  -1.7417158e-02   4.6223503e-01   1.1919433e-01  -2.9076128e+07
   1.1043681e-09  -1.7339775e-02   4.6092495e-01   1.1957437e-01  -2.8941843e+07
   1.1070357e-09  -1.7262749e-02   4.5962425e-01   1.1995376e-01  -2.8808248e+07
   1.1097032e-09  -1.7186079e-02   4.5833287e-01   1.2033251e-01  -2.8675337e+07
   1.1123708e-09  -1.7109763e-02   4.5705070e-01   1.2071061e-01  -2.8543106e+07
   1.1150383e-09  -1.7033798e-02   4.5577768e-01   1.2108806e-01  -2.8411551e+07
   1.1177059e-09  -1.6958183e-02   4.5451371e-01   1.2146485e-01  -2.8280668e+07
   1.1203735e-09  -1.6882917e-02   4.5325872e-01   1.2184099e-01  -2.8150452e+07
   1.1230410e-09  -1.6807997e-02   4.5201263e-01   1.2221646e-01  -2.8020899e+07
   1.1257086e-09  -1.6733422e-02   4.5077537e-01   1.2259127e-01  -2.7892005e+07
   1.1283761e-09  -1.6659189e-02   4.4954684e-01   1.2296542e-01  -2.7763765e+07
   1.1310437e-09  -1.6585298e-02   4.4832698e-01   1.2333889e-01  -2.7636175e+07
   1.1337112e-09  -1.6511747e-02   4.4711571e-01   1.2371169e-01  -2.7509232e+07
   1.1363788e-09  -1.6438533e-02   4.4591295e-01   1.2408381e-01  -2.7382931e+07
   1.1390463e-09  -1.6365655e-02   4.4471863e-01   1.2445526e-01  -2.7257268e+07
   1.1417139e-09  -1.6293112e-02   4.4353268e-01   1.2482602e-01  -2.7132240e+07
   1.1443815e-09  -1.6220901e-02   4.4235502e-01   1.2519610e-01  -2.7007841e+07
   1.1470490e-09  -1.6149022e-02   4.4118558e-01   1.2556549e-01  -2.6884069e+07
   1.1497166e-09  -1.6077471e-02   4.4002429e-01   1.2593419e-01  -2.6760920e+07
   1.1523841e-09  -1.6006249e-02   4.3887108e-01   1.2630220e-01  -2.6638388e+07
   1.1550517e-09  -1.5935352e-02   4.3772587e-01   1.2666951e-01  -2.6516472e+07
   1.1577192e-09  -1.5864780e-02   4.3658861e-01   1.2703613e-01  -2.6395166e+07
   1.1603868e-09  -1.5794531e-02   4.3545921e-01   1.2740204e-01  -2.6274468e+07
   1.1630544e-09  -1.5724602e-02   4.3433762e-01   1.2776725e-01  -2.6154373e+07
   1.1657219e-09  -1.5654994e-02   4.3322376e-01   1.2813176e-01  -2.6034877e+07
   1.1683895e-09  -1.5585703e-02   4.3211758e-01   1.2849556e-01  -2.5915978e+07
   1.1710570e-09  -1.5516728e-02   4.3101900e-01   1.2885864e-01  -2.5797670e+07
   1.1737246e-09  -1.5448069e-02   4.2992795e-01   1.2922102e-01  -2.5679952e+07
   1.1763921e-09  -1.5379723e-02   4.2884439e-01   1.2958267e-01  -2.5562819e+07
   1.1790597e-09  -1.5311688e-02   4.2776823e-01   1.2994362e-01  -2.5446267e+07
   1.1817272e-09  -1.5243964e-02   4.2669942e-01   1.3030384e-01  -2.5330294e+07
   1.1843948e-09  -1.5176548e-02   4.2563790e-01   1.3066333e-01  -2.5214895e+07
   1.1870624e-09  -1.5109439e-02   4.2458361e-01   1.3102211e-01  -2.5100068e+07
   1.1897299e-09  -1.5042636e-02   4.2353647e-01   1.3138016e-01  -2.4985808e+07
   1.1923975e-09  -1.4976136e-02   4.2249645e-01   1.3173748e-01  -2.4872112e+07
   1.1950650e-09  -1.4909940e-02   4.2146346e-01   1.3209406e-01  -2.4758977e+07
   1.1977326e-09  -1.4844044e-02   4.2043746e-01   1.3244992e-01  -2.4646400e+07
   1.2004001e-09  -1.4778448e-02   4.1941839e-01   1.3280504e-01  -2.4534378e+07
   1.2030677e-09  -1.4713150e-02   4.1840618e-01   1.3315942e-01  -2.4422906e+07
   1.2057352e-09  -1.4648149e-02   4.1740079e-01   1.3351307e-01  -2.4311982e+07
   1.2084028e-09  -1.4583442e-02   4.1640215e-01   1.3386597e-01  -2.4201602e+07
   1.2110704e-09  -1.4519030e-02   4.1541021e-01   1.3421814e-01  -2.4091764e+07
   1.2137379e-09  -1.4454910e-02   4.1442491e-01   1.3456955e-01  -2.3982464e+07
   1.2164055e-09  -1.4391080e-02   4.1344620e-01   1.3492022e-01  -2.3873698e+07
   1.2190730e-09  -1.4327541e-02   4.1247402e-01   1.3527015e-01  -2.3765465e+07
   1.2217406e-09  -1.4264289e-02   4.1150832e-01   1.3561932e-01  -2.3657760e+07
   1.2244081e-09  -1.4201323e-02   4.1054905e-01   1.3596774e-01  -2.3550580e+07
   1.2270757e-09  -1.4138643e-02   4.0959615e-01   1.3631541e-01  -2.3443924e+07
   1.2297432e-09  -1.4076247e-02   4.0864957e-01   1.3666232e-01  -2.3337786e+07
   1.2324108e-09  -1.4014133e-02   4.0770926e-01   1.3700848e-01  -2.3232165e+07
   1.2350784e-09  -1.3952301e-02   4.0677517e-01   1.3735388e-01  -2.3127058e+07
   1.2377459e-09  -1.3890747e-02   4.0584725e-01   1.3769852e-01  -2.3022461e+07
   1.2404135e-09  -1.3829473e-02   4.0492545e-01   1.3804239e-01  -2.2918372e+07
   1.2430810e-09  -1.3768475e-02   4.0400971e-01   1.3838551e-01  -2.2814787e+07
   1.2457486e-09  -1.3707753e-02   4.0309999e-01   1.3872786e-01  -2.2711704e+07
   1.2484161e-09  -1.3647305e-02   4.0219624e-01   1.3906944e-01  -2.2609120e+07
   1.2510837e-09  -1.3587130e-02   4.0129842e-01   1.3941026e-01  -2.2507031e+07
   1.2537513e-09  -1.3527227e-02   4.0040646e-01   1.3975031e-01  -2.2405436e+07
   1.2564188e-09  -1.3467595e-02   3.9952034e-01   1.4008959e-01  -2.2304332e+07
   1.2590864e-09  -1.3408231e-02   3.9863999e-01   1.4042809e-01  -2.2203715e+07
   1.2617539e-09  -1.3349135e-02   3.9776537e-01   1.4076583e-01  -2.2103582e+07
   1.2644215e-09  -1.3290306e-02   3.9689645e-01   1.4110279e-01  -2.2003932e+07
   1.2670890e-09  -1.3231741e-02   3.9603316e-01   1.4143898e-01  -2.1904761e+07
   1.2697566e-09  -1.3173441e-02   3.9517548e-01   1.4177439e-01  -2.1806067e+07
   1.2724241e-09  -1.3115403e-02   3.9432334e-01   1.4210902e-01  -2.1707847e+07
   1.2750917e-09  -1.3057627e-02   3.9347672e-01   1.4244288e-01  -2.1610098e+07
   1.2777593e-09  -1.3000111e-02   3.9263556e-01   1.4277595e-01  -2.1512817e+07
   1.2804268e-09  -1.2942853e-02   3.9179982e-01   1.4310825e-01  -2.1416003e+07
   1.2830944e-09  -1.2885854e-02   3.9096945e-01   1.4343976e-01  -2.1319652e+07
   1.2857619e-09  -1.2829110e-02   3.9014443e-01   1.4377049e-01  -2.1223762e+07
   1.2884295e-09  -1.2772622e-02   3.8932470e-01   1.4410043e-01  -2.1128330e+07
   1.2910970e-09  -1.2716388e-02   3.8851022e-01   1.4442960e-01  -2.1033353e+07
   1.2937646e-09  -1.2660407e-02   3.8770095e-01   1.4475797e-01  -2.0938830e+07
   1.2964321e-09  -1.2604677e-02   3.8689686e-01   1.4508556e-01  -2.0844758e+07
   1.2990997e-09  -1.2549197e-02   3.8609789e-01   1.4541236e-01  -2.0751133e+07
   1.3017673e-09  -1.2493967e-02   3.8530401e-01   1.4573838e-01  -2.0657955e+07
   1.3044348e-09  -1.2438984e-02   3.8451519e-01   1.4606360e-01  -2.0565219e+07
   1.3071024e-09  -1.2384249e-02   3.8373137e-01   1.4638804e-01  -2.0472925e+07
   1.3097699e-09  -1.2329759e-02   3.8295253e-01   1.4671168e-01  -2.0381068e+07
   1.3124375e-09  -1.2275513e-02   3.8217862e-01   1.4703454e-01  -2.0289648e+07
   1.3151050e-09  -1.2221511e-02   3.8140961e-01   1.4735660e-01  -2.0198661e+07
   1.3177726e-09  -1.2167751e-02   3.8064545e-01   1.4767787e-01  -2.0108106e+07
   1.3204401e-09  -1.2114232e-02   3.7988612e-01   1.4799834e-01  -2.0017979e+07
   1.3231077e-09  -1.2060952e-02   3.7913156e-01   1.4831802e-01  -1.9928279e+07
   1.3257753e-09  -1.2007912e-02   3.7838176e-01   1.4863691e-01  -1.9839003e+07
   1.3284428e-09  -1.1955109e-02   3.7763666e-01   1.4895500e-01  -1.9750149e+07
   1.3311104e-09  -1.1902542e-02   3.7689624e-01   1.4927229e-01  -1.9661715e+07
   1.3337779e-09  -1.1850211e-02   3.7616046e-01   1.4958879e-01  -1.9573698e+07
   1.3364455e-09  -1.1798114e-02   3.7542928e-01   1.4990449e-01  -1.9486096e+07
   1.3391130e-09  -1.1746251e-02   3.7470266e-01   1.5021940e-01  -1.9398907e+07
   1.3417806e-09  -1.1694619e-02   3.7398058e-01   1.5053350e-01  -1.9312129e+07
   1.3444481e-09  -1.1643218e-02   3.7326300e-01   1.5084681e-01  -1.9225759e+07
   1.3471157e-09  -1.1592047e-02   3.7254989e-01   1.5115932e-01  -1.9139795e+07
   1.3497833e-09  -1.1541105e-02   3.7184120e-01   1.5147103e-01  -1.9054235e+07
   1.3524508e-09  -1.1490390e-02   3.7113691e-01   1.5178194e-01  -1.8969077e+07
   1.3551184e-09  -1.1439902e-02   3.7043699e-01   1.5209205e-01  -1.8884319e+07
   1.3577859e-09  -1.1389640e-02   3.6974140e-01   1.5240136e-01  -1.8799959e+07
   1.3604535e-09  -1.1339602e-02   3.6905010e-01   1.5270987e-01  -1.8715994e+07
   1.3631210e-09  -1.1289788e-02   3.6836308e-01   1.5301758e-01  -1.8632422e+07
   1.3657886e-09  -1.1240196e-02   3.6768028e-01   1.5332449e-01  -1.8549242e+07
   1.3684562e-09  -1.1190826e-02   3.6700169e-01   1.5363059e-01  -1.8466451e+07
   1.3711237e-09  -1.1141675e-02   3.6632728e-01   1.5393590e-01  -1.8384048e+07
   1.3737913e-09  -1.1092744e-02   3.6565700e-01   1.5424040e-01  -1.8302029e+07
   1.3764588e-09  -1.1044032e-02   3.6499083e-01   1.5454411e-01  -1.8220393e+07
   1.3791264e-09  -1.0995536e-02   3.6432874e-01   1.5484701e-01  -1.8139139e+07
   1.3817939e-09  -1.0947257e-02   3.6367070e-01   1.5514910e-01  -1.8058264e+07
   1.3844615e-09  -1.0899193e-02   3.6301668e-01   1.5545040e-01  -1.7977766e+07
   1.3871290e-09  -1.0851344e-02   3.6236665e-01   1.5575089e-01  -1.7897642e+07
   1.3897966e-09  -1.0803707e-02   3.6172058e-01   1.5605058e-01  -1.7817892e+07
   1.3924642e-09  -1.0756283e-02   3.6107844e-01   1.5634947e-01  -1.7738514e+07
   1.3951317e-09  -1.0709070e-02   3.6044020e-01   1.5664756e-01  -1.7659504e+07
   1.3977993e-09  -1.0662068e-02   3.5980584e-01   1.5694485e-01  -1.7580862e+07
   1.4004668e-09  -1.0615274e-02   3.5917532e-01   1.5724133e-01  -1.7502585e+07
   1.4031344e-09  -1.0568689e-02   3.5854862e-01   1.5753701e-01  -1.7424672e+07
   1.4058019e-09  -1.0522311e-02   3.5792570e-01   1.5783189e-01  -1.7347120e+07
   1.4084695e-09  -1.0476140e-02   3.5730655e-01   1.5812596e-01  -1.7269929e+07
   1.4111370e-09  -1.0430174e-02   3.5669113e-01   1.5841924e-01  -1.7193095e+07
   1.4138046e-09  -1.0384413e-02   3.5607941e-01   1.5871171e-01  -1.7116617e+07
   1.4164722e-09  -1.0338855e-02   3.5547138e-01   1.5900338e-01  -1.7040493e+07
   1.4191397e-09  -1.0293500e-02   3.5486700e-01   1.5929425e-01  -1.6964722e+07
   1.4218073e-09  -1.0248346e-02   3.5426625e-01   1.5958432e-01  -1.6889301e+07
   1.4244748e-09  -1.0203393e-02   3.5366910e-01   1.5987358e-01  -1.6814229e+07
   1.4271424e-09  -1.0158640e-02   3.5307552e-01   1.6016205e-01  -1.6739504e+07
   1.4298099e-09  -1.0114086e-02   3.5248549e-01   1.6044971e-01  -1.6665125e+07
   1.4324775e-09  -1.0069730e-02   3.5189898e-01   1.6073658e-01  -1.6591088e+07
   1.4351450e-09  -1.0025571e-02   3.5131597e-01   1.6102264e-01  -1.6517394e+07
   1.4378126e-09  -9.9816077e-03   3.5073644e-01   1.6130791e-01  -1.6444039e+07
   1.4404802e-09  -9.9378399e-03   3.5016035e-01   1.6159237e-01  -1.6371022e+07
   1.4431477e-09  -9.8942664e-03   3.4958769e-01   1.6187604e-01  -1.6298342e+07
   1.4458153e-09  -9.8508863e-03   3.4901842e-01   1.6215891e-01  -1.6225997e+07
   1.4484828e-09  -9.8076988e-03   3.4845254e-01   1.6244098e-01  -1.6153984e+07
   1.4511504e-09  -9.7647029e-03   3.4789000e-01   1.6272225e-01  -1.6082303e+07
   1.4538179e-09  -9.7218978e-03   3.4733079e-01   1.6300272e-01  -1.6010952e+07
   1.4564855e-09  -9.6792826e-03   3.4677488e-01   1.6328240e-01  -1.5939929e+07
   1.4591531e-09  -9.6368564e-03   3.4622225e-01   1.6356128e-01  -1.5869232e+07
   1.4618206e-09  -9.5946184e-03   3.4567288e-01   1.6383937e-01  -1.5798859e+07
   1.4644882e-09  -9.5525677e-03   3.4512674e-01   1.6411665e-01  -1.5728810e+07
   1.4671557e-09  -9.5107034e-03   3.4458382e-01   1.6439315e-01  -1.5659082e+07
   1.4698233e-09  -9.4690246e-03   3.4404408e-01   1.6466885e-01  -1.5589675e+07
   1.4724908e-09  -9.4275306e-03   3.4350751e-01   1.6494375e-01  -1.5520585e+07
   1.4751584e-09  -9.3862205e-03   3.4297408e-01   1.6521786e-01  -1.5451812e+07
   1.4778259e-09  -9.3450934e-03   3.4244378e-01   1.6549118e-01  -1.5383353e+07
   1.4804935e-09  -9.3041485e-03   3.4191657e-01   1.6576370e-01  -1.5315209e+07
   1.4831611e-09  -9.2633850e-03   3.4139245e-01   1.6603544e-01  -1.5247376e+07
   1.4858286e-09  -9.2228020e-03   3.4087138e-01   1.6630638e-01  -1.5179853e+07
   1.4884962e-09  -9.1823987e-03   3.4035335e-01   1.6657653e-01  -1.5112639e+07
   1.4911637e-09  -9.1421743e-03   3.3983833e-01   1.6684589e-01  -1.5045733e+07
   1.4938313e-09  -9.1021280e-03   3.3932630e-01   1.6711446e-01  -1.4979132e+07
   1.4964988e-09  -9.0622590e-03   3.3881725e-01   1.6738224e-01  -1.4912835e+07
   1.4991664e-09  -9.0225663e-03   3.3831116e-01   1.6764924e-01  -1.4846841e+07
   1.5018339e-09  -8.9830494e-03   3.3780799e-01   1.6791545e-01  -1.4781148e+07
   1.5045015e-09  -8.9437072e-03   3.3730774e-01   1.6818087e-01  -1.4715754e+07
   1.5071691e-09  -8.9045391e-03   3.3681037e-01   1.6844550e-01  -1.4650659e+07
   1.5098366e-09  -8.8655443e-03   3.3631588e-01   1.6870935e-01  -1.4585860e+07
   1.5125042e-09  -8.8267219e-03   3.3582425e-01   1.6897242e-01  -1.4521357e+07
   1.5151717e-09  -8.7880712e-03   3.3533544e-01   1.6923470e-01  -1.4457148e+07
   1.5178393e-09  -8.7495914e-03   3.3484945e-01   1.6949620e-01  -1.4393230e+07
   1.5205068e-09  -8.7112817e-03   3.3436625e-01   1.6975691e-01  -1.4329604e+07
   1.5231744e-09  -8.6731413e-03   3.3388583e-01   1.7001685e-01  -1.4266267e+07
   1.5258419e-09  -8.6351695e-03   3.3340816e-01   1.7027600e-01  -1.4203218e+07
   1.5285095e-09  -8.5973655e-03   3.3293324e-01   1.7053438e-01  -1.4140455e+07
   1.5311771e-09  -8.5597286e-03   3.3246103e-01   1.7079197e-01  -1.4077978e+07
   1.5338446e-09  -8.5222579e-03   3.3199152e-01   1.7104879e-01  -1.4015785e+07
   1.5365122e-09  -8.4849528e-03   3.3152469e-01   1.7130483e-01  -1.3953873e+07
   1.5391797e-09  -8.4478125e-03   3.3106053e-01   1.7156010e-01  -1.3892243e+07
   1.5418473e-09  -8.4108361e-03   3.3059901e-01   1.7181459e-01  -1.3830893e+07
   1.5445148e-09  -8.3740231e-03   3.3014012e-01   1.7206831e-01  -1.3769821e+07
   1.5471824e-09  -8.3373726e-03   3.2968384e-01   1.7232125e-01  -1.3709025e+07
   1.5498499e-09  -8.3008839e-03   3.2923016e-01   1.7257342e-01  -1.3648506e+07
   1.5525175e-09  -8.2645563e-03   3.2877905e-01   1.7282482e-01  -1.3588260e+07
   1.5551851e-09  -8.2283890e-03   3.2833049e-01   1.7307544e-01  -1.3528287e+07
   1.5578526e-09  -8.1923814e-03   3.2788448e-01   1.7332530e-01  -1.3468586e+07
   1.5605202e-09  -8.1565326e-03   3.2744100e-01   1.7357439e-01  -1.3409155e+07
   1.5631877e-09  -8.1208421e-03   3.2700002e-01   1.7382271e-01  -1.3349993e+07
   1.5658553e-09  -8.0853090e-03   3.2656153e-01   1.7407027e-01  -1.3291099e+07
   1.5685228e-09  -8.0499326e-03   3.2612551e-01   1.7431706e-01  -1.3232470e+07
   1.5711904e-09  -8.0147123e-03   3.2569195e-01   1.7456308e-01  -1.3174107e+07
   1.5738580e-09  -7.9796473e-03   3.2526084e-01   1.7480834e-01  -1.3116008e+07
   1.5765255e-09  -7.9447369e-03   3.2483215e-01   1.7505284e-01  -1.3058171e+07
   1.5791931e-09  -7.9099805e-03   3.2440586e-01   1.7529658e-01  -1.3000595e+07
   1.5818606e-09  -7.8753773e-03   3.2398197e-01   1.7553956e-01  -1.2943279e+07
   1.5845282e-09  -7.8409267e-03   3.2356046e-01   1.7578177e-01  -1.2886222e+07
   1.5871957e-09  -7.8066279e-03   3.2314131e-01   1.7602323e-01  -1.2829422e+07
   1.5898633e-09  -7.7724803e-03   3.2272450e-01   1.7626394e-01  -1.2772879e+07
   1.5925308e-09  -7.7384832e-03   3.2231003e-01   1.7650388e-01  -1.2716590e+07
   1.5951984e-09  -7.7046359e-03   3.2189787e-01   1.7674307e-01  -1.2660555e+07
   1.5978660e-09  -7.6709378e-03   3.2148801e-01   1.7698151e-01  -1.2604773e+07
   1.6005335e-09  -7.6373881e-03   3.2108043e-01   1.7721920e-01  -1.2549241e+07
   1.6032011e-09  -7.6039862e-03   3.2067513e-01   1.7745613e-01  -1.2493960e+07
   1.6058686e-09  -7.5707315e-03   3.2027208e-01   1.7769231e-01  -1.2438928e+07
   1.6085362e-09  -7.5376232e-03   3.1987127e-01   1.7792775e-01  -1.2384144e+07
   1.6112037e-09  -7.5046608e-03   3.1947269e-01   1.7816243e-01  -1.2329606e+07
   1.6138713e-09  -7.4718435e-03   3.1907632e-01   1.7839637e-01  -1.2275313e+07
   1.6165388e-09  -7.4391706e-03   3.1868214e-01   1.7862957e-01  -1.2221265e+07
   1.6192064e-09  -7.4066417e-03   3.1829015e-01   1.7886201e-01  -1.2167459e+07
   1.6218740e-09  -7.3742560e-03   3.1790032e-01   1.7909372e-01  -1.2113895e+07
   1.6245415e-09  -7.3420128e-03   3.1751266e-01   1.7932468e-01  -1.2060572e+07
   1.6272091e-09  -7.3099115e-03   3.1712713e-01   1.7955491e-01  -1.2007489e+07
   1.6298766e-09  -7.2779515e-03   3.1674373e-01   1.7978439e-01  -1.1954644e+07
   1.6325442e-09  -7.2461322e-03   3.1636244e-01   1.8001314e-01  -1.1902036e+07
   1.6352117e-09  -7.2144529e-03   3.1598325e-01   1.8024115e-01  -1.1849665e+07
   1.6378793e-09  -7.1829130e-03   3.1560615e-01   1.8046842e-01  -1.1797528e+07
   1.6405468e-09  -7.1515119e-03   3.1523112e-01   1.8069496e-01  -1.1745625e+07
   1.6432144e-09  -7.1202489e-03   3.1485815e-01   1.8092076e-01  -1.1693955e+07
   1.6458820e-09  -7.0891234e-03   3.1448722e-01   1.8114584e-01  -1.1642517e+07
   1.6485495e-09  -7.0581348e-03   3.1411833e-01   1.8137018e-01  -1.1591309e+07
   1.6512171e-09  -7.0272825e-03   3.1375146e-01   1.8159379e-01  -1.1540331e+07
   1.6538846e-09  -6.9965659e-03   3.1338660e-01   1.8181668e-01  -1.1489581e+07
   1.6565522e-09  -6.9659844e-03   3.1302373e-01   1.8203884e-01  -1.1439059e+07
   1.6592197e-09  -6.9355374e-03   3.1266284e-01   1.8226027e-01  -1.1388762e+07
   1.6618873e-09  -6.9052242e-03   3.1230392e-01   1.8248098e-01  -1.1338691e+07
   1.6645549e-09  -6.8750443e-03   3.1194696e-01   1.8270096e-01  -1.1288844e+07
   1.6672224e-09  -6.8449970e-03   3.1159194e-01   1.8292023e-01  -1.1239221e+07
   1.6698900e-09  -6.8150819e-03   3.1123885e-01   1.8313877e-01  -1.1189819e+07
   1.6725575e-09  -6.7852982e-03   3.1088769e-01   1.8335660e-01  -1.1140638e+07
   1.6752251e-09  -6.7556454e-03   3.1053843e-01   1.8357371e-01  -1.1091677e+07
   1.6778926e-09  -6.7261230e-03   3.1019107e-01   1.8379010e-01  -1.1042935e+07
   1.6805602e-09  -6.6967302e-03   3.0984559e-01   1.8400578e-01  -1.0994411e+07
   1.6832277e-09  -6.6674667e-03   3.0950198e-01   1.8422075e-01  -1.0946103e+07
   1.6858953e-09  -6.6383317e-03   3.0916023e-01   1.8443500e-01  -1.0898012e+07
   1.6885629e-09  -6.6093247e-03   3.0882034e-01   1.8464854e-01  -1.0850135e+07
   1.6912304e-09  -6.5804451e-03   3.0848227e-01   1.8486138e-01  -1.0802472e+07
   1.6938980e-09  -6.5516924e-03   3.0814604e-01   1.8507350e-01  -1.0755022e+07
   1.6965655e-09  -6.5230660e-03   3.0781161e-01   1.8528492e-01  -1.0707784e+07
   1.6992331e-09  -6.4945653e-03   3.0747899e-01   1.8549564e-01  -1.0660757e+07
   1.7019006e-09  -6.4661897e-03   3.0714817e-01   1.8570565e-01  -1.0613939e+07
   1.7045682e-09  -6.4379388e-03   3.0681912e-01   1.8591496e-01  -1.0567330e+07
   1.7072357e-09  -6.4098120e-03   3.0649184e-01   1.8612357e-01  -1.0520930e+07
   1.7099033e-09  -6.3818086e-03   3.0616632e-01   1.8633148e-01  -1.0474736e+07
   1.7125709e-09  -6.3539282e-03   3.0584254e-01   1.8653869e-01  -1.0428748e+07
   1.7152384e-09  -6.3261702e-03   3.0552051e-01   1.8674521e-01  -1.0382965e+07
   1.7179060e-09  -6.2985341e-03   3.0520019e-01   1.8695103e-01  -1.0337386e+07
   1.7205735e-09  -6.2710192e-03   3.0488160e-01   1.8715616e-01  -1.0292010e+07
   1.7232411e-09  -6.2436252e-03   3.0456471e-01   1.8736060e-01  -1.0246836e+07
   1.7259086e-09  -6.2163513e-03   3.0424951e-01   1.8756434e-01  -1.0201864e+07
   1.7285762e-09  -6.1891972e-03   3.0393599e-01   1.8776740e-01  -1.0157091e+07
   1.7312437e-09  -6.1621622e-03   3.0362415e-01   1.8796977e-01  -1.0112518e+07
   1.7339113e-09  -6.1352459e-03   3.0331397e-01   1.8817146e-01  -1.0068144e+07
   1.7365789e-09  -6.1084477e-03   3.0300544e-01   1.8837246e-01  -1.0023967e+07
   1.7392464e-09  -6.0817671e-03   3.0269856e-01   1.8857277e-01  -9.9799863e+06
   1.7419140e-09  -6.0552035e-03   3.0239331e-01   1.8877241e-01  -9.9362015e+06
   1.7445815e-09  -6.0287565e-03   3.0208968e-01   1.8897136e-01  -9.8926114e+06
   1.7472491e-09  -6.0024255e-03   3.0178766e-01   1.8916964e-01  -9.8492152e+06
   1.7499166e-09  -5.9762099e-03   3.0148725e-01   1.8936724e-01  -9.8060119e+06
   1.7525842e-09  -5.9501094e-03   3.0118843e-01   1.8956417e-01  -9.7630007e+06
   1.7552518e-09  -5.9241234e-03   3.0089119e-01   1.8976042e-01  -9.7201806e+06
   1.7579193e-09  -5.8982513e-03   3.0059553e-01   1.8995599e-01  -9.6775509e+06
   1.7605869e-09  -5.8724927e-03   3.0030143e-01   1.9015090e-01  -9.6351105e+06
   1.7632544e-09  -5.8468471e-03   3.0000888e-01   1.9034514e-01  -9.5928587e+06
   1.7659220e-09  -5.8213139e-03   2.9971788e-01   1.9053871e-01  -9.5507946e+06
   1.7685895e-09  -5.7958927e-03   2.9942842e-01   1.9073161e-01  -9.5089172e+06
   1.7712571e-09  -5.7705829e-03   2.9914048e-01   1.9092385e-01  -9.4672258e+06
   1.7739246e-09  -5.7453841e-03   2.9885406e-01   1.9111543e-01  -9.4257195e+06
   1.7765922e-09  -5.7202958e-03   2.9856915e-01   1.9130634e-01  -9.3843974e+06
   1.7792598e-09  -5.6953175e-03   2.9828573e-01   1.9149660e-01  -9.3432587e+06
   1.7819273e-09  -5.6704486e-03   2.9800381e-01   1.9168619e-01  -9.3023025e+06
   1.7845949e-09  -5.6456888e-03   2.9772337e-01   1.9187513e-01  -9.2615280e+06
   1.7872624e-09  -5.6210375e-03   2.9744440e-01   1.9206341e-01  -9.2209344e+06
   1.7899300e-09  -5.5964942e-03   2.9716689e-01   1.9225104e-01  -9.1805208e+06
   1.7925975e-09  -5.5720586e-03   2.9689084e-01   1.9243802e-01  -9.1402865e+06
   1.7952651e-09  -5.5477300e-03   2.9661624e-01   1.9262434e-01  -9.1002305e+06
   1.7979326e-09  -5.5235080e-03   2.9634307e-01   1.9281002e-01  -9.0603520e+06
   1.8006002e-09  -5.4993921e-03   2.9607133e-01   1.9299505e-01  -9.0206504e+06
   1.8032678e-09  -5.4753820e-03   2.9580101e-01   1.9317943e-01  -8.9811246e+06
   1.8059353e-09  -5.4514770e-03   2.9553210e-01   1.9336316e-01  -8.9417740e+06
   1.8086029e-09  -5.4276768e-03   2.9526460e-01   1.9354626e-01  -8.9025978e+06
   1.8112704e-09  -5.4039808e-03   2.9499849e-01   1.9372871e-01  -8.8635950e+06
   1.8139380e-09  -5.3803887e-03   2.9473376e-01   1.9391052e-01  -8.8247650e+06
   1.8166055e-09  -5.3568999e-03   2.9447042e-01   1.9409170e-01  -8.7861070e+06
   1.8192731e-09  -5.3335140e-03   2.9420845e-01   1.9427224e-01  -8.7476201e+06
   1.8219406e-09  -5.3102305e-03   2.9394783e-01   1.9445214e-01  -8.7093036e+06
   1.8246082e-09  -5.2870490e-03   2.9368858e-01   1.9463141e-01  -8.6711567e+06
   1.8272758e-09  -5.2639691e-03   2.9343066e-01   1.9481005e-01  -8.6331787e+06
   1.8299433e-09  -5.2409902e-03   2.9317409e-01   1.9498805e-01  -8.5953687e+06
   1.8326109e-09  -5.2181120e-03   2.9291885e-01   1.9516543e-01  -8.5577259e+06
   1.8352784e-09  -5.1953340e-03   2.9266493e-01   1.9534218e-01  -8.5202497e+06
   1.8379460e-09  -5.1726557e-03   2.9241232e-01   1.9551831e-01  -8.4829393e+06
   1.8406135e-09  -5.1500767e-03   2.9216102e-01   1.9569381e-01  -8.4457939e+06
   1.8432811e-09  -5.1275966e-03   2.9191102e-01   1.9586869e-01  -8.4088128e+06
   1.8459486e-09  -5.1052150e-03   2.9166232e-01   1.9604294e-01  -8.3719951e+06
   1.8486162e-09  -5.0829313e-03   2.9141489e-01   1.9621658e-01  -8.3353403e+06
   1.8512838e-09  -5.0607452e-03   2.9116875e-01   1.9638960e-01  -8.2988474e+06
   1.8539513e-09  -5.0386562e-03   2.9092387e-01   1.9656201e-01  -8.2625159e+06
   1.8566189e-09  -5.0166639e-03   2.9068025e-01   1.9673380e-01  -8.2263449e+06
   1.8592864e-09  -4.9947679e-03   2.9043789e-01   1.9690498e-01  -8.1903338e+06
   1.8619540e-09  -4.9729678e-03   2.9019678e-01   1.9707554e-01  -8.1544817e+06
   1.8646215e-09  -4.9512630e-03   2.8995690e-01   1.9724550e-01  -8.1187880e+06
   1.8672891e-09  -4.9296533e-03   2.8971826e-01   1.9741485e-01  -8.0832520e+06
   1.8699567e-09  -4.9081382e-03   2.8948084e-01   1.9758359e-01  -8.0478730e+06
   1.8726242e-09  -4.8867172e-03   2.8924465e-01   1.9775173e-01  -8.0126501e+06
   1.8752918e-09  -4.8653900e-03   2.8900966e-01   1.9791926e-01  -7.9775828e+06
   1.8779593e-09  -4.8441561e-03   2.8877588e-01   1.9808620e-01  -7.9426703e+06
   1.8806269e-09  -4.8230151e-03   2.8854329e-01   1.9825253e-01  -7.9079120e+06
   1.8832944e-09  -4.8019667e-03   2.8831190e-01   1.9841826e-01  -7.8733070e+06
   1.8859620e-09  -4.7810103e-03   2.8808169e-01   1.9858340e-01  -7.8388548e+06
   1.8886295e-09  -4.7601457e-03   2.8785265e-01   1.9874794e-01  -7.8045546e+06
   1.8912971e-09  -4.7393724e-03   2.8762479e-01   1.9891189e-01  -7.7704057e+06
   1.8939647e-09  -4.7186899e-03   2.8739809e-01   1.9907525e-01  -7.7364075e+06
   1.8966322e-09  -4.6980980e-03   2.8717254e-01   1.9923801e-01  -7.7025593e+06
   1.8992998e-09  -4.6775961e-03   2.8694815e-01   1.9940019e-01  -7.6688604e+06
   1.9019673e-09  -4.6571839e-03   2.8672490e-01   1.9956178e-01  -7.6353101e+06
   1.9046349e-09  -4.6368611e-03   2.8650279e-01   1.9972279e-01  -7.6019078e+06
   1.9073024e-09  -4.6166271e-03   2.8628180e-01   1.9988321e-01  -7.5686527e+06
   1.9099700e-09  -4.5964817e-03   2.8606194e-01   2.0004305e-01  -7.5355443e+06
   1.9126375e-09  -4.5764243e-03   2.8584320e-01   2.0020230e-01  -7.5025819e+06
   1.9153051e-09  -4.5564547e-03   2.8562557e-01   2.0036098e-01  -7.4697647e+06
   1.9179727e-09  -4.5365725e-03   2.8540904e-01   2.0051908e-01  -7.4370922e+06
   1.9206402e-09  -4.5167772e-03   2.8519361e-01   2.0067661e-01  -7.4045636e+06
   1.9233078e-09  -4.4970685e-03   2.8497928e-01   2.0083356e-01  -7.3721785e+06
   1.9259753e-09  -4.4774460e-03   2.8476603e-01   2.0098994e-01  -7.3399360e+06
   1.9286429e-09  -4.4579094e-03   2.8455385e-01   2.0114575e-01  -7.3078355e+06
   1.9313104e-09  -4.4384581e-03   2.8434276e-01   2.0130099e-01  -7.2758765e+06
   1.9339780e-09  -4.4190919e-03   2.8413273e-01   2.0145566e-01  -7.2440583e+06
   1.9366455e-09  -4.3998105e-03   2.8392376e-01   2.0160976e-01  -7.2123802e+06
   1.9393131e-09  -4.3806133e-03   2.8371585e-01   2.0176330e-01  -7.1808416e+06
   1.9419807e-09  -4.3615001e-03   2.8350899e-01   2.0191628e-01  -7.1494419e+06
   1.9446482e-09  -4.3424704e-03   2.8330317e-01   2.0206869e-01  -7.1181804e+06
   1.9473158e-09  -4.3235240e-03   2.8309839e-01   2.0222055e-01  -7.0870566e+06
   1.9499833e-09  -4.3046604e-03   2.8289464e-01   2.0237185e-01  -7.0560698e+06
   1.9526509e-09  -4.2858793e-03   2.8269191e-01   2.0252259e-01  -7.0252194e+06
   1.9553184e-09  -4.2671803e-03   2.8249021e-01   2.0267277e-01  -6.9945048e+06
   1.9579860e-09  -4.2485630e-03   2.8228952e-01   2.0282241e-01  -6.9639254e+06
   1.9606536e-09  -4.2300272e-03   2.8208984e-01   2.0297149e-01  -6.9334806e+06
   1.9633211e-09  -4.2115723e-03   2.8189116e-01   2.0312002e-01  -6.9031697e+06
   1.9659887e-09  -4.1931982e-03   2.8169349e-01   2.0326800e-01  -6.8729922e+06
   1.9686562e-09  -4.1749044e-03   2.8149680e-01   2.0341544e-01  -6.8429475e+06
   1.9713238e-09  -4.1566905e-03   2.8130110e-01   2.0356233e-01  -6.8130349e+06
   1.9739913e-09  -4.1385563e-03   2.8110638e-01   2.0370867e-01  -6.7832539e+06
   1.9766589e-09  -4.1205013e-03   2.8091263e-01   2.0385448e-01  -6.7536040e+06
   1.9793264e-09  -4.1025252e-03   2.8071986e-01   2.0399974e-01  -6.7240844e+06
   1.9819940e-09  -4.0846278e-03   2.8052805e-01   2.0414446e-01  -6.6946946e+06
   1.9846616e-09  -4.0668085e-03   2.8033720e-01   2.0428865e-01  -6.6654341e+06
   1.9873291e-09  -4.0490671e-03   2.8014730e-01   2.0443230e-01  -6.6363022e+06
   1.9899967e-09  -4.0314033e-03   2.7995836e-01   2.0457542e-01  -6.6072984e+06
   1.9926642e-09  -4.0138167e-03   2.7977035e-01   2.0471801e-01  -6.5784222e+06
   1.9953318e-09  -3.9963069e-03   2.7958329e-01   2.0486006e-01  -6.5496728e+06
   1.9979993e-09  -3.9788737e-03   2.7939715e-01   2.0500158e-01  -6.5210499e+06
   2.0006669e-09  -3.9615166e-03   2.7921195e-01   2.0514258e-01  -6.4925527e+06
   2.0033344e-09  -3.9442354e-03   2.7902766e-01   2.0528305e-01  -6.4641808e+06
   2.0060020e-09  -3.9270297e-03   2.7884430e-01   2.0542300e-01  -6.4359335e+06
   2.0086696e-09  -3.9098992e-03   2.7866185e-01   2.0556242e-01  -6.4078104e+06
   2.0113371e-09  -3.8928435e-03   2.7848030e-01   2.0570132e-01  -6.3798109e+06
   2.0140047e-09  -3.8758624e-03   2.7829966e-01   2.0583970e-01  -6.3519344e+06
   2.0166722e-09  -3.8589554e-03   2.7811991e-01   2.0597757e-01  -6.3241803e+06
   2.0193398e-09  -3.8421224e-03   2.7794106e-01   2.0611491e-01  -6.2965482e+06
   2.0220073e-09  -3.8253629e-03   2.7776309e-01   2.0625174e-01  -6.2690374e+06
   2.0246749e-09  -3.8086766e-03   2.7758601e-01   2.0638806e-01  -6.2416475e+06
   2.0273424e-09  -3.7920632e-03   2.7740980e-01   2.0652387e-01  -6.2143779e+06
   2.0300100e-09  -3.7755224e-03   2.7723447e-01   2.0665916e-01  -6.1872280e+06
   2.0326776e-09  -3.7590539e-03   2.7706001e-01   2.0679395e-01  -6.1601974e+06
   2.0353451e-09  -3.7426573e-03   2.7688641e-01   2.0692822e-01  -6.1332854e+06
   2.0380127e-09  -3.7263323e-03   2.7671366e-01   2.0706200e-01  -6.1064916e+06
   2.0406802e-09  -3.7100787e-03   2.7654178e-01   2.0719527e-01  -6.0798155e+06
   2.0433478e-09  -3.6938960e-03   2.7637074e-01   2.0732803e-01  -6.0532564e+06
   2.0460153e-09  -3.6777841e-03   2.7620054e-01   2.0746030e-01  -6.0268140e+06
   2.0486829e-09  -3.6617425e-03   2.7603119e-01   2.0759206e-01  -6.0004876e+06
   2.0513505e-09  -3.6457710e-03   2.7586267e-01   2.0772333e-01  -5.9742768e+06
   2.0540180e-09  -3.6298693e-03   2.7569499e-01   2.0785410e-01  -5.9481810e+06
   2.0566856e-09  -3.6140370e-03   2.7552813e-01   2.0798438e-01  -5.9221997e+06
   2.0593531e-09  -3.5982739e-03   2.7536209e-01   2.0811416e-01  -5.8963324e+06
   2.0620207e-09  -3.5825797e-03   2.7519687e-01   2.0824345e-01  -5.8705787e+06
   2.0646882e-09  -3.5669539e-03   2.7503246e-01   2.0837225e-01  -5.8449380e+06
   2.0673558e-09  -3.5513965e-03   2.7486886e-01   2.0850057e-01  -5.8194097e+06
   2.0700233e-09  -3.5359070e-03   2.7470607e-01   2.0862839e-01  -5.7939935e+06
   2.0726909e-09  -3.5204851e-03   2.7454407e-01   2.0875573e-01  -5.7686887e+06
   2.0753585e-09  -3.5051306e-03   2.7438287e-01   2.0888259e-01  -5.7434950e+06
   2.0780260e-09  -3.4898431e-03   2.7422247e-01   2.0900896e-01  -5.7184118e+06
   2.0806936e-09  -3.4746224e-03   2.7406285e-01   2.0913485e-01  -5.6934386e+06
   2.0833611e-09  -3.4594682e-03   2.7390401e-01   2.0926026e-01  -5.6685749e+06
   2.0860287e-09  -3.4443802e-03   2.7374595e-01   2.0938520e-01  -5.6438203e+06
   2.0886962e-09  -3.4293580e-03   2.7358866e-01   2.0950966e-01  -5.6191742e+06
   2.0913638e-09  -3.4144015e-03   2.7343215e-01   2.0963364e-01  -5.5946362e+06
   2.0940313e-09  -3.3995102e-03   2.7327640e-01   2.0975715e-01  -5.5702058e+06
   2.0966989e-09  -3.3846840e-03   2.7312142e-01   2.0988019e-01  -5.5458826e+06
   2.0993665e-09  -3.3699225e-03   2.7296719e-01   2.1000276e-01  -5.5216659e+06
   2.1020340e-09  -3.3552255e-03   2.7281371e-01   2.1012486e-01  -5.4975555e+06
   2.1047016e-09  -3.3405927e-03   2.7266099e-01   2.1024649e-01  -5.4735507e+06
   2.1073691e-09  -3.3260237e-03   2.7250901e-01   2.1036765e-01  -5.4496512e+06
   2.1100367e-09  -3.3115184e-03   2.7235777e-01   2.1048835e-01  -5.4258564e+06
   2.1127042e-09  -3.2970764e-03   2.7220727e-01   2.1060859e-01  -5.4021659e+06
   2.1153718e-09  -3.2826974e-03   2.7205751e-01   2.1072837e-01  -5.3785793e+06
   2.1180393e-09  -3.2683813e-03   2.7190847e-01   2.1084769e-01  -5.3550960e+06
   2.1207069e-09  -3.2541276e-03   2.7176016e-01   2.1096655e-01  -5.3317157e+06
   2.1233745e-09  -3.2399362e-03   2.7161258e-01   2.1108495e-01  -5.3084378e+06
   2.1260420e-09  -3.2258067e-03   2.7146571e-01   2.1120290e-01  -5.2852619e+06
   2.1287096e-09  -3.2117390e-03   2.7131955e-01   2.1132039e-01  -5.2621876e+06
   2.1313771e-09  -3.1977326e-03   2.7117411e-01   2.1143743e-01  -5.2392144e+06
   2.1340447e-09  -3.1837874e-03   2.7102937e-01   2.1155402e-01  -5.2163418e+06
   2.1367122e-09  -3.1699030e-03   2.7088534e-01   2.1167016e-01  -5.1935694e+06
   2.1393798e-09  -3.1560793e-03   2.7074201e-01   2.1178586e-01  -5.1708968e+06
   2.1420473e-09  -3.1423159e-03   2.7059937e-01   2.1190110e-01  -5.1483236e+06
   2.1447149e-09  -3.1286127e-03   2.7045742e-01   2.1201591e-01  -5.1258492e+06
   2.1473825e-09  -3.1149692e-03   2.7031616e-01   2.1213026e-01  -5.1034732e+06
   2.1500500e-09  -3.1013853e-03   2.7017559e-01   2.1224418e-01  -5.0811953e+06
   2.1527176e-09  -3.0878607e-03   2.7003570e-01   2.1235766e-01  -5.0590149e+06
   2.1553851e-09  -3.0743951e-03   2.6989649e-01   2.1247069e-01  -5.0369317e+06
   2.1580527e-09  -3.0609883e-03   2.6975795e-01   2.1258329e-01  -5.0149452e+06
   2.1607202e-09  -3.0476400e-03   2.6962008e-01   2.1269546e-01  -4.9930550e+06
   2.1633878e-09  -3.0343500e-03   2.6948287e-01   2.1280718e-01  -4.9712606e+06
   2.1660554e-09  -3.0211180e-03   2.6934633e-01   2.1291848e-01  -4.9495617e+06
   2.1687229e-09  -3.0079437e-03   2.6921045e-01   2.1302934e-01  -4.9279578e+06
   2.1713905e-09  -2.9948270e-03   2.6907523e-01   2.1313977e-01  -4.9064485e+06
   2.1740580e-09  -2.9817675e-03   2.6894066e-01   2.1324978e-01  -4.8850334e+06
   2.1767256e-09  -2.9687650e-03   2.6880674e-01   2.1335935e-01  -4.8637120e+06
   2.1793931e-09  -2.9558193e-03   2.6867346e-01   2.1346850e-01  -4.8424840e+06
   2.1820607e-09  -2.9429300e-03   2.6854083e-01   2.1357723e-01  -4.8213489e+06
   2.1847282e-09  -2.9300970e-03   2.6840884e-01   2.1368553e-01  -4.8003063e+06
   2.1873958e-09  -2.9173201e-03   2.6827748e-01   2.1379341e-01  -4.7793558e+06
   2.1900634e-09  -2.9045988e-03   2.6814676e-01   2.1390087e-01  -4.7584971e+06
   2.1927309e-09  -2.8919332e-03   2.6801666e-01   2.1400792e-01  -4.7377296e+06
   2.1953985e-09  -2.8793227e-03   2.6788719e-01   2.1411454e-01  -4.7170530e+06
   2.1980660e-09  -2.8667674e-03   2.6775835e-01   2.1422075e-01  -4.6964670e+06
   2.2007336e-09  -2.8542668e-03   2.6763012e-01   2.1432654e-01  -4.6759710e+06
   2.2034011e-09  -2.8418207e-03   2.6750251e-01   2.1443192e-01  -4.6555647e+06
   2.2060687e-09  -2.8294290e-03   2.6737551e-01   2.1453689e-01  -4.6352477e+06
   2.2087362e-09  -2.8170914e-03   2.6724912e-01   2.1464145e-01  -4.6150197e+06
   2.2114038e-09  -2.8048076e-03   2.6712334e-01   2.1474560e-01  -4.5948801e+06
   2.2140714e-09  -2.7925774e-03   2.6699817e-01   2.1484934e-01  -4.5748287e+06
   2.2167389e-09  -2.7804006e-03   2.6687359e-01   2.1495267e-01  -4.5548650e+06
   2.2194065e-09  -2.7682769e-03   2.6674961e-01   2.1505560e-01  -4.5349887e+06
   2.2220740e-09  -2.7562061e-03   2.6662623e-01   2.1515813e-01  -4.5151993e+06
   2.2247416e-09  -2.7441880e-03   2.6650343e-01   2.1526026e-01  -4.4954965e+06
   2.2274091e-09  -2.7322223e-03   2.6638123e-01   2.1536198e-01  -4.4758799e+06
   2.2300767e-09  -2.7203089e-03   2.6625960e-01   2.1546330e-01  -4.4563491e+06
   2.2327442e-09  -2.7084474e-03   2.6613857e-01   2.1556423e-01  -4.4369037e+06
   2.2354118e-09  -2.6966377e-03   2.6601811e-01   2.1566476e-01  -4.4175435e+06
   2.2380794e-09  -2.6848796e-03   2.6589822e-01   2.1576490e-01  -4.3982679e+06
   2.2407469e-09  -2.6731727e-03   2.6577891e-01   2.1586464e-01  -4.3790766e+06
   2.2434145e-09  -2.6615169e-03   2.6566017e-01   2.1596399e-01  -4.3599692e+06
   2.2460820e-09  -2.6499120e-03   2.6554200e-01   2.1606295e-01  -4.3409454e+06
   2.2487496e-09  -2.6383577e-03   2.6542439e-01   2.1616151e-01  -4.3220049e+06
   2.2514171e-09  -2.6268538e-03   2.6530734e-01   2.1625969e-01  -4.3031471e+06
   2.2540847e-09  -2.6154001e-03   2.6519085e-01   2.1635749e-01  -4.2843719e+06
   2.2567523e-09  -2.6039964e-03   2.6507491e-01   2.1645489e-01  -4.2656787e+06
   2.2594198e-09  -2.5926424e-03   2.6495953e-01   2.1655192e-01  -4.2470673e+06
   2.2620874e-09  -2.5813380e-03   2.6484470e-01   2.1664856e-01  -4.2285373e+06
   2.2647549e-09  -2.5700829e-03   2.6473042e-01   2.1674481e-01  -4.2100883e+06
   2.2674225e-09  -2.5588769e-03   2.6461667e-01   2.1684069e-01  -4.1917200e+06
   2.2700900e-09  -2.5477198e-03   2.6450348e-01   2.1693619e-01  -4.1734320e+06
   2.2727576e-09  -2.5366114e-03   2.6439081e-01   2.1703131e-01  -4.1552240e+06
   2.2754251e-09  -2.5255514e-03   2.6427869e-01   2.1712606e-01  -4.1370955e+06
   2.2780927e-09  -2.5145397e-03   2.6416710e-01   2.1722043e-01  -4.1190464e+06
   2.2807603e-09  -2.5035761e-03   2.6405604e-01   2.1731442e-01  -4.1010761e+06
   2.2834278e-09  -2.4926602e-03   2.6394550e-01   2.1740805e-01  -4.0831844e+06
   2.2860954e-09  -2.4817920e-03   2.6383549e-01   2.1750130e-01  -4.0653709e+06
   2.2887629e-09  -2.4709712e-03   2.6372601e-01   2.1759418e-01  -4.0476353e+06
   2.2914305e-09  -2.4601976e-03   2.6361704e-01   2.1768670e-01  -4.0299772e+06
   2.2940980e-09  -2.4494710e-03   2.6350859e-01   2.1777884e-01  -4.0123964e+06
   2.2967656e-09  -2.4387913e-03   2.6340065e-01   2.1787063e-01  -3.9948923e+06
   2.2994331e-09  -2.4281580e-03   2.6329323e-01   2.1796204e-01  -3.9774648e+06
   2.3021007e-09  -2.4175712e-03   2.6318632e-01   2.1805310e-01  -3.9601135e+06
   2.3047683e-09  -2.4070306e-03   2.6307991e-01   2.1814379e-01  -3.9428379e+06
   2.3074358e-09  -2.3965359e-03   2.6297400e-01   2.1823412e-01  -3.9256379e+06
   2.3101034e-09  -2.3860871e-03   2.6286860e-01   2.1832409e-01  -3.9085131e+06
   2.3127709e-09  -2.3756838e-03   2.6276370e-01   2.1841371e-01  -3.8914631e+06
   2.3154385e-09  -2.3653259e-03   2.6265929e-01   2.1850296e-01  -3.8744877e+06
   2.3181060e-09  -2.3550132e-03   2.6255537e-01   2.1859187e-01  -3.8575864e+06
   2.3207736e-09  -2.3447454e-03   2.6245195e-01   2.1868041e-01  -3.8407590e+06
   2.3234411e-09  -2.3345225e-03   2.6234902e-01   2.1876861e-01  -3.8240051e+06
   2.3261087e-09  -2.3243441e-03   2.6224657e-01   2.1885645e-01  -3.8073244e+06
   2.3287763e-09  -2.3142102e-03   2.6214461e-01   2.1894394e-01  -3.7907166e+06
   2.3314438e-09  -2.3041204e-03   2.6204312e-01   2.1903109e-01  -3.7741814e+06
   2.3341114e-09  -2.2940747e-03   2.6194212e-01   2.1911788e-01  -3.7577185e+06
   2.3367789e-09  -2.2840728e-03   2.6184159e-01   2.1920433e-01  -3.7413275e+06
   2.3394465e-09  -2.2741145e-03   2.6174154e-01   2.1929043e-01  -3.7250081e+06
   2.3421140e-09  -2.2641996e-03   2.6164196e-01   2.1937619e-01  -3.7087600e+06
   2.3447816e-09  -2.2543280e-03   2.6154285e-01   2.1946161e-01  -3.6925829e+06
   2.3474491e-09  -2.2444995e-03   2.6144420e-01   2.1954668e-01  -3.6764764e+06
   2.3501167e-09  -2.2347138e-03   2.6134602e-01   2.1963141e-01  -3.6604404e+06
   2.3527843e-09  -2.2249708e-03   2.6124830e-01   2.1971581e-01  -3.6444744e+06
   2.3554518e-09  -2.2152703e-03   2.6115105e-01   2.1979986e-01  -3.6285781e+06
   2.3581194e-09  -2.2056121e-03   2.6105425e-01   2.1988358e-01  -3.6127513e+06
   2.3607869e-09  -2.1959961e-03   2.6095790e-01   2.1996697e-01  -3.5969937e+06
   2.3634545e-09  -2.1864219e-03   2.6086201e-01   2.2005002e-01  -3.5813048e+06
   2.3661220e-09  -2.1768896e-03   2.6076657e-01   2.2013273e-01  -3.5656846e+06
   2.3687896e-09  -2.1673988e-03   2.6067158e-01   2.2021512e-01  -3.5501325e+06
   2.3714572e-09  -2.1579494e-03   2.6057703e-01   2.2029717e-01  -3.5346484e+06
   2.3741247e-09  -2.1485412e-03   2.6048293e-01   2.2037890e-01  -3.5192319e+06
   2.3767923e-09  -2.1391741e-03   2.6038927e-01   2.2046029e-01  -3.5038827e+06
   2.3794598e-09  -2.1298478e-03   2.6029605e-01   2.2054136e-01  -3.4886006e+06
   2.3821274e-09  -2.1205622e-03   2.6020326e-01   2.2062210e-01  -3.4733853e+06
   2.3847949e-09  -2.1113171e-03   2.6011092e-01   2.2070252e-01  -3.4582364e+06
   2.3874625e-09  -2.1021123e-03   2.6001900e-01   2.2078262e-01  -3.4431536e+06
   2.3901300e-09  -2.0929477e-03   2.5992752e-01   2.2086239e-01  -3.4281368e+06
   2.3927976e-09  -2.0838230e-03   2.5983646e-01   2.2094184e-01  -3.4131855e+06
   2.3954652e-09  -2.0747381e-03   2.5974583e-01   2.2102097e-01  -3.3982995e+06
   2.3981327e-09  -2.0656929e-03   2.5965563e-01   2.2109978e-01  -3.3834786e+06
   2.4008003e-09  -2.0566871e-03   2.5956585e-01   2.2117828e-01  -3.3687223e+06
   2.4034678e-09  -2.0477205e-03   2.5947649e-01   2.2125646e-01  -3.3540305e+06
   2.4061354e-09  -2.0387931e-03   2.5938754e-01   2.2133432e-01  -3.3394029e+06
   2.4088029e-09  -2.0299046e-03   2.5929902e-01   2.2141187e-01  -3.3248391e+06
   2.4114705e-09  -2.0210549e-03   2.5921090e-01   2.2148910e-01  -3.3103390e+06
   2.4141380e-09  -2.0122438e-03   2.5912320e-01   2.2156603e-01  -3.2959021e+06
   2.4168056e-09  -2.0034711e-03   2.5903591e-01   2.2164264e-01  -3.2815283e+06
   2.4194732e-09  -1.9947366e-03   2.5894903e-01   2.2171894e-01  -3.2672173e+06
   2.4221407e-09  -1.9860403e-03   2.5886255e-01   2.2179494e-01  -3.2529687e+06
   2.4248083e-09  -1.9773819e-03   2.5877648e-01   2.2187063e-01  -3.2387824e+06
   2.4274758e-09  -1.9687612e-03   2.5869080e-01   2.2194601e-01  -3.2246580e+06
   2.4301434e-09  -1.9601781e-03   2.5860553e-01   2.2202108e-01  -3.2105952e+06
   2.4328109e-09  -1.9516325e-03   2.5852066e-01   2.2209586e-01  -3.1965939e+06
   2.4354785e-09  -1.9431241e-03   2.5843618e-01   2.2217033e-01  -3.1826537e+06
   2.4381460e-09  -1.9346529e-03   2.5835209e-01   2.2224450e-01  -3.1687744e+06
   2.4408136e-09  -1.9262185e-03   2.5826840e-01   2.2231836e-01  -3.1549557e+06
   2.4434812e-09  -1.9178210e-03   2.5818510e-01   2.2239193e-01  -3.1411973e+06
   2.4461487e-09  -1.9094601e-03   2.5810218e-01   2.2246520e-01  -3.1274989e+06
   2.4488163e-09  -1.9011356e-03   2.5801966e-01   2.2253818e-01  -3.1138604e+06
   2.4514838e-09  -1.8928474e-03   2.5793751e-01   2.2261085e-01  -3.1002814e+06
   2.4541514e-09  -1.8845954e-03   2.5785575e-01   2.2268324e-01  -3.0867617e+06
   2.4568189e-09  -1.8763794e-03   2.5777437e-01   2.2275532e-01  -3.0733010e+06
   2.4594865e-09  -1.8681992e-03   2.5769337e-01   2.2282712e-01  -3.0598991e+06
   2.4621541e-09  -1.8600547e-03   2.5761274e-01   2.2289862e-01  -3.0465557e+06
   2.4648216e-09  -1.8519456e-03   2.5753249e-01   2.2296984e-01  -3.0332705e+06
   2.4674892e-09  -1.8438720e-03   2.5745261e-01   2.2304076e-01  -3.0200433e+06
   2.4701567e-09  -1.8358335e-03   2.5737311e-01   2.2311140e-01  -3.0068739e+06
   2.4728243e-09  -1.8278301e-03   2.5729397e-01   2.2318175e-01  -2.9937619e+06
   2.4754918e-09  -1.8198616e-03   2.5721520e-01   2.2325181e-01  -2.9807072e+06
   2.4781594e-09  -1.8119279e-03   2.5713680e-01   2.2332159e-01  -2.9677095e+06
   2.4808269e-09  -1.8040288e-03   2.5705876e-01   2.2339108e-01  -2.9547685e+06
   2.4834945e-09  -1.7961640e-03   2.5698108e-01   2.2346029e-01  -2.9418840e+06
   2.4861621e-09  -1.7883336e-03   2.5690376e-01   2.2352922e-01  -2.9290557e+06
   2.4888296e-09  -1.7805374e-03   2.5682680e-01   2.2359787e-01  -2.9162834e+06
   2.4914972e-09  -1.7727751e-03   2.5675020e-01   2.2366623e-01  -2.9035669e+06
   2.4941647e-09  -1.7650467e-03   2.5667395e-01   2.2373432e-01  -2.8909059e+06
   2.4968323e-09  -1.7573520e-03   2.5659806e-01   2.2380213e-01  -2.8783001e+06
   2.4994998e-09  -1.7496908e-03   2.5652252e-01   2.2386967e-01  -2.8657493e+06
   2.5021674e-09  -1.7420630e-03   2.5644733e-01   2.2393693e-01  -2.8532533e+06
   2.5048349e-09  -1.7344685e-03   2.5637248e-01   2.2400391e-01  -2.8408119e+06
   2.5075025e-09  -1.7269071e-03   2.5629799e-01   2.2407062e-01  -2.8284248e+06
   2.5101701e-09  -1.7193787e-03   2.5622384e-01   2.2413706e-01  -2.8160917e+06
   2.5128376e-09  -1.7118831e-03   2.5615003e-01   2.2420323e-01  -2.8038124e+06
   2.5155052e-09  -1.7044202e-03   2.5607656e-01   2.2426913e-01  -2.7915867e+06
   2.5181727e-09  -1.6969899e-03   2.5600343e-01   2.2433476e-01  -2.7794144e+06
   2.5208403e-09  -1.6895919e-03   2.5593064e-01   2.2440011e-01  -2.7672952e+06
   2.5235078e-09  -1.6822262e-03   2.5585819e-01   2.2446521e-01  -2.7552289e+06
   2.5261754e-09  -1.6748926e-03   2.5578607e-01   2.2453003e-01  -2.7432153e+06
   2.5288429e-09  -1.6675910e-03   2.5571429e-01   2.2459459e-01  -2.7312540e+06
   2.5315105e-09  -1.6603212e-03   2.5564284e-01   2.2465889e-01  -2.7193450e+06
   2.5341781e-09  -1.6530831e-03   2.5557171e-01   2.2472292e-01  -2.7074879e+06
   2.5368456e-09  -1.6458766e-03   2.5550092e-01   2.2478669e-01  -2.6956826e+06
   2.5395132e-09  -1.6387015e-03   2.5543045e-01   2.2485020e-01  -2.6839288e+06
   2.5421807e-09  -1.6315577e-03   2.5536031e-01   2.2491345e-01  -2.6722263e+06
   2.5448483e-09  -1.6244450e-03   2.5529049e-01   2.2497644e-01  -2.6605748e+06
   2.5475158e-09  -1.6173634e-03   2.5522099e-01   2.2503917e-01  -2.6489742e+06
   2.5501834e-09  -1.6103126e-03   2.5515182e-01   2.2510164e-01  -2.6374242e+06
   2.5528510e-09  -1.6032926e-03   2.5508296e-01   2.2516386e-01  -2.6259246e+06
   2.5555185e-09  -1.5963032e-03   2.5501442e-01   2.2522582e-01  -2.6144752e+06
   2.5581861e-09  -1.5893442e-03   2.5494620e-01   2.2528753e-01  -2.6030758e+06
   2.5608536e-09  -1.5824156e-03   2.5487829e-01   2.2534899e-01  -2.5917260e+06
   2.5635212e-09  -1.5755172e-03   2.5481069e-01   2.2541019e-01  -2.5804258e+06
   2.5661887e-09  -1.5686489e-03   2.5474340e-01   2.2547114e-01  -2.5691749e+06
   2.5688563e-09  -1.5618105e-03   2.5467643e-01   2.2553184e-01  -2.5579731e+06
   2.5715238e-09  -1.5550020e-03   2.5460976e-01   2.2559229e-01  -2.5468202e+06
   2.5741914e-09  -1.5482231e-03   2.5454340e-01   2.2565249e-01  -2.5357159e+06
   2.5768590e-09  -1.5414738e-03   2.5447734e-01   2.2571245e-01  -2.5246601e+06
   2.5795265e-09  -1.5347539e-03   2.5441159e-01   2.2577216e-01  -2.5136525e+06
   2.5821941e-09  -1.5280633e-03   2.5434614e-01   2.2583162e-01  -2.5026929e+06
   2.5848616e-09  -1.5214019e-03   2.5428099e-01   2.2589084e-01  -2.4917812e+06
   2.5875292e-09  -1.5147695e-03   2.5421615e-01   2.2594981e-01  -2.4809170e+06
   2.5901967e-09  -1.5081661e-03   2.5415160e-01   2.2600854e-01  -2.4701003e+06
   2.5928643e-09  -1.5015914e-03   2.5408734e-01   2.2606703e-01  -2.4593307e+06
   2.5955318e-09  -1.4950454e-03   2.5402338e-01   2.2612528e-01  -2.4486082e+06
   2.5981994e-09  -1.4885279e-03   2.5395972e-01   2.2618329e-01  -2.4379324e+06
   2.6008670e-09  -1.4820389e-03   2.5389634e-01   2.2624106e-01  -2.4273031e+06
   2.6035345e-09  -1.4755782e-03   2.5383326e-01   2.2629859e-01  -2.4167203e+06
   2.6062021e-09  -1.4691456e-03   2.5377047e-01   2.2635588e-01  -2.4061836e+06
   2.6088696e-09  -1.4627410e-03   2.5370797e-01   2.2641294e-01  -2.3956929e+06
   2.6115372e-09  -1.4563644e-03   2.5364575e-01   2.2646976e-01  -2.3852479e+06
   2.6142047e-09  -1.4500156e-03   2.5358382e-01   2.2652635e-01  -2.3748485e+06
   2.6168723e-09  -1.4436945e-03   2.5352217e-01   2.2658270e-01  -2.3644945e+06
   2.6195398e-09  -1.4374009e-03   2.5346080e-01   2.2663882e-01  -2.3541857e+06
   2.6222074e-09  -1.4311348e-03   2.5339972e-01   2.2669471e-01  -2.3439218e+06
   2.6248750e-09  -1.4248960e-03   2.5333891e-01   2.2675037e-01  -2.3337027e+06
   2.6275425e-09  -1.4186843e-03   2.5327839e-01   2.2680580e-01  -2.3235281e+06
   2.6302101e-09  -1.4124998e-03   2.5321814e-01   2.2686100e-01  -2.3133980e+06
   2.6328776e-09  -1.4063422e-03   2.5315817e-01   2.2691597e-01  -2.3033120e+06
   2.6355452e-09  -1.4002115e-03   2.5309847e-01   2.2697071e-01  -2.2932700e+06
   2.6382127e-09  -1.3941075e-03   2.5303904e-01   2.2702523e-01  -2.2832719e+06
   2.6408803e-09  -1.3880301e-03   2.5297989e-01   2.2707952e-01  -2.2733173e+06
   2.6435478e-09  -1.3819792e-03   2.5292101e-01   2.2713359e-01  -2.2634062e+06
   2.6462154e-09  -1.3759547e-03   2.5286240e-01   2.2718743e-01  -2.2535383e+06
   2.6488830e-09  -1.3699565e-03   2.5280405e-01   2.2724105e-01  -2.2437134e+06
   2.6515505e-09  -1.3639844e-03   2.5274598e-01   2.2729445e-01  -2.2339314e+06
   2.6542181e-09  -1.3580384e-03   2.5268816e-01   2.2734763e-01  -2.2241921e+06
   2.6568856e-09  -1.3521182e-03   2.5263061e-01   2.2740059e-01  -2.2144953e+06
   2.6595532e-09  -1.3462239e-03   2.5257333e-01   2.2745332e-01  -2.2048407e+06
   2.6622207e-09  -1.3403553e-03   2.5251631e-01   2.2750584e-01  -2.1952283e+06
   2.6648883e-09  -1.3345122e-03   2.5245954e-01   2.2755814e-01  -2.1856577e+06
   2.6675559e-09  -1.3286947e-03   2.5240304e-01   2.2761023e-01  -2.1761290e+06
   2.6702234e-09  -1.3229025e-03   2.5234680e-01   2.2766210e-01  -2.1666417e+06
   2.6728910e-09  -1.3171355e-03   2.5229081e-01   2.2771375e-01  -2.1571959e+06
   2.6755585e-09  -1.3113937e-03   2.5223507e-01   2.2776519e-01  -2.1477913e+06
   2.6782261e-09  -1.3056769e-03   2.5217960e-01   2.2781641e-01  -2.1384277e+06
   2.6808936e-09  -1.2999851e-03   2.5212437e-01   2.2786743e-01  -2.1291049e+06
   2.6835612e-09  -1.2943181e-03   2.5206940e-01   2.2791823e-01  -2.1198228e+06
   2.6862287e-09  -1.2886757e-03   2.5201467e-01   2.2796882e-01  -2.1105811e+06
   2.6888963e-09  -1.2830580e-03   2.5196020e-01   2.2801920e-01  -2.1013798e+06
   2.6915639e-09  -1.2774648e-03   2.5190598e-01   2.2806937e-01  -2.0922186e+06
   2.6942314e-09  -1.2718959e-03   2.5185200e-01   2.2811933e-01  -2.0830973e+06
   2.6968990e-09  -1.2663513e-03   2.5179827e-01   2.2816908e-01  -2.0740159e+06
   2.6995665e-09  -1.2608309e-03   2.5174478e-01   2.2821863e-01  -2.0649740e+06
   2.7022341e-09  -1.2553346e-03   2.5169154e-01   2.2826797e-01  -2.0559716e+06
   2.7049016e-09  -1.2498622e-03   2.5163854e-01   2.2831711e-01  -2.0470084e+06
   2.7075692e-09  -1.2444137e-03   2.5158578e-01   2.2836604e-01  -2.0380844e+06
   2.7102367e-09  -1.2389889e-03   2.5153326e-01   2.2841477e-01  -2.0291992e+06
   2.7129043e-09  -1.2335878e-03   2.5148098e-01   2.2846330e-01  -2.0203528e+06
   2.7155719e-09  -1.2282102e-03   2.5142894e-01   2.2851162e-01  -2.0115450e+06
   2.7182394e-09  -1.2228561e-03   2.5137713e-01   2.2855974e-01  -2.0027756e+06
   2.7209070e-09  -1.2175253e-03   2.5132556e-01   2.2860766e-01  -1.9940444e+06
   2.7235745e-09  -1.2122177e-03   2.5127423e-01   2.2865539e-01  -1.9853513e+06
   2.7262421e-09  -1.2069333e-03   2.5122313e-01   2.2870291e-01  -1.9766962e+06
   2.7289096e-09  -1.2016720e-03   2.5117226e-01   2.2875024e-01  -1.9680787e+06
   2.7315772e-09  -1.1964335e-03   2.5112162e-01   2.2879736e-01  -1.9594989e+06
   2.7342447e-09  -1.1912179e-03   2.5107121e-01   2.2884430e-01  -1.9509565e+06
   2.7369123e-09  -1.1860251e-03   2.5102103e-01   2.2889103e-01  -1.9424513e+06
   2.7395799e-09  -1.1808549e-03   2.5097108e-01   2.2893757e-01  -1.9339832e+06
   2.7422474e-09  -1.1757072e-03   2.5092136e-01   2.2898392e-01  -1.9255520e+06
   2.7449150e-09  -1.1705819e-03   2.5087186e-01   2.2903007e-01  -1.9171576e+06
   2.7475825e-09  -1.1654790e-03   2.5082259e-01   2.2907604e-01  -1.9087998e+06
   2.7502501e-09  -1.1603984e-03   2.5077354e-01   2.2912181e-01  -1.9004785e+06
   2.7529176e-09  -1.1553399e-03   2.5072472e-01   2.2916738e-01  -1.8921934e+06
   2.7555852e-09  -1.1503034e-03   2.5067611e-01   2.2921277e-01  -1.8839445e+06
   2.7582528e-09  -1.1452889e-03   2.5062773e-01   2.2925797e-01  -1.8757316e+06
   2.7609203e-09  -1.1402963e-03   2.5057956e-01   2.2930298e-01  -1.8675544e+06
   2.7635879e-09  -1.1353254e-03   2.5053162e-01   2.2934780e-01  -1.8594129e+06
   2.7662554e-09  -1.1303762e-03   2.5048389e-01   2.2939244e-01  -1.8513069e+06
   2.7689230e-09  -1.1254486e-03   2.5043638e-01   2.2943689e-01  -1.8432363e+06
   2.7715905e-09  -1.1205425e-03   2.5038908e-01   2.2948115e-01  -1.8352009e+06
   2.7742581e-09  -1.1156577e-03   2.5034200e-01   2.2952522e-01  -1.8272005e+06
   2.7769256e-09  -1.1107943e-03   2.5029513e-01   2.2956912e-01  -1.8192350e+06
   2.7795932e-09  -1.1059520e-03   2.5024847e-01   2.2961283e-01  -1.8113042e+06
   2.7822608e-09  -1.1011308e-03   2.5020203e-01   2.2965635e-01  -1.8034080e+06
   2.7849283e-09  -1.0963307e-03   2.5015580e-01   2.2969970e-01  -1.7955462e+06
   2.7875959e-09  -1.0915515e-03   2.5010977e-01   2.2974286e-01  -1.7877187e+06
   2.7902634e-09  -1.0867931e-03   2.5006395e-01   2.2978584e-01  -1.7799254e+06
   2.7929310e-09  -1.0820555e-03   2.5001835e-01   2.2982865e-01  -1.7721660e+06
   2.7955985e-09  -1.0773385e-03   2.4997294e-01   2.2987127e-01  -1.7644405e+06
   2.7982661e-09  -1.0726421e-03   2.4992775e-01   2.2991371e-01  -1.7567486e+06
   2.8009336e-09  -1.0679662e-03   2.4988275e-01   2.2995598e-01  -1.7490903e+06
   2.8036012e-09  -1.0633106e-03   2.4983797e-01   2.2999807e-01  -1.7414654e+06
   2.8062688e-09  -1.0586754e-03   2.4979338e-01   2.3003999e-01  -1.7338737e+06
   2.8089363e-09  -1.0540603e-03   2.4974900e-01   2.3008172e-01  -1.7263152e+06
   2.8116039e-09  -1.0494654e-03   2.4970481e-01   2.3012329e-01  -1.7187895e+06
   2.8142714e-09  -1.0448905e-03   2.4966083e-01   2.3016468e-01  -1.7112967e+06
   2.8169390e-09  -1.0403355e-03   2.4961704e-01   2.3020589e-01  -1.7038366e+06
   2.8196065e-09  -1.0358004e-03   2.4957346e-01   2.3024693e-01  -1.6964090e+06
   2.8222741e-09  -1.0312851e-03   2.4953007e-01   2.3028780e-01  -1.6890138e+06
   2.8249416e-09  -1.0267894e-03   2.4948688e-01   2.3032850e-01  -1.6816508e+06
   2.8276092e-09  -1.0223134e-03   2.4944388e-01   2.3036903e-01  -1.6743200e+06
   2.8302768e-09  -1.0178569e-03   2.4940107e-01   2.3040939e-01  -1.6670211e+06
   2.8329443e-09  -1.0134197e-03   2.4935846e-01   2.3044958e-01  -1.6597540e+06
   2.8356119e-09  -1.0090020e-03   2.4931604e-01   2.3048960e-01  -1.6525186e+06
   2.8382794e-09  -1.0046035e-03   2.4927382e-01   2.3052945e-01  -1.6453148e+06
   2.8409470e-09  -1.0002241e-03   2.4923178e-01   2.3056913e-01  -1.6381424e+06
   2.8436145e-09  -9.9586389e-04   2.4918994e-01   2.3060865e-01  -1.6310012e+06
   2.8462821e-09  -9.9152266e-04   2.4914828e-01   2.3064801e-01  -1.6238912e+06
   2.8489496e-09  -9.8720034e-04   2.4910681e-01   2.3068719e-01  -1.6168122e+06
   2.8516172e-09  -9.8289687e-04   2.4906553e-01   2.3072621e-01  -1.6097640e+06
   2.8542848e-09  -9.7861216e-04   2.4902443e-01   2.3076507e-01  -1.6027466e+06
   2.8569523e-09  -9.7434613e-04   2.4898352e-01   2.3080377e-01  -1.5957597e+06
   2.8596199e-09  -9.7009870e-04   2.4894280e-01   2.3084230e-01  -1.5888034e+06
   2.8622874e-09  -9.6586978e-04   2.4890226e-01   2.3088067e-01  -1.5818773e+06
   2.8649550e-09  -9.6165930e-04   2.4886190e-01   2.3091888e-01  -1.5749815e+06
   2.8676225e-09  -9.5746717e-04   2.4882172e-01   2.3095693e-01  -1.5681157e+06
   2.8702901e-09  -9.5329331e-04   2.4878172e-01   2.3099481e-01  -1.5612799e+06
   2.8729577e-09  -9.4913765e-04   2.4874191e-01   2.3103254e-01  -1.5544739e+06
   2.8756252e-09  -9.4500011e-04   2.4870227e-01   2.3107011e-01  -1.5476975e+06
   2.8782928e-09  -9.4088060e-04   2.4866281e-01   2.3110753e-01  -1.5409507e+06
   2.8809603e-09  -9.3677905e-04   2.4862353e-01   2.3114478e-01  -1.5342333e+06
   2.8836279e-09  -9.3269538e-04   2.4858443e-01   2.3118188e-01  -1.5275452e+06
   2.8862954e-09  -9.2862951e-04   2.4854551e-01   2.3121882e-01  -1.5208862e+06
   2.8889630e-09  -9.2458137e-04   2.4850675e-01   2.3125560e-01  -1.5142563e+06
   2.8916305e-09  -9.2055087e-04   2.4846818e-01   2.3129224e-01  -1.5076553e+06
   2.8942981e-09  -9.1653795e-04   2.4842977e-01   2.3132871e-01  -1.5010830e+06
   2.8969657e-09  -9.1254251e-04   2.4839154e-01   2.3136503e-01  -1.4945394e+06
   2.8996332e-09  -9.0856450e-04   2.4835349e-01   2.3140120e-01  -1.4880244e+06
   2.9023008e-09  -9.0460382e-04   2.4831560e-01   2.3143722e-01  -1.4815377e+06
   2.9049683e-09  -9.0066041e-04   2.4827788e-01   2.3147309e-01  -1.4750794e+06
   2.9076359e-09  -8.9673419e-04   2.4824034e-01   2.3150880e-01  -1.4686492e+06
   2.9103034e-09  -8.9282508e-04   2.4820296e-01   2.3154437e-01  -1.4622470e+06
   2.9129710e-09  -8.8893302e-04   2.4816575e-01   2.3157978e-01  -1.4558727e+06
   2.9156385e-09  -8.8505792e-04   2.4812871e-01   2.3161504e-01  -1.4495262e+06
   2.9183061e-09  -8.8119972e-04   2.4809183e-01   2.3165016e-01  -1.4432074e+06
   2.9209737e-09  -8.7735833e-04   2.4805512e-01   2.3168513e-01  -1.4369162e+06
   2.9236412e-09  -8.7353369e-04   2.4801858e-01   2.3171995e-01  -1.4306523e+06
   2.9263088e-09  -8.6972572e-04   2.4798220e-01   2.3175462e-01  -1.4244158e+06
   2.9289763e-09  -8.6593435e-04   2.4794598e-01   2.3178915e-01  -1.4182065e+06
   2.9316439e-09  -8.6215951e-04   2.4790993e-01   2.3182353e-01  -1.4120242e+06
   2.9343114e-09  -8.5840112e-04   2.4787403e-01   2.3185776e-01  -1.4058689e+06
   2.9369790e-09  -8.5465912e-04   2.4783830e-01   2.3189186e-01  -1.3997404e+06
   2.9396465e-09  -8.5093343e-04   2.4780273e-01   2.3192580e-01  -1.3936387e+06
   2.9423141e-09  -8.4722398e-04   2.4776732e-01   2.3195961e-01  -1.3875635e+06
   2.9449817e-09  -8.4353070e-04   2.4773207e-01   2.3199327e-01  -1.3815148e+06
   2.9476492e-09  -8.3985352e-04   2.4769698e-01   2.3202679e-01  -1.3754925e+06
   2.9503168e-09  -8.3619237e-04   2.4766204e-01   2.3206017e-01  -1.3694965e+06
   2.9529843e-09  -8.3254718e-04   2.4762726e-01   2.3209340e-01  -1.3635266e+06
   2.9556519e-09  -8.2891788e-04   2.4759264e-01   2.3212650e-01  -1.3575827e+06
   2.9583194e-09  -8.2530440e-04   2.4755817e-01   2.3215945e-01  -1.3516647e+06
   2.9609870e-09  -8.2170667e-04   2.4752386e-01   2.3219227e-01  -1.3457726e+06
   2.9636546e-09  -8.1812463e-04   2.4748970e-01   2.3222495e-01  -1.3399061e+06
   2.9663221e-09  -8.1455820e-04   2.4745570e-01   2.3225749e-01  -1.3340652e+06
   2.9689897e-09  -8.1100731e-04   2.4742184e-01   2.3228989e-01  -1.3282497e+06
   2.9716572e-09  -8.0747191e-04   2.4738814e-01   2.3232216e-01  -1.3224597e+06
   2.9743248e-09  -8.0395191e-04   2.4735459e-01   2.3235428e-01  -1.3166948e+06
   2.9769923e-09  -8.0044727e-04   2.4732119e-01   2.3238628e-01  -1.3109551e+06
   2.9796599e-09  -7.9695789e-04   2.4728795e-01   2.3241813e-01  -1.3052404e+06
   2.9823274e-09  -7.9348373e-04   2.4725484e-01   2.3244986e-01  -1.2995506e+06
   2.9849950e-09  -7.9002472e-04   2.4722189e-01   2.3248144e-01  -1.2938857e+06
   2.9876626e-09  -7.8658078e-04   2.4718909e-01   2.3251290e-01  -1.2882454e+06
   2.9903301e-09  -7.8315185e-04   2.4715643e-01   2.3254422e-01  -1.2826297e+06
   2.9929977e-09  -7.7973788e-04   2.4712392e-01   2.3257541e-01  -1.2770385e+06
   2.9956652e-09  -7.7633878e-04   2.4709156e-01   2.3260647e-01  -1.2714716e+06
   2.9983328e-09  -7.7295450e-04   2.4705933e-01   2.3263739e-01  -1.2659291e+06
   3.0010003e-09  -7.6958498e-04   2.4702726e-01   2.3266819e-01  -1.2604107e+06
   3.0036679e-09  -7.6623014e-04   2.4699533e-01   2.3269885e-01  -1.2549163e+06
   3.0063354e-09  -7.6288993e-04   2.4696354e-01   2.3272938e-01  -1.2494459e+06
   3.0090030e-09  -7.5956427e-04   2.4693189e-01   2.3275979e-01  -1.2439994e+06
   3.0116706e-09  -7.5625312e-04   2.4690039e-01   2.3279006e-01  -1.2385766e+06
   3.0143381e-09  -7.5295639e-04   2.4686902e-01   2.3282021e-01  -1.2331774e+06
   3.0170057e-09  -7.4967404e-04   2.4683780e-01   2.3285023e-01  -1.2278018e+06
   3.0196732e-09  -7.4640600e-04   2.4680671e-01   2.3288012e-01  -1.2224496e+06
   3.0223408e-09  -7.4315220e-04   2.4677577e-01   2.3290989e-01  -1.2171207e+06
   3.0250083e-09  -7.3991259e-04   2.4674496e-01   2.3293953e-01  -1.2118151e+06
   3.0276759e-09  -7.3668710e-04   2.4671429e-01   2.3296904e-01  -1.2065326e+06
   3.0303434e-09  -7.3347567e-04   2.4668376e-01   2.3299843e-01  -1.2012731e+06
   3.0330110e-09  -7.3027824e-04   2.4665337e-01   2.3302769e-01  -1.1960366e+06
   3.0356786e-09  -7.2709474e-04   2.4662311e-01   2.3305683e-01  -1.1908229e+06
   3.0383461e-09  -7.2392513e-04   2.4659299e-01   2.3308585e-01  -1.1856319e+06
   3.0410137e-09  -7.2076933e-04   2.4656300e-01   2.3311474e-01  -1.1804635e+06
   3.0436812e-09  -7.1762728e-04   2.4653314e-01   2.3314351e-01  -1.1753177e+06
   3.0463488e-09  -7.1449894e-04   2.4650342e-01   2.3317216e-01  -1.1701943e+06
   3.0490163e-09  -7.1138423e-04   2.4647383e-01   2.3320068e-01  -1.1650933e+06
   3.0516839e-09  -7.0828310e-04   2.4644438e-01   2.3322909e-01  -1.1600144e+06
   3.0543515e-09  -7.0519548e-04   2.4641505e-01   2.3325737e-01  -1.1549578e+06
   3.0570190e-09  -7.0212133e-04   2.4638586e-01   2.3328554e-01  -1.1499231e+06
   3.0596866e-09  -6.9906058e-04   2.4635680e-01   2.3331358e-01  -1.1449104e+06
   3.0623541e-09  -6.9601316e-04   2.4632786e-01   2.3334151e-01  -1.1399196e+06
   3.0650217e-09  -6.9297904e-04   2.4629906e-01   2.3336931e-01  -1.1349505e+06
   3.0676892e-09  -6.8995814e-04   2.4627039e-01   2.3339700e-01  -1.1300031e+06
   3.0703568e-09  -6.8695040e-04   2.4624184e-01   2.3342458e-01  -1.1250772e+06
   3.0730243e-09  -6.8395578e-04   2.4621342e-01   2.3345203e-01  -1.1201728e+06
   3.0756919e-09  -6.8097422e-04   2.4618513e-01   2.3347937e-01  -1.1152898e+06
   3.0783595e-09  -6.7800564e-04   2.4615696e-01   2.3350659e-01  -1.1104281e+06
   3.0810270e-09  -6.7505001e-04   2.4612892e-01   2.3353369e-01  -1.1055876e+06
   3.0836946e-09  -6.7210727e-04   2.4610101e-01   2.3356068e-01  -1.1007682e+06
   3.0863621e-09  -6.6917735e-04   2.4607321e-01   2.3358756e-01  -1.0959697e+06
   3.0890297e-09  -6.6626020e-04   2.4604555e-01   2.3361432e-01  -1.0911923e+06
   3.0916972e-09  -6.6335577e-04   2.4601800e-01   2.3364097e-01  -1.0864356e+06
   3.0943648e-09  -6.6046401e-04   2.4599058e-01   2.3366750e-01  -1.0816996e+06
   3.0970323e-09  -6.5758484e-04   2.4596329e-01   2.3369392e-01  -1.0769844e+06
   3.0996999e-09  -6.5471823e-04   2.4593611e-01   2.3372023e-01  -1.0722896e+06
   3.1023675e-09  -6.5186411e-04   2.4590906e-01   2.3374643e-01  -1.0676154e+06
   3.1050350e-09  -6.4902244e-04   2.4588212e-01   2.3377251e-01  -1.0629615e+06
   3.1077026e-09  -6.4619315e-04   2.4585531e-01   2.3379849e-01  -1.0583278e+06
   3.1103701e-09  -6.4337619e-04   2.4582861e-01   2.3382435e-01  -1.0537144e+06
   3.1130377e-09  -6.4057152e-04   2.4580204e-01   2.3385011e-01  -1.0491211e+06
   3.1157052e-09  -6.3777907e-04   2.4577558e-01   2.3387575e-01  -1.0445479e+06
   3.1183728e-09  -6.3499879e-04   2.4574924e-01   2.3390129e-01  -1.0399945e+06
   3.1210403e-09  -6.3223063e-04   2.4572302e-01   2.3392671e-01  -1.0354610e+06
   3.1237079e-09  -6.2947454e-04   2.4569692e-01   2.3395203e-01  -1.0309473e+06
   3.1263755e-09  -6.2673047e-04   2.4567093e-01   2.3397724e-01  -1.0264533e+06
   3.1290430e-09  -6.2399835e-04   2.4564506e-01   2.3400234e-01  -1.0219788e+06
   3.1317106e-09  -6.2127815e-04   2.4561930e-01   2.3402734e-01  -1.0175238e+06
   3.1343781e-09  -6.1856980e-04   2.4559366e-01   2.3405223e-01  -1.0130883e+06
   3.1370457e-09  -6.1587326e-04   2.4556813e-01   2.3407701e-01  -1.0086721e+06
   3.1397132e-09  -6.1318847e-04   2.4554272e-01   2.3410169e-01  -1.0042752e+06
   3.1423808e-09  -6.1051539e-04   2.4551741e-01   2.3412626e-01  -9.9989737e+05
   3.1450483e-09  -6.0785396e-04   2.4549223e-01   2.3415073e-01  -9.9553866e+05
   3.1477159e-09  -6.0520413e-04   2.4546715e-01   2.3417509e-01  -9.9119896e+05
   3.1503835e-09  -6.0256585e-04   2.4544219e-01   2.3419935e-01  -9.8687818e+05
   3.1530510e-09  -5.9993907e-04   2.4541733e-01   2.3422351e-01  -9.8257623e+05
   3.1557186e-09  -5.9732374e-04   2.4539259e-01   2.3424756e-01  -9.7829304e+05
   3.1583861e-09  -5.9471982e-04   2.4536796e-01   2.3427151e-01  -9.7402851e+05
   3.1610537e-09  -5.9212724e-04   2.4534343e-01   2.3429536e-01  -9.6978257e+05
   3.1637212e-09  -5.8954597e-04   2.4531902e-01   2.3431911e-01  -9.6555515e+05
   3.1663888e-09  -5.8697594e-04   2.4529472e-01   2.3434275e-01  -9.6134615e+05
   3.1690564e-09  -5.8441713e-04   2.4527052e-01   2.3436630e-01  -9.5715550e+05
   3.1717239e-09  -5.8186946e-04   2.4524643e-01   2.3438974e-01  -9.5298311e+05
   3.1743915e-09  -5.7933290e-04   2.4522245e-01   2.3441309e-01  -9.4882891e+05
   3.1770590e-09  -5.7680740e-04   2.4519857e-01   2.3443633e-01  -9.4469283e+05
   3.1797266e-09  -5.7429290e-04   2.4517480e-01   2.3445948e-01  -9.4057477e+05
   3.1823941e-09  -5.7178937e-04   2.4515114e-01   2.3448252e-01  -9.3647466e+05
   3.1850617e-09  -5.6929675e-04   2.4512758e-01   2.3450547e-01  -9.3239242e+05
   3.1877292e-09  -5.6681500e-04   2.4510413e-01   2.3452832e-01  -9.2832798e+05
   3.1903968e-09  -5.6434406e-04   2.4508078e-01   2.3455108e-01  -9.2428126e+05
   3.1930644e-09  -5.6188390e-04   2.4505754e-01   2.3457373e-01  -9.2025218e+05
   3.1957319e-09  -5.5943446e-04   2.4503439e-01   2.3459629e-01  -9.1624066e+05
   3.1983995e-09  -5.5699570e-04   2.4501136e-01   2.3461875e-01  -9.1224662e+05
   3.2010670e-09  -5.5456757e-04   2.4498842e-01   2.3464112e-01  -9.0827000e+05
   3.2037346e-09  -5.5215002e-04   2.4496558e-01   2.3466339e-01  -9.0431071e+05
   3.2064021e-09  -5.4974301e-04   2.4494285e-01   2.3468557e-01  -9.0036868e+05
   3.2090697e-09  -5.4734650e-04   2.4492022e-01   2.3470765e-01  -8.9644383e+05
   3.2117372e-09  -5.4496043e-04   2.4489769e-01   2.3472964e-01  -8.9253609e+05
   3.2144048e-09  -5.4258476e-04   2.4487526e-01   2.3475153e-01  -8.8864539e+05
   3.2170724e-09  -5.4021945e-04   2.4485293e-01   2.3477333e-01  -8.8477165e+05
   3.2197399e-09  -5.3786444e-04   2.4483069e-01   2.3479503e-01  -8.8091479e+05
   3.2224075e-09  -5.3551971e-04   2.4480856e-01   2.3481665e-01  -8.7707474e+05
   3.2250750e-09  -5.3318519e-04   2.4478653e-01   2.3483817e-01  -8.7325143e+05
   3.2277426e-09  -5.3086086e-04   2.4476459e-01   2.3485960e-01  -8.6944479e+05
   3.2304101e-09  -5.2854665e-04   2.4474275e-01   2.3488094e-01  -8.6565474e+05
   3.2330777e-09  -5.2624253e-04   2.4472101e-01   2.3490218e-01  -8.6188122e+05
   3.2357452e-09  -5.2394846e-04   2.4469936e-01   2.3492334e-01  -8.5812414e+05
   3.2384128e-09  -5.2166438e-04   2.4467781e-01   2.3494440e-01  -8.5438344e+05
   3.2410804e-09  -5.1939027e-04   2.4465636e-01   2.3496538e-01  -8.5065904e+05
   3.2437479e-09  -5.1712606e-04   2.4463500e-01   2.3498626e-01  -8.4695088e+05
   3.2464155e-09  -5.1487173e-04   2.4461373e-01   2.3500706e-01  -8.4325888e+05
   3.2490830e-09  -5.1262722e-04   2.4459256e-01   2.3502777e-01  -8.3958298e+05
   3.2517506e-09  -5.1039250e-04   2.4457149e-01   2.3504839e-01  -8.3592310e+05
   3.2544181e-09  -5.0816752e-04   2.4455050e-01   2.3506892e-01  -8.3227917e+05
   3.2570857e-09  -5.0595223e-04   2.4452962e-01   2.3508936e-01  -8.2865113e+05
   3.2597533e-09  -5.0374661e-04   2.4450882e-01   2.3510971e-01  -8.2503890e+05
   3.2624208e-09  -5.0155060e-04   2.4448811e-01   2.3512998e-01  -8.2144242e+05
   3.2650884e-09  -4.9936416e-04   2.4446750e-01   2.3515016e-01  -8.1786162e+05
   3.2677559e-09  -4.9718725e-04   2.4444698e-01   2.3517026e-01  -8.1429642e+05
   3.2704235e-09  -4.9501983e-04   2.4442655e-01   2.3519027e-01  -8.1074677e+05
   3.2730910e-09  -4.9286186e-04   2.4440621e-01   2.3521019e-01  -8.0721258e+05
   3.2757586e-09  -4.9071330e-04   2.4438596e-01   2.3523003e-01  -8.0369381e+05
   3.2784261e-09  -4.8857410e-04   2.4436580e-01   2.3524978e-01  -8.0019037e+05
   3.2810937e-09  -4.8644423e-04   2.4434574e-01   2.3526945e-01  -7.9670220e+05
   3.2837613e-09  -4.8432364e-04   2.4432575e-01   2.3528903e-01  -7.9322924e+05
   3.2864288e-09  -4.8221230e-04   2.4430586e-01   2.3530853e-01  -7.8977142e+05
   3.2890964e-09  -4.8011016e-04   2.4428606e-01   2.3532795e-01  -7.8632867e+05
   3.2917639e-09  -4.7801718e-04   2.4426634e-01   2.3534729e-01  -7.8290092e+05
   3.2944315e-09  -4.7593333e-04   2.4424671e-01   2.3536654e-01  -7.7948812e+05
   3.2970990e-09  -4.7385856e-04   2.4422717e-01   2.3538570e-01  -7.7609019e+05
   3.2997666e-09  -4.7179284e-04   2.4420772e-01   2.3540479e-01  -7.7270708e+05
   3.3024341e-09  -4.6973612e-04   2.4418835e-01   2.3542380e-01  -7.6933871e+05
   3.3051017e-09  -4.6768836e-04   2.4416907e-01   2.3544272e-01  -7.6598503e+05
   3.3077693e-09  -4.6564954e-04   2.4414987e-01   2.3546156e-01  -7.6264596e+05
   3.3104368e-09  -4.6361959e-04   2.4413076e-01   2.3548032e-01  -7.5932145e+05
   3.3131044e-09  -4.6159850e-04   2.4411173e-01   2.3549900e-01  -7.5601143e+05
   3.3157719e-09  -4.5958622e-04   2.4409279e-01   2.3551760e-01  -7.5271584e+05
   3.3184395e-09  -4.5758271e-04   2.4407393e-01   2.3553613e-01  -7.4943462e+05
   3.3211070e-09  -4.5558794e-04   2.4405515e-01   2.3555457e-01  -7.4616769e+05
   3.3237746e-09  -4.5360186e-04   2.4403646e-01   2.3557293e-01  -7.4291501e+05
   3.3264421e-09  -4.5162444e-04   2.4401785e-01   2.3559121e-01  -7.3967651e+05
   3.3291097e-09  -4.4965563e-04   2.4399932e-01   2.3560942e-01  -7.3645212e+05
   3.3317773e-09  -4.4769541e-04   2.4398088e-01   2.3562755e-01  -7.3324179e+05
   3.3344448e-09  -4.4574374e-04   2.4396251e-01   2.3564560e-01  -7.3004545e+05
   3.3371124e-09  -4.4380057e-04   2.4394423e-01   2.3566357e-01  -7.2686304e+05
   3.3397799e-09  -4.4186587e-04   2.4392603e-01   2.3568146e-01  -7.2369451e+05
   3.3424475e-09  -4.3993961e-04   2.4390791e-01   2.3569928e-01  -7.2053979e+05
   3.3451150e-09  -4.3802174e-04   2.4388987e-01   2.3571703e-01  -7.1739882e+05
   3.3477826e-09  -4.3611224e-04   2.4387191e-01   2.3573469e-01  -7.1427154e+05
   3.3504502e-09  -4.3421105e-04   2.4385403e-01   2.3575228e-01  -7.1115789e+05
   3.3531177e-09  -4.3231816e-04   2.4383622e-01   2.3576980e-01  -7.0805782e+05
   3.3557853e-09  -4.3043352e-04   2.4381850e-01   2.3578724e-01  -7.0497125e+05
   3.3584528e-09  -4.2855709e-04   2.4380086e-01   2.3580460e-01  -7.0189815e+05
   3.3611204e-09  -4.2668884e-04   2.4378329e-01   2.3582189e-01  -6.9883843e+05
   3.3637879e-09  -4.2482874e-04   2.4376580e-01   2.3583911e-01  -6.9579206e+05
   3.3664555e-09  -4.2297674e-04   2.4374839e-01   2.3585625e-01  -6.9275896e+05
   3.3691230e-09  -4.2113282e-04   2.4373105e-01   2.3587332e-01  -6.8973909e+05
   3.3717906e-09  -4.1929693e-04   2.4371380e-01   2.3589031e-01  -6.8673238e+05
   3.3744582e-09  -4.1746905e-04   2.4369662e-01   2.3590724e-01  -6.8373877e+05
   3.3771257e-09  -4.1564914e-04   2.4367951e-01   2.3592409e-01  -6.8075822e+05
   3.3797933e-09  -4.1383716e-04   2.4366248e-01   2.3594086e-01  -6.7779066e+05
   3.3824608e-09  -4.1203308e-04   2.4364553e-01   2.3595757e-01  -6.7483603e+05
   3.3851284e-09  -4.1023686e-04   2.4362865e-01   2.3597420e-01  -6.7189428e+05
   3.3877959e-09  -4.0844848e-04   2.4361184e-01   2.3599077e-01  -6.6896535e+05
   3.3904635e-09  -4.0666788e-04   2.4359511e-01   2.3600726e-01  -6.6604919e+05
   3.3931310e-09  -4.0489506e-04   2.4357846e-01   2.3602368e-01  -6.6314575e+05
   3.3957986e-09  -4.0312995e-04   2.4356187e-01   2.3604003e-01  -6.6025496e+05
   3.3984662e-09  -4.0137255e-04   2.4354536e-01   2.3605631e-01  -6.5737677e+05
   3.4011337e-09  -3.9962280e-04   2.4352893e-01   2.3607252e-01  -6.5451112e+05
   3.4038013e-09  -3.9788068e-04   2.4351256e-01   2.3608866e-01  -6.5165797e+05
   3.4064688e-09  -3.9614616e-04   2.4349627e-01   2.3610473e-01  -6.4881725e+05
   3.4091364e-09  -3.9441920e-04   2.4348005e-01   2.3612073e-01  -6.4598892e+05
   3.4118039e-09  -3.9269976e-04   2.4346391e-01   2.3613666e-01  -6.4317292e+05
   3.4144715e-09  -3.9098782e-04   2.4344783e-01   2.3615253e-01  -6.4036919e+05
   3.4171390e-09  -3.8928335e-04   2.4343182e-01   2.3616832e-01  -6.3757768e+05
   3.4198066e-09  -3.8758630e-04   2.4341589e-01   2.3618405e-01  -6.3479834e+05
   3.4224742e-09  -3.8589665e-04   2.4340003e-01   2.3619971e-01  -6.3203111e+05
   3.4251417e-09  -3.8421437e-04   2.4338423e-01   2.3621531e-01  -6.2927595e+05
   3.4278093e-09  -3.8253942e-04   2.4336851e-01   2.3623083e-01  -6.2653280e+05
   3.4304768e-09  -3.8087177e-04   2.4335285e-01   2.3624629e-01  -6.2380160e+05
   3.4331444e-09  -3.7921139e-04   2.4333727e-01   2.3626169e-01  -6.2108231e+05
   3.4358119e-09  -3.7755825e-04   2.4332175e-01   2.3627701e-01  -6.1837487e+05
   3.4384795e-09  -3.7591232e-04   2.4330630e-01   2.3629228e-01  -6.1567924e+05
   3.4411470e-09  -3.7427356e-04   2.4329092e-01   2.3630747e-01  -6.1299535e+05
   3.4438146e-09  -3.7264194e-04   2.4327561e-01   2.3632260e-01  -6.1032317e+05
   3.4464822e-09  -3.7101744e-04   2.4326037e-01   2.3633767e-01  -6.0766263e+05
   3.4491497e-09  -3.6940002e-04   2.4324519e-01   2.3635267e-01  -6.0501369e+05
   3.4518173e-09  -3.6778964e-04   2.4323008e-01   2.3636760e-01  -6.0237629e+05
   3.4544848e-09  -3.6618629e-04   2.4321504e-01   2.3638248e-01  -5.9975039e+05
   3.4571524e-09  -3.6458993e-04   2.4320006e-01   2.3639728e-01  -5.9713594e+05
   3.4598199e-09  -3.6300053e-04   2.4318515e-01   2.3641203e-01  -5.9453289e+05
   3.4624875e-09  -3.6141805e-04   2.4317031e-01   2.3642671e-01  -5.9194118e+05
   3.4651551e-09  -3.5984248e-04   2.4315553e-01   2.3644133e-01  -5.8936077e+05
   3.4678226e-09  -3.5827377e-04   2.4314081e-01   2.3645588e-01  -5.8679160e+05
   3.4704902e-09  -3.5671190e-04   2.4312617e-01   2.3647037e-01  -5.8423364e+05
   3.4731577e-09  -3.5515684e-04   2.4311158e-01   2.3648480e-01  -5.8168682e+05
   3.4758253e-09  -3.5360856e-04   2.4309706e-01   2.3649917e-01  -5.7915111e+05
   3.4784928e-09  -3.5206703e-04   2.4308261e-01   2.3651348e-01  -5.7662645e+05
   3.4811604e-09  -3.5053221e-04   2.4306821e-01   2.3652772e-01  -5.7411280e+05
   3.4838279e-09  -3.4900409e-04   2.4305389e-01   2.3654190e-01  -5.7161010e+05
   3.4864955e-09  -3.4748263e-04   2.4303962e-01   2.3655603e-01  -5.6911831e+05
   3.4891631e-09  -3.4596780e-04   2.4302542e-01   2.3657009e-01  -5.6663738e+05
   3.4918306e-09  -3.4445958e-04   2.4301128e-01   2.3658409e-01  -5.6416727e+05
   3.4944982e-09  -3.4295793e-04   2.4299720e-01   2.3659803e-01  -5.6170793e+05
   3.4971657e-09  -3.4146282e-04   2.4298319e-01   2.3661191e-01  -5.5925930e+05
   3.4998333e-09  -3.3997424e-04   2.4296923e-01   2.3662573e-01  -5.5682135e+05
   3.5025008e-09  -3.3849214e-04   2.4295534e-01   2.3663949e-01  -5.5439402e+05
   3.5051684e-09  -3.3701650e-04   2.4294151e-01   2.3665319e-01  -5.5197728e+05
   3.5078359e-09  -3.3554730e-04   2.4292774e-01   2.3666683e-01  -5.4957107e+05
   3.5105035e-09  -3.3408450e-04   2.4291403e-01   2.3668042e-01  -5.4717535e+05
   3.5131711e-09  -3.3262808e-04   2.4290039e-01   2.3669394e-01  -5.4479007e+05
   3.5158386e-09  -3.3117800e-04   2.4288680e-01   2.3670741e-01  -5.4241519e+05
   3.5185062e-09  -3.2973425e-04   2.4287327e-01   2.3672082e-01  -5.4005067e+05
   3.5211737e-09  -3.2829679e-04   2.4285980e-01   2.3673417e-01  -5.3769644e+05
   3.5238413e-09  -3.2686560e-04   2.4284639e-01   2.3674747e-01  -5.3535249e+05
   3.5265088e-09  -3.2544064e-04   2.4283304e-01   2.3676070e-01  -5.3301874e+05
   3.5291764e-09  -3.2402190e-04   2.4281975e-01   2.3677388e-01  -5.3069517e+05
   3.5318439e-09  -3.2260934e-04   2.4280652e-01   2.3678701e-01  -5.2838173e+05
   3.5345115e-09  -3.2120294e-04   2.4279335e-01   2.3680007e-01  -5.2607838e+05
   3.5371791e-09  -3.1980267e-04   2.4278023e-01   2.3681308e-01  -5.2378506e+05
   3.5398466e-09  -3.1840851e-04   2.4276717e-01   2.3682604e-01  -5.2150174e+05
   3.5425142e-09  -3.1702042e-04   2.4275417e-01   2.3683894e-01  -5.1922838e+05
   3.5451817e-09  -3.1563839e-04   2.4274123e-01   2.3685178e-01  -5.1696492e+05
   3.5478493e-09  -3.1426237e-04   2.4272834e-01   2.3686457e-01  -5.1471133e+05
   3.5505168e-09  -3.1289236e-04   2.4271551e-01   2.3687730e-01  -5.1246756e+05
   3.5531844e-09  -3.1152832e-04   2.4270274e-01   2.3688998e-01  -5.1023358e+05
   3.5558520e-09  -3.1017022e-04   2.4269003e-01   2.3690260e-01  -5.0800933e+05
   3.5585195e-09  -3.0881805e-04   2.4267737e-01   2.3691517e-01  -5.0579478e+05
   3.5611871e-09  -3.0747177e-04   2.4266476e-01   2.3692768e-01  -5.0358988e+05
   3.5638546e-09  -3.0613136e-04   2.4265221e-01   2.3694014e-01  -5.0139459e+05
   3.5665222e-09  -3.0479679e-04   2.4263972e-01   2.3695255e-01  -4.9920887e+05
   3.5691897e-09  -3.0346804e-04   2.4262728e-01   2.3696490e-01  -4.9703268e+05
   3.5718573e-09  -3.0214508e-04   2.4261490e-01   2.3697720e-01  -4.9486597e+05
   3.5745248e-09  -3.0082789e-04   2.4260257e-01   2.3698945e-01  -4.9270871e+05
   3.5771924e-09  -2.9951644e-04   2.4259029e-01   2.3700164e-01  -4.9056086e+05
   3.5798600e-09  -2.9821071e-04   2.4257807e-01   2.3701378e-01  -4.8842236e+05
   3.5825275e-09  -2.9691067e-04   2.4256591e-01   2.3702587e-01  -4.8629319e+05
   3.5851951e-09  -2.9561630e-04   2.4255379e-01   2.3703791e-01  -4.8417330e+05
   3.5878626e-09  -2.9432756e-04   2.4254173e-01   2.3704990e-01  -4.8206265e+05
   3.5905302e-09  -2.9304445e-04   2.4252973e-01   2.3706183e-01  -4.7996120e+05
   3.5931977e-09  -2.9176693e-04   2.4251777e-01   2.3707371e-01  -4.7786891e+05
   3.5958653e-09  -2.9049498e-04   2.4250587e-01   2.3708554e-01  -4.7578574e+05
   3.5985328e-09  -2.8922858e-04   2.4249402e-01   2.3709732e-01  -4.7371165e+05
   3.6012004e-09  -2.8796769e-04   2.4248222e-01   2.3710905e-01  -4.7164660e+05
   3.6038680e-09  -2.8671231e-04   2.4247048e-01   2.3712073e-01  -4.6959055e+05
   3.6065355e-09  -2.8546239e-04   2.4245879e-01   2.3713236e-01  -4.6754347e+05
   3.6092031e-09  -2.8421792e-04   2.4244715e-01   2.3714393e-01  -4.6550531e+05
   3.6118706e-09  -2.8297888e-04   2.4243556e-01   2.3715546e-01  -4.6347603e+05
   3.6145382e-09  -2.8174524e-04   2.4242402e-01   2.3716694e-01  -4.6145560e+05
   3.6172057e-09  -2.8051698e-04   2.4241253e-01   2.3717837e-01  -4.5944398e+05
   3.6198733e-09  -2.7929407e-04   2.4240109e-01   2.3718975e-01  -4.5744112e+05
   3.6225408e-09  -2.7807649e-04   2.4238970e-01   2.3720108e-01  -4.5544700e+05
   3.6252084e-09  -2.7686422e-04   2.4237837e-01   2.3721236e-01  -4.5346157e+05
   3.6278760e-09  -2.7565724e-04   2.4236708e-01   2.3722359e-01  -4.5148479e+05
   3.6305435e-09  -2.7445551e-04   2.4235584e-01   2.3723478e-01  -4.4951663e+05
   3.6332111e-09  -2.7325903e-04   2.4234465e-01   2.3724591e-01  -4.4755705e+05
   3.6358786e-09  -2.7206776e-04   2.4233351e-01   2.3725700e-01  -4.4560601e+05
   3.6385462e-09  -2.7088169e-04   2.4232242e-01   2.3726804e-01  -4.4366347e+05
   3.6412137e-09  -2.6970078e-04   2.4231138e-01   2.3727903e-01  -4.4172941e+05
   3.6438813e-09  -2.6852502e-04   2.4230039e-01   2.3728998e-01  -4.3980377e+05
   3.6465488e-09  -2.6735439e-04   2.4228945e-01   2.3730088e-01  -4.3788653e+05
   3.6492164e-09  -2.6618886e-04   2.4227855e-01   2.3731173e-01  -4.3597764e+05
   3.6518840e-09  -2.6502841e-04   2.4226770e-01   2.3732253e-01  -4.3407708e+05
   3.6545515e-09  -2.6387302e-04   2.4225690e-01   2.3733329e-01  -4.3218480e+05
   3.6572191e-09  -2.6272267e-04   2.4224615e-01   2.3734400e-01  -4.3030077e+05
   3.6598866e-09  -2.6157733e-04   2.4223544e-01   2.3735466e-01  -4.2842495e+05
   3.6625542e-09  -2.6043699e-04   2.4222478e-01   2.3736528e-01  -4.2655731e+05
   3.6652217e-09  -2.5930162e-04   2.4221417e-01   2.3737585e-01  -4.2469781e+05
   3.6678893e-09  -2.5817119e-04   2.4220361e-01   2.3738638e-01  -4.2284641e+05
   3.6705569e-09  -2.5704569e-04   2.4219309e-01   2.3739686e-01  -4.2100309e+05
   3.6732244e-09  -2.5592510e-04   2.4218262e-01   2.3740730e-01  -4.1916780e+05
   3.6758920e-09  -2.5480940e-04   2.4217219e-01   2.3741769e-01  -4.1734051e+05
   3.6785595e-09  -2.5369856e-04   2.4216181e-01   2.3742803e-01  -4.1552119e+05
   3.6812271e-09  -2.5259256e-04   2.4215148e-01   2.3743834e-01  -4.1370979e+05
   3.6838946e-09  -2.5149138e-04   2.4214119e-01   2.3744859e-01  -4.1190630e+05
   3.6865622e-09  -2.5039500e-04   2.4213095e-01   2.3745881e-01  -4.1011066e+05
   3.6892297e-09  -2.4930341e-04   2.4212075e-01   2.3746897e-01  -4.0832285e+05
   3.6918973e-09  -2.4821657e-04   2.4211059e-01   2.3747910e-01  -4.0654284e+05
   3.6945649e-09  -2.4713447e-04   2.4210048e-01   2.3748918e-01  -4.0477058e+05
   3.6972324e-09  -2.4605708e-04   2.4209042e-01   2.3749922e-01  -4.0300605e+05
   3.6999000e-09  -2.4498439e-04   2.4208040e-01   2.3750921e-01  -4.0124921e+05
   3.7025675e-09  -2.4391638e-04   2.4207042e-01   2.3751916e-01  -3.9950003e+05
   3.7052351e-09  -2.4285303e-04   2.4206049e-01   2.3752907e-01  -3.9775848e+05
   3.7079026e-09  -2.4179431e-04   2.4205060e-01   2.3753893e-01  -3.9602451e+05
   3.7105702e-09  -2.4074020e-04   2.4204076e-01   2.3754876e-01  -3.9429811e+05
   3.7132377e-09  -2.3969069e-04   2.4203095e-01   2.3755854e-01  -3.9257923e+05
   3.7159053e-09  -2.3864576e-04   2.4202120e-01   2.3756827e-01  -3.9086784e+05
   3.7185729e-09  -2.3760538e-04   2.4201148e-01   2.3757797e-01  -3.8916391e+05
   3.7212404e-09  -2.3656954e-04   2.4200181e-01   2.3758762e-01  -3.8746741e+05
   3.7239080e-09  -2.3553821e-04   2.4199218e-01   2.3759724e-01  -3.8577831e+05
   3.7265755e-09  -2.3451138e-04   2.4198259e-01   2.3760681e-01  -3.8409657e+05
   3.7292431e-09  -2.3348902e-04   2.4197304e-01   2.3761634e-01  -3.8242216e+05
   3.7319106e-09  -2.3247112e-04   2.4196354e-01   2.3762582e-01  -3.8075505e+05
   3.7345782e-09  -2.3145766e-04   2.4195407e-01   2.3763527e-01  -3.7909520e+05
   3.7372457e-09  -2.3044861e-04   2.4194465e-01   2.3764468e-01  -3.7744259e+05
   3.7399133e-09  -2.2944397e-04   2.4193527e-01   2.3765404e-01  -3.7579719e+05
   3.7425809e-09  -2.2844370e-04   2.4192593e-01   2.3766337e-01  -3.7415895e+05
   3.7452484e-09  -2.2744780e-04   2.4191664e-01   2.3767265e-01  -3.7252786e+05
   3.7479160e-09  -2.2645624e-04   2.4190738e-01   2.3768190e-01  -3.7090388e+05
   3.7505835e-09  -2.2546899e-04   2.4189817e-01   2.3769110e-01  -3.6928698e+05
   3.7532511e-09  -2.2448606e-04   2.4188899e-01   2.3770027e-01  -3.6767713e+05
   3.7559186e-09  -2.2350740e-04   2.4187986e-01   2.3770939e-01  -3.6607429e+05
   3.7585862e-09  -2.2253302e-04   2.4187076e-01   2.3771848e-01  -3.6447844e+05
   3.7612538e-09  -2.2156288e-04   2.4186171e-01   2.3772752e-01  -3.6288955e+05
   3.7639213e-09  -2.2059697e-04   2.4185269e-01   2.3773653e-01  -3.6130758e+05
   3.7665889e-09  -2.1963527e-04   2.4184372e-01   2.3774550e-01  -3.5973251e+05
   3.7692564e-09  -2.1867777e-04   2.4183478e-01   2.3775443e-01  -3.5816430e+05
   3.7719240e-09  -2.1772443e-04   2.4182588e-01   2.3776332e-01  -3.5660293e+05
   3.7745915e-09  -2.1677526e-04   2.4181703e-01   2.3777217e-01  -3.5504837e+05
   3.7772591e-09  -2.1583022e-04   2.4180821e-01   2.3778099e-01  -3.5350059e+05
   3.7799266e-09  -2.1488930e-04   2.4179943e-01   2.3778976e-01  -3.5195955e+05
   3.7825942e-09  -2.1395248e-04   2.4179069e-01   2.3779850e-01  -3.5042522e+05
   3.7852618e-09  -2.1301975e-04   2.4178198e-01   2.3780720e-01  -3.4889759e+05
   3.7879293e-09  -2.1209108e-04   2.4177332e-01   2.3781586e-01  -3.4737662e+05
   3.7905969e-09  -2.1116647e-04   2.4176469e-01   2.3782449e-01  -3.4586227e+05
   3.7932644e-09  -2.1024588e-04   2.4175610e-01   2.3783308e-01  -3.4435453e+05
   3.7959320e-09  -2.0932930e-04   2.4174755e-01   2.3784163e-01  -3.4285336e+05
   3.7985995e-09  -2.0841673e-04   2.4173904e-01   2.3785014e-01  -3.4135873e+05
   3.8012671e-09  -2.0750812e-04   2.4173056e-01   2.3785862e-01  -3.3987062e+05
   3.8039346e-09  -2.0660349e-04   2.4172212e-01   2.3786706e-01  -3.3838900e+05
   3.8066022e-09  -2.0570279e-04   2.4171372e-01   2.3787546e-01  -3.3691383e+05
   3.8092698e-09  -2.0480602e-04   2.4170536e-01   2.3788383e-01  -3.3544510e+05
   3.8119373e-09  -2.0391316e-04   2.4169703e-01   2.3789216e-01  -3.3398276e+05
   3.8146049e-09  -2.0302419e-04   2.4168874e-01   2.3790045e-01  -3.3252680e+05
   3.8172724e-09  -2.0213910e-04   2.4168048e-01   2.3790871e-01  -3.3107719e+05
   3.8199400e-09  -2.0125786e-04   2.4167226e-01   2.3791694e-01  -3.2963390e+05
   3.8226075e-09  -2.0038047e-04   2.4166408e-01   2.3792513e-01  -3.2819690e+05
   3.8252751e-09  -1.9950690e-04   2.4165593e-01   2.3793328e-01  -3.2676616e+05
   3.8279426e-09  -1.9863715e-04   2.4164782e-01   2.3794140e-01  -3.2534166e+05
   3.8306102e-09  -1.9777118e-04   2.4163974e-01   2.3794948e-01  -3.2392337e+05
   3.8332778e-09  -1.9690898e-04   2.4163170e-01   2.3795752e-01  -3.2251126e+05
   3.8359453e-09  -1.9605055e-04   2.4162370e-01   2.3796554e-01  -3.2110531e+05
   3.8386129e-09  -1.9519586e-04   2.4161573e-01   2.3797351e-01  -3.1970549e+05
   3.8412804e-09  -1.9434489e-04   2.4160780e-01   2.3798146e-01  -3.1831177e+05
   3.8439480e-09  -1.9349764e-04   2.4159990e-01   2.3798937e-01  -3.1692412e+05
   3.8466155e-09  -1.9265407e-04   2.4159203e-01   2.3799724e-01  -3.1554252e+05
   3.8492831e-09  -1.9181419e-04   2.4158420e-01   2.3800508e-01  -3.1416695e+05
   3.8519507e-09  -1.9097796e-04   2.4157640e-01   2.3801289e-01  -3.1279737e+05
   3.8546182e-09  -1.9014539e-04   2.4156864e-01   2.3802066e-01  -3.1143376e+05
   3.8572858e-09  -1.8931644e-04   2.4156091e-01   2.3802840e-01  -3.1007610e+05
   3.8599533e-09  -1.8849110e-04   2.4155322e-01   2.3803610e-01  -3.0872435e+05
   3.8626209e-09  -1.8766936e-04   2.4154556e-01   2.3804378e-01  -3.0737850e+05
   3.8652884e-09  -1.8685121e-04   2.4153793e-01   2.3805142e-01  -3.0603851e+05
   3.8679560e-09  -1.8603662e-04   2.4153034e-01   2.3805902e-01  -3.0470437e+05
   3.8706235e-09  -1.8522558e-04   2.4152278e-01   2.3806659e-01  -3.0337604e+05
   3.8732911e-09  -1.8441808e-04   2.4151525e-01   2.3807413e-01  -3.0205350e+05
   3.8759587e-09  -1.8361410e-04   2.4150776e-01   2.3808164e-01  -3.0073673e+05
   3.8786262e-09  -1.8281362e-04   2.4150030e-01   2.3808912e-01  -2.9942569e+05
   3.8812938e-09  -1.8201663e-04   2.4149287e-01   2.3809656e-01  -2.9812038e+05
   3.8839613e-09  -1.8122312e-04   2.4148547e-01   2.3810397e-01  -2.9682075e+05
   3.8866289e-09  -1.8043307e-04   2.4147811e-01   2.3811135e-01  -2.9552678e+05
   3.8892964e-09  -1.7964646e-04   2.4147078e-01   2.3811869e-01  -2.9423846e+05
   3.8919640e-09  -1.7886328e-04   2.4146348e-01   2.3812601e-01  -2.9295575e+05
   3.8946315e-09  -1.7808351e-04   2.4145622e-01   2.3813329e-01  -2.9167864e+05
   3.8972991e-09  -1.7730715e-04   2.4144898e-01   2.3814054e-01  -2.9040709e+05
   3.8999667e-09  -1.7653416e-04   2.4144178e-01   2.3814776e-01  -2.8914109e+05
