   0.0000000e+00  -1.8233372e-01   6.1972562e+00   4.2686428e-06  -5.1715853e+08
   2.6675559e-12  -1.8095953e-01   6.1868153e+00   4.7423959e-06  -5.1333833e+08
   5.3351117e-12  -1.7959554e-01   6.1759226e+00   5.2641482e-06  -5.0951572e+08
   8.0026676e-12  -1.7824176e-01   6.1645653e+00   5.8382062e-06  -5.0569085e+08
   1.0670223e-11  -1.7689819e-01   6.1527311e+00   6.4691992e-06  -5.0186386e+08
   1.3337779e-11  -1.7556483e-01   6.1404076e+00   7.1620957e-06  -4.9803493e+08
   1.6005335e-11  -1.7424170e-01   6.1275825e+00   7.9222216e-06  -4.9420425e+08
   1.8672891e-11  -1.7292879e-01   6.1142441e+00   8.7552771e-06  -4.9037201e+08
   2.1340447e-11  -1.7162611e-01   6.1003805e+00   9.6673545e-06  -4.8653845e+08
   2.4008003e-11  -1.7033366e-01   6.0859804e+00   1.0664955e-05  -4.8270381e+08
   2.6675559e-11  -1.6905145e-01   6.0710329e+00   1.1755009e-05  -4.7886835e+08
   2.9343114e-11  -1.6777948e-01   6.0555273e+00   1.2944886e-05  -4.7503235e+08
   3.2010670e-11  -1.6651775e-01   6.0394533e+00   1.4242421e-05  -4.7119613e+08
   3.4678226e-11  -1.6526625e-01   6.0228014e+00   1.5655922e-05  -4.6736000e+08
   3.7345782e-11  -1.6402499e-01   6.0055624e+00   1.7194190e-05  -4.6352432e+08
   4.0013338e-11  -1.6279397e-01   5.9877275e+00   1.8866534e-05  -4.5968944e+08
   4.2680894e-11  -1.6157318e-01   5.9692888e+00   2.0682780e-05  -4.5585576e+08
   4.5348449e-11  -1.6036262e-01   5.9502391e+00   2.2653290e-05  -4.5202370e+08
   4.8016005e-11  -1.5916228e-01   5.9305715e+00   2.4788968e-05  -4.4819368e+08
   5.0683561e-11  -1.5797216e-01   5.9102803e+00   2.7101275e-05  -4.4436615e+08
   5.3351117e-11  -1.5679225e-01   5.8893602e+00   2.9602232e-05  -4.4054161e+08
   5.6018673e-11  -1.5562254e-01   5.8678070e+00   3.2304431e-05  -4.3672053e+08
   5.8686229e-11  -1.5446302e-01   5.8456172e+00   3.5221039e-05  -4.3290345e+08
   6.1353785e-11  -1.5331368e-01   5.8227882e+00   3.8365803e-05  -4.2909091e+08
   6.4021340e-11  -1.5217451e-01   5.7993183e+00   4.1753046e-05  -4.2528346e+08
   6.6688896e-11  -1.5104549e-01   5.7752067e+00   4.5397673e-05  -4.2148168e+08
   6.9356452e-11  -1.4992661e-01   5.7504537e+00   4.9315163e-05  -4.1768618e+08
   7.2024008e-11  -1.4881784e-01   5.7250606e+00   5.3521564e-05  -4.1389758e+08
   7.4691564e-11  -1.4771918e-01   5.6990294e+00   5.8033489e-05  -4.1011650e+08
   7.7359120e-11  -1.4663059e-01   5.6723635e+00   6.2868100e-05  -4.0634361e+08
   8.0026676e-11  -1.4555206e-01   5.6450671e+00   6.8043100e-05  -4.0257957e+08
   8.2694231e-11  -1.4448355e-01   5.6171454e+00   7.3576716e-05  -3.9882506e+08
   8.5361787e-11  -1.4342505e-01   5.5886047e+00   7.9487680e-05  -3.9508078e+08
   8.8029343e-11  -1.4237653e-01   5.5594525e+00   8.5795210e-05  -3.9134744e+08
   9.0696899e-11  -1.4133794e-01   5.5296971e+00   9.2518988e-05  -3.8762576e+08
   9.3364455e-11  -1.4030928e-01   5.4993478e+00   9.9679135e-05  -3.8391647e+08
   9.6032011e-11  -1.3929048e-01   5.4684149e+00   1.0729618e-04  -3.8022031e+08
   9.8699567e-11  -1.3828153e-01   5.4369100e+00   1.1539103e-04  -3.7653801e+08
   1.0136712e-10  -1.3728239e-01   5.4048452e+00   1.2398496e-04  -3.7287034e+08
   1.0403468e-10  -1.3629301e-01   5.3722337e+00   1.3309953e-04  -3.6921804e+08
   1.0670223e-10  -1.3531334e-01   5.3390898e+00   1.4275660e-04  -3.6558186e+08
   1.0936979e-10  -1.3434336e-01   5.3054282e+00   1.5297827e-04  -3.6196256e+08
   1.1203735e-10  -1.3338300e-01   5.2712649e+00   1.6378685e-04  -3.5836090e+08
   1.1470490e-10  -1.3243223e-01   5.2366163e+00   1.7520480e-04  -3.5477761e+08
   1.1737246e-10  -1.3149099e-01   5.2014998e+00   1.8725471e-04  -3.5121345e+08
   1.2004001e-10  -1.3055923e-01   5.1659333e+00   1.9995926e-04  -3.4766915e+08
   1.2270757e-10  -1.2963689e-01   5.1299355e+00   2.1334116e-04  -3.4414545e+08
   1.2537513e-10  -1.2872393e-01   5.0935254e+00   2.2742312e-04  -3.4064305e+08
   1.2804268e-10  -1.2782027e-01   5.0567227e+00   2.4222780e-04  -3.3716267e+08
   1.3071024e-10  -1.2692587e-01   5.0195478e+00   2.5777779e-04  -3.3370500e+08
   1.3337779e-10  -1.2604066e-01   4.9820210e+00   2.7409552e-04  -3.3027071e+08
   1.3604535e-10  -1.2516457e-01   4.9441633e+00   2.9120328e-04  -3.2686048e+08
   1.3871290e-10  -1.2429755e-01   4.9059961e+00   3.0912312e-04  -3.2347494e+08
   1.4138046e-10  -1.2343952e-01   4.8675406e+00   3.2787685e-04  -3.2011472e+08
   1.4404802e-10  -1.2259041e-01   4.8288186e+00   3.4748598e-04  -3.1678042e+08
   1.4671557e-10  -1.2175016e-01   4.7898518e+00   3.6797172e-04  -3.1347263e+08
   1.4938313e-10  -1.2091870e-01   4.7506621e+00   3.8935486e-04  -3.1019191e+08
   1.5205068e-10  -1.2009594e-01   4.7112713e+00   4.1165585e-04  -3.0693878e+08
   1.5471824e-10  -1.1928182e-01   4.6717012e+00   4.3489466e-04  -3.0371378e+08
   1.5738580e-10  -1.1847627e-01   4.6319735e+00   4.5909083e-04  -3.0051737e+08
   1.6005335e-10  -1.1767919e-01   4.5921097e+00   4.8426339e-04  -2.9735002e+08
   1.6272091e-10  -1.1689053e-01   4.5521313e+00   5.1043087e-04  -2.9421217e+08
   1.6538846e-10  -1.1611019e-01   4.5120594e+00   5.3761125e-04  -2.9110421e+08
   1.6805602e-10  -1.1533809e-01   4.4719148e+00   5.6582193e-04  -2.8802653e+08
   1.7072357e-10  -1.1457416e-01   4.4317181e+00   5.9507977e-04  -2.8497947e+08
   1.7339113e-10  -1.1381831e-01   4.3914895e+00   6.2540099e-04  -2.8196336e+08
   1.7605869e-10  -1.1307046e-01   4.3512487e+00   6.5680121e-04  -2.7897848e+08
   1.7872624e-10  -1.1233053e-01   4.3110150e+00   6.8929544e-04  -2.7602510e+08
   1.8139380e-10  -1.1159843e-01   4.2708075e+00   7.2289802e-04  -2.7310346e+08
   1.8406135e-10  -1.1087407e-01   4.2306445e+00   7.5762268e-04  -2.7021376e+08
   1.8672891e-10  -1.1015737e-01   4.1905439e+00   7.9348247e-04  -2.6735619e+08
   1.8939647e-10  -1.0944825e-01   4.1505232e+00   8.3048979e-04  -2.6453088e+08
   1.9206402e-10  -1.0874662e-01   4.1105991e+00   8.6865639e-04  -2.6173797e+08
   1.9473158e-10  -1.0805239e-01   4.0707879e+00   9.0799337e-04  -2.5897754e+08
   1.9739913e-10  -1.0736547e-01   4.0311054e+00   9.4851116e-04  -2.5624968e+08
   2.0006669e-10  -1.0668579e-01   3.9915666e+00   9.9021953e-04  -2.5355442e+08
   2.0273424e-10  -1.0601324e-01   3.9521861e+00   1.0331276e-03  -2.5089178e+08
   2.0540180e-10  -1.0534775e-01   3.9129779e+00   1.0772440e-03  -2.4826176e+08
   2.0806936e-10  -1.0468922e-01   3.8739551e+00   1.1225764e-03  -2.4566433e+08
   2.1073691e-10  -1.0403758e-01   3.8351306e+00   1.1691321e-03  -2.4309943e+08
   2.1340447e-10  -1.0339273e-01   3.7965164e+00   1.2169177e-03  -2.4056698e+08
   2.1607202e-10  -1.0275458e-01   3.7581241e+00   1.2659394e-03  -2.3806690e+08
   2.1873958e-10  -1.0212306e-01   3.7199645e+00   1.3162024e-03  -2.3559906e+08
   2.2140714e-10  -1.0149808e-01   3.6820481e+00   1.3677117e-03  -2.3316333e+08
   2.2407469e-10  -1.0087954e-01   3.6443845e+00   1.4204716e-03  -2.3075954e+08
   2.2674225e-10  -1.0026737e-01   3.6069828e+00   1.4744858e-03  -2.2838754e+08
   2.2940980e-10  -9.9661475e-02   3.5698517e+00   1.5297576e-03  -2.2604713e+08
   2.3207736e-10  -9.9061780e-02   3.5329992e+00   1.5862896e-03  -2.2373809e+08
   2.3474491e-10  -9.8468198e-02   3.4964328e+00   1.6440841e-03  -2.2146022e+08
   2.3741247e-10  -9.7880647e-02   3.4601594e+00   1.7031428e-03  -2.1921327e+08
   2.4008003e-10  -9.7299044e-02   3.4241855e+00   1.7634670e-03  -2.1699699e+08
   2.4274758e-10  -9.6723308e-02   3.3885170e+00   1.8250574e-03  -2.1481113e+08
   2.4541514e-10  -9.6153358e-02   3.3531593e+00   1.8879145e-03  -2.1265541e+08
   2.4808269e-10  -9.5589114e-02   3.3181174e+00   1.9520382e-03  -2.1052954e+08
   2.5075025e-10  -9.5030498e-02   3.2833958e+00   2.0174281e-03  -2.0843323e+08
   2.5341781e-10  -9.4477430e-02   3.2489985e+00   2.0840834e-03  -2.0636619e+08
   2.5608536e-10  -9.3929833e-02   3.2149291e+00   2.1520029e-03  -2.0432809e+08
   2.5875292e-10  -9.3387630e-02   3.1811910e+00   2.2211851e-03  -2.0231863e+08
   2.6142047e-10  -9.2850746e-02   3.1477867e+00   2.2916281e-03  -2.0033747e+08
   2.6408803e-10  -9.2319106e-02   3.1147189e+00   2.3633297e-03  -1.9838428e+08
   2.6675559e-10  -9.1792634e-02   3.0819895e+00   2.4362875e-03  -1.9645873e+08
   2.6942314e-10  -9.1271259e-02   3.0496003e+00   2.5104987e-03  -1.9456048e+08
   2.7209070e-10  -9.0754908e-02   3.0175526e+00   2.5859603e-03  -1.9268917e+08
   2.7475825e-10  -9.0243509e-02   2.9858475e+00   2.6626690e-03  -1.9084447e+08
   2.7742581e-10  -8.9736993e-02   2.9544856e+00   2.7406212e-03  -1.8902602e+08
   2.8009336e-10  -8.9235289e-02   2.9234676e+00   2.8198132e-03  -1.8723346e+08
   2.8276092e-10  -8.8738329e-02   2.8927934e+00   2.9002409e-03  -1.8546644e+08
   2.8542848e-10  -8.8246046e-02   2.8624632e+00   2.9819003e-03  -1.8372461e+08
   2.8809603e-10  -8.7758372e-02   2.8324764e+00   3.0647869e-03  -1.8200760e+08
   2.9076359e-10  -8.7275243e-02   2.8028326e+00   3.1488962e-03  -1.8031507e+08
   2.9343114e-10  -8.6796593e-02   2.7735309e+00   3.2342234e-03  -1.7864664e+08
   2.9609870e-10  -8.6322358e-02   2.7445703e+00   3.3207637e-03  -1.7700196e+08
   2.9876626e-10  -8.5852477e-02   2.7159497e+00   3.4085120e-03  -1.7538068e+08
   3.0143381e-10  -8.5386886e-02   2.6876677e+00   3.4974632e-03  -1.7378244e+08
   3.0410137e-10  -8.4925526e-02   2.6597227e+00   3.5876119e-03  -1.7220689e+08
   3.0676892e-10  -8.4468335e-02   2.6321129e+00   3.6789529e-03  -1.7065368e+08
   3.0943648e-10  -8.4015256e-02   2.6048365e+00   3.7714804e-03  -1.6912245e+08
   3.1210403e-10  -8.3566230e-02   2.5778915e+00   3.8651890e-03  -1.6761285e+08
   3.1477159e-10  -8.3121199e-02   2.5512758e+00   3.9600728e-03  -1.6612456e+08
   3.1743915e-10  -8.2680107e-02   2.5249870e+00   4.0561262e-03  -1.6465721e+08
   3.2010670e-10  -8.2242900e-02   2.4990228e+00   4.1533431e-03  -1.6321047e+08
   3.2277426e-10  -8.1809522e-02   2.4733807e+00   4.2517178e-03  -1.6178401e+08
   3.2544181e-10  -8.1379920e-02   2.4480581e+00   4.3512441e-03  -1.6037750e+08
   3.2810937e-10  -8.0954041e-02   2.4230523e+00   4.4519159e-03  -1.5899060e+08
   3.3077693e-10  -8.0531834e-02   2.3983606e+00   4.5537272e-03  -1.5762299e+08
   3.3344448e-10  -8.0113247e-02   2.3739802e+00   4.6566718e-03  -1.5627436e+08
   3.3611204e-10  -7.9698230e-02   2.3499082e+00   4.7607434e-03  -1.5494437e+08
   3.3877959e-10  -7.9286735e-02   2.3261415e+00   4.8659358e-03  -1.5363272e+08
   3.4144715e-10  -7.8878712e-02   2.3026773e+00   4.9722428e-03  -1.5233910e+08
   3.4411470e-10  -7.8474114e-02   2.2795124e+00   5.0796580e-03  -1.5106321e+08
   3.4678226e-10  -7.8072894e-02   2.2566438e+00   5.1881750e-03  -1.4980473e+08
   3.4944982e-10  -7.7675006e-02   2.2340682e+00   5.2977875e-03  -1.4856339e+08
   3.5211737e-10  -7.7280405e-02   2.2117827e+00   5.4084892e-03  -1.4733888e+08
   3.5478493e-10  -7.6889046e-02   2.1897839e+00   5.5202737e-03  -1.4613091e+08
   3.5745248e-10  -7.6500886e-02   2.1680686e+00   5.6331345e-03  -1.4493921e+08
   3.6012004e-10  -7.6115882e-02   2.1466336e+00   5.7470652e-03  -1.4376349e+08
   3.6278760e-10  -7.5733991e-02   2.1254757e+00   5.8620595e-03  -1.4260349e+08
   3.6545515e-10  -7.5355172e-02   2.1045916e+00   5.9781110e-03  -1.4145891e+08
   3.6812271e-10  -7.4979385e-02   2.0839780e+00   6.0952132e-03  -1.4032951e+08
   3.7079026e-10  -7.4606588e-02   2.0636317e+00   6.2133597e-03  -1.3921503e+08
   3.7345782e-10  -7.4236743e-02   2.0435494e+00   6.3325442e-03  -1.3811519e+08
   3.7612538e-10  -7.3869811e-02   2.0237278e+00   6.4527602e-03  -1.3702976e+08
   3.7879293e-10  -7.3505755e-02   2.0041636e+00   6.5740014e-03  -1.3595847e+08
   3.8146049e-10  -7.3144535e-02   1.9848537e+00   6.6962614e-03  -1.3490110e+08
   3.8412804e-10  -7.2786117e-02   1.9657947e+00   6.8195338e-03  -1.3385739e+08
   3.8679560e-10  -7.2430463e-02   1.9469834e+00   6.9438123e-03  -1.3282711e+08
   3.8946315e-10  -7.2077539e-02   1.9284166e+00   7.0690906e-03  -1.3181003e+08
   3.9213071e-10  -7.1727309e-02   1.9100910e+00   7.1953623e-03  -1.3080593e+08
   3.9479827e-10  -7.1379740e-02   1.8920036e+00   7.3226212e-03  -1.2981457e+08
   3.9746582e-10  -7.1034796e-02   1.8741511e+00   7.4508610e-03  -1.2883575e+08
   4.0013338e-10  -7.0692446e-02   1.8565304e+00   7.5800754e-03  -1.2786923e+08
   4.0280093e-10  -7.0352657e-02   1.8391383e+00   7.7102582e-03  -1.2691483e+08
   4.0546849e-10  -7.0015397e-02   1.8219718e+00   7.8414032e-03  -1.2597231e+08
   4.0813605e-10  -6.9680634e-02   1.8050278e+00   7.9735042e-03  -1.2504149e+08
   4.1080360e-10  -6.9348338e-02   1.7883032e+00   8.1065549e-03  -1.2412216e+08
   4.1347116e-10  -6.9018478e-02   1.7717950e+00   8.2405494e-03  -1.2321413e+08
   4.1613871e-10  -6.8691024e-02   1.7555003e+00   8.3754813e-03  -1.2231720e+08
   4.1880627e-10  -6.8365948e-02   1.7394159e+00   8.5113447e-03  -1.2143119e+08
   4.2147382e-10  -6.8043219e-02   1.7235391e+00   8.6481335e-03  -1.2055591e+08
   4.2414138e-10  -6.7722810e-02   1.7078668e+00   8.7858415e-03  -1.1969118e+08
   4.2680894e-10  -6.7404694e-02   1.6923963e+00   8.9244628e-03  -1.1883681e+08
   4.2947649e-10  -6.7088841e-02   1.6771247e+00   9.0639913e-03  -1.1799265e+08
   4.3214405e-10  -6.6775227e-02   1.6620491e+00   9.2044211e-03  -1.1715851e+08
   4.3481160e-10  -6.6463823e-02   1.6471667e+00   9.3457462e-03  -1.1633422e+08
   4.3747916e-10  -6.6154605e-02   1.6324749e+00   9.4879607e-03  -1.1551963e+08
   4.4014672e-10  -6.5847546e-02   1.6179709e+00   9.6310587e-03  -1.1471457e+08
   4.4281427e-10  -6.5542621e-02   1.6036520e+00   9.7750342e-03  -1.1391888e+08
   4.4548183e-10  -6.5239806e-02   1.5895156e+00   9.9198815e-03  -1.1313241e+08
   4.4814938e-10  -6.4939076e-02   1.5755590e+00   1.0065595e-02  -1.1235500e+08
   4.5081694e-10  -6.4640407e-02   1.5617796e+00   1.0212168e-02  -1.1158650e+08
   4.5348449e-10  -6.4343775e-02   1.5481750e+00   1.0359596e-02  -1.1082678e+08
   4.5615205e-10  -6.4049159e-02   1.5347425e+00   1.0507872e-02  -1.1007567e+08
   4.5881961e-10  -6.3756533e-02   1.5214797e+00   1.0656991e-02  -1.0933306e+08
   4.6148716e-10  -6.3465877e-02   1.5083842e+00   1.0806947e-02  -1.0859878e+08
   4.6415472e-10  -6.3177168e-02   1.4954534e+00   1.0957734e-02  -1.0787272e+08
   4.6682227e-10  -6.2890385e-02   1.4826851e+00   1.1109347e-02  -1.0715473e+08
   4.6948983e-10  -6.2605506e-02   1.4700768e+00   1.1261781e-02  -1.0644469e+08
   4.7215739e-10  -6.2322510e-02   1.4576263e+00   1.1415028e-02  -1.0574247e+08
   4.7482494e-10  -6.2041376e-02   1.4453313e+00   1.1569085e-02  -1.0504795e+08
   4.7749250e-10  -6.1762084e-02   1.4331894e+00   1.1723945e-02  -1.0436099e+08
   4.8016005e-10  -6.1484614e-02   1.4211985e+00   1.1879603e-02  -1.0368149e+08
   4.8282761e-10  -6.1208947e-02   1.4093564e+00   1.2036053e-02  -1.0300932e+08
   4.8549517e-10  -6.0935063e-02   1.3976609e+00   1.2193290e-02  -1.0234436e+08
   4.8816272e-10  -6.0662943e-02   1.3861098e+00   1.2351308e-02  -1.0168651e+08
   4.9083028e-10  -6.0392567e-02   1.3747012e+00   1.2510103e-02  -1.0103564e+08
   4.9349783e-10  -6.0123919e-02   1.3634328e+00   1.2669667e-02  -1.0039166e+08
   4.9616539e-10  -5.9856978e-02   1.3523027e+00   1.2829997e-02  -9.9754460e+07
   4.9883294e-10  -5.9591729e-02   1.3413089e+00   1.2991086e-02  -9.9123925e+07
   5.0150050e-10  -5.9328152e-02   1.3304493e+00   1.3152929e-02  -9.8499956e+07
   5.0416806e-10  -5.9066230e-02   1.3197221e+00   1.3315521e-02  -9.7882454e+07
   5.0683561e-10  -5.8805947e-02   1.3091252e+00   1.3478857e-02  -9.7271317e+07
   5.0950317e-10  -5.8547286e-02   1.2986569e+00   1.3642932e-02  -9.6666450e+07
   5.1217072e-10  -5.8290229e-02   1.2883153e+00   1.3807739e-02  -9.6067756e+07
   5.1483828e-10  -5.8034762e-02   1.2780984e+00   1.3973274e-02  -9.5475143e+07
   5.1750584e-10  -5.7780866e-02   1.2680046e+00   1.4139531e-02  -9.4888517e+07
   5.2017339e-10  -5.7528528e-02   1.2580320e+00   1.4306506e-02  -9.4307789e+07
   5.2284095e-10  -5.7277730e-02   1.2481789e+00   1.4474192e-02  -9.3732871e+07
   5.2550850e-10  -5.7028458e-02   1.2384436e+00   1.4642586e-02  -9.3163676e+07
   5.2817606e-10  -5.6780697e-02   1.2288243e+00   1.4811681e-02  -9.2600118e+07
   5.3084361e-10  -5.6534432e-02   1.2193194e+00   1.4981473e-02  -9.2042114e+07
   5.3351117e-10  -5.6289647e-02   1.2099273e+00   1.5151956e-02  -9.1489582e+07
   5.3617873e-10  -5.6046329e-02   1.2006463e+00   1.5323126e-02  -9.0942442e+07
   5.3884628e-10  -5.5804463e-02   1.1914748e+00   1.5494977e-02  -9.0400615e+07
   5.4151384e-10  -5.5564036e-02   1.1824113e+00   1.5667504e-02  -8.9864023e+07
   5.4418139e-10  -5.5325032e-02   1.1734541e+00   1.5840702e-02  -8.9332590e+07
   5.4684895e-10  -5.5087439e-02   1.1646019e+00   1.6014566e-02  -8.8806241e+07
   5.4951651e-10  -5.4851244e-02   1.1558531e+00   1.6189091e-02  -8.8284904e+07
   5.5218406e-10  -5.4616432e-02   1.1472062e+00   1.6364272e-02  -8.7768507e+07
   5.5485162e-10  -5.4382992e-02   1.1386598e+00   1.6540104e-02  -8.7256978e+07
   5.5751917e-10  -5.4150909e-02   1.1302124e+00   1.6716582e-02  -8.6750249e+07
   5.6018673e-10  -5.3920171e-02   1.1218627e+00   1.6893701e-02  -8.6248251e+07
   5.6285428e-10  -5.3690767e-02   1.1136092e+00   1.7071457e-02  -8.5750917e+07
   5.6552184e-10  -5.3462682e-02   1.1054506e+00   1.7249843e-02  -8.5258183e+07
   5.6818940e-10  -5.3235906e-02   1.0973856e+00   1.7428856e-02  -8.4769984e+07
   5.7085695e-10  -5.3010426e-02   1.0894128e+00   1.7608490e-02  -8.4286256e+07
   5.7352451e-10  -5.2786230e-02   1.0815309e+00   1.7788741e-02  -8.3806937e+07
   5.7619206e-10  -5.2563307e-02   1.0737387e+00   1.7969604e-02  -8.3331967e+07
   5.7885962e-10  -5.2341646e-02   1.0660349e+00   1.8151073e-02  -8.2861285e+07
   5.8152718e-10  -5.2121234e-02   1.0584182e+00   1.8333144e-02  -8.2394833e+07
   5.8419473e-10  -5.1902060e-02   1.0508875e+00   1.8515812e-02  -8.1932552e+07
   5.8686229e-10  -5.1684114e-02   1.0434416e+00   1.8699073e-02  -8.1474387e+07
   5.8952984e-10  -5.1467385e-02   1.0360792e+00   1.8882922e-02  -8.1020281e+07
   5.9219740e-10  -5.1251862e-02   1.0287992e+00   1.9067353e-02  -8.0570180e+07
   5.9486495e-10  -5.1037534e-02   1.0216005e+00   1.9252362e-02  -8.0124029e+07
   5.9753251e-10  -5.0824391e-02   1.0144819e+00   1.9437944e-02  -7.9681777e+07
   6.0020007e-10  -5.0612423e-02   1.0074424e+00   1.9624095e-02  -7.9243370e+07
   6.0286762e-10  -5.0401618e-02   1.0004808e+00   1.9810810e-02  -7.8808759e+07
   6.0553518e-10  -5.0191968e-02   9.9359602e-01   1.9998084e-02  -7.8377892e+07
   6.0820273e-10  -4.9983463e-02   9.8678708e-01   2.0185912e-02  -7.7950720e+07
   6.1087029e-10  -4.9776092e-02   9.8005292e-01   2.0374290e-02  -7.7527196e+07
   6.1353785e-10  -4.9569846e-02   9.7339250e-01   2.0563213e-02  -7.7107272e+07
   6.1620540e-10  -4.9364715e-02   9.6680482e-01   2.0752676e-02  -7.6690899e+07
   6.1887296e-10  -4.9160690e-02   9.6028889e-01   2.0942676e-02  -7.6278034e+07
   6.2154051e-10  -4.8957762e-02   9.5384374e-01   2.1133206e-02  -7.5868630e+07
   6.2420807e-10  -4.8755921e-02   9.4746840e-01   2.1324263e-02  -7.5462644e+07
   6.2687563e-10  -4.8555159e-02   9.4116193e-01   2.1515842e-02  -7.5060030e+07
   6.2954318e-10  -4.8355466e-02   9.3492340e-01   2.1707938e-02  -7.4660748e+07
   6.3221074e-10  -4.8156834e-02   9.2875189e-01   2.1900547e-02  -7.4264753e+07
   6.3487829e-10  -4.7959254e-02   9.2264650e-01   2.2093664e-02  -7.3872005e+07
   6.3754585e-10  -4.7762717e-02   9.1660634e-01   2.2287284e-02  -7.3482463e+07
   6.4021340e-10  -4.7567215e-02   9.1063054e-01   2.2481404e-02  -7.3096087e+07
   6.4288096e-10  -4.7372740e-02   9.0471824e-01   2.2676018e-02  -7.2712837e+07
   6.4554852e-10  -4.7179283e-02   8.9886859e-01   2.2871123e-02  -7.2332675e+07
   6.4821607e-10  -4.6986836e-02   8.9308076e-01   2.3066713e-02  -7.1955562e+07
   6.5088363e-10  -4.6795390e-02   8.8735393e-01   2.3262784e-02  -7.1581461e+07
   6.5355118e-10  -4.6604939e-02   8.8168728e-01   2.3459331e-02  -7.1210334e+07
   6.5621874e-10  -4.6415473e-02   8.7608003e-01   2.3656351e-02  -7.0842147e+07
   6.5888630e-10  -4.6226986e-02   8.7053139e-01   2.3853838e-02  -7.0476861e+07
   6.6155385e-10  -4.6039470e-02   8.6504059e-01   2.4051789e-02  -7.0114444e+07
   6.6422141e-10  -4.5852916e-02   8.5960686e-01   2.4250198e-02  -6.9754859e+07
   6.6688896e-10  -4.5667318e-02   8.5422947e-01   2.4449062e-02  -6.9398073e+07
   6.6955652e-10  -4.5482668e-02   8.4890767e-01   2.4648375e-02  -6.9044053e+07
   6.7222407e-10  -4.5298958e-02   8.4364075e-01   2.4848134e-02  -6.8692766e+07
   6.7489163e-10  -4.5116183e-02   8.3842798e-01   2.5048334e-02  -6.8344178e+07
   6.7755919e-10  -4.4934333e-02   8.3326866e-01   2.5248971e-02  -6.7998259e+07
   6.8022674e-10  -4.4753402e-02   8.2816211e-01   2.5450041e-02  -6.7654976e+07
   6.8289430e-10  -4.4573384e-02   8.2310763e-01   2.5651538e-02  -6.7314299e+07
   6.8556185e-10  -4.4394271e-02   8.1810456e-01   2.5853460e-02  -6.6976198e+07
   6.8822941e-10  -4.4216057e-02   8.1315224e-01   2.6055800e-02  -6.6640642e+07
   6.9089697e-10  -4.4038734e-02   8.0825002e-01   2.6258556e-02  -6.6307603e+07
   6.9356452e-10  -4.3862297e-02   8.0339725e-01   2.6461722e-02  -6.5977050e+07
   6.9623208e-10  -4.3686737e-02   7.9859330e-01   2.6665295e-02  -6.5648956e+07
   6.9889963e-10  -4.3512050e-02   7.9383756e-01   2.6869270e-02  -6.5323292e+07
   7.0156719e-10  -4.3338228e-02   7.8912940e-01   2.7073643e-02  -6.5000030e+07
   7.0423474e-10  -4.3165266e-02   7.8446823e-01   2.7278410e-02  -6.4679144e+07
   7.0690230e-10  -4.2993156e-02   7.7985345e-01   2.7483566e-02  -6.4360607e+07
   7.0956986e-10  -4.2821893e-02   7.7528447e-01   2.7689107e-02  -6.4044392e+07
   7.1223741e-10  -4.2651470e-02   7.7076073e-01   2.7895029e-02  -6.3730472e+07
   7.1490497e-10  -4.2481882e-02   7.6628164e-01   2.8101328e-02  -6.3418824e+07
   7.1757252e-10  -4.2313122e-02   7.6184665e-01   2.8308000e-02  -6.3109420e+07
   7.2024008e-10  -4.2145184e-02   7.5745521e-01   2.8515039e-02  -6.2802237e+07
   7.2290764e-10  -4.1978063e-02   7.5310678e-01   2.8722443e-02  -6.2497249e+07
   7.2557519e-10  -4.1811753e-02   7.4880082e-01   2.8930207e-02  -6.2194434e+07
   7.2824275e-10  -4.1646247e-02   7.4453680e-01   2.9138327e-02  -6.1893766e+07
   7.3091030e-10  -4.1481541e-02   7.4031421e-01   2.9346798e-02  -6.1595223e+07
   7.3357786e-10  -4.1317628e-02   7.3613253e-01   2.9555617e-02  -6.1298781e+07
   7.3624542e-10  -4.1154503e-02   7.3199126e-01   2.9764779e-02  -6.1004418e+07
   7.3891297e-10  -4.0992161e-02   7.2788990e-01   2.9974281e-02  -6.0712111e+07
   7.4158053e-10  -4.0830596e-02   7.2382797e-01   3.0184117e-02  -6.0421839e+07
   7.4424808e-10  -4.0669802e-02   7.1980497e-01   3.0394285e-02  -6.0133579e+07
   7.4691564e-10  -4.0509775e-02   7.1582044e-01   3.0604780e-02  -5.9847310e+07
   7.4958319e-10  -4.0350508e-02   7.1187390e-01   3.0815598e-02  -5.9563012e+07
   7.5225075e-10  -4.0191998e-02   7.0796490e-01   3.1026734e-02  -5.9280662e+07
   7.5491831e-10  -4.0034238e-02   7.0409297e-01   3.1238185e-02  -5.9000242e+07
   7.5758586e-10  -3.9877223e-02   7.0025768e-01   3.1449948e-02  -5.8721730e+07
   7.6025342e-10  -3.9720949e-02   6.9645858e-01   3.1662016e-02  -5.8445106e+07
   7.6292097e-10  -3.9565410e-02   6.9269524e-01   3.1874388e-02  -5.8170352e+07
   7.6558853e-10  -3.9410602e-02   6.8896721e-01   3.2087059e-02  -5.7897447e+07
   7.6825609e-10  -3.9256519e-02   6.8527409e-01   3.2300024e-02  -5.7626372e+07
   7.7092364e-10  -3.9103157e-02   6.8161546e-01   3.2513280e-02  -5.7357110e+07
   7.7359120e-10  -3.8950511e-02   6.7799090e-01   3.2726822e-02  -5.7089640e+07
   7.7625875e-10  -3.8798576e-02   6.7440001e-01   3.2940648e-02  -5.6823946e+07
   7.7892631e-10  -3.8647348e-02   6.7084239e-01   3.3154752e-02  -5.6560008e+07
   7.8159386e-10  -3.8496821e-02   6.6731764e-01   3.3369132e-02  -5.6297810e+07
   7.8426142e-10  -3.8346991e-02   6.6382539e-01   3.3583782e-02  -5.6037333e+07
   7.8692898e-10  -3.8197854e-02   6.6036524e-01   3.3798700e-02  -5.5778561e+07
   7.8959653e-10  -3.8049405e-02   6.5693681e-01   3.4013881e-02  -5.5521476e+07
   7.9226409e-10  -3.7901639e-02   6.5353975e-01   3.4229321e-02  -5.5266061e+07
   7.9493164e-10  -3.7754553e-02   6.5017368e-01   3.4445016e-02  -5.5012300e+07
   7.9759920e-10  -3.7608141e-02   6.4683823e-01   3.4660964e-02  -5.4760177e+07
   8.0026676e-10  -3.7462399e-02   6.4353306e-01   3.4877158e-02  -5.4509675e+07
   8.0293431e-10  -3.7317324e-02   6.4025781e-01   3.5093597e-02  -5.4260779e+07
   8.0560187e-10  -3.7172911e-02   6.3701213e-01   3.5310276e-02  -5.4013473e+07
   8.0826942e-10  -3.7029155e-02   6.3379569e-01   3.5527191e-02  -5.3767741e+07
   8.1093698e-10  -3.6886052e-02   6.3060814e-01   3.5744339e-02  -5.3523568e+07
   8.1360453e-10  -3.6743599e-02   6.2744916e-01   3.5961715e-02  -5.3280939e+07
   8.1627209e-10  -3.6601791e-02   6.2431842e-01   3.6179316e-02  -5.3039840e+07
   8.1893965e-10  -3.6460625e-02   6.2121559e-01   3.6397139e-02  -5.2800255e+07
   8.2160720e-10  -3.6320095e-02   6.1814035e-01   3.6615178e-02  -5.2562170e+07
   8.2427476e-10  -3.6180198e-02   6.1509240e-01   3.6833431e-02  -5.2325571e+07
   8.2694231e-10  -3.6040931e-02   6.1207142e-01   3.7051894e-02  -5.2090443e+07
   8.2960987e-10  -3.5902289e-02   6.0907710e-01   3.7270563e-02  -5.1856773e+07
   8.3227743e-10  -3.5764268e-02   6.0610915e-01   3.7489435e-02  -5.1624548e+07
   8.3494498e-10  -3.5626865e-02   6.0316727e-01   3.7708505e-02  -5.1393753e+07
   8.3761254e-10  -3.5490075e-02   6.0025116e-01   3.7927770e-02  -5.1164375e+07
   8.4028009e-10  -3.5353896e-02   5.9736053e-01   3.8147226e-02  -5.0936401e+07
   8.4294765e-10  -3.5218323e-02   5.9449511e-01   3.8366870e-02  -5.0709818e+07
   8.4561521e-10  -3.5083352e-02   5.9165460e-01   3.8586699e-02  -5.0484614e+07
   8.4828276e-10  -3.4948980e-02   5.8883873e-01   3.8806707e-02  -5.0260774e+07
   8.5095032e-10  -3.4815204e-02   5.8604723e-01   3.9026892e-02  -5.0038288e+07
   8.5361787e-10  -3.4682019e-02   5.8327982e-01   3.9247251e-02  -4.9817142e+07
   8.5628543e-10  -3.4549423e-02   5.8053625e-01   3.9467779e-02  -4.9597325e+07
   8.5895298e-10  -3.4417411e-02   5.7781624e-01   3.9688473e-02  -4.9378824e+07
   8.6162054e-10  -3.4285980e-02   5.7511954e-01   3.9909329e-02  -4.9161627e+07
   8.6428810e-10  -3.4155127e-02   5.7244588e-01   4.0130344e-02  -4.8945724e+07
   8.6695565e-10  -3.4024848e-02   5.6979503e-01   4.0351514e-02  -4.8731101e+07
   8.6962321e-10  -3.3895140e-02   5.6716673e-01   4.0572836e-02  -4.8517748e+07
   8.7229076e-10  -3.3765999e-02   5.6456073e-01   4.0794306e-02  -4.8305653e+07
   8.7495832e-10  -3.3637423e-02   5.6197679e-01   4.1015921e-02  -4.8094806e+07
   8.7762588e-10  -3.3509407e-02   5.5941467e-01   4.1237676e-02  -4.7885195e+07
   8.8029343e-10  -3.3381949e-02   5.5687413e-01   4.1459570e-02  -4.7676809e+07
   8.8296099e-10  -3.3255045e-02   5.5435495e-01   4.1681597e-02  -4.7469637e+07
   8.8562854e-10  -3.3128692e-02   5.5185689e-01   4.1903755e-02  -4.7263670e+07
   8.8829610e-10  -3.3002887e-02   5.4937972e-01   4.2126041e-02  -4.7058896e+07
   8.9096365e-10  -3.2877627e-02   5.4692322e-01   4.2348450e-02  -4.6855305e+07
   8.9363121e-10  -3.2752908e-02   5.4448717e-01   4.2570979e-02  -4.6652886e+07
   8.9629877e-10  -3.2628727e-02   5.4207135e-01   4.2793626e-02  -4.6451631e+07
   8.9896632e-10  -3.2505082e-02   5.3967555e-01   4.3016386e-02  -4.6251528e+07
   9.0163388e-10  -3.2381969e-02   5.3729955e-01   4.3239256e-02  -4.6052568e+07
   9.0430143e-10  -3.2259386e-02   5.3494314e-01   4.3462232e-02  -4.5854742e+07
   9.0696899e-10  -3.2137328e-02   5.3260611e-01   4.3685313e-02  -4.5658038e+07
   9.0963655e-10  -3.2015794e-02   5.3028827e-01   4.3908493e-02  -4.5462449e+07
   9.1230410e-10  -3.1894780e-02   5.2798940e-01   4.4131769e-02  -4.5267965e+07
   9.1497166e-10  -3.1774284e-02   5.2570931e-01   4.4355140e-02  -4.5074575e+07
   9.1763921e-10  -3.1654301e-02   5.2344780e-01   4.4578600e-02  -4.4882272e+07
   9.2030677e-10  -3.1534831e-02   5.2120468e-01   4.4802147e-02  -4.4691046e+07
   9.2297432e-10  -3.1415869e-02   5.1897976e-01   4.5025777e-02  -4.4500888e+07
   9.2564188e-10  -3.1297413e-02   5.1677284e-01   4.5249487e-02  -4.4311789e+07
   9.2830944e-10  -3.1179460e-02   5.1458374e-01   4.5473274e-02  -4.4123741e+07
   9.3097699e-10  -3.1062007e-02   5.1241228e-01   4.5697135e-02  -4.3936734e+07
   9.3364455e-10  -3.0945051e-02   5.1025826e-01   4.5921066e-02  -4.3750761e+07
   9.3631210e-10  -3.0828591e-02   5.0812152e-01   4.6145065e-02  -4.3565813e+07
   9.3897966e-10  -3.0712622e-02   5.0600188e-01   4.6369127e-02  -4.3381881e+07
   9.4164722e-10  -3.0597143e-02   5.0389915e-01   4.6593250e-02  -4.3198957e+07
   9.4431477e-10  -3.0482150e-02   5.0181317e-01   4.6817430e-02  -4.3017034e+07
   9.4698233e-10  -3.0367641e-02   4.9974376e-01   4.7041665e-02  -4.2836102e+07
   9.4964988e-10  -3.0253614e-02   4.9769076e-01   4.7265951e-02  -4.2656155e+07
   9.5231744e-10  -3.0140065e-02   4.9565400e-01   4.7490285e-02  -4.2477183e+07
   9.5498499e-10  -3.0026993e-02   4.9363331e-01   4.7714664e-02  -4.2299180e+07
   9.5765255e-10  -2.9914394e-02   4.9162853e-01   4.7939085e-02  -4.2122138e+07
   9.6032011e-10  -2.9802266e-02   4.8963950e-01   4.8163545e-02  -4.1946048e+07
   9.6298766e-10  -2.9690606e-02   4.8766606e-01   4.8388040e-02  -4.1770904e+07
   9.6565522e-10  -2.9579413e-02   4.8570806e-01   4.8612567e-02  -4.1596699e+07
   9.6832277e-10  -2.9468682e-02   4.8376533e-01   4.8837124e-02  -4.1423424e+07
   9.7099033e-10  -2.9358413e-02   4.8183773e-01   4.9061707e-02  -4.1251072e+07
   9.7365789e-10  -2.9248603e-02   4.7992511e-01   4.9286314e-02  -4.1079636e+07
   9.7632544e-10  -2.9139248e-02   4.7802731e-01   4.9510941e-02  -4.0909110e+07
   9.7899300e-10  -2.9030347e-02   4.7614420e-01   4.9735585e-02  -4.0739486e+07
   9.8166055e-10  -2.8921898e-02   4.7427561e-01   4.9960243e-02  -4.0570756e+07
   9.8432811e-10  -2.8813897e-02   4.7242141e-01   5.0184912e-02  -4.0402915e+07
   9.8699567e-10  -2.8706343e-02   4.7058146e-01   5.0409590e-02  -4.0235955e+07
   9.8966322e-10  -2.8599233e-02   4.6875562e-01   5.0634273e-02  -4.0069870e+07
   9.9233078e-10  -2.8492565e-02   4.6694374e-01   5.0858959e-02  -3.9904653e+07
   9.9499833e-10  -2.8386337e-02   4.6514570e-01   5.1083644e-02  -3.9740298e+07
   9.9766589e-10  -2.8280546e-02   4.6336134e-01   5.1308325e-02  -3.9576797e+07
   1.0003334e-09  -2.8175189e-02   4.6159055e-01   5.1533000e-02  -3.9414144e+07
   1.0030010e-09  -2.8070266e-02   4.5983319e-01   5.1757666e-02  -3.9252334e+07
   1.0056686e-09  -2.7965773e-02   4.5808913e-01   5.1982320e-02  -3.9091359e+07
   1.0083361e-09  -2.7861709e-02   4.5635823e-01   5.2206958e-02  -3.8931214e+07
   1.0110037e-09  -2.7758070e-02   4.5464038e-01   5.2431578e-02  -3.8771893e+07
   1.0136712e-09  -2.7654856e-02   4.5293544e-01   5.2656178e-02  -3.8613388e+07
   1.0163388e-09  -2.7552063e-02   4.5124330e-01   5.2880754e-02  -3.8455695e+07
   1.0190063e-09  -2.7449690e-02   4.4956382e-01   5.3105304e-02  -3.8298806e+07
   1.0216739e-09  -2.7347734e-02   4.4789689e-01   5.3329824e-02  -3.8142717e+07
   1.0243414e-09  -2.7246194e-02   4.4624238e-01   5.3554313e-02  -3.7987422e+07
   1.0270090e-09  -2.7145066e-02   4.4460018e-01   5.3778766e-02  -3.7832914e+07
   1.0296766e-09  -2.7044350e-02   4.4297017e-01   5.4003182e-02  -3.7679188e+07
   1.0323441e-09  -2.6944043e-02   4.4135224e-01   5.4227558e-02  -3.7526238e+07
   1.0350117e-09  -2.6844143e-02   4.3974626e-01   5.4451891e-02  -3.7374059e+07
   1.0376792e-09  -2.6744648e-02   4.3815213e-01   5.4676177e-02  -3.7222644e+07
   1.0403468e-09  -2.6645555e-02   4.3656974e-01   5.4900416e-02  -3.7071989e+07
   1.0430143e-09  -2.6546864e-02   4.3499897e-01   5.5124603e-02  -3.6922089e+07
   1.0456819e-09  -2.6448571e-02   4.3343971e-01   5.5348736e-02  -3.6772937e+07
   1.0483494e-09  -2.6350676e-02   4.3189185e-01   5.5572813e-02  -3.6624528e+07
   1.0510170e-09  -2.6253175e-02   4.3035530e-01   5.5796831e-02  -3.6476858e+07
   1.0536846e-09  -2.6156067e-02   4.2882994e-01   5.6020786e-02  -3.6329920e+07
   1.0563521e-09  -2.6059350e-02   4.2731566e-01   5.6244678e-02  -3.6183710e+07
   1.0590197e-09  -2.5963023e-02   4.2581238e-01   5.6468502e-02  -3.6038223e+07
   1.0616872e-09  -2.5867082e-02   4.2431997e-01   5.6692256e-02  -3.5893453e+07
   1.0643548e-09  -2.5771526e-02   4.2283835e-01   5.6915938e-02  -3.5749395e+07
   1.0670223e-09  -2.5676354e-02   4.2136741e-01   5.7139546e-02  -3.5606046e+07
   1.0696899e-09  -2.5581564e-02   4.1990705e-01   5.7363076e-02  -3.5463398e+07
   1.0723575e-09  -2.5487153e-02   4.1845718e-01   5.7586526e-02  -3.5321449e+07
   1.0750250e-09  -2.5393119e-02   4.1701770e-01   5.7809893e-02  -3.5180192e+07
   1.0776926e-09  -2.5299462e-02   4.1558851e-01   5.8033175e-02  -3.5039624e+07
   1.0803601e-09  -2.5206179e-02   4.1416953e-01   5.8256370e-02  -3.4899739e+07
   1.0830277e-09  -2.5113268e-02   4.1276065e-01   5.8479475e-02  -3.4760533e+07
   1.0856952e-09  -2.5020727e-02   4.1136178e-01   5.8702488e-02  -3.4622000e+07
   1.0883628e-09  -2.4928555e-02   4.0997284e-01   5.8925405e-02  -3.4484138e+07
   1.0910303e-09  -2.4836750e-02   4.0859374e-01   5.9148225e-02  -3.4346940e+07
   1.0936979e-09  -2.4745310e-02   4.0722437e-01   5.9370945e-02  -3.4210403e+07
   1.0963655e-09  -2.4654233e-02   4.0586467e-01   5.9593563e-02  -3.4074522e+07
   1.0990330e-09  -2.4563518e-02   4.0451453e-01   5.9816076e-02  -3.3939293e+07
   1.1017006e-09  -2.4473163e-02   4.0317388e-01   6.0038482e-02  -3.3804711e+07
   1.1043681e-09  -2.4383166e-02   4.0184262e-01   6.0260779e-02  -3.3670772e+07
   1.1070357e-09  -2.4293525e-02   4.0052068e-01   6.0482964e-02  -3.3537471e+07
   1.1097032e-09  -2.4204239e-02   3.9920797e-01   6.0705034e-02  -3.3404805e+07
   1.1123708e-09  -2.4115306e-02   3.9790440e-01   6.0926988e-02  -3.3272769e+07
   1.1150383e-09  -2.4026725e-02   3.9660990e-01   6.1148823e-02  -3.3141360e+07
   1.1177059e-09  -2.3938493e-02   3.9532439e-01   6.1370537e-02  -3.3010572e+07
   1.1203735e-09  -2.3850609e-02   3.9404779e-01   6.1592127e-02  -3.2880402e+07
   1.1230410e-09  -2.3763072e-02   3.9278001e-01   6.1813592e-02  -3.2750846e+07
   1.1257086e-09  -2.3675879e-02   3.9152098e-01   6.2034929e-02  -3.2621899e+07
   1.1283761e-09  -2.3589030e-02   3.9027062e-01   6.2256135e-02  -3.2493559e+07
   1.1310437e-09  -2.3502522e-02   3.8902886e-01   6.2477208e-02  -3.2365820e+07
   1.1337112e-09  -2.3416355e-02   3.8779561e-01   6.2698147e-02  -3.2238680e+07
   1.1363788e-09  -2.3330525e-02   3.8657082e-01   6.2918949e-02  -3.2112133e+07
   1.1390463e-09  -2.3245032e-02   3.8535439e-01   6.3139611e-02  -3.1986177e+07
   1.1417139e-09  -2.3159875e-02   3.8414626e-01   6.3360132e-02  -3.1860808e+07
   1.1443815e-09  -2.3075051e-02   3.8294636e-01   6.3580510e-02  -3.1736021e+07
   1.1470490e-09  -2.2990559e-02   3.8175462e-01   6.3800741e-02  -3.1611813e+07
   1.1497166e-09  -2.2906398e-02   3.8057095e-01   6.4020825e-02  -3.1488181e+07
   1.1523841e-09  -2.2822566e-02   3.7939531e-01   6.4240759e-02  -3.1365121e+07
   1.1550517e-09  -2.2739061e-02   3.7822760e-01   6.4460540e-02  -3.1242628e+07
   1.1577192e-09  -2.2655883e-02   3.7706777e-01   6.4680167e-02  -3.1120700e+07
   1.1603868e-09  -2.2573029e-02   3.7591576e-01   6.4899637e-02  -3.0999333e+07
   1.1630544e-09  -2.2490498e-02   3.7477148e-01   6.5118949e-02  -3.0878524e+07
   1.1657219e-09  -2.2408288e-02   3.7363487e-01   6.5338101e-02  -3.0758269e+07
   1.1683895e-09  -2.2326398e-02   3.7250588e-01   6.5557089e-02  -3.0638564e+07
   1.1710570e-09  -2.2244827e-02   3.7138443e-01   6.5775913e-02  -3.0519406e+07
   1.1737246e-09  -2.2163574e-02   3.7027046e-01   6.5994570e-02  -3.0400792e+07
   1.1763921e-09  -2.2082636e-02   3.6916391e-01   6.6213059e-02  -3.0282718e+07
   1.1790597e-09  -2.2002012e-02   3.6806471e-01   6.6431377e-02  -3.0165181e+07
   1.1817272e-09  -2.1921701e-02   3.6697280e-01   6.6649521e-02  -3.0048178e+07
   1.1843948e-09  -2.1841701e-02   3.6588812e-01   6.6867491e-02  -2.9931706e+07
   1.1870624e-09  -2.1762011e-02   3.6481061e-01   6.7085285e-02  -2.9815760e+07
   1.1897299e-09  -2.1682630e-02   3.6374021e-01   6.7302899e-02  -2.9700339e+07
   1.1923975e-09  -2.1603556e-02   3.6267685e-01   6.7520333e-02  -2.9585438e+07
   1.1950650e-09  -2.1524788e-02   3.6162049e-01   6.7737585e-02  -2.9471055e+07
   1.1977326e-09  -2.1446325e-02   3.6057105e-01   6.7954652e-02  -2.9357186e+07
   1.2004001e-09  -2.1368164e-02   3.5952849e-01   6.8171532e-02  -2.9243829e+07
   1.2030677e-09  -2.1290305e-02   3.5849274e-01   6.8388225e-02  -2.9130980e+07
   1.2057352e-09  -2.1212747e-02   3.5746376e-01   6.8604727e-02  -2.9018637e+07
   1.2084028e-09  -2.1135488e-02   3.5644147e-01   6.8821037e-02  -2.8906795e+07
   1.2110704e-09  -2.1058526e-02   3.5542584e-01   6.9037153e-02  -2.8795453e+07
   1.2137379e-09  -2.0981860e-02   3.5441679e-01   6.9253074e-02  -2.8684607e+07
   1.2164055e-09  -2.0905490e-02   3.5341429e-01   6.9468797e-02  -2.8574254e+07
   1.2190730e-09  -2.0829413e-02   3.5241826e-01   6.9684321e-02  -2.8464392e+07
   1.2217406e-09  -2.0753629e-02   3.5142867e-01   6.9899643e-02  -2.8355017e+07
   1.2244081e-09  -2.0678136e-02   3.5044546e-01   7.0114763e-02  -2.8246126e+07
   1.2270757e-09  -2.0602932e-02   3.4946857e-01   7.0329678e-02  -2.8137718e+07
   1.2297432e-09  -2.0528018e-02   3.4849795e-01   7.0544386e-02  -2.8029788e+07
   1.2324108e-09  -2.0453390e-02   3.4753356e-01   7.0758886e-02  -2.7922334e+07
   1.2350784e-09  -2.0379049e-02   3.4657534e-01   7.0973177e-02  -2.7815354e+07
   1.2377459e-09  -2.0304992e-02   3.4562324e-01   7.1187255e-02  -2.7708844e+07
   1.2404135e-09  -2.0231219e-02   3.4467721e-01   7.1401120e-02  -2.7602802e+07
   1.2430810e-09  -2.0157728e-02   3.4373721e-01   7.1614771e-02  -2.7497225e+07
   1.2457486e-09  -2.0084518e-02   3.4280318e-01   7.1828204e-02  -2.7392111e+07
   1.2484161e-09  -2.0011587e-02   3.4187507e-01   7.2041419e-02  -2.7287456e+07
   1.2510837e-09  -1.9938936e-02   3.4095285e-01   7.2254414e-02  -2.7183259e+07
   1.2537513e-09  -1.9866562e-02   3.4003645e-01   7.2467187e-02  -2.7079516e+07
   1.2564188e-09  -1.9794463e-02   3.3912584e-01   7.2679737e-02  -2.6976225e+07
   1.2590864e-09  -1.9722640e-02   3.3822097e-01   7.2892062e-02  -2.6873383e+07
   1.2617539e-09  -1.9651091e-02   3.3732179e-01   7.3104160e-02  -2.6770988e+07
   1.2644215e-09  -1.9579814e-02   3.3642825e-01   7.3316030e-02  -2.6669037e+07
   1.2670890e-09  -1.9508808e-02   3.3554032e-01   7.3527670e-02  -2.6567528e+07
   1.2697566e-09  -1.9438073e-02   3.3465795e-01   7.3739079e-02  -2.6466458e+07
   1.2724241e-09  -1.9367606e-02   3.3378108e-01   7.3950255e-02  -2.6365825e+07
   1.2750917e-09  -1.9297408e-02   3.3290969e-01   7.4161196e-02  -2.6265626e+07
   1.2777593e-09  -1.9227476e-02   3.3204373e-01   7.4371902e-02  -2.6165859e+07
   1.2804268e-09  -1.9157810e-02   3.3118314e-01   7.4582370e-02  -2.6066521e+07
   1.2830944e-09  -1.9088408e-02   3.3032790e-01   7.4792599e-02  -2.5967610e+07
   1.2857619e-09  -1.9019270e-02   3.2947796e-01   7.5002588e-02  -2.5869124e+07
   1.2884295e-09  -1.8950393e-02   3.2863327e-01   7.5212334e-02  -2.5771060e+07
   1.2910970e-09  -1.8881778e-02   3.2779380e-01   7.5421837e-02  -2.5673416e+07
   1.2937646e-09  -1.8813423e-02   3.2695951e-01   7.5631095e-02  -2.5576190e+07
   1.2964321e-09  -1.8745326e-02   3.2613035e-01   7.5840107e-02  -2.5479379e+07
   1.2990997e-09  -1.8677487e-02   3.2530629e-01   7.6048871e-02  -2.5382981e+07
   1.3017673e-09  -1.8609905e-02   3.2448728e-01   7.6257386e-02  -2.5286994e+07
   1.3044348e-09  -1.8542578e-02   3.2367329e-01   7.6465650e-02  -2.5191415e+07
   1.3071024e-09  -1.8475506e-02   3.2286428e-01   7.6673662e-02  -2.5096243e+07
   1.3097699e-09  -1.8408687e-02   3.2206020e-01   7.6881421e-02  -2.5001475e+07
   1.3124375e-09  -1.8342120e-02   3.2126103e-01   7.7088925e-02  -2.4907108e+07
   1.3151050e-09  -1.8275804e-02   3.2046672e-01   7.7296173e-02  -2.4813141e+07
   1.3177726e-09  -1.8209739e-02   3.1967723e-01   7.7503163e-02  -2.4719572e+07
   1.3204401e-09  -1.8143922e-02   3.1889254e-01   7.7709894e-02  -2.4626398e+07
   1.3231077e-09  -1.8078354e-02   3.1811259e-01   7.7916365e-02  -2.4533617e+07
   1.3257753e-09  -1.8013033e-02   3.1733737e-01   7.8122575e-02  -2.4441227e+07
   1.3284428e-09  -1.7947957e-02   3.1656682e-01   7.8328522e-02  -2.4349227e+07
   1.3311104e-09  -1.7883127e-02   3.1580091e-01   7.8534205e-02  -2.4257613e+07
   1.3337779e-09  -1.7818540e-02   3.1503962e-01   7.8739623e-02  -2.4166384e+07
   1.3364455e-09  -1.7754196e-02   3.1428290e-01   7.8944773e-02  -2.4075538e+07
   1.3391130e-09  -1.7690094e-02   3.1353071e-01   7.9149656e-02  -2.3985072e+07
   1.3417806e-09  -1.7626233e-02   3.1278304e-01   7.9354270e-02  -2.3894986e+07
   1.3444481e-09  -1.7562612e-02   3.1203983e-01   7.9558614e-02  -2.3805276e+07
   1.3471157e-09  -1.7499229e-02   3.1130106e-01   7.9762686e-02  -2.3715940e+07
   1.3497833e-09  -1.7436084e-02   3.1056670e-01   7.9966485e-02  -2.3626978e+07
   1.3524508e-09  -1.7373176e-02   3.0983670e-01   8.0170010e-02  -2.3538386e+07
   1.3551184e-09  -1.7310504e-02   3.0911104e-01   8.0373260e-02  -2.3450163e+07
   1.3577859e-09  -1.7248067e-02   3.0838969e-01   8.0576234e-02  -2.3362307e+07
   1.3604535e-09  -1.7185864e-02   3.0767262e-01   8.0778930e-02  -2.3274816e+07
   1.3631210e-09  -1.7123893e-02   3.0695978e-01   8.0981347e-02  -2.3187689e+07
   1.3657886e-09  -1.7062155e-02   3.0625115e-01   8.1183485e-02  -2.3100922e+07
   1.3684562e-09  -1.7000647e-02   3.0554670e-01   8.1385342e-02  -2.3014515e+07
   1.3711237e-09  -1.6939370e-02   3.0484640e-01   8.1586916e-02  -2.2928465e+07
   1.3737913e-09  -1.6878321e-02   3.0415022e-01   8.1788208e-02  -2.2842770e+07
   1.3764588e-09  -1.6817501e-02   3.0345812e-01   8.1989215e-02  -2.2757430e+07
   1.3791264e-09  -1.6756908e-02   3.0277008e-01   8.2189937e-02  -2.2672441e+07
   1.3817939e-09  -1.6696541e-02   3.0208607e-01   8.2390372e-02  -2.2587803e+07
   1.3844615e-09  -1.6636399e-02   3.0140605e-01   8.2590520e-02  -2.2503513e+07
   1.3871290e-09  -1.6576482e-02   3.0073000e-01   8.2790380e-02  -2.2419569e+07
   1.3897966e-09  -1.6516788e-02   3.0005789e-01   8.2989949e-02  -2.2335970e+07
   1.3924642e-09  -1.6457317e-02   2.9938969e-01   8.3189229e-02  -2.2252714e+07
   1.3951317e-09  -1.6398067e-02   2.9872537e-01   8.3388216e-02  -2.2169800e+07
   1.3977993e-09  -1.6339038e-02   2.9806490e-01   8.3586911e-02  -2.2087225e+07
   1.4004668e-09  -1.6280229e-02   2.9740826e-01   8.3785313e-02  -2.2004988e+07
   1.4031344e-09  -1.6221639e-02   2.9675541e-01   8.3983419e-02  -2.1923087e+07
   1.4058019e-09  -1.6163267e-02   2.9610633e-01   8.4181231e-02  -2.1841520e+07
   1.4084695e-09  -1.6105112e-02   2.9546100e-01   8.4378745e-02  -2.1760286e+07
   1.4111370e-09  -1.6047173e-02   2.9481938e-01   8.4575962e-02  -2.1679383e+07
   1.4138046e-09  -1.5989450e-02   2.9418145e-01   8.4772881e-02  -2.1598810e+07
   1.4164722e-09  -1.5931941e-02   2.9354718e-01   8.4969500e-02  -2.1518564e+07
   1.4191397e-09  -1.5874646e-02   2.9291654e-01   8.5165819e-02  -2.1438644e+07
   1.4218073e-09  -1.5817564e-02   2.9228952e-01   8.5361837e-02  -2.1359049e+07
   1.4244748e-09  -1.5760693e-02   2.9166608e-01   8.5557552e-02  -2.1279776e+07
   1.4271424e-09  -1.5704034e-02   2.9104619e-01   8.5752965e-02  -2.1200825e+07
   1.4298099e-09  -1.5647584e-02   2.9042984e-01   8.5948074e-02  -2.1122194e+07
   1.4324775e-09  -1.5591344e-02   2.8981700e-01   8.6142878e-02  -2.1043880e+07
   1.4351450e-09  -1.5535313e-02   2.8920764e-01   8.6337376e-02  -2.0965883e+07
   1.4378126e-09  -1.5479489e-02   2.8860173e-01   8.6531568e-02  -2.0888202e+07
   1.4404802e-09  -1.5423872e-02   2.8799926e-01   8.6725452e-02  -2.0810833e+07
   1.4431477e-09  -1.5368461e-02   2.8740020e-01   8.6919028e-02  -2.0733776e+07
   1.4458153e-09  -1.5313255e-02   2.8680452e-01   8.7112296e-02  -2.0657030e+07
   1.4484828e-09  -1.5258253e-02   2.8621220e-01   8.7305253e-02  -2.0580592e+07
   1.4511504e-09  -1.5203455e-02   2.8562322e-01   8.7497900e-02  -2.0504462e+07
   1.4538179e-09  -1.5148859e-02   2.8503755e-01   8.7690236e-02  -2.0428637e+07
   1.4564855e-09  -1.5094466e-02   2.8445518e-01   8.7882260e-02  -2.0353117e+07
   1.4591531e-09  -1.5040273e-02   2.8387607e-01   8.8073970e-02  -2.0277899e+07
   1.4618206e-09  -1.4986281e-02   2.8330020e-01   8.8265367e-02  -2.0202983e+07
   1.4644882e-09  -1.4932488e-02   2.8272756e-01   8.8456450e-02  -2.0128367e+07
   1.4671557e-09  -1.4878894e-02   2.8215812e-01   8.8647217e-02  -2.0054049e+07
   1.4698233e-09  -1.4825497e-02   2.8159185e-01   8.8837669e-02  -1.9980028e+07
   1.4724908e-09  -1.4772298e-02   2.8102874e-01   8.9027803e-02  -1.9906303e+07
   1.4751584e-09  -1.4719295e-02   2.8046876e-01   8.9217621e-02  -1.9832872e+07
   1.4778259e-09  -1.4666487e-02   2.7991189e-01   8.9407120e-02  -1.9759733e+07
   1.4804935e-09  -1.4613875e-02   2.7935811e-01   8.9596301e-02  -1.9686886e+07
   1.4831611e-09  -1.4561456e-02   2.7880740e-01   8.9785163e-02  -1.9614329e+07
   1.4858286e-09  -1.4509230e-02   2.7825974e-01   8.9973704e-02  -1.9542060e+07
   1.4884962e-09  -1.4457197e-02   2.7771510e-01   9.0161925e-02  -1.9470079e+07
   1.4911637e-09  -1.4405355e-02   2.7717347e-01   9.0349824e-02  -1.9398383e+07
   1.4938313e-09  -1.4353704e-02   2.7663482e-01   9.0537401e-02  -1.9326972e+07
   1.4964988e-09  -1.4302243e-02   2.7609914e-01   9.0724656e-02  -1.9255844e+07
   1.4991664e-09  -1.4250972e-02   2.7556640e-01   9.0911587e-02  -1.9184997e+07
   1.5018339e-09  -1.4199889e-02   2.7503659e-01   9.1098195e-02  -1.9114431e+07
   1.5045015e-09  -1.4148994e-02   2.7450967e-01   9.1284477e-02  -1.9044145e+07
   1.5071691e-09  -1.4098287e-02   2.7398565e-01   9.1470435e-02  -1.8974136e+07
   1.5098366e-09  -1.4047765e-02   2.7346449e-01   9.1656067e-02  -1.8904403e+07
   1.5125042e-09  -1.3997429e-02   2.7294617e-01   9.1841373e-02  -1.8834946e+07
   1.5151717e-09  -1.3947279e-02   2.7243068e-01   9.2026352e-02  -1.8765762e+07
   1.5178393e-09  -1.3897312e-02   2.7191799e-01   9.2211004e-02  -1.8696851e+07
   1.5205068e-09  -1.3847529e-02   2.7140810e-01   9.2395328e-02  -1.8628212e+07
   1.5231744e-09  -1.3797928e-02   2.7090097e-01   9.2579323e-02  -1.8559842e+07
   1.5258419e-09  -1.3748510e-02   2.7039659e-01   9.2762989e-02  -1.8491741e+07
   1.5285095e-09  -1.3699273e-02   2.6989495e-01   9.2946326e-02  -1.8423908e+07
   1.5311771e-09  -1.3650216e-02   2.6939602e-01   9.3129332e-02  -1.8356342e+07
   1.5338446e-09  -1.3601340e-02   2.6889978e-01   9.3312008e-02  -1.8289040e+07
   1.5365122e-09  -1.3552642e-02   2.6840622e-01   9.3494353e-02  -1.8222002e+07
   1.5391797e-09  -1.3504123e-02   2.6791532e-01   9.3676367e-02  -1.8155227e+07
   1.5418473e-09  -1.3455782e-02   2.6742706e-01   9.3858048e-02  -1.8088713e+07
   1.5445148e-09  -1.3407618e-02   2.6694143e-01   9.4039397e-02  -1.8022459e+07
   1.5471824e-09  -1.3359630e-02   2.6645840e-01   9.4220412e-02  -1.7956465e+07
   1.5498499e-09  -1.3311818e-02   2.6597796e-01   9.4401095e-02  -1.7890728e+07
   1.5525175e-09  -1.3264181e-02   2.6550010e-01   9.4581443e-02  -1.7825248e+07
   1.5551851e-09  -1.3216719e-02   2.6502479e-01   9.4761458e-02  -1.7760024e+07
   1.5578526e-09  -1.3169430e-02   2.6455201e-01   9.4941137e-02  -1.7695053e+07
   1.5605202e-09  -1.3122313e-02   2.6408176e-01   9.5120481e-02  -1.7630336e+07
   1.5631877e-09  -1.3075370e-02   2.6361402e-01   9.5299490e-02  -1.7565871e+07
   1.5658553e-09  -1.3028598e-02   2.6314876e-01   9.5478163e-02  -1.7501657e+07
   1.5685228e-09  -1.2981996e-02   2.6268597e-01   9.5656499e-02  -1.7437692e+07
   1.5711904e-09  -1.2935566e-02   2.6222565e-01   9.5834499e-02  -1.7373976e+07
   1.5738580e-09  -1.2889304e-02   2.6176776e-01   9.6012161e-02  -1.7310508e+07
   1.5765255e-09  -1.2843212e-02   2.6131229e-01   9.6189486e-02  -1.7247286e+07
   1.5791931e-09  -1.2797288e-02   2.6085923e-01   9.6366473e-02  -1.7184309e+07
   1.5818606e-09  -1.2751532e-02   2.6040857e-01   9.6543122e-02  -1.7121576e+07
   1.5845282e-09  -1.2705943e-02   2.5996028e-01   9.6719432e-02  -1.7059086e+07
   1.5871957e-09  -1.2660520e-02   2.5951435e-01   9.6895403e-02  -1.6996839e+07
   1.5898633e-09  -1.2615263e-02   2.5907077e-01   9.7071035e-02  -1.6934832e+07
   1.5925308e-09  -1.2570171e-02   2.5862952e-01   9.7246327e-02  -1.6873064e+07
   1.5951984e-09  -1.2525243e-02   2.5819058e-01   9.7421280e-02  -1.6811536e+07
   1.5978660e-09  -1.2480479e-02   2.5775395e-01   9.7595892e-02  -1.6750245e+07
   1.6005335e-09  -1.2435879e-02   2.5731960e-01   9.7770164e-02  -1.6689191e+07
   1.6032011e-09  -1.2391441e-02   2.5688752e-01   9.7944094e-02  -1.6628372e+07
   1.6058686e-09  -1.2347164e-02   2.5645770e-01   9.8117684e-02  -1.6567787e+07
   1.6085362e-09  -1.2303050e-02   2.5603013e-01   9.8290933e-02  -1.6507436e+07
   1.6112037e-09  -1.2259095e-02   2.5560478e-01   9.8463839e-02  -1.6447318e+07
   1.6138713e-09  -1.2215301e-02   2.5518164e-01   9.8636404e-02  -1.6387431e+07
   1.6165388e-09  -1.2171667e-02   2.5476070e-01   9.8808627e-02  -1.6327774e+07
   1.6192064e-09  -1.2128191e-02   2.5434195e-01   9.8980507e-02  -1.6268346e+07
   1.6218740e-09  -1.2084873e-02   2.5392537e-01   9.9152045e-02  -1.6209147e+07
   1.6245415e-09  -1.2041713e-02   2.5351094e-01   9.9323239e-02  -1.6150175e+07
   1.6272091e-09  -1.1998710e-02   2.5309867e-01   9.9494091e-02  -1.6091429e+07
   1.6298766e-09  -1.1955864e-02   2.5268852e-01   9.9664599e-02  -1.6032909e+07
   1.6325442e-09  -1.1913173e-02   2.5228048e-01   9.9834764e-02  -1.5974613e+07
   1.6352117e-09  -1.1870638e-02   2.5187455e-01   1.0000458e-01  -1.5916540e+07
   1.6378793e-09  -1.1828257e-02   2.5147072e-01   1.0017406e-01  -1.5858690e+07
   1.6405468e-09  -1.1786030e-02   2.5106895e-01   1.0034319e-01  -1.5801061e+07
   1.6432144e-09  -1.1743956e-02   2.5066926e-01   1.0051198e-01  -1.5743652e+07
   1.6458820e-09  -1.1702036e-02   2.5027161e-01   1.0068043e-01  -1.5686463e+07
   1.6485495e-09  -1.1660267e-02   2.4987600e-01   1.0084853e-01  -1.5629492e+07
   1.6512171e-09  -1.1618651e-02   2.4948242e-01   1.0101628e-01  -1.5572739e+07
   1.6538846e-09  -1.1577185e-02   2.4909084e-01   1.0118369e-01  -1.5516202e+07
   1.6565522e-09  -1.1535870e-02   2.4870127e-01   1.0135075e-01  -1.5459881e+07
   1.6592197e-09  -1.1494705e-02   2.4831369e-01   1.0151747e-01  -1.5403775e+07
   1.6618873e-09  -1.1453689e-02   2.4792808e-01   1.0168385e-01  -1.5347883e+07
   1.6645549e-09  -1.1412822e-02   2.4754443e-01   1.0184987e-01  -1.5292203e+07
   1.6672224e-09  -1.1372104e-02   2.4716274e-01   1.0201556e-01  -1.5236736e+07
   1.6698900e-09  -1.1331533e-02   2.4678298e-01   1.0218089e-01  -1.5181479e+07
   1.6725575e-09  -1.1291109e-02   2.4640515e-01   1.0234588e-01  -1.5126433e+07
   1.6752251e-09  -1.1250831e-02   2.4602923e-01   1.0251053e-01  -1.5071596e+07
   1.6778926e-09  -1.1210700e-02   2.4565522e-01   1.0267483e-01  -1.5016967e+07
   1.6805602e-09  -1.1170714e-02   2.4528310e-01   1.0283878e-01  -1.4962546e+07
   1.6832277e-09  -1.1130873e-02   2.4491286e-01   1.0300239e-01  -1.4908331e+07
   1.6858953e-09  -1.1091177e-02   2.4454448e-01   1.0316565e-01  -1.4854321e+07
   1.6885629e-09  -1.1051624e-02   2.4417796e-01   1.0332856e-01  -1.4800517e+07
   1.6912304e-09  -1.1012214e-02   2.4381329e-01   1.0349113e-01  -1.4746916e+07
   1.6938980e-09  -1.0972948e-02   2.4345045e-01   1.0365335e-01  -1.4693519e+07
   1.6965655e-09  -1.0933823e-02   2.4308943e-01   1.0381522e-01  -1.4640324e+07
   1.6992331e-09  -1.0894840e-02   2.4273022e-01   1.0397675e-01  -1.4587330e+07
   1.7019006e-09  -1.0855998e-02   2.4237281e-01   1.0413793e-01  -1.4534536e+07
   1.7045682e-09  -1.0817297e-02   2.4201720e-01   1.0429876e-01  -1.4481942e+07
   1.7072357e-09  -1.0778735e-02   2.4166336e-01   1.0445925e-01  -1.4429547e+07
   1.7099033e-09  -1.0740314e-02   2.4131128e-01   1.0461939e-01  -1.4377349e+07
   1.7125709e-09  -1.0702031e-02   2.4096097e-01   1.0477918e-01  -1.4325349e+07
   1.7152384e-09  -1.0663886e-02   2.4061240e-01   1.0493863e-01  -1.4273545e+07
   1.7179060e-09  -1.0625880e-02   2.4026557e-01   1.0509773e-01  -1.4221937e+07
   1.7205735e-09  -1.0588011e-02   2.3992046e-01   1.0525648e-01  -1.4170523e+07
   1.7232411e-09  -1.0550279e-02   2.3957706e-01   1.0541489e-01  -1.4119302e+07
   1.7259086e-09  -1.0512683e-02   2.3923537e-01   1.0557295e-01  -1.4068275e+07
   1.7285762e-09  -1.0475223e-02   2.3889538e-01   1.0573066e-01  -1.4017440e+07
   1.7312437e-09  -1.0437898e-02   2.3855707e-01   1.0588803e-01  -1.3966796e+07
   1.7339113e-09  -1.0400708e-02   2.3822043e-01   1.0604505e-01  -1.3916343e+07
   1.7365789e-09  -1.0363653e-02   2.3788545e-01   1.0620172e-01  -1.3866080e+07
   1.7392464e-09  -1.0326731e-02   2.3755213e-01   1.0635805e-01  -1.3816005e+07
   1.7419140e-09  -1.0289943e-02   2.3722046e-01   1.0651403e-01  -1.3766119e+07
   1.7445815e-09  -1.0253288e-02   2.3689041e-01   1.0666966e-01  -1.3716420e+07
   1.7472491e-09  -1.0216765e-02   2.3656200e-01   1.0682495e-01  -1.3666907e+07
   1.7499166e-09  -1.0180373e-02   2.3623519e-01   1.0697989e-01  -1.3617580e+07
   1.7525842e-09  -1.0144113e-02   2.3590999e-01   1.0713448e-01  -1.3568439e+07
   1.7552518e-09  -1.0107984e-02   2.3558639e-01   1.0728873e-01  -1.3519481e+07
   1.7579193e-09  -1.0071986e-02   2.3526437e-01   1.0744263e-01  -1.3470708e+07
   1.7605869e-09  -1.0036117e-02   2.3494393e-01   1.0759619e-01  -1.3422117e+07
   1.7632544e-09  -1.0000377e-02   2.3462506e-01   1.0774940e-01  -1.3373707e+07
   1.7659220e-09  -9.9647666e-03   2.3430775e-01   1.0790226e-01  -1.3325480e+07
   1.7685895e-09  -9.9292844e-03   2.3399198e-01   1.0805478e-01  -1.3277432e+07
   1.7712571e-09  -9.8939302e-03   2.3367775e-01   1.0820695e-01  -1.3229564e+07
   1.7739246e-09  -9.8587033e-03   2.3336506e-01   1.0835878e-01  -1.3181876e+07
   1.7765922e-09  -9.8236035e-03   2.3305388e-01   1.0851026e-01  -1.3134365e+07
   1.7792598e-09  -9.7886301e-03   2.3274422e-01   1.0866140e-01  -1.3087032e+07
   1.7819273e-09  -9.7537828e-03   2.3243607e-01   1.0881219e-01  -1.3039876e+07
   1.7845949e-09  -9.7190610e-03   2.3212940e-01   1.0896264e-01  -1.2992896e+07
   1.7872624e-09  -9.6844644e-03   2.3182423e-01   1.0911274e-01  -1.2946091e+07
   1.7899300e-09  -9.6499923e-03   2.3152053e-01   1.0926250e-01  -1.2899461e+07
   1.7925975e-09  -9.6156444e-03   2.3121830e-01   1.0941191e-01  -1.2853005e+07
   1.7952651e-09  -9.5814202e-03   2.3091754e-01   1.0956098e-01  -1.2806722e+07
   1.7979326e-09  -9.5473192e-03   2.3061822e-01   1.0970970e-01  -1.2760611e+07
   1.8006002e-09  -9.5133410e-03   2.3032035e-01   1.0985808e-01  -1.2714673e+07
   1.8032678e-09  -9.4794851e-03   2.3002391e-01   1.1000611e-01  -1.2668905e+07
   1.8059353e-09  -9.4457511e-03   2.2972890e-01   1.1015381e-01  -1.2623308e+07
   1.8086029e-09  -9.4121385e-03   2.2943531e-01   1.1030115e-01  -1.2577880e+07
   1.8112704e-09  -9.3786468e-03   2.2914313e-01   1.1044816e-01  -1.2532621e+07
   1.8139380e-09  -9.3452757e-03   2.2885235e-01   1.1059482e-01  -1.2487531e+07
   1.8166055e-09  -9.3120246e-03   2.2856297e-01   1.1074114e-01  -1.2442608e+07
   1.8192731e-09  -9.2788931e-03   2.2827497e-01   1.1088711e-01  -1.2397852e+07
   1.8219406e-09  -9.2458808e-03   2.2798835e-01   1.1103275e-01  -1.2353263e+07
   1.8246082e-09  -9.2129872e-03   2.2770310e-01   1.1117804e-01  -1.2308839e+07
   1.8272758e-09  -9.1802119e-03   2.2741921e-01   1.1132298e-01  -1.2264580e+07
   1.8299433e-09  -9.1475544e-03   2.2713668e-01   1.1146759e-01  -1.2220485e+07
   1.8326109e-09  -9.1150143e-03   2.2685550e-01   1.1161185e-01  -1.2176553e+07
   1.8352784e-09  -9.0825912e-03   2.2657565e-01   1.1175578e-01  -1.2132785e+07
   1.8379460e-09  -9.0502847e-03   2.2629714e-01   1.1189936e-01  -1.2089179e+07
   1.8406135e-09  -9.0180942e-03   2.2601995e-01   1.1204260e-01  -1.2045734e+07
   1.8432811e-09  -8.9860195e-03   2.2574407e-01   1.1218550e-01  -1.2002451e+07
   1.8459486e-09  -8.9540599e-03   2.2546951e-01   1.1232805e-01  -1.1959328e+07
   1.8486162e-09  -8.9222152e-03   2.2519625e-01   1.1247027e-01  -1.1916364e+07
   1.8512838e-09  -8.8904849e-03   2.2492428e-01   1.1261215e-01  -1.1873560e+07
   1.8539513e-09  -8.8588686e-03   2.2465360e-01   1.1275369e-01  -1.1830914e+07
   1.8566189e-09  -8.8273658e-03   2.2438420e-01   1.1289489e-01  -1.1788425e+07
   1.8592864e-09  -8.7959762e-03   2.2411607e-01   1.1303574e-01  -1.1746094e+07
   1.8619540e-09  -8.7646992e-03   2.2384920e-01   1.1317626e-01  -1.1703919e+07
   1.8646215e-09  -8.7335346e-03   2.2358360e-01   1.1331644e-01  -1.1661900e+07
   1.8672891e-09  -8.7024818e-03   2.2331924e-01   1.1345629e-01  -1.1620036e+07
   1.8699567e-09  -8.6715405e-03   2.2305613e-01   1.1359579e-01  -1.1578327e+07
   1.8726242e-09  -8.6407103e-03   2.2279426e-01   1.1373496e-01  -1.1536772e+07
   1.8752918e-09  -8.6099907e-03   2.2253362e-01   1.1387378e-01  -1.1495370e+07
   1.8779593e-09  -8.5793813e-03   2.2227420e-01   1.1401227e-01  -1.1454121e+07
   1.8806269e-09  -8.5488818e-03   2.2201599e-01   1.1415043e-01  -1.1413025e+07
   1.8832944e-09  -8.5184917e-03   2.2175900e-01   1.1428824e-01  -1.1372079e+07
   1.8859620e-09  -8.4882106e-03   2.2150321e-01   1.1442572e-01  -1.1331285e+07
   1.8886295e-09  -8.4580382e-03   2.2124861e-01   1.1456287e-01  -1.1290641e+07
   1.8912971e-09  -8.4279739e-03   2.2099521e-01   1.1469967e-01  -1.1250147e+07
   1.8939647e-09  -8.3980175e-03   2.2074298e-01   1.1483614e-01  -1.1209802e+07
   1.8966322e-09  -8.3681685e-03   2.2049194e-01   1.1497228e-01  -1.1169605e+07
   1.8992998e-09  -8.3384266e-03   2.2024206e-01   1.1510808e-01  -1.1129557e+07
   1.9019673e-09  -8.3087912e-03   2.1999335e-01   1.1524355e-01  -1.1089656e+07
   1.9046349e-09  -8.2792621e-03   2.1974579e-01   1.1537868e-01  -1.1049901e+07
   1.9073024e-09  -8.2498389e-03   2.1949939e-01   1.1551348e-01  -1.1010293e+07
   1.9099700e-09  -8.2205211e-03   2.1925413e-01   1.1564794e-01  -1.0970831e+07
   1.9126375e-09  -8.1913084e-03   2.1901000e-01   1.1578207e-01  -1.0931513e+07
   1.9153051e-09  -8.1622004e-03   2.1876701e-01   1.1591587e-01  -1.0892341e+07
   1.9179727e-09  -8.1331967e-03   2.1852515e-01   1.1604933e-01  -1.0853312e+07
   1.9206402e-09  -8.1042969e-03   2.1828440e-01   1.1618246e-01  -1.0814426e+07
   1.9233078e-09  -8.0755007e-03   2.1804477e-01   1.1631526e-01  -1.0775683e+07
   1.9259753e-09  -8.0468076e-03   2.1780624e-01   1.1644773e-01  -1.0737083e+07
   1.9286429e-09  -8.0182173e-03   2.1756881e-01   1.1657987e-01  -1.0698624e+07
   1.9313104e-09  -7.9897294e-03   2.1733248e-01   1.1671167e-01  -1.0660306e+07
   1.9339780e-09  -7.9613435e-03   2.1709724e-01   1.1684315e-01  -1.0622129e+07
   1.9366455e-09  -7.9330593e-03   2.1686308e-01   1.1697429e-01  -1.0584092e+07
   1.9393131e-09  -7.9048764e-03   2.1663000e-01   1.1710511e-01  -1.0546194e+07
   1.9419807e-09  -7.8767943e-03   2.1639799e-01   1.1723559e-01  -1.0508436e+07
   1.9446482e-09  -7.8488128e-03   2.1616704e-01   1.1736575e-01  -1.0470815e+07
   1.9473158e-09  -7.8209315e-03   2.1593716e-01   1.1749557e-01  -1.0433333e+07
   1.9499833e-09  -7.7931500e-03   2.1570833e-01   1.1762507e-01  -1.0395987e+07
   1.9526509e-09  -7.7654679e-03   2.1548054e-01   1.1775424e-01  -1.0358779e+07
   1.9553184e-09  -7.7378849e-03   2.1525380e-01   1.1788309e-01  -1.0321707e+07
   1.9579860e-09  -7.7104006e-03   2.1502810e-01   1.1801160e-01  -1.0284770e+07
   1.9606536e-09  -7.6830146e-03   2.1480342e-01   1.1813979e-01  -1.0247969e+07
   1.9633211e-09  -7.6557267e-03   2.1457978e-01   1.1826765e-01  -1.0211302e+07
   1.9659887e-09  -7.6285363e-03   2.1435715e-01   1.1839518e-01  -1.0174770e+07
   1.9686562e-09  -7.6014433e-03   2.1413554e-01   1.1852239e-01  -1.0138371e+07
   1.9713238e-09  -7.5744471e-03   2.1391494e-01   1.1864928e-01  -1.0102105e+07
   1.9739913e-09  -7.5475476e-03   2.1369534e-01   1.1877584e-01  -1.0065971e+07
   1.9766589e-09  -7.5207442e-03   2.1347674e-01   1.1890207e-01  -1.0029970e+07
   1.9793264e-09  -7.4940367e-03   2.1325913e-01   1.1902798e-01  -9.9941000e+06
   1.9819940e-09  -7.4674247e-03   2.1304251e-01   1.1915357e-01  -9.9583612e+06
   1.9846616e-09  -7.4409079e-03   2.1282688e-01   1.1927883e-01  -9.9227529e+06
   1.9873291e-09  -7.4144859e-03   2.1261222e-01   1.1940377e-01  -9.8872746e+06
   1.9899967e-09  -7.3881583e-03   2.1239853e-01   1.1952839e-01  -9.8519258e+06
   1.9926642e-09  -7.3619249e-03   2.1218581e-01   1.1965268e-01  -9.8167060e+06
   1.9953318e-09  -7.3357853e-03   2.1197405e-01   1.1977666e-01  -9.7816148e+06
   1.9979993e-09  -7.3097391e-03   2.1176325e-01   1.1990031e-01  -9.7466515e+06
   2.0006669e-09  -7.2837859e-03   2.1155340e-01   1.2002364e-01  -9.7118157e+06
   2.0033344e-09  -7.2579256e-03   2.1134450e-01   1.2014665e-01  -9.6771069e+06
   2.0060020e-09  -7.2321576e-03   2.1113654e-01   1.2026934e-01  -9.6425247e+06
   2.0086696e-09  -7.2064818e-03   2.1092951e-01   1.2039172e-01  -9.6080685e+06
   2.0113371e-09  -7.1808977e-03   2.1072342e-01   1.2051377e-01  -9.5737379e+06
   2.0140047e-09  -7.1554050e-03   2.1051825e-01   1.2063550e-01  -9.5395323e+06
   2.0166722e-09  -7.1300034e-03   2.1031401e-01   1.2075692e-01  -9.5054513e+06
   2.0193398e-09  -7.1046925e-03   2.1011068e-01   1.2087802e-01  -9.4714945e+06
   2.0220073e-09  -7.0794720e-03   2.0990826e-01   1.2099880e-01  -9.4376612e+06
   2.0246749e-09  -7.0543417e-03   2.0970676e-01   1.2111926e-01  -9.4039511e+06
   2.0273424e-09  -7.0293011e-03   2.0950615e-01   1.2123941e-01  -9.3703637e+06
   2.0300100e-09  -7.0043499e-03   2.0930644e-01   1.2135924e-01  -9.3368985e+06
   2.0326776e-09  -6.9794878e-03   2.0910763e-01   1.2147875e-01  -9.3035551e+06
   2.0353451e-09  -6.9547145e-03   2.0890970e-01   1.2159795e-01  -9.2703329e+06
   2.0380127e-09  -6.9300297e-03   2.0871266e-01   1.2171684e-01  -9.2372316e+06
   2.0406802e-09  -6.9054330e-03   2.0851650e-01   1.2183541e-01  -9.2042506e+06
   2.0433478e-09  -6.8809242e-03   2.0832121e-01   1.2195367e-01  -9.1713894e+06
   2.0460153e-09  -6.8565028e-03   2.0812680e-01   1.2207161e-01  -9.1386477e+06
   2.0486829e-09  -6.8321686e-03   2.0793324e-01   1.2218925e-01  -9.1060250e+06
   2.0513505e-09  -6.8079213e-03   2.0774055e-01   1.2230656e-01  -9.0735208e+06
   2.0540180e-09  -6.7837605e-03   2.0754872e-01   1.2242357e-01  -9.0411347e+06
   2.0566856e-09  -6.7596860e-03   2.0735774e-01   1.2254027e-01  -9.0088662e+06
   2.0593531e-09  -6.7356974e-03   2.0716760e-01   1.2265665e-01  -8.9767148e+06
   2.0620207e-09  -6.7117944e-03   2.0697831e-01   1.2277273e-01  -8.9446802e+06
   2.0646882e-09  -6.6879767e-03   2.0678986e-01   1.2288849e-01  -8.9127618e+06
   2.0673558e-09  -6.6642440e-03   2.0660225e-01   1.2300395e-01  -8.8809593e+06
   2.0700233e-09  -6.6405959e-03   2.0641546e-01   1.2311909e-01  -8.8492721e+06
   2.0726909e-09  -6.6170323e-03   2.0622950e-01   1.2323393e-01  -8.8176999e+06
   2.0753585e-09  -6.5935527e-03   2.0604436e-01   1.2334846e-01  -8.7862422e+06
   2.0780260e-09  -6.5701569e-03   2.0586004e-01   1.2346268e-01  -8.7548986e+06
   2.0806936e-09  -6.5468445e-03   2.0567654e-01   1.2357660e-01  -8.7236687e+06
   2.0833611e-09  -6.5236153e-03   2.0549384e-01   1.2369021e-01  -8.6925519e+06
   2.0860287e-09  -6.5004689e-03   2.0531195e-01   1.2380351e-01  -8.6615479e+06
   2.0886962e-09  -6.4774051e-03   2.0513085e-01   1.2391651e-01  -8.6306563e+06
   2.0913638e-09  -6.4544236e-03   2.0495056e-01   1.2402920e-01  -8.5998766e+06
   2.0940313e-09  -6.4315240e-03   2.0477106e-01   1.2414159e-01  -8.5692084e+06
   2.0966989e-09  -6.4087060e-03   2.0459235e-01   1.2425367e-01  -8.5386513e+06
   2.0993665e-09  -6.3859695e-03   2.0441442e-01   1.2436545e-01  -8.5082049e+06
   2.1020340e-09  -6.3633140e-03   2.0423727e-01   1.2447692e-01  -8.4778687e+06
   2.1047016e-09  -6.3407393e-03   2.0406090e-01   1.2458810e-01  -8.4476423e+06
   2.1073691e-09  -6.3182450e-03   2.0388531e-01   1.2469897e-01  -8.4175253e+06
   2.1100367e-09  -6.2958310e-03   2.0371048e-01   1.2480954e-01  -8.3875173e+06
   2.1127042e-09  -6.2734968e-03   2.0353642e-01   1.2491981e-01  -8.3576179e+06
   2.1153718e-09  -6.2512423e-03   2.0336311e-01   1.2502978e-01  -8.3278267e+06
   2.1180393e-09  -6.2290671e-03   2.0319057e-01   1.2513944e-01  -8.2981432e+06
   2.1207069e-09  -6.2069710e-03   2.0301878e-01   1.2524881e-01  -8.2685671e+06
   2.1233745e-09  -6.1849535e-03   2.0284774e-01   1.2535788e-01  -8.2390979e+06
   2.1260420e-09  -6.1630146e-03   2.0267744e-01   1.2546665e-01  -8.2097353e+06
   2.1287096e-09  -6.1411539e-03   2.0250789e-01   1.2557513e-01  -8.1804789e+06
   2.1313771e-09  -6.1193710e-03   2.0233907e-01   1.2568330e-01  -8.1513281e+06
   2.1340447e-09  -6.0976658e-03   2.0217099e-01   1.2579118e-01  -8.1222828e+06
   2.1367122e-09  -6.0760379e-03   2.0200365e-01   1.2589876e-01  -8.0933423e+06
   2.1393798e-09  -6.0544870e-03   2.0183702e-01   1.2600605e-01  -8.0645065e+06
   2.1420473e-09  -6.0330130e-03   2.0167113e-01   1.2611304e-01  -8.0357748e+06
   2.1447149e-09  -6.0116155e-03   2.0150595e-01   1.2621973e-01  -8.0071468e+06
   2.1473825e-09  -5.9902941e-03   2.0134149e-01   1.2632613e-01  -7.9786223e+06
   2.1500500e-09  -5.9690488e-03   2.0117774e-01   1.2643224e-01  -7.9502007e+06
   2.1527176e-09  -5.9478791e-03   2.0101470e-01   1.2653806e-01  -7.9218818e+06
   2.1553851e-09  -5.9267848e-03   2.0085237e-01   1.2664358e-01  -7.8936651e+06
   2.1580527e-09  -5.9057657e-03   2.0069074e-01   1.2674880e-01  -7.8655502e+06
   2.1607202e-09  -5.8848214e-03   2.0052981e-01   1.2685374e-01  -7.8375367e+06
   2.1633878e-09  -5.8639517e-03   2.0036957e-01   1.2695839e-01  -7.8096244e+06
   2.1660554e-09  -5.8431563e-03   2.0021002e-01   1.2706274e-01  -7.7818127e+06
   2.1687229e-09  -5.8224350e-03   2.0005117e-01   1.2716681e-01  -7.7541014e+06
   2.1713905e-09  -5.8017875e-03   1.9989300e-01   1.2727058e-01  -7.7264900e+06
   2.1740580e-09  -5.7812135e-03   1.9973551e-01   1.2737407e-01  -7.6989782e+06
   2.1767256e-09  -5.7607128e-03   1.9957869e-01   1.2747727e-01  -7.6715655e+06
   2.1793931e-09  -5.7402850e-03   1.9942256e-01   1.2758017e-01  -7.6442517e+06
   2.1820607e-09  -5.7199300e-03   1.9926709e-01   1.2768280e-01  -7.6170364e+06
   2.1847282e-09  -5.6996474e-03   1.9911230e-01   1.2778513e-01  -7.5899191e+06
   2.1873958e-09  -5.6794371e-03   1.9895816e-01   1.2788718e-01  -7.5628996e+06
   2.1900634e-09  -5.6592987e-03   1.9880469e-01   1.2798894e-01  -7.5359774e+06
   2.1927309e-09  -5.6392320e-03   1.9865188e-01   1.2809042e-01  -7.5091522e+06
   2.1953985e-09  -5.6192367e-03   1.9849972e-01   1.2819161e-01  -7.4824237e+06
   2.1980660e-09  -5.5993126e-03   1.9834822e-01   1.2829252e-01  -7.4557914e+06
   2.2007336e-09  -5.5794594e-03   1.9819736e-01   1.2839314e-01  -7.4292550e+06
   2.2034011e-09  -5.5596768e-03   1.9804715e-01   1.2849348e-01  -7.4028142e+06
   2.2060687e-09  -5.5399647e-03   1.9789758e-01   1.2859354e-01  -7.3764686e+06
   2.2087362e-09  -5.5203227e-03   1.9774865e-01   1.2869332e-01  -7.3502178e+06
   2.2114038e-09  -5.5007506e-03   1.9760036e-01   1.2879281e-01  -7.3240615e+06
   2.2140714e-09  -5.4812482e-03   1.9745270e-01   1.2889203e-01  -7.2979994e+06
   2.2167389e-09  -5.4618151e-03   1.9730567e-01   1.2899096e-01  -7.2720310e+06
   2.2194065e-09  -5.4424512e-03   1.9715927e-01   1.2908961e-01  -7.2461561e+06
   2.2220740e-09  -5.4231562e-03   1.9701349e-01   1.2918799e-01  -7.2203743e+06
   2.2247416e-09  -5.4039299e-03   1.9686833e-01   1.2928608e-01  -7.1946852e+06
   2.2274091e-09  -5.3847720e-03   1.9672379e-01   1.2938390e-01  -7.1690886e+06
   2.2300767e-09  -5.3656822e-03   1.9657986e-01   1.2948144e-01  -7.1435839e+06
   2.2327442e-09  -5.3466603e-03   1.9643655e-01   1.2957870e-01  -7.1181710e+06
   2.2354118e-09  -5.3277061e-03   1.9629384e-01   1.2967569e-01  -7.0928495e+06
   2.2380794e-09  -5.3088193e-03   1.9615174e-01   1.2977240e-01  -7.0676190e+06
   2.2407469e-09  -5.2899997e-03   1.9601024e-01   1.2986883e-01  -7.0424793e+06
   2.2434145e-09  -5.2712471e-03   1.9586935e-01   1.2996499e-01  -7.0174298e+06
   2.2460820e-09  -5.2525611e-03   1.9572905e-01   1.3006087e-01  -6.9924705e+06
   2.2487496e-09  -5.2339416e-03   1.9558934e-01   1.3015648e-01  -6.9676008e+06
   2.2514171e-09  -5.2153884e-03   1.9545023e-01   1.3025182e-01  -6.9428204e+06
   2.2540847e-09  -5.1969011e-03   1.9531170e-01   1.3034688e-01  -6.9181291e+06
   2.2567523e-09  -5.1784795e-03   1.9517376e-01   1.3044168e-01  -6.8935265e+06
   2.2594198e-09  -5.1601235e-03   1.9503640e-01   1.3053620e-01  -6.8690123e+06
   2.2620874e-09  -5.1418327e-03   1.9489962e-01   1.3063045e-01  -6.8445861e+06
   2.2647549e-09  -5.1236070e-03   1.9476342e-01   1.3072443e-01  -6.8202477e+06
   2.2674225e-09  -5.1054461e-03   1.9462780e-01   1.3081813e-01  -6.7959966e+06
   2.2700900e-09  -5.0873498e-03   1.9449274e-01   1.3091157e-01  -6.7718326e+06
   2.2727576e-09  -5.0693178e-03   1.9435826e-01   1.3100474e-01  -6.7477554e+06
   2.2754251e-09  -5.0513499e-03   1.9422434e-01   1.3109765e-01  -6.7237646e+06
   2.2780927e-09  -5.0334459e-03   1.9409098e-01   1.3119028e-01  -6.6998599e+06
   2.2807603e-09  -5.0156056e-03   1.9395819e-01   1.3128265e-01  -6.6760410e+06
   2.2834278e-09  -4.9978287e-03   1.9382595e-01   1.3137475e-01  -6.6523076e+06
   2.2860954e-09  -4.9801149e-03   1.9369427e-01   1.3146658e-01  -6.6286593e+06
   2.2887629e-09  -4.9624642e-03   1.9356314e-01   1.3155815e-01  -6.6050959e+06
   2.2914305e-09  -4.9448762e-03   1.9343256e-01   1.3164946e-01  -6.5816170e+06
   2.2940980e-09  -4.9273507e-03   1.9330253e-01   1.3174050e-01  -6.5582223e+06
   2.2967656e-09  -4.9098875e-03   1.9317304e-01   1.3183127e-01  -6.5349116e+06
   2.2994331e-09  -4.8924863e-03   1.9304410e-01   1.3192179e-01  -6.5116845e+06
   2.3021007e-09  -4.8751471e-03   1.9291570e-01   1.3201204e-01  -6.4885406e+06
   2.3047683e-09  -4.8578694e-03   1.9278783e-01   1.3210203e-01  -6.4654798e+06
   2.3074358e-09  -4.8406532e-03   1.9266050e-01   1.3219175e-01  -6.4425016e+06
   2.3101034e-09  -4.8234981e-03   1.9253370e-01   1.3228122e-01  -6.4196058e+06
   2.3127709e-09  -4.8064040e-03   1.9240743e-01   1.3237042e-01  -6.3967921e+06
   2.3154385e-09  -4.7893707e-03   1.9228169e-01   1.3245937e-01  -6.3740602e+06
   2.3181060e-09  -4.7723979e-03   1.9215647e-01   1.3254805e-01  -6.3514097e+06
   2.3207736e-09  -4.7554853e-03   1.9203177e-01   1.3263648e-01  -6.3288404e+06
   2.3234411e-09  -4.7386329e-03   1.9190760e-01   1.3272465e-01  -6.3063520e+06
   2.3261087e-09  -4.7218404e-03   1.9178394e-01   1.3281256e-01  -6.2839441e+06
   2.3287763e-09  -4.7051076e-03   1.9166080e-01   1.3290022e-01  -6.2616166e+06
   2.3314438e-09  -4.6884341e-03   1.9153816e-01   1.3298761e-01  -6.2393690e+06
   2.3341114e-09  -4.6718200e-03   1.9141604e-01   1.3307476e-01  -6.2172011e+06
   2.3367789e-09  -4.6552648e-03   1.9129443e-01   1.3316164e-01  -6.1951127e+06
   2.3394465e-09  -4.6387685e-03   1.9117332e-01   1.3324827e-01  -6.1731033e+06
   2.3421140e-09  -4.6223308e-03   1.9105272e-01   1.3333465e-01  -6.1511728e+06
   2.3447816e-09  -4.6059515e-03   1.9093261e-01   1.3342078e-01  -6.1293207e+06
   2.3474491e-09  -4.5896303e-03   1.9081300e-01   1.3350665e-01  -6.1075470e+06
   2.3501167e-09  -4.5733672e-03   1.9069389e-01   1.3359226e-01  -6.0858512e+06
   2.3527843e-09  -4.5571618e-03   1.9057528e-01   1.3367763e-01  -6.0642330e+06
   2.3554518e-09  -4.5410140e-03   1.9045715e-01   1.3376274e-01  -6.0426923e+06
   2.3581194e-09  -4.5249235e-03   1.9033951e-01   1.3384761e-01  -6.0212286e+06
   2.3607869e-09  -4.5088902e-03   1.9022236e-01   1.3393222e-01  -5.9998418e+06
   2.3634545e-09  -4.4929138e-03   1.9010570e-01   1.3401659e-01  -5.9785315e+06
   2.3661220e-09  -4.4769942e-03   1.8998951e-01   1.3410070e-01  -5.9572974e+06
   2.3687896e-09  -4.4611312e-03   1.8987381e-01   1.3418457e-01  -5.9361394e+06
   2.3714572e-09  -4.4453244e-03   1.8975858e-01   1.3426818e-01  -5.9150570e+06
   2.3741247e-09  -4.4295738e-03   1.8964383e-01   1.3435156e-01  -5.8940501e+06
   2.3767923e-09  -4.4138792e-03   1.8952956e-01   1.3443468e-01  -5.8731183e+06
   2.3794598e-09  -4.3982402e-03   1.8941575e-01   1.3451756e-01  -5.8522614e+06
   2.3821274e-09  -4.3826568e-03   1.8930241e-01   1.3460019e-01  -5.8314791e+06
   2.3847949e-09  -4.3671288e-03   1.8918954e-01   1.3468257e-01  -5.8107711e+06
   2.3874625e-09  -4.3516559e-03   1.8907713e-01   1.3476472e-01  -5.7901371e+06
   2.3901300e-09  -4.3362379e-03   1.8896519e-01   1.3484661e-01  -5.7695770e+06
   2.3927976e-09  -4.3208747e-03   1.8885371e-01   1.3492827e-01  -5.7490904e+06
   2.3954652e-09  -4.3055660e-03   1.8874268e-01   1.3500968e-01  -5.7286770e+06
   2.3981327e-09  -4.2903117e-03   1.8863211e-01   1.3509085e-01  -5.7083366e+06
   2.4008003e-09  -4.2751116e-03   1.8852200e-01   1.3517177e-01  -5.6880689e+06
   2.4034678e-09  -4.2599654e-03   1.8841233e-01   1.3525246e-01  -5.6678737e+06
   2.4061354e-09  -4.2448730e-03   1.8830312e-01   1.3533290e-01  -5.6477506e+06
   2.4088029e-09  -4.2298342e-03   1.8819436e-01   1.3541311e-01  -5.6276995e+06
   2.4114705e-09  -4.2148487e-03   1.8808604e-01   1.3549307e-01  -5.6077200e+06
   2.4141380e-09  -4.1999165e-03   1.8797816e-01   1.3557280e-01  -5.5878119e+06
   2.4168056e-09  -4.1850373e-03   1.8787072e-01   1.3565229e-01  -5.5679750e+06
   2.4194732e-09  -4.1702109e-03   1.8776373e-01   1.3573154e-01  -5.5482089e+06
   2.4221407e-09  -4.1554371e-03   1.8765717e-01   1.3581055e-01  -5.5285135e+06
   2.4248083e-09  -4.1407158e-03   1.8755105e-01   1.3588932e-01  -5.5088884e+06
   2.4274758e-09  -4.1260467e-03   1.8744536e-01   1.3596786e-01  -5.4893334e+06
   2.4301434e-09  -4.1114297e-03   1.8734010e-01   1.3604617e-01  -5.4698483e+06
   2.4328109e-09  -4.0968646e-03   1.8723528e-01   1.3612423e-01  -5.4504328e+06
   2.4354785e-09  -4.0823512e-03   1.8713088e-01   1.3620207e-01  -5.4310866e+06
   2.4381460e-09  -4.0678893e-03   1.8702690e-01   1.3627967e-01  -5.4118095e+06
   2.4408136e-09  -4.0534787e-03   1.8692335e-01   1.3635703e-01  -5.3926013e+06
   2.4434812e-09  -4.0391193e-03   1.8682022e-01   1.3643417e-01  -5.3734616e+06
   2.4461487e-09  -4.0248109e-03   1.8671752e-01   1.3651107e-01  -5.3543903e+06
   2.4488163e-09  -4.0105532e-03   1.8661522e-01   1.3658774e-01  -5.3353870e+06
   2.4514838e-09  -3.9963461e-03   1.8651335e-01   1.3666418e-01  -5.3164517e+06
   2.4541514e-09  -3.9821895e-03   1.8641189e-01   1.3674038e-01  -5.2975839e+06
   2.4568189e-09  -3.9680831e-03   1.8631084e-01   1.3681636e-01  -5.2787834e+06
   2.4594865e-09  -3.9540267e-03   1.8621021e-01   1.3689211e-01  -5.2600501e+06
   2.4621541e-09  -3.9400203e-03   1.8610998e-01   1.3696763e-01  -5.2413836e+06
   2.4648216e-09  -3.9260635e-03   1.8601016e-01   1.3704292e-01  -5.2227838e+06
   2.4674892e-09  -3.9121563e-03   1.8591074e-01   1.3711798e-01  -5.2042503e+06
   2.4701567e-09  -3.8982984e-03   1.8581173e-01   1.3719282e-01  -5.1857830e+06
   2.4728243e-09  -3.8844897e-03   1.8571311e-01   1.3726743e-01  -5.1673815e+06
   2.4754918e-09  -3.8707300e-03   1.8561490e-01   1.3734181e-01  -5.1490458e+06
   2.4781594e-09  -3.8570191e-03   1.8551709e-01   1.3741597e-01  -5.1307754e+06
   2.4808269e-09  -3.8433569e-03   1.8541967e-01   1.3748990e-01  -5.1125702e+06
   2.4834945e-09  -3.8297431e-03   1.8532264e-01   1.3756360e-01  -5.0944300e+06
   2.4861621e-09  -3.8161776e-03   1.8522601e-01   1.3763709e-01  -5.0763545e+06
   2.4888296e-09  -3.8026603e-03   1.8512977e-01   1.3771035e-01  -5.0583435e+06
   2.4914972e-09  -3.7891910e-03   1.8503392e-01   1.3778338e-01  -5.0403967e+06
   2.4941647e-09  -3.7757694e-03   1.8493845e-01   1.3785620e-01  -5.0225139e+06
   2.4968323e-09  -3.7623954e-03   1.8484337e-01   1.3792879e-01  -5.0046949e+06
   2.4994998e-09  -3.7490689e-03   1.8474867e-01   1.3800116e-01  -4.9869394e+06
   2.5021674e-09  -3.7357897e-03   1.8465436e-01   1.3807331e-01  -4.9692473e+06
   2.5048349e-09  -3.7225576e-03   1.8456042e-01   1.3814524e-01  -4.9516182e+06
   2.5075025e-09  -3.7093724e-03   1.8446687e-01   1.3821696e-01  -4.9340520e+06
   2.5101701e-09  -3.6962340e-03   1.8437369e-01   1.3828845e-01  -4.9165484e+06
   2.5128376e-09  -3.6831422e-03   1.8428088e-01   1.3835972e-01  -4.8991073e+06
   2.5155052e-09  -3.6700968e-03   1.8418845e-01   1.3843078e-01  -4.8817283e+06
   2.5181727e-09  -3.6570978e-03   1.8409640e-01   1.3850162e-01  -4.8644112e+06
   2.5208403e-09  -3.6441448e-03   1.8400471e-01   1.3857224e-01  -4.8471559e+06
   2.5235078e-09  -3.6312378e-03   1.8391339e-01   1.3864264e-01  -4.8299621e+06
   2.5261754e-09  -3.6183765e-03   1.8382243e-01   1.3871283e-01  -4.8128296e+06
   2.5288429e-09  -3.6055609e-03   1.8373185e-01   1.3878281e-01  -4.7957582e+06
   2.5315105e-09  -3.5927908e-03   1.8364162e-01   1.3885257e-01  -4.7787475e+06
   2.5341781e-09  -3.5800659e-03   1.8355176e-01   1.3892211e-01  -4.7617976e+06
   2.5368456e-09  -3.5673862e-03   1.8346226e-01   1.3899144e-01  -4.7449080e+06
   2.5395132e-09  -3.5547514e-03   1.8337312e-01   1.3906056e-01  -4.7280786e+06
   2.5421807e-09  -3.5421615e-03   1.8328433e-01   1.3912947e-01  -4.7113091e+06
   2.5448483e-09  -3.5296162e-03   1.8319590e-01   1.3919816e-01  -4.6945994e+06
   2.5475158e-09  -3.5171154e-03   1.8310782e-01   1.3926665e-01  -4.6779493e+06
   2.5501834e-09  -3.5046590e-03   1.8302010e-01   1.3933492e-01  -4.6613584e+06
   2.5528510e-09  -3.4922467e-03   1.8293273e-01   1.3940298e-01  -4.6448267e+06
   2.5555185e-09  -3.4798784e-03   1.8284570e-01   1.3947083e-01  -4.6283538e+06
   2.5581861e-09  -3.4675540e-03   1.8275903e-01   1.3953847e-01  -4.6119396e+06
   2.5608536e-09  -3.4552733e-03   1.8267270e-01   1.3960591e-01  -4.5955839e+06
   2.5635212e-09  -3.4430362e-03   1.8258672e-01   1.3967313e-01  -4.5792865e+06
   2.5661887e-09  -3.4308425e-03   1.8250108e-01   1.3974015e-01  -4.5630471e+06
   2.5688563e-09  -3.4186920e-03   1.8241578e-01   1.3980696e-01  -4.5468655e+06
   2.5715238e-09  -3.4065846e-03   1.8233082e-01   1.3987357e-01  -4.5307416e+06
   2.5741914e-09  -3.3945201e-03   1.8224620e-01   1.3993996e-01  -4.5146750e+06
   2.5768590e-09  -3.3824984e-03   1.8216192e-01   1.4000616e-01  -4.4986657e+06
   2.5795265e-09  -3.3705193e-03   1.8207797e-01   1.4007215e-01  -4.4827134e+06
   2.5821941e-09  -3.3585827e-03   1.8199436e-01   1.4013793e-01  -4.4668179e+06
   2.5848616e-09  -3.3466885e-03   1.8191108e-01   1.4020351e-01  -4.4509790e+06
   2.5875292e-09  -3.3348364e-03   1.8182813e-01   1.4026888e-01  -4.4351965e+06
   2.5901967e-09  -3.3230263e-03   1.8174551e-01   1.4033406e-01  -4.4194701e+06
   2.5928643e-09  -3.3112582e-03   1.8166322e-01   1.4039903e-01  -4.4037998e+06
   2.5955318e-09  -3.2995317e-03   1.8158126e-01   1.4046380e-01  -4.3881852e+06
   2.5981994e-09  -3.2878468e-03   1.8149962e-01   1.4052837e-01  -4.3726262e+06
   2.6008670e-09  -3.2762034e-03   1.8141831e-01   1.4059273e-01  -4.3571226e+06
   2.6035345e-09  -3.2646012e-03   1.8133732e-01   1.4065690e-01  -4.3416742e+06
   2.6062021e-09  -3.2530402e-03   1.8125665e-01   1.4072087e-01  -4.3262808e+06
   2.6088696e-09  -3.2415202e-03   1.8117630e-01   1.4078464e-01  -4.3109421e+06
   2.6115372e-09  -3.2300410e-03   1.8109627e-01   1.4084821e-01  -4.2956581e+06
   2.6142047e-09  -3.2186025e-03   1.8101656e-01   1.4091158e-01  -4.2804284e+06
   2.6168723e-09  -3.2072045e-03   1.8093717e-01   1.4097475e-01  -4.2652529e+06
   2.6195398e-09  -3.1958470e-03   1.8085808e-01   1.4103773e-01  -4.2501314e+06
   2.6222074e-09  -3.1845297e-03   1.8077931e-01   1.4110051e-01  -4.2350638e+06
   2.6248750e-09  -3.1732526e-03   1.8070086e-01   1.4116309e-01  -4.2200497e+06
   2.6275425e-09  -3.1620154e-03   1.8062271e-01   1.4122548e-01  -4.2050891e+06
   2.6302101e-09  -3.1508181e-03   1.8054487e-01   1.4128767e-01  -4.1901817e+06
   2.6328776e-09  -3.1396604e-03   1.8046734e-01   1.4134967e-01  -4.1753273e+06
   2.6355452e-09  -3.1285424e-03   1.8039012e-01   1.4141148e-01  -4.1605258e+06
   2.6382127e-09  -3.1174637e-03   1.8031320e-01   1.4147309e-01  -4.1457769e+06
   2.6408803e-09  -3.1064243e-03   1.8023659e-01   1.4153451e-01  -4.1310805e+06
   2.6435478e-09  -3.0954240e-03   1.8016028e-01   1.4159574e-01  -4.1164364e+06
   2.6462154e-09  -3.0844628e-03   1.8008426e-01   1.4165677e-01  -4.1018443e+06
   2.6488830e-09  -3.0735404e-03   1.8000855e-01   1.4171761e-01  -4.0873042e+06
   2.6515505e-09  -3.0626567e-03   1.7993314e-01   1.4177827e-01  -4.0728158e+06
   2.6542181e-09  -3.0518116e-03   1.7985803e-01   1.4183873e-01  -4.0583789e+06
   2.6568856e-09  -3.0410049e-03   1.7978321e-01   1.4189900e-01  -4.0439933e+06
   2.6595532e-09  -3.0302365e-03   1.7970868e-01   1.4195908e-01  -4.0296589e+06
   2.6622207e-09  -3.0195063e-03   1.7963445e-01   1.4201898e-01  -4.0153755e+06
   2.6648883e-09  -3.0088142e-03   1.7956051e-01   1.4207868e-01  -4.0011429e+06
   2.6675559e-09  -2.9981599e-03   1.7948686e-01   1.4213820e-01  -3.9869609e+06
   2.6702234e-09  -2.9875434e-03   1.7941351e-01   1.4219753e-01  -3.9728293e+06
   2.6728910e-09  -2.9769645e-03   1.7934044e-01   1.4225668e-01  -3.9587480e+06
   2.6755585e-09  -2.9664231e-03   1.7926765e-01   1.4231564e-01  -3.9447167e+06
   2.6782261e-09  -2.9559191e-03   1.7919516e-01   1.4237441e-01  -3.9307354e+06
   2.6808936e-09  -2.9454523e-03   1.7912295e-01   1.4243299e-01  -3.9168037e+06
   2.6835612e-09  -2.9350227e-03   1.7905102e-01   1.4249140e-01  -3.9029216e+06
   2.6862287e-09  -2.9246299e-03   1.7897937e-01   1.4254961e-01  -3.8890888e+06
   2.6888963e-09  -2.9142741e-03   1.7890801e-01   1.4260765e-01  -3.8753052e+06
   2.6915639e-09  -2.9039549e-03   1.7883692e-01   1.4266550e-01  -3.8615706e+06
   2.6942314e-09  -2.8936723e-03   1.7876612e-01   1.4272317e-01  -3.8478848e+06
   2.6968990e-09  -2.8834261e-03   1.7869559e-01   1.4278065e-01  -3.8342476e+06
   2.6995665e-09  -2.8732162e-03   1.7862533e-01   1.4283796e-01  -3.8206590e+06
   2.7022341e-09  -2.8630426e-03   1.7855536e-01   1.4289508e-01  -3.8071186e+06
   2.7049016e-09  -2.8529049e-03   1.7848565e-01   1.4295202e-01  -3.7936264e+06
   2.7075692e-09  -2.8428032e-03   1.7841622e-01   1.4300879e-01  -3.7801821e+06
   2.7102367e-09  -2.8327374e-03   1.7834706e-01   1.4306537e-01  -3.7667856e+06
   2.7129043e-09  -2.8227071e-03   1.7827818e-01   1.4312177e-01  -3.7534367e+06
   2.7155719e-09  -2.8127125e-03   1.7820956e-01   1.4317800e-01  -3.7401352e+06
   2.7182394e-09  -2.8027532e-03   1.7814121e-01   1.4323404e-01  -3.7268810e+06
   2.7209070e-09  -2.7928292e-03   1.7807312e-01   1.4328991e-01  -3.7136740e+06
   2.7235745e-09  -2.7829404e-03   1.7800531e-01   1.4334560e-01  -3.7005138e+06
   2.7262421e-09  -2.7730867e-03   1.7793775e-01   1.4340112e-01  -3.6874004e+06
   2.7289096e-09  -2.7632679e-03   1.7787046e-01   1.4345645e-01  -3.6743336e+06
   2.7315772e-09  -2.7534838e-03   1.7780344e-01   1.4351162e-01  -3.6613132e+06
   2.7342447e-09  -2.7437345e-03   1.7773667e-01   1.4356660e-01  -3.6483391e+06
   2.7369123e-09  -2.7340196e-03   1.7767017e-01   1.4362141e-01  -3.6354111e+06
   2.7395799e-09  -2.7243392e-03   1.7760392e-01   1.4367605e-01  -3.6225291e+06
   2.7422474e-09  -2.7146931e-03   1.7753794e-01   1.4373052e-01  -3.6096927e+06
   2.7449150e-09  -2.7050812e-03   1.7747221e-01   1.4378481e-01  -3.5969020e+06
   2.7475825e-09  -2.6955034e-03   1.7740673e-01   1.4383892e-01  -3.5841568e+06
   2.7502501e-09  -2.6859595e-03   1.7734151e-01   1.4389287e-01  -3.5714568e+06
   2.7529176e-09  -2.6764494e-03   1.7727655e-01   1.4394664e-01  -3.5588019e+06
   2.7555852e-09  -2.6669730e-03   1.7721183e-01   1.4400024e-01  -3.5461920e+06
   2.7582528e-09  -2.6575301e-03   1.7714737e-01   1.4405367e-01  -3.5336268e+06
   2.7609203e-09  -2.6481208e-03   1.7708316e-01   1.4410693e-01  -3.5211063e+06
   2.7635879e-09  -2.6387447e-03   1.7701920e-01   1.4416002e-01  -3.5086303e+06
   2.7662554e-09  -2.6294019e-03   1.7695549e-01   1.4421295e-01  -3.4961986e+06
   2.7689230e-09  -2.6200922e-03   1.7689203e-01   1.4426570e-01  -3.4838110e+06
   2.7715905e-09  -2.6108155e-03   1.7682881e-01   1.4431828e-01  -3.4714674e+06
   2.7742581e-09  -2.6015717e-03   1.7676583e-01   1.4437070e-01  -3.4591677e+06
   2.7769256e-09  -2.5923606e-03   1.7670311e-01   1.4442294e-01  -3.4469117e+06
   2.7795932e-09  -2.5831821e-03   1.7664062e-01   1.4447502e-01  -3.4346991e+06
   2.7822608e-09  -2.5740362e-03   1.7657838e-01   1.4452694e-01  -3.4225300e+06
   2.7849283e-09  -2.5649226e-03   1.7651638e-01   1.4457868e-01  -3.4104041e+06
   2.7875959e-09  -2.5558414e-03   1.7645462e-01   1.4463027e-01  -3.3983212e+06
   2.7902634e-09  -2.5467923e-03   1.7639309e-01   1.4468168e-01  -3.3862812e+06
   2.7929310e-09  -2.5377753e-03   1.7633181e-01   1.4473293e-01  -3.3742840e+06
   2.7955985e-09  -2.5287902e-03   1.7627076e-01   1.4478402e-01  -3.3623294e+06
   2.7982661e-09  -2.5198370e-03   1.7620995e-01   1.4483494e-01  -3.3504172e+06
   2.8009336e-09  -2.5109155e-03   1.7614938e-01   1.4488570e-01  -3.3385473e+06
   2.8036012e-09  -2.5020256e-03   1.7608904e-01   1.4493630e-01  -3.3267196e+06
   2.8062688e-09  -2.4931671e-03   1.7602893e-01   1.4498674e-01  -3.3149339e+06
   2.8089363e-09  -2.4843401e-03   1.7596906e-01   1.4503701e-01  -3.3031900e+06
   2.8116039e-09  -2.4755444e-03   1.7590942e-01   1.4508712e-01  -3.2914878e+06
   2.8142714e-09  -2.4667798e-03   1.7585000e-01   1.4513707e-01  -3.2798271e+06
   2.8169390e-09  -2.4580462e-03   1.7579082e-01   1.4518686e-01  -3.2682079e+06
   2.8196065e-09  -2.4493436e-03   1.7573187e-01   1.4523649e-01  -3.2566298e+06
   2.8222741e-09  -2.4406718e-03   1.7567314e-01   1.4528596e-01  -3.2450929e+06
   2.8249416e-09  -2.4320308e-03   1.7561464e-01   1.4533527e-01  -3.2335970e+06
   2.8276092e-09  -2.4234203e-03   1.7555637e-01   1.4538442e-01  -3.2221418e+06
   2.8302768e-09  -2.4148404e-03   1.7549832e-01   1.4543341e-01  -3.2107274e+06
   2.8329443e-09  -2.4062908e-03   1.7544049e-01   1.4548225e-01  -3.1993534e+06
   2.8356119e-09  -2.3977715e-03   1.7538289e-01   1.4553093e-01  -3.1880198e+06
   2.8382794e-09  -2.3892825e-03   1.7532551e-01   1.4557945e-01  -3.1767264e+06
   2.8409470e-09  -2.3808234e-03   1.7526835e-01   1.4562781e-01  -3.1654731e+06
   2.8436145e-09  -2.3723944e-03   1.7521141e-01   1.4567602e-01  -3.1542598e+06
   2.8462821e-09  -2.3639952e-03   1.7515469e-01   1.4572407e-01  -3.1430863e+06
   2.8489496e-09  -2.3556258e-03   1.7509818e-01   1.4577197e-01  -3.1319524e+06
   2.8516172e-09  -2.3472860e-03   1.7504190e-01   1.4581971e-01  -3.1208580e+06
   2.8542848e-09  -2.3389757e-03   1.7498583e-01   1.4586730e-01  -3.1098030e+06
   2.8569523e-09  -2.3306949e-03   1.7492998e-01   1.4591474e-01  -3.0987872e+06
   2.8596199e-09  -2.3224435e-03   1.7487434e-01   1.4596202e-01  -3.0878106e+06
   2.8622874e-09  -2.3142212e-03   1.7481892e-01   1.4600915e-01  -3.0768729e+06
   2.8649550e-09  -2.3060281e-03   1.7476371e-01   1.4605612e-01  -3.0659739e+06
   2.8676225e-09  -2.2978640e-03   1.7470871e-01   1.4610295e-01  -3.0551137e+06
   2.8702901e-09  -2.2897288e-03   1.7465392e-01   1.4614962e-01  -3.0442920e+06
   2.8729577e-09  -2.2816224e-03   1.7459934e-01   1.4619614e-01  -3.0335087e+06
   2.8756252e-09  -2.2735448e-03   1.7454498e-01   1.4624251e-01  -3.0227637e+06
   2.8782928e-09  -2.2654957e-03   1.7449082e-01   1.4628873e-01  -3.0120568e+06
   2.8809603e-09  -2.2574752e-03   1.7443687e-01   1.4633480e-01  -3.0013879e+06
   2.8836279e-09  -2.2494831e-03   1.7438312e-01   1.4638072e-01  -2.9907569e+06
   2.8862954e-09  -2.2415193e-03   1.7432958e-01   1.4642650e-01  -2.9801635e+06
   2.8889630e-09  -2.2335837e-03   1.7427625e-01   1.4647212e-01  -2.9696078e+06
   2.8916305e-09  -2.2256762e-03   1.7422312e-01   1.4651760e-01  -2.9590895e+06
   2.8942981e-09  -2.2177967e-03   1.7417020e-01   1.4656292e-01  -2.9486085e+06
   2.8969657e-09  -2.2099451e-03   1.7411748e-01   1.4660810e-01  -2.9381647e+06
   2.8996332e-09  -2.2021213e-03   1.7406496e-01   1.4665314e-01  -2.9277580e+06
   2.9023008e-09  -2.1943253e-03   1.7401264e-01   1.4669803e-01  -2.9173882e+06
   2.9049683e-09  -2.1865568e-03   1.7396052e-01   1.4674277e-01  -2.9070551e+06
   2.9076359e-09  -2.1788159e-03   1.7390860e-01   1.4678736e-01  -2.8967587e+06
   2.9103034e-09  -2.1711024e-03   1.7385688e-01   1.4683181e-01  -2.8864989e+06
   2.9129710e-09  -2.1634162e-03   1.7380535e-01   1.4687612e-01  -2.8762754e+06
   2.9156385e-09  -2.1557572e-03   1.7375403e-01   1.4692028e-01  -2.8660883e+06
   2.9183061e-09  -2.1481253e-03   1.7370290e-01   1.4696430e-01  -2.8559372e+06
   2.9209737e-09  -2.1405205e-03   1.7365196e-01   1.4700818e-01  -2.8458222e+06
   2.9236412e-09  -2.1329427e-03   1.7360122e-01   1.4705191e-01  -2.8357430e+06
   2.9263088e-09  -2.1253916e-03   1.7355067e-01   1.4709550e-01  -2.8256996e+06
   2.9289763e-09  -2.1178673e-03   1.7350032e-01   1.4713894e-01  -2.8156918e+06
   2.9316439e-09  -2.1103697e-03   1.7345016e-01   1.4718225e-01  -2.8057195e+06
   2.9343114e-09  -2.1028986e-03   1.7340019e-01   1.4722542e-01  -2.7957826e+06
   2.9369790e-09  -2.0954539e-03   1.7335041e-01   1.4726844e-01  -2.7858809e+06
   2.9396465e-09  -2.0880357e-03   1.7330082e-01   1.4731132e-01  -2.7760144e+06
   2.9423141e-09  -2.0806437e-03   1.7325142e-01   1.4735406e-01  -2.7661828e+06
   2.9449817e-09  -2.0732778e-03   1.7320221e-01   1.4739667e-01  -2.7563862e+06
   2.9476492e-09  -2.0659381e-03   1.7315318e-01   1.4743913e-01  -2.7466242e+06
   2.9503168e-09  -2.0586244e-03   1.7310435e-01   1.4748146e-01  -2.7368969e+06
   2.9529843e-09  -2.0513365e-03   1.7305570e-01   1.4752365e-01  -2.7272041e+06
   2.9556519e-09  -2.0440745e-03   1.7300723e-01   1.4756570e-01  -2.7175456e+06
   2.9583194e-09  -2.0368382e-03   1.7295895e-01   1.4760761e-01  -2.7079214e+06
   2.9609870e-09  -2.0296275e-03   1.7291085e-01   1.4764938e-01  -2.6983314e+06
   2.9636546e-09  -2.0224424e-03   1.7286293e-01   1.4769102e-01  -2.6887753e+06
   2.9663221e-09  -2.0152827e-03   1.7281520e-01   1.4773252e-01  -2.6792532e+06
   2.9689897e-09  -2.0081483e-03   1.7276765e-01   1.4777389e-01  -2.6697648e+06
   2.9716572e-09  -2.0010393e-03   1.7272028e-01   1.4781512e-01  -2.6603100e+06
   2.9743248e-09  -1.9939554e-03   1.7267309e-01   1.4785621e-01  -2.6508888e+06
   2.9769923e-09  -1.9868965e-03   1.7262608e-01   1.4789717e-01  -2.6415010e+06
   2.9796599e-09  -1.9798627e-03   1.7257925e-01   1.4793800e-01  -2.6321464e+06
   2.9823274e-09  -1.9728538e-03   1.7253259e-01   1.4797869e-01  -2.6228251e+06
   2.9849950e-09  -1.9658697e-03   1.7248611e-01   1.4801925e-01  -2.6135368e+06
   2.9876626e-09  -1.9589104e-03   1.7243981e-01   1.4805968e-01  -2.6042814e+06
   2.9903301e-09  -1.9519757e-03   1.7239369e-01   1.4809997e-01  -2.5950589e+06
   2.9929977e-09  -1.9450655e-03   1.7234774e-01   1.4814013e-01  -2.5858690e+06
   2.9956652e-09  -1.9381798e-03   1.7230196e-01   1.4818016e-01  -2.5767117e+06
   2.9983328e-09  -1.9313186e-03   1.7225636e-01   1.4822006e-01  -2.5675869e+06
   3.0010003e-09  -1.9244816e-03   1.7221093e-01   1.4825982e-01  -2.5584945e+06
   3.0036679e-09  -1.9176688e-03   1.7216568e-01   1.4829946e-01  -2.5494343e+06
   3.0063354e-09  -1.9108801e-03   1.7212059e-01   1.4833897e-01  -2.5404062e+06
   3.0090030e-09  -1.9041155e-03   1.7207568e-01   1.4837834e-01  -2.5314101e+06
   3.0116706e-09  -1.8973748e-03   1.7203093e-01   1.4841759e-01  -2.5224459e+06
   3.0143381e-09  -1.8906580e-03   1.7198636e-01   1.4845670e-01  -2.5135135e+06
   3.0170057e-09  -1.8839650e-03   1.7194195e-01   1.4849569e-01  -2.5046128e+06
   3.0196732e-09  -1.8772957e-03   1.7189771e-01   1.4853455e-01  -2.4957436e+06
   3.0223408e-09  -1.8706500e-03   1.7185364e-01   1.4857328e-01  -2.4869059e+06
   3.0250083e-09  -1.8640279e-03   1.7180974e-01   1.4861189e-01  -2.4780995e+06
   3.0276759e-09  -1.8574291e-03   1.7176600e-01   1.4865037e-01  -2.4693243e+06
   3.0303434e-09  -1.8508538e-03   1.7172243e-01   1.4868872e-01  -2.4605802e+06
   3.0330110e-09  -1.8443017e-03   1.7167902e-01   1.4872694e-01  -2.4518671e+06
   3.0356786e-09  -1.8377729e-03   1.7163578e-01   1.4876504e-01  -2.4431850e+06
   3.0383461e-09  -1.8312671e-03   1.7159270e-01   1.4880301e-01  -2.4345335e+06
   3.0410137e-09  -1.8247844e-03   1.7154978e-01   1.4884086e-01  -2.4259128e+06
   3.0436812e-09  -1.8183247e-03   1.7150703e-01   1.4887858e-01  -2.4173226e+06
   3.0463488e-09  -1.8118878e-03   1.7146443e-01   1.4891618e-01  -2.4087629e+06
   3.0490163e-09  -1.8054737e-03   1.7142200e-01   1.4895365e-01  -2.4002335e+06
   3.0516839e-09  -1.7990824e-03   1.7137973e-01   1.4899100e-01  -2.3917343e+06
   3.0543515e-09  -1.7927136e-03   1.7133762e-01   1.4902823e-01  -2.3832653e+06
   3.0570190e-09  -1.7863674e-03   1.7129566e-01   1.4906533e-01  -2.3748263e+06
   3.0596866e-09  -1.7800437e-03   1.7125387e-01   1.4910231e-01  -2.3664171e+06
   3.0623541e-09  -1.7737424e-03   1.7121223e-01   1.4913917e-01  -2.3580378e+06
   3.0650217e-09  -1.7674634e-03   1.7117075e-01   1.4917591e-01  -2.3496883e+06
   3.0676892e-09  -1.7612066e-03   1.7112943e-01   1.4921253e-01  -2.3413682e+06
   3.0703568e-09  -1.7549720e-03   1.7108826e-01   1.4924902e-01  -2.3330777e+06
   3.0730243e-09  -1.7487595e-03   1.7104724e-01   1.4928539e-01  -2.3248166e+06
   3.0756919e-09  -1.7425689e-03   1.7100639e-01   1.4932165e-01  -2.3165848e+06
   3.0783595e-09  -1.7364003e-03   1.7096568e-01   1.4935778e-01  -2.3083821e+06
   3.0810270e-09  -1.7302535e-03   1.7092513e-01   1.4939379e-01  -2.3002085e+06
   3.0836946e-09  -1.7241285e-03   1.7088473e-01   1.4942969e-01  -2.2920638e+06
   3.0863621e-09  -1.7180251e-03   1.7084448e-01   1.4946546e-01  -2.2839481e+06
   3.0890297e-09  -1.7119434e-03   1.7080439e-01   1.4950112e-01  -2.2758611e+06
   3.0916972e-09  -1.7058832e-03   1.7076444e-01   1.4953666e-01  -2.2678027e+06
   3.0943648e-09  -1.6998445e-03   1.7072465e-01   1.4957208e-01  -2.2597729e+06
   3.0970323e-09  -1.6938271e-03   1.7068501e-01   1.4960738e-01  -2.2517716e+06
   3.0996999e-09  -1.6878311e-03   1.7064551e-01   1.4964257e-01  -2.2437986e+06
   3.1023675e-09  -1.6818563e-03   1.7060616e-01   1.4967764e-01  -2.2358539e+06
   3.1050350e-09  -1.6759026e-03   1.7056697e-01   1.4971259e-01  -2.2279374e+06
   3.1077026e-09  -1.6699700e-03   1.7052791e-01   1.4974743e-01  -2.2200489e+06
   3.1103701e-09  -1.6640585e-03   1.7048901e-01   1.4978215e-01  -2.2121883e+06
   3.1130377e-09  -1.6581678e-03   1.7045025e-01   1.4981676e-01  -2.2043556e+06
   3.1157052e-09  -1.6522980e-03   1.7041164e-01   1.4985125e-01  -2.1965507e+06
   3.1183728e-09  -1.6464490e-03   1.7037317e-01   1.4988563e-01  -2.1887734e+06
   3.1210403e-09  -1.6406208e-03   1.7033485e-01   1.4991989e-01  -2.1810237e+06
   3.1237079e-09  -1.6348131e-03   1.7029667e-01   1.4995404e-01  -2.1733014e+06
   3.1263755e-09  -1.6290260e-03   1.7025863e-01   1.4998807e-01  -2.1656065e+06
   3.1290430e-09  -1.6232594e-03   1.7022074e-01   1.5002200e-01  -2.1579389e+06
   3.1317106e-09  -1.6175132e-03   1.7018299e-01   1.5005581e-01  -2.1502985e+06
   3.1343781e-09  -1.6117874e-03   1.7014538e-01   1.5008950e-01  -2.1426851e+06
   3.1370457e-09  -1.6060818e-03   1.7010791e-01   1.5012309e-01  -2.1350987e+06
   3.1397132e-09  -1.6003964e-03   1.7007058e-01   1.5015656e-01  -2.1275392e+06
   3.1423808e-09  -1.5947312e-03   1.7003339e-01   1.5018992e-01  -2.1200064e+06
   3.1450483e-09  -1.5890860e-03   1.6999634e-01   1.5022317e-01  -2.1125004e+06
   3.1477159e-09  -1.5834608e-03   1.6995943e-01   1.5025631e-01  -2.1050209e+06
   3.1503835e-09  -1.5778556e-03   1.6992266e-01   1.5028934e-01  -2.0975680e+06
   3.1530510e-09  -1.5722701e-03   1.6988603e-01   1.5032226e-01  -2.0901415e+06
   3.1557186e-09  -1.5667045e-03   1.6984953e-01   1.5035507e-01  -2.0827412e+06
   3.1583861e-09  -1.5611585e-03   1.6981317e-01   1.5038777e-01  -2.0753672e+06
   3.1610537e-09  -1.5556322e-03   1.6977695e-01   1.5042036e-01  -2.0680193e+06
   3.1637212e-09  -1.5501255e-03   1.6974086e-01   1.5045284e-01  -2.0606975e+06
   3.1663888e-09  -1.5446382e-03   1.6970491e-01   1.5048522e-01  -2.0534016e+06
   3.1690564e-09  -1.5391704e-03   1.6966909e-01   1.5051749e-01  -2.0461316e+06
   3.1717239e-09  -1.5337219e-03   1.6963340e-01   1.5054964e-01  -2.0388873e+06
   3.1743915e-09  -1.5282927e-03   1.6959785e-01   1.5058170e-01  -2.0316686e+06
   3.1770590e-09  -1.5228828e-03   1.6956243e-01   1.5061364e-01  -2.0244756e+06
   3.1797266e-09  -1.5174920e-03   1.6952715e-01   1.5064548e-01  -2.0173080e+06
   3.1823941e-09  -1.5121203e-03   1.6949199e-01   1.5067721e-01  -2.0101659e+06
   3.1850617e-09  -1.5067676e-03   1.6945697e-01   1.5070883e-01  -2.0030490e+06
   3.1877292e-09  -1.5014338e-03   1.6942208e-01   1.5074035e-01  -1.9959573e+06
   3.1903968e-09  -1.4961190e-03   1.6938732e-01   1.5077177e-01  -1.9888908e+06
   3.1930644e-09  -1.4908229e-03   1.6935268e-01   1.5080308e-01  -1.9818493e+06
   3.1957319e-09  -1.4855456e-03   1.6931818e-01   1.5083428e-01  -1.9748328e+06
   3.1983995e-09  -1.4802870e-03   1.6928381e-01   1.5086538e-01  -1.9678411e+06
   3.2010670e-09  -1.4750470e-03   1.6924956e-01   1.5089638e-01  -1.9608742e+06
   3.2037346e-09  -1.4698256e-03   1.6921545e-01   1.5092727e-01  -1.9539319e+06
   3.2064021e-09  -1.4646226e-03   1.6918146e-01   1.5095806e-01  -1.9470143e+06
   3.2090697e-09  -1.4594381e-03   1.6914759e-01   1.5098875e-01  -1.9401211e+06
   3.2117372e-09  -1.4542719e-03   1.6911386e-01   1.5101933e-01  -1.9332524e+06
   3.2144048e-09  -1.4491240e-03   1.6908024e-01   1.5104981e-01  -1.9264080e+06
   3.2170724e-09  -1.4439944e-03   1.6904676e-01   1.5108019e-01  -1.9195879e+06
   3.2197399e-09  -1.4388829e-03   1.6901340e-01   1.5111047e-01  -1.9127919e+06
   3.2224075e-09  -1.4337894e-03   1.6898016e-01   1.5114064e-01  -1.9060200e+06
   3.2250750e-09  -1.4287141e-03   1.6894705e-01   1.5117072e-01  -1.8992721e+06
   3.2277426e-09  -1.4236567e-03   1.6891406e-01   1.5120069e-01  -1.8925481e+06
   3.2304101e-09  -1.4186172e-03   1.6888119e-01   1.5123057e-01  -1.8858479e+06
   3.2330777e-09  -1.4135955e-03   1.6884845e-01   1.5126034e-01  -1.8791714e+06
   3.2357452e-09  -1.4085916e-03   1.6881583e-01   1.5129001e-01  -1.8725186e+06
   3.2384128e-09  -1.4036055e-03   1.6878333e-01   1.5131959e-01  -1.8658894e+06
   3.2410804e-09  -1.3986369e-03   1.6875095e-01   1.5134906e-01  -1.8592836e+06
   3.2437479e-09  -1.3936860e-03   1.6871869e-01   1.5137844e-01  -1.8527013e+06
   3.2464155e-09  -1.3887526e-03   1.6868655e-01   1.5140771e-01  -1.8461423e+06
   3.2490830e-09  -1.3838367e-03   1.6865453e-01   1.5143689e-01  -1.8396064e+06
   3.2517506e-09  -1.3789381e-03   1.6862263e-01   1.5146597e-01  -1.8330938e+06
   3.2544181e-09  -1.3740570e-03   1.6859085e-01   1.5149496e-01  -1.8266042e+06
   3.2570857e-09  -1.3691931e-03   1.6855918e-01   1.5152384e-01  -1.8201376e+06
   3.2597533e-09  -1.3643464e-03   1.6852764e-01   1.5155263e-01  -1.8136939e+06
   3.2624208e-09  -1.3595168e-03   1.6849621e-01   1.5158133e-01  -1.8072730e+06
   3.2650884e-09  -1.3547044e-03   1.6846490e-01   1.5160992e-01  -1.8008749e+06
   3.2677559e-09  -1.3499090e-03   1.6843370e-01   1.5163842e-01  -1.7944995e+06
   3.2704235e-09  -1.3451306e-03   1.6840262e-01   1.5166683e-01  -1.7881466e+06
   3.2730910e-09  -1.3403691e-03   1.6837166e-01   1.5169513e-01  -1.7818162e+06
   3.2757586e-09  -1.3356244e-03   1.6834081e-01   1.5172335e-01  -1.7755082e+06
   3.2784261e-09  -1.3308966e-03   1.6831008e-01   1.5175147e-01  -1.7692226e+06
   3.2810937e-09  -1.3261855e-03   1.6827946e-01   1.5177949e-01  -1.7629593e+06
   3.2837613e-09  -1.3214911e-03   1.6824895e-01   1.5180742e-01  -1.7567181e+06
   3.2864288e-09  -1.3168132e-03   1.6821856e-01   1.5183526e-01  -1.7504991e+06
   3.2890964e-09  -1.3121520e-03   1.6818828e-01   1.5186300e-01  -1.7443020e+06
   3.2917639e-09  -1.3075072e-03   1.6815811e-01   1.5189065e-01  -1.7381269e+06
   3.2944315e-09  -1.3028789e-03   1.6812805e-01   1.5191820e-01  -1.7319737e+06
   3.2970990e-09  -1.2982670e-03   1.6809811e-01   1.5194566e-01  -1.7258423e+06
   3.2997666e-09  -1.2936714e-03   1.6806827e-01   1.5197303e-01  -1.7197326e+06
   3.3024341e-09  -1.2890921e-03   1.6803855e-01   1.5200031e-01  -1.7136446e+06
   3.3051017e-09  -1.2845290e-03   1.6800894e-01   1.5202750e-01  -1.7075781e+06
   3.3077693e-09  -1.2799820e-03   1.6797944e-01   1.5205459e-01  -1.7015330e+06
   3.3104368e-09  -1.2754511e-03   1.6795004e-01   1.5208159e-01  -1.6955094e+06
   3.3131044e-09  -1.2709363e-03   1.6792076e-01   1.5210851e-01  -1.6895072e+06
   3.3157719e-09  -1.2664375e-03   1.6789158e-01   1.5213533e-01  -1.6835262e+06
   3.3184395e-09  -1.2619545e-03   1.6786251e-01   1.5216206e-01  -1.6775663e+06
   3.3211070e-09  -1.2574875e-03   1.6783355e-01   1.5218870e-01  -1.6716276e+06
   3.3237746e-09  -1.2530362e-03   1.6780470e-01   1.5221525e-01  -1.6657099e+06
   3.3264421e-09  -1.2486008e-03   1.6777596e-01   1.5224171e-01  -1.6598132e+06
   3.3291097e-09  -1.2441810e-03   1.6774732e-01   1.5226808e-01  -1.6539374e+06
   3.3317773e-09  -1.2397769e-03   1.6771878e-01   1.5229437e-01  -1.6480823e+06
   3.3344448e-09  -1.2353883e-03   1.6769035e-01   1.5232056e-01  -1.6422480e+06
   3.3371124e-09  -1.2310153e-03   1.6766203e-01   1.5234667e-01  -1.6364344e+06
   3.3397799e-09  -1.2266578e-03   1.6763381e-01   1.5237268e-01  -1.6306413e+06
   3.3424475e-09  -1.2223157e-03   1.6760570e-01   1.5239861e-01  -1.6248688e+06
   3.3451150e-09  -1.2179890e-03   1.6757769e-01   1.5242446e-01  -1.6191167e+06
   3.3477826e-09  -1.2136776e-03   1.6754978e-01   1.5245021e-01  -1.6133850e+06
   3.3504502e-09  -1.2093814e-03   1.6752198e-01   1.5247588e-01  -1.6076736e+06
   3.3531177e-09  -1.2051005e-03   1.6749428e-01   1.5250146e-01  -1.6019824e+06
   3.3557853e-09  -1.2008347e-03   1.6746668e-01   1.5252695e-01  -1.5963113e+06
   3.3584528e-09  -1.1965840e-03   1.6743919e-01   1.5255236e-01  -1.5906604e+06
   3.3611204e-09  -1.1923484e-03   1.6741179e-01   1.5257768e-01  -1.5850295e+06
   3.3637879e-09  -1.1881278e-03   1.6738450e-01   1.5260292e-01  -1.5794185e+06
   3.3664555e-09  -1.1839221e-03   1.6735731e-01   1.5262807e-01  -1.5738273e+06
   3.3691230e-09  -1.1797312e-03   1.6733022e-01   1.5265314e-01  -1.5682560e+06
   3.3717906e-09  -1.1755553e-03   1.6730323e-01   1.5267812e-01  -1.5627044e+06
   3.3744582e-09  -1.1713941e-03   1.6727633e-01   1.5270302e-01  -1.5571725e+06
   3.3771257e-09  -1.1672476e-03   1.6724954e-01   1.5272783e-01  -1.5516601e+06
   3.3797933e-09  -1.1631158e-03   1.6722285e-01   1.5275256e-01  -1.5461673e+06
   3.3824608e-09  -1.1589987e-03   1.6719625e-01   1.5277720e-01  -1.5406939e+06
   3.3851284e-09  -1.1548961e-03   1.6716976e-01   1.5280176e-01  -1.5352399e+06
   3.3877959e-09  -1.1508080e-03   1.6714336e-01   1.5282624e-01  -1.5298052e+06
   3.3904635e-09  -1.1467344e-03   1.6711706e-01   1.5285064e-01  -1.5243898e+06
   3.3931310e-09  -1.1426753e-03   1.6709085e-01   1.5287495e-01  -1.5189935e+06
   3.3957986e-09  -1.1386305e-03   1.6706474e-01   1.5289918e-01  -1.5136164e+06
   3.3984662e-09  -1.1346000e-03   1.6703873e-01   1.5292333e-01  -1.5082583e+06
   3.4011337e-09  -1.1305838e-03   1.6701282e-01   1.5294739e-01  -1.5029191e+06
   3.4038013e-09  -1.1265818e-03   1.6698700e-01   1.5297138e-01  -1.4975989e+06
   3.4064688e-09  -1.1225939e-03   1.6696127e-01   1.5299528e-01  -1.4922975e+06
   3.4091364e-09  -1.1186202e-03   1.6693564e-01   1.5301910e-01  -1.4870149e+06
   3.4118039e-09  -1.1146606e-03   1.6691010e-01   1.5304285e-01  -1.4817510e+06
   3.4144715e-09  -1.1107150e-03   1.6688466e-01   1.5306651e-01  -1.4765057e+06
   3.4171390e-09  -1.1067833e-03   1.6685932e-01   1.5309009e-01  -1.4712790e+06
   3.4198066e-09  -1.1028655e-03   1.6683406e-01   1.5311359e-01  -1.4660708e+06
   3.4224742e-09  -1.0989617e-03   1.6680890e-01   1.5313701e-01  -1.4608811e+06
   3.4251417e-09  -1.0950716e-03   1.6678383e-01   1.5316035e-01  -1.4557097e+06
   3.4278093e-09  -1.0911953e-03   1.6675885e-01   1.5318361e-01  -1.4505567e+06
   3.4304768e-09  -1.0873328e-03   1.6673397e-01   1.5320680e-01  -1.4454219e+06
   3.4331444e-09  -1.0834839e-03   1.6670918e-01   1.5322990e-01  -1.4403052e+06
   3.4358119e-09  -1.0796486e-03   1.6668447e-01   1.5325293e-01  -1.4352067e+06
   3.4384795e-09  -1.0758269e-03   1.6665986e-01   1.5327587e-01  -1.4301263e+06
   3.4411470e-09  -1.0720187e-03   1.6663534e-01   1.5329874e-01  -1.4250638e+06
   3.4438146e-09  -1.0682241e-03   1.6661091e-01   1.5332153e-01  -1.4200193e+06
   3.4464822e-09  -1.0644428e-03   1.6658657e-01   1.5334425e-01  -1.4149926e+06
   3.4491497e-09  -1.0606749e-03   1.6656232e-01   1.5336689e-01  -1.4099837e+06
   3.4518173e-09  -1.0569204e-03   1.6653816e-01   1.5338945e-01  -1.4049926e+06
   3.4544848e-09  -1.0531792e-03   1.6651409e-01   1.5341193e-01  -1.4000191e+06
   3.4571524e-09  -1.0494512e-03   1.6649011e-01   1.5343434e-01  -1.3950632e+06
   3.4598199e-09  -1.0457364e-03   1.6646621e-01   1.5345667e-01  -1.3901249e+06
   3.4624875e-09  -1.0420347e-03   1.6644240e-01   1.5347892e-01  -1.3852041e+06
   3.4651551e-09  -1.0383462e-03   1.6641868e-01   1.5350110e-01  -1.3803007e+06
   3.4678226e-09  -1.0346707e-03   1.6639505e-01   1.5352321e-01  -1.3754147e+06
   3.4704902e-09  -1.0310082e-03   1.6637150e-01   1.5354524e-01  -1.3705459e+06
   3.4731577e-09  -1.0273587e-03   1.6634804e-01   1.5356719e-01  -1.3656944e+06
   3.4758253e-09  -1.0237221e-03   1.6632467e-01   1.5358907e-01  -1.3608601e+06
   3.4784928e-09  -1.0200984e-03   1.6630138e-01   1.5361087e-01  -1.3560429e+06
   3.4811604e-09  -1.0164875e-03   1.6627818e-01   1.5363260e-01  -1.3512428e+06
   3.4838279e-09  -1.0128894e-03   1.6625506e-01   1.5365426e-01  -1.3464596e+06
   3.4864955e-09  -1.0093040e-03   1.6623203e-01   1.5367584e-01  -1.3416934e+06
   3.4891631e-09  -1.0057313e-03   1.6620908e-01   1.5369735e-01  -1.3369440e+06
   3.4918306e-09  -1.0021713e-03   1.6618622e-01   1.5371879e-01  -1.3322115e+06
   3.4944982e-09  -9.9862386e-04   1.6616344e-01   1.5374015e-01  -1.3274958e+06
   3.4971657e-09  -9.9508898e-04   1.6614074e-01   1.5376144e-01  -1.3227967e+06
   3.4998333e-09  -9.9156662e-04   1.6611813e-01   1.5378266e-01  -1.3181142e+06
   3.5025008e-09  -9.8805672e-04   1.6609560e-01   1.5380380e-01  -1.3134484e+06
   3.5051684e-09  -9.8455925e-04   1.6607315e-01   1.5382487e-01  -1.3087991e+06
   3.5078359e-09  -9.8107415e-04   1.6605079e-01   1.5384588e-01  -1.3041662e+06
   3.5105035e-09  -9.7760140e-04   1.6602851e-01   1.5386680e-01  -1.2995497e+06
   3.5131711e-09  -9.7414093e-04   1.6600631e-01   1.5388766e-01  -1.2949496e+06
   3.5158386e-09  -9.7069272e-04   1.6598419e-01   1.5390845e-01  -1.2903658e+06
   3.5185062e-09  -9.6725671e-04   1.6596215e-01   1.5392917e-01  -1.2857982e+06
   3.5211737e-09  -9.6383287e-04   1.6594019e-01   1.5394981e-01  -1.2812467e+06
   3.5238413e-09  -9.6042114e-04   1.6591831e-01   1.5397039e-01  -1.2767114e+06
   3.5265088e-09  -9.5702149e-04   1.6589652e-01   1.5399089e-01  -1.2721921e+06
   3.5291764e-09  -9.5363388e-04   1.6587480e-01   1.5401132e-01  -1.2676889e+06
   3.5318439e-09  -9.5025825e-04   1.6585316e-01   1.5403169e-01  -1.2632016e+06
   3.5345115e-09  -9.4689458e-04   1.6583160e-01   1.5405198e-01  -1.2587301e+06
   3.5371791e-09  -9.4354281e-04   1.6581012e-01   1.5407221e-01  -1.2542745e+06
   3.5398466e-09  -9.4020290e-04   1.6578872e-01   1.5409237e-01  -1.2498347e+06
   3.5425142e-09  -9.3687482e-04   1.6576740e-01   1.5411246e-01  -1.2454106e+06
   3.5451817e-09  -9.3355852e-04   1.6574616e-01   1.5413248e-01  -1.2410022e+06
   3.5478493e-09  -9.3025396e-04   1.6572499e-01   1.5415243e-01  -1.2366093e+06
   3.5505168e-09  -9.2696109e-04   1.6570390e-01   1.5417231e-01  -1.2322320e+06
   3.5531844e-09  -9.2367988e-04   1.6568289e-01   1.5419212e-01  -1.2278703e+06
   3.5558520e-09  -9.2041029e-04   1.6566195e-01   1.5421187e-01  -1.2235239e+06
   3.5585195e-09  -9.1715227e-04   1.6564110e-01   1.5423155e-01  -1.2191930e+06
   3.5611871e-09  -9.1390578e-04   1.6562031e-01   1.5425116e-01  -1.2148774e+06
   3.5638546e-09  -9.1067078e-04   1.6559961e-01   1.5427071e-01  -1.2105770e+06
   3.5665222e-09  -9.0744724e-04   1.6557898e-01   1.5429019e-01  -1.2062919e+06
   3.5691897e-09  -9.0423510e-04   1.6555842e-01   1.5430960e-01  -1.2020220e+06
   3.5718573e-09  -9.0103433e-04   1.6553794e-01   1.5432895e-01  -1.1977671e+06
   3.5745248e-09  -8.9784490e-04   1.6551754e-01   1.5434823e-01  -1.1935274e+06
   3.5771924e-09  -8.9466675e-04   1.6549721e-01   1.5436744e-01  -1.1893026e+06
   3.5798600e-09  -8.9149986e-04   1.6547695e-01   1.5438659e-01  -1.1850928e+06
   3.5825275e-09  -8.8834417e-04   1.6545677e-01   1.5440567e-01  -1.1808979e+06
   3.5851951e-09  -8.8519965e-04   1.6543666e-01   1.5442469e-01  -1.1767179e+06
   3.5878626e-09  -8.8206627e-04   1.6541663e-01   1.5444364e-01  -1.1725527e+06
   3.5905302e-09  -8.7894397e-04   1.6539667e-01   1.5446253e-01  -1.1684022e+06
   3.5931977e-09  -8.7583273e-04   1.6537678e-01   1.5448135e-01  -1.1642664e+06
   3.5958653e-09  -8.7273250e-04   1.6535697e-01   1.5450011e-01  -1.1601452e+06
   3.5985328e-09  -8.6964324e-04   1.6533722e-01   1.5451880e-01  -1.1560386e+06
   3.6012004e-09  -8.6656492e-04   1.6531755e-01   1.5453743e-01  -1.1519466e+06
   3.6038680e-09  -8.6349750e-04   1.6529795e-01   1.5455599e-01  -1.1478691e+06
   3.6065355e-09  -8.6044093e-04   1.6527843e-01   1.5457450e-01  -1.1438060e+06
   3.6092031e-09  -8.5739518e-04   1.6525897e-01   1.5459294e-01  -1.1397573e+06
   3.6118706e-09  -8.5436022e-04   1.6523958e-01   1.5461131e-01  -1.1357229e+06
   3.6145382e-09  -8.5133599e-04   1.6522027e-01   1.5462962e-01  -1.1317028e+06
   3.6172057e-09  -8.4832247e-04   1.6520103e-01   1.5464787e-01  -1.1276969e+06
   3.6198733e-09  -8.4531962e-04   1.6518185e-01   1.5466606e-01  -1.1237052e+06
   3.6225408e-09  -8.4232740e-04   1.6516275e-01   1.5468419e-01  -1.1197276e+06
   3.6252084e-09  -8.3934577e-04   1.6514371e-01   1.5470225e-01  -1.1157642e+06
   3.6278760e-09  -8.3637469e-04   1.6512475e-01   1.5472025e-01  -1.1118147e+06
   3.6305435e-09  -8.3341413e-04   1.6510585e-01   1.5473819e-01  -1.1078793e+06
   3.6332111e-09  -8.3046405e-04   1.6508703e-01   1.5475607e-01  -1.1039577e+06
   3.6358786e-09  -8.2752441e-04   1.6506827e-01   1.5477388e-01  -1.1000501e+06
   3.6385462e-09  -8.2459517e-04   1.6504958e-01   1.5479164e-01  -1.0961563e+06
   3.6412137e-09  -8.2167631e-04   1.6503096e-01   1.5480933e-01  -1.0922763e+06
   3.6438813e-09  -8.1876777e-04   1.6501241e-01   1.5482697e-01  -1.0884100e+06
   3.6465488e-09  -8.1586954e-04   1.6499392e-01   1.5484454e-01  -1.0845574e+06
   3.6492164e-09  -8.1298156e-04   1.6497550e-01   1.5486205e-01  -1.0807184e+06
   3.6518840e-09  -8.1010380e-04   1.6495715e-01   1.5487951e-01  -1.0768930e+06
   3.6545515e-09  -8.0723623e-04   1.6493887e-01   1.5489690e-01  -1.0730812e+06
   3.6572191e-09  -8.0437881e-04   1.6492065e-01   1.5491423e-01  -1.0692829e+06
   3.6598866e-09  -8.0153150e-04   1.6490250e-01   1.5493151e-01  -1.0654980e+06
   3.6625542e-09  -7.9869427e-04   1.6488442e-01   1.5494872e-01  -1.0617265e+06
   3.6652217e-09  -7.9586709e-04   1.6486640e-01   1.5496587e-01  -1.0579683e+06
   3.6678893e-09  -7.9304991e-04   1.6484844e-01   1.5498297e-01  -1.0542235e+06
   3.6705569e-09  -7.9024270e-04   1.6483056e-01   1.5500001e-01  -1.0504919e+06
   3.6732244e-09  -7.8744543e-04   1.6481273e-01   1.5501699e-01  -1.0467736e+06
   3.6758920e-09  -7.8465806e-04   1.6479497e-01   1.5503391e-01  -1.0430684e+06
   3.6785595e-09  -7.8188056e-04   1.6477728e-01   1.5505077e-01  -1.0393763e+06
   3.6812271e-09  -7.7911289e-04   1.6475965e-01   1.5506758e-01  -1.0356972e+06
   3.6838946e-09  -7.7635501e-04   1.6474209e-01   1.5508432e-01  -1.0320313e+06
   3.6865622e-09  -7.7360690e-04   1.6472459e-01   1.5510101e-01  -1.0283782e+06
   3.6892297e-09  -7.7086851e-04   1.6470715e-01   1.5511764e-01  -1.0247382e+06
   3.6918973e-09  -7.6813982e-04   1.6468978e-01   1.5513422e-01  -1.0211110e+06
   3.6945649e-09  -7.6542079e-04   1.6467247e-01   1.5515074e-01  -1.0174966e+06
   3.6972324e-09  -7.6271138e-04   1.6465522e-01   1.5516720e-01  -1.0138951e+06
   3.6999000e-09  -7.6001156e-04   1.6463803e-01   1.5518360e-01  -1.0103062e+06
   3.7025675e-09  -7.5732130e-04   1.6462091e-01   1.5519995e-01  -1.0067301e+06
   3.7052351e-09  -7.5464055e-04   1.6460385e-01   1.5521624e-01  -1.0031667e+06
   3.7079026e-09  -7.5196930e-04   1.6458686e-01   1.5523248e-01  -9.9961586e+05
   3.7105702e-09  -7.4930751e-04   1.6456992e-01   1.5524866e-01  -9.9607761e+05
   3.7132377e-09  -7.4665513e-04   1.6455305e-01   1.5526478e-01  -9.9255187e+05
   3.7159053e-09  -7.4401214e-04   1.6453623e-01   1.5528085e-01  -9.8903862e+05
   3.7185729e-09  -7.4137851e-04   1.6451948e-01   1.5529686e-01  -9.8553780e+05
   3.7212404e-09  -7.3875420e-04   1.6450279e-01   1.5531282e-01  -9.8204938e+05
   3.7239080e-09  -7.3613918e-04   1.6448616e-01   1.5532872e-01  -9.7857331e+05
   3.7265755e-09  -7.3353342e-04   1.6446959e-01   1.5534457e-01  -9.7510954e+05
   3.7292431e-09  -7.3093688e-04   1.6445308e-01   1.5536037e-01  -9.7165803e+05
   3.7319106e-09  -7.2834953e-04   1.6443663e-01   1.5537611e-01  -9.6821875e+05
   3.7345782e-09  -7.2577133e-04   1.6442024e-01   1.5539179e-01  -9.6479163e+05
   3.7372457e-09  -7.2320227e-04   1.6440391e-01   1.5540742e-01  -9.6137665e+05
   3.7399133e-09  -7.2064229e-04   1.6438764e-01   1.5542300e-01  -9.5797376e+05
   3.7425809e-09  -7.1809138e-04   1.6437143e-01   1.5543853e-01  -9.5458292e+05
   3.7452484e-09  -7.1554950e-04   1.6435528e-01   1.5545400e-01  -9.5120408e+05
   3.7479160e-09  -7.1301661e-04   1.6433918e-01   1.5546941e-01  -9.4783720e+05
   3.7505835e-09  -7.1049269e-04   1.6432315e-01   1.5548478e-01  -9.4448224e+05
   3.7532511e-09  -7.0797771e-04   1.6430717e-01   1.5550009e-01  -9.4113915e+05
   3.7559186e-09  -7.0547162e-04   1.6429125e-01   1.5551535e-01  -9.3780790e+05
   3.7585862e-09  -7.0297441e-04   1.6427539e-01   1.5553055e-01  -9.3448845e+05
   3.7612538e-09  -7.0048603e-04   1.6425959e-01   1.5554571e-01  -9.3118074e+05
   3.7639213e-09  -6.9800647e-04   1.6424384e-01   1.5556081e-01  -9.2788474e+05
   3.7665889e-09  -6.9553568e-04   1.6422815e-01   1.5557586e-01  -9.2460041e+05
   3.7692564e-09  -6.9307363e-04   1.6421252e-01   1.5559085e-01  -9.2132771e+05
   3.7719240e-09  -6.9062030e-04   1.6419694e-01   1.5560580e-01  -9.1806659e+05
   3.7745915e-09  -6.8817566e-04   1.6418142e-01   1.5562069e-01  -9.1481702e+05
   3.7772591e-09  -6.8573966e-04   1.6416596e-01   1.5563554e-01  -9.1157895e+05
   3.7799266e-09  -6.8331229e-04   1.6415056e-01   1.5565033e-01  -9.0835234e+05
   3.7825942e-09  -6.8089351e-04   1.6413521e-01   1.5566507e-01  -9.0513716e+05
   3.7852618e-09  -6.7848329e-04   1.6411991e-01   1.5567976e-01  -9.0193336e+05
   3.7879293e-09  -6.7608161e-04   1.6410467e-01   1.5569440e-01  -8.9874089e+05
   3.7905969e-09  -6.7368842e-04   1.6408949e-01   1.5570898e-01  -8.9555973e+05
   3.7932644e-09  -6.7130371e-04   1.6407436e-01   1.5572352e-01  -8.9238983e+05
   3.7959320e-09  -6.6892743e-04   1.6405928e-01   1.5573801e-01  -8.8923116e+05
   3.7985995e-09  -6.6655957e-04   1.6404426e-01   1.5575245e-01  -8.8608366e+05
   3.8012671e-09  -6.6420009e-04   1.6402930e-01   1.5576684e-01  -8.8294730e+05
   3.8039346e-09  -6.6184896e-04   1.6401439e-01   1.5578117e-01  -8.7982205e+05
   3.8066022e-09  -6.5950615e-04   1.6399953e-01   1.5579546e-01  -8.7670786e+05
   3.8092698e-09  -6.5717163e-04   1.6398473e-01   1.5580970e-01  -8.7360470e+05
   3.8119373e-09  -6.5484538e-04   1.6396998e-01   1.5582389e-01  -8.7051252e+05
   3.8146049e-09  -6.5252736e-04   1.6395528e-01   1.5583803e-01  -8.6743128e+05
   3.8172724e-09  -6.5021755e-04   1.6394064e-01   1.5585213e-01  -8.6436096e+05
   3.8199400e-09  -6.4791591e-04   1.6392605e-01   1.5586617e-01  -8.6130150e+05
   3.8226075e-09  -6.4562242e-04   1.6391151e-01   1.5588017e-01  -8.5825287e+05
   3.8252751e-09  -6.4333704e-04   1.6389703e-01   1.5589411e-01  -8.5521504e+05
   3.8279426e-09  -6.4105976e-04   1.6388260e-01   1.5590801e-01  -8.5218795e+05
   3.8306102e-09  -6.3879053e-04   1.6386822e-01   1.5592186e-01  -8.4917159e+05
   3.8332778e-09  -6.3652934e-04   1.6385389e-01   1.5593567e-01  -8.4616590e+05
   3.8359453e-09  -6.3427615e-04   1.6383962e-01   1.5594942e-01  -8.4317085e+05
   3.8386129e-09  -6.3203094e-04   1.6382539e-01   1.5596313e-01  -8.4018640e+05
   3.8412804e-09  -6.2979367e-04   1.6381122e-01   1.5597679e-01  -8.3721252e+05
   3.8439480e-09  -6.2756433e-04   1.6379710e-01   1.5599040e-01  -8.3424917e+05
   3.8466155e-09  -6.2534287e-04   1.6378303e-01   1.5600397e-01  -8.3129630e+05
   3.8492831e-09  -6.2312928e-04   1.6376901e-01   1.5601749e-01  -8.2835389e+05
   3.8519507e-09  -6.2092352e-04   1.6375505e-01   1.5603096e-01  -8.2542190e+05
   3.8546182e-09  -6.1872557e-04   1.6374113e-01   1.5604439e-01  -8.2250028e+05
   3.8572858e-09  -6.1653539e-04   1.6372726e-01   1.5605777e-01  -8.1958900e+05
   3.8599533e-09  -6.1435298e-04   1.6371345e-01   1.5607110e-01  -8.1668803e+05
   3.8626209e-09  -6.1217828e-04   1.6369968e-01   1.5608439e-01  -8.1379733e+05
   3.8652884e-09  -6.1001128e-04   1.6368596e-01   1.5609763e-01  -8.1091687e+05
   3.8679560e-09  -6.0785196e-04   1.6367230e-01   1.5611082e-01  -8.0804660e+05
   3.8706235e-09  -6.0570027e-04   1.6365868e-01   1.5612397e-01  -8.0518649e+05
   3.8732911e-09  -6.0355621e-04   1.6364511e-01   1.5613708e-01  -8.0233650e+05
   3.8759587e-09  -6.0141973e-04   1.6363159e-01   1.5615014e-01  -7.9949660e+05
   3.8786262e-09  -5.9929081e-04   1.6361812e-01   1.5616315e-01  -7.9666676e+05
   3.8812938e-09  -5.9716943e-04   1.6360470e-01   1.5617612e-01  -7.9384693e+05
   3.8839613e-09  -5.9505555e-04   1.6359133e-01   1.5618904e-01  -7.9103709e+05
   3.8866289e-09  -5.9294916e-04   1.6357800e-01   1.5620192e-01  -7.8823719e+05
   3.8892964e-09  -5.9085023e-04   1.6356472e-01   1.5621475e-01  -7.8544720e+05
   3.8919640e-09  -5.8875872e-04   1.6355150e-01   1.5622754e-01  -7.8266709e+05
   3.8946315e-09  -5.8667462e-04   1.6353831e-01   1.5624029e-01  -7.7989682e+05
   3.8972991e-09  -5.8459789e-04   1.6352518e-01   1.5625299e-01  -7.7713635e+05
   3.8999667e-09  -5.8252852e-04   1.6351210e-01   1.5626565e-01  -7.7438566e+05
