   0.0000000e+00  -1.8952329e-01   6.1934811e+00   2.4381264e-06  -5.1705531e+08
   2.6675559e-12  -1.8814939e-01   6.1828489e+00   2.7085711e-06  -5.1323289e+08
   5.3351117e-12  -1.8678571e-01   6.1717574e+00   3.0063931e-06  -5.0940803e+08
   8.0026676e-12  -1.8543224e-01   6.1601940e+00   3.3340454e-06  -5.0558088e+08
   1.0670223e-11  -1.8408898e-01   6.1481461e+00   3.6941641e-06  -5.0175160e+08
   1.3337779e-11  -1.8275595e-01   6.1356012e+00   4.0895782e-06  -4.9792035e+08
   1.6005335e-11  -1.8143314e-01   6.1225470e+00   4.5233195e-06  -4.9408733e+08
   1.8672891e-11  -1.8012057e-01   6.1089716e+00   4.9986320e-06  -4.9025276e+08
   2.1340447e-11  -1.7881824e-01   6.0948632e+00   5.5189826e-06  -4.8641685e+08
   2.4008003e-11  -1.7752614e-01   6.0802104e+00   6.0880698e-06  -4.8257987e+08
   2.6675559e-11  -1.7624429e-01   6.0650023e+00   6.7098346e-06  -4.7874208e+08
   2.9343114e-11  -1.7497268e-01   6.0492281e+00   7.3884692e-06  -4.7490377e+08
   3.2010670e-11  -1.7371131e-01   6.0328778e+00   8.1284264e-06  -4.7106525e+08
   3.4678226e-11  -1.7246019e-01   6.0159415e+00   8.9344289e-06  -4.6722686e+08
   3.7345782e-11  -1.7121931e-01   5.9984103e+00   9.8114778e-06  -4.6338894e+08
   4.0013338e-11  -1.6998868e-01   5.9802756e+00   1.0764860e-05  -4.5955187e+08
   4.2680894e-11  -1.6876828e-01   5.9615294e+00   1.1800158e-05  -4.5571605e+08
   4.5348449e-11  -1.6755812e-01   5.9421646e+00   1.2923254e-05  -4.5188191e+08
   4.8016005e-11  -1.6635818e-01   5.9221746e+00   1.4140338e-05  -4.4804987e+08
   5.0683561e-11  -1.6516847e-01   5.9015536e+00   1.5457911e-05  -4.4422041e+08
   5.3351117e-11  -1.6398898e-01   5.8802968e+00   1.6882795e-05  -4.4039401e+08
   5.6018673e-11  -1.6281969e-01   5.8584000e+00   1.8422131e-05  -4.3657118e+08
   5.8686229e-11  -1.6166060e-01   5.8358599e+00   2.0083383e-05  -4.3275245e+08
   6.1353785e-11  -1.6051169e-01   5.8126742e+00   2.1874342e-05  -4.2893836e+08
   6.4021340e-11  -1.5937295e-01   5.7888416e+00   2.3803124e-05  -4.2512950e+08
   6.6688896e-11  -1.5824437e-01   5.7643614e+00   2.5878171e-05  -4.2132644e+08
   6.9356452e-11  -1.5712593e-01   5.7392344e+00   2.8108246e-05  -4.1752980e+08
   7.2024008e-11  -1.5601760e-01   5.7134619e+00   3.0502434e-05  -4.1374021e+08
   7.4691564e-11  -1.5491938e-01   5.6870466e+00   3.3070133e-05  -4.0995831e+08
   7.7359120e-11  -1.5383124e-01   5.6599921e+00   3.5821053e-05  -4.0618477e+08
   8.0026676e-11  -1.5275316e-01   5.6323030e+00   3.8765201e-05  -4.0242026e+08
   8.2694231e-11  -1.5168511e-01   5.6039849e+00   4.1912879e-05  -3.9866548e+08
   8.5361787e-11  -1.5062706e-01   5.5750446e+00   4.5274673e-05  -3.9492114e+08
   8.8029343e-11  -1.4957898e-01   5.5454899e+00   4.8861435e-05  -3.9118795e+08
   9.0696899e-11  -1.4854085e-01   5.5153296e+00   5.2684278e-05  -3.8746664e+08
   9.3364455e-11  -1.4751263e-01   5.4845734e+00   5.6754558e-05  -3.8375796e+08
   9.6032011e-11  -1.4649429e-01   5.4532323e+00   6.1083856e-05  -3.8006265e+08
   9.8699567e-11  -1.4548579e-01   5.4213180e+00   6.5683965e-05  -3.7638146e+08
   1.0136712e-10  -1.4448709e-01   5.3888433e+00   7.0566871e-05  -3.7271515e+08
   1.0403468e-10  -1.4349814e-01   5.3558218e+00   7.5744732e-05  -3.6906449e+08
   1.0670223e-10  -1.4251892e-01   5.3222683e+00   8.1229859e-05  -3.6543022e+08
   1.0936979e-10  -1.4154936e-01   5.2881980e+00   8.7034695e-05  -3.6181312e+08
   1.1203735e-10  -1.4058943e-01   5.2536273e+00   9.3171796e-05  -3.5821395e+08
   1.1470490e-10  -1.3963908e-01   5.2185731e+00   9.9653802e-05  -3.5463345e+08
   1.1737246e-10  -1.3869825e-01   5.1830533e+00   1.0649342e-04  -3.5107239e+08
   1.2004001e-10  -1.3776689e-01   5.1470862e+00   1.1370340e-04  -3.4753149e+08
   1.2270757e-10  -1.3684495e-01   5.1106909e+00   1.2129650e-04  -3.4401151e+08
   1.2537513e-10  -1.3593237e-01   5.0738870e+00   1.2928550e-04  -3.4051315e+08
   1.2804268e-10  -1.3502910e-01   5.0366946e+00   1.3768310e-04  -3.3703713e+08
   1.3071024e-10  -1.3413506e-01   4.9991342e+00   1.4650200e-04  -3.3358415e+08
   1.3337779e-10  -1.3325020e-01   4.9612269e+00   1.5575479e-04  -3.3015488e+08
   1.3604535e-10  -1.3237445e-01   4.9229939e+00   1.6545397e-04  -3.2675000e+08
   1.3871290e-10  -1.3150775e-01   4.8844568e+00   1.7561192e-04  -3.2337014e+08
   1.4138046e-10  -1.3065003e-01   4.8456374e+00   1.8624086e-04  -3.2001593e+08
   1.4404802e-10  -1.2980122e-01   4.8065577e+00   1.9735286e-04  -3.1668798e+08
   1.4671557e-10  -1.2896126e-01   4.7672397e+00   2.0895979e-04  -3.1338686e+08
   1.4938313e-10  -1.2813005e-01   4.7277055e+00   2.2107333e-04  -3.1011315e+08
   1.5205068e-10  -1.2730755e-01   4.6879773e+00   2.3370492e-04  -3.0686736e+08
   1.5471824e-10  -1.2649366e-01   4.6480770e+00   2.4686575e-04  -3.0365001e+08
   1.5738580e-10  -1.2568831e-01   4.6080266e+00   2.6056677e-04  -3.0046159e+08
   1.6005335e-10  -1.2489142e-01   4.5678479e+00   2.7481864e-04  -2.9730254e+08
   1.6272091e-10  -1.2410292e-01   4.5275623e+00   2.8963174e-04  -2.9417330e+08
   1.6538846e-10  -1.2332272e-01   4.4871912e+00   3.0501613e-04  -2.9107426e+08
   1.6805602e-10  -1.2255075e-01   4.4467555e+00   3.2098159e-04  -2.8800581e+08
   1.7072357e-10  -1.2178691e-01   4.4062759e+00   3.3753753e-04  -2.8496827e+08
   1.7339113e-10  -1.2103114e-01   4.3657726e+00   3.5469307e-04  -2.8196197e+08
   1.7605869e-10  -1.2028333e-01   4.3252655e+00   3.7245695e-04  -2.7898719e+08
   1.7872624e-10  -1.1954342e-01   4.2847740e+00   3.9083760e-04  -2.7604418e+08
   1.8139380e-10  -1.1881131e-01   4.2443169e+00   4.0984305e-04  -2.7313318e+08
   1.8406135e-10  -1.1808692e-01   4.2039128e+00   4.2948103e-04  -2.7025438e+08
   1.8672891e-10  -1.1737017e-01   4.1635794e+00   4.4975886e-04  -2.6740795e+08
   1.8939647e-10  -1.1666096e-01   4.1233342e+00   4.7068351e-04  -2.6459404e+08
   1.9206402e-10  -1.1595920e-01   4.0831940e+00   4.9226162e-04  -2.6181276e+08
   1.9473158e-10  -1.1526482e-01   4.0431749e+00   5.1449942e-04  -2.5906419e+08
   1.9739913e-10  -1.1457772e-01   4.0032927e+00   5.3740281e-04  -2.5634840e+08
   2.0006669e-10  -1.1389782e-01   3.9635622e+00   5.6097733e-04  -2.5366542e+08
   2.0273424e-10  -1.1322503e-01   3.9239980e+00   5.8522814e-04  -2.5101525e+08
   2.0540180e-10  -1.1255926e-01   3.8846138e+00   6.1016008e-04  -2.4839790e+08
   2.0806936e-10  -1.1190042e-01   3.8454228e+00   6.3577762e-04  -2.4581330e+08
   2.1073691e-10  -1.1124843e-01   3.8064377e+00   6.6208491e-04  -2.4326141e+08
   2.1340447e-10  -1.1060320e-01   3.7676704e+00   6.8908575e-04  -2.4074214e+08
   2.1607202e-10  -1.0996464e-01   3.7291322e+00   7.1678361e-04  -2.3825538e+08
   2.1873958e-10  -1.0933267e-01   3.6908338e+00   7.4518165e-04  -2.3580100e+08
   2.2140714e-10  -1.0870719e-01   3.6527856e+00   7.7428271e-04  -2.3337886e+08
   2.2407469e-10  -1.0808813e-01   3.6149970e+00   8.0408932e-04  -2.3098880e+08
   2.2674225e-10  -1.0747540e-01   3.5774769e+00   8.3460374e-04  -2.2863062e+08
   2.2940980e-10  -1.0686891e-01   3.5402339e+00   8.6582791e-04  -2.2630414e+08
   2.3207736e-10  -1.0626857e-01   3.5032757e+00   8.9776349e-04  -2.2400914e+08
   2.3474491e-10  -1.0567432e-01   3.4666097e+00   9.3041191e-04  -2.2174539e+08
   2.3741247e-10  -1.0508606e-01   3.4302427e+00   9.6377428e-04  -2.1951264e+08
   2.4008003e-10  -1.0450370e-01   3.3941808e+00   9.9785151e-04  -2.1731063e+08
   2.4274758e-10  -1.0392718e-01   3.3584299e+00   1.0326442e-03  -2.1513910e+08
   2.4541514e-10  -1.0335640e-01   3.3229952e+00   1.0681529e-03  -2.1299777e+08
   2.4808269e-10  -1.0279129e-01   3.2878814e+00   1.1043777e-03  -2.1088634e+08
   2.5075025e-10  -1.0223176e-01   3.2530929e+00   1.1413185e-03  -2.0880452e+08
   2.5341781e-10  -1.0167775e-01   3.2186336e+00   1.1789752e-03  -2.0675200e+08
   2.5608536e-10  -1.0112917e-01   3.1845069e+00   1.2173473e-03  -2.0472845e+08
   2.5875292e-10  -1.0058594e-01   3.1507158e+00   1.2564343e-03  -2.0273355e+08
   2.6142047e-10  -1.0004799e-01   3.1172630e+00   1.2962352e-03  -2.0076697e+08
   2.6408803e-10  -9.9515241e-02   3.0841507e+00   1.3367493e-03  -1.9882838e+08
   2.6675559e-10  -9.8987625e-02   3.0513809e+00   1.3779752e-03  -1.9691743e+08
   2.6942314e-10  -9.8465064e-02   3.0189550e+00   1.4199119e-03  -1.9503378e+08
   2.7209070e-10  -9.7947488e-02   2.9868742e+00   1.4625578e-03  -1.9317707e+08
   2.7475825e-10  -9.7434824e-02   2.9551396e+00   1.5059114e-03  -1.9134695e+08
   2.7742581e-10  -9.6927002e-02   2.9237516e+00   1.5499710e-03  -1.8954307e+08
   2.8009336e-10  -9.6423952e-02   2.8927106e+00   1.5947348e-03  -1.8776506e+08
   2.8276092e-10  -9.5925607e-02   2.8620166e+00   1.6402009e-03  -1.8601258e+08
   2.8542848e-10  -9.5431899e-02   2.8316693e+00   1.6863672e-03  -1.8428524e+08
   2.8809603e-10  -9.4942760e-02   2.8016684e+00   1.7332317e-03  -1.8258271e+08
   2.9076359e-10  -9.4458127e-02   2.7720131e+00   1.7807920e-03  -1.8090461e+08
   2.9343114e-10  -9.3977933e-02   2.7427024e+00   1.8290459e-03  -1.7925058e+08
   2.9609870e-10  -9.3502115e-02   2.7137353e+00   1.8779910e-03  -1.7762027e+08
   2.9876626e-10  -9.3030611e-02   2.6851104e+00   1.9276249e-03  -1.7601331e+08
   3.0143381e-10  -9.2563358e-02   2.6568263e+00   1.9779448e-03  -1.7442934e+08
   3.0410137e-10  -9.2100297e-02   2.6288812e+00   2.0289484e-03  -1.7286802e+08
   3.0676892e-10  -9.1641366e-02   2.6012733e+00   2.0806328e-03  -1.7132898e+08
   3.0943648e-10  -9.1186508e-02   2.5740008e+00   2.1329953e-03  -1.6981187e+08
   3.1210403e-10  -9.0735664e-02   2.5470613e+00   2.1860332e-03  -1.6831635e+08
   3.1477159e-10  -9.0288777e-02   2.5204528e+00   2.2397436e-03  -1.6684207e+08
   3.1743915e-10  -8.9845792e-02   2.4941728e+00   2.2941237e-03  -1.6538868e+08
   3.2010670e-10  -8.9406652e-02   2.4682188e+00   2.3491705e-03  -1.6395584e+08
   3.2277426e-10  -8.8971304e-02   2.4425884e+00   2.4048811e-03  -1.6254322e+08
   3.2544181e-10  -8.8539695e-02   2.4172787e+00   2.4612525e-03  -1.6115049e+08
   3.2810937e-10  -8.8111770e-02   2.3922872e+00   2.5182817e-03  -1.5977730e+08
   3.3077693e-10  -8.7687481e-02   2.3676109e+00   2.5759657e-03  -1.5842334e+08
   3.3344448e-10  -8.7266774e-02   2.3432470e+00   2.6343013e-03  -1.5708829e+08
   3.3611204e-10  -8.6849601e-02   2.3191924e+00   2.6932855e-03  -1.5577183e+08
   3.3877959e-10  -8.6435911e-02   2.2954442e+00   2.7529153e-03  -1.5447363e+08
   3.4144715e-10  -8.6025658e-02   2.2719993e+00   2.8131875e-03  -1.5319340e+08
   3.4411470e-10  -8.5618794e-02   2.2488546e+00   2.8740989e-03  -1.5193083e+08
   3.4678226e-10  -8.5215272e-02   2.2260069e+00   2.9356464e-03  -1.5068561e+08
   3.4944982e-10  -8.4815045e-02   2.2034530e+00   2.9978269e-03  -1.4945745e+08
   3.5211737e-10  -8.4418070e-02   2.1811898e+00   3.0606372e-03  -1.4824606e+08
   3.5478493e-10  -8.4024302e-02   2.1592139e+00   3.1240742e-03  -1.4705114e+08
   3.5745248e-10  -8.3633697e-02   2.1375221e+00   3.1881347e-03  -1.4587242e+08
   3.6012004e-10  -8.3246213e-02   2.1161112e+00   3.2528156e-03  -1.4470961e+08
   3.6278760e-10  -8.2861807e-02   2.0949777e+00   3.3181136e-03  -1.4356245e+08
   3.6545515e-10  -8.2480438e-02   2.0741186e+00   3.3840256e-03  -1.4243065e+08
   3.6812271e-10  -8.2102066e-02   2.0535303e+00   3.4505484e-03  -1.4131395e+08
   3.7079026e-10  -8.1726651e-02   2.0332096e+00   3.5176790e-03  -1.4021209e+08
   3.7345782e-10  -8.1354154e-02   2.0131533e+00   3.5854141e-03  -1.3912482e+08
   3.7612538e-10  -8.0984536e-02   1.9933579e+00   3.6537505e-03  -1.3805188e+08
   3.7879293e-10  -8.0617759e-02   1.9738203e+00   3.7226852e-03  -1.3699303e+08
   3.8146049e-10  -8.0253786e-02   1.9545370e+00   3.7922151e-03  -1.3594801e+08
   3.8412804e-10  -7.9892581e-02   1.9355049e+00   3.8623369e-03  -1.3491659e+08
   3.8679560e-10  -7.9534107e-02   1.9167207e+00   3.9330476e-03  -1.3389854e+08
   3.8946315e-10  -7.9178330e-02   1.8981811e+00   4.0043440e-03  -1.3289361e+08
   3.9213071e-10  -7.8825215e-02   1.8798829e+00   4.0762231e-03  -1.3190159e+08
   3.9479827e-10  -7.8474727e-02   1.8618228e+00   4.1486818e-03  -1.3092226e+08
   3.9746582e-10  -7.8126833e-02   1.8439978e+00   4.2217171e-03  -1.2995538e+08
   4.0013338e-10  -7.7781501e-02   1.8264045e+00   4.2953257e-03  -1.2900075e+08
   4.0280093e-10  -7.7438698e-02   1.8090399e+00   4.3695048e-03  -1.2805816e+08
   4.0546849e-10  -7.7098391e-02   1.7919009e+00   4.4442512e-03  -1.2712740e+08
   4.0813605e-10  -7.6760551e-02   1.7749843e+00   4.5195620e-03  -1.2620827e+08
   4.1080360e-10  -7.6425146e-02   1.7582872e+00   4.5954341e-03  -1.2530056e+08
   4.1347116e-10  -7.6092145e-02   1.7418063e+00   4.6718645e-03  -1.2440409e+08
   4.1613871e-10  -7.5761520e-02   1.7255388e+00   4.7488502e-03  -1.2351865e+08
   4.1880627e-10  -7.5433241e-02   1.7094817e+00   4.8263884e-03  -1.2264407e+08
   4.2147382e-10  -7.5107280e-02   1.6936319e+00   4.9044759e-03  -1.2178015e+08
   4.2414138e-10  -7.4783608e-02   1.6779866e+00   4.9831099e-03  -1.2092672e+08
   4.2680894e-10  -7.4462198e-02   1.6625430e+00   5.0622874e-03  -1.2008359e+08
   4.2947649e-10  -7.4143022e-02   1.6472980e+00   5.1420056e-03  -1.1925060e+08
   4.3214405e-10  -7.3826054e-02   1.6322489e+00   5.2222614e-03  -1.1842757e+08
   4.3481160e-10  -7.3511267e-02   1.6173930e+00   5.3030521e-03  -1.1761434e+08
   4.3747916e-10  -7.3198635e-02   1.6027274e+00   5.3843747e-03  -1.1681074e+08
   4.4014672e-10  -7.2888133e-02   1.5882494e+00   5.4662265e-03  -1.1601661e+08
   4.4281427e-10  -7.2579737e-02   1.5739563e+00   5.5486045e-03  -1.1523179e+08
   4.4548183e-10  -7.2273421e-02   1.5598455e+00   5.6315059e-03  -1.1445613e+08
   4.4814938e-10  -7.1969161e-02   1.5459144e+00   5.7149279e-03  -1.1368947e+08
   4.5081694e-10  -7.1666933e-02   1.5321603e+00   5.7988677e-03  -1.1293166e+08
   4.5348449e-10  -7.1366714e-02   1.5185806e+00   5.8833224e-03  -1.1218257e+08
   4.5615205e-10  -7.1068482e-02   1.5051729e+00   5.9682895e-03  -1.1144204e+08
   4.5881961e-10  -7.0772212e-02   1.4919347e+00   6.0537659e-03  -1.1070994e+08
   4.6148716e-10  -7.0477884e-02   1.4788635e+00   6.1397491e-03  -1.0998613e+08
   4.6415472e-10  -7.0185475e-02   1.4659568e+00   6.2262363e-03  -1.0927047e+08
   4.6682227e-10  -6.9894963e-02   1.4532124e+00   6.3132247e-03  -1.0856283e+08
   4.6948983e-10  -6.9606328e-02   1.4406277e+00   6.4007116e-03  -1.0786308e+08
   4.7215739e-10  -6.9319548e-02   1.4282005e+00   6.4886944e-03  -1.0717110e+08
   4.7482494e-10  -6.9034603e-02   1.4159286e+00   6.5771703e-03  -1.0648675e+08
   4.7749250e-10  -6.8751473e-02   1.4038096e+00   6.6661367e-03  -1.0580992e+08
   4.8016005e-10  -6.8470138e-02   1.3918412e+00   6.7555910e-03  -1.0514049e+08
   4.8282761e-10  -6.8190579e-02   1.3800214e+00   6.8455304e-03  -1.0447833e+08
   4.8549517e-10  -6.7912776e-02   1.3683480e+00   6.9359523e-03  -1.0382334e+08
   4.8816272e-10  -6.7636709e-02   1.3568187e+00   7.0268542e-03  -1.0317539e+08
   4.9083028e-10  -6.7362362e-02   1.3454316e+00   7.1182334e-03  -1.0253439e+08
   4.9349783e-10  -6.7089715e-02   1.3341845e+00   7.2100872e-03  -1.0190021e+08
   4.9616539e-10  -6.6818749e-02   1.3230754e+00   7.3024132e-03  -1.0127276e+08
   4.9883294e-10  -6.6549449e-02   1.3121023e+00   7.3952087e-03  -1.0065193e+08
   5.0150050e-10  -6.6281795e-02   1.3012632e+00   7.4884712e-03  -1.0003761e+08
   5.0416806e-10  -6.6015770e-02   1.2905561e+00   7.5821981e-03  -9.9429702e+07
   5.0683561e-10  -6.5751359e-02   1.2799792e+00   7.6763868e-03  -9.8828113e+07
   5.0950317e-10  -6.5488543e-02   1.2695306e+00   7.7710349e-03  -9.8232743e+07
   5.1217072e-10  -6.5227307e-02   1.2592083e+00   7.8661398e-03  -9.7643496e+07
   5.1483828e-10  -6.4967635e-02   1.2490106e+00   7.9616990e-03  -9.7060279e+07
   5.1750584e-10  -6.4709509e-02   1.2389356e+00   8.0577100e-03  -9.6483001e+07
   5.2017339e-10  -6.4452916e-02   1.2289816e+00   8.1541702e-03  -9.5911572e+07
   5.2284095e-10  -6.4197838e-02   1.2191468e+00   8.2510773e-03  -9.5345904e+07
   5.2550850e-10  -6.3944262e-02   1.2094295e+00   8.3484287e-03  -9.4785911e+07
   5.2817606e-10  -6.3692171e-02   1.1998280e+00   8.4462220e-03  -9.4231507e+07
   5.3084361e-10  -6.3441552e-02   1.1903406e+00   8.5444547e-03  -9.3682609e+07
   5.3351117e-10  -6.3192389e-02   1.1809657e+00   8.6431243e-03  -9.3139136e+07
   5.3617873e-10  -6.2944669e-02   1.1717016e+00   8.7422285e-03  -9.2601007e+07
   5.3884628e-10  -6.2698376e-02   1.1625468e+00   8.8417648e-03  -9.2068144e+07
   5.4151384e-10  -6.2453498e-02   1.1534998e+00   8.9417308e-03  -9.1540470e+07
   5.4418139e-10  -6.2210020e-02   1.1445588e+00   9.0421240e-03  -9.1017909e+07
   5.4684895e-10  -6.1967929e-02   1.1357226e+00   9.1429421e-03  -9.0500386e+07
   5.4951651e-10  -6.1727212e-02   1.1269894e+00   9.2441826e-03  -8.9987829e+07
   5.5218406e-10  -6.1487855e-02   1.1183579e+00   9.3458433e-03  -8.9480166e+07
   5.5485162e-10  -6.1249846e-02   1.1098267e+00   9.4479216e-03  -8.8977326e+07
   5.5751917e-10  -6.1013171e-02   1.1013942e+00   9.5504153e-03  -8.8479241e+07
   5.6018673e-10  -6.0777818e-02   1.0930591e+00   9.6533219e-03  -8.7985843e+07
   5.6285428e-10  -6.0543775e-02   1.0848200e+00   9.7566391e-03  -8.7497065e+07
   5.6552184e-10  -6.0311030e-02   1.0766756e+00   9.8603646e-03  -8.7012842e+07
   5.6818940e-10  -6.0079570e-02   1.0686245e+00   9.9644960e-03  -8.6533109e+07
   5.7085695e-10  -5.9849383e-02   1.0606654e+00   1.0069031e-02  -8.6057805e+07
   5.7352451e-10  -5.9620459e-02   1.0527969e+00   1.0173967e-02  -8.5586866e+07
   5.7619206e-10  -5.9392785e-02   1.0450179e+00   1.0279302e-02  -8.5120233e+07
   5.7885962e-10  -5.9166349e-02   1.0373271e+00   1.0385034e-02  -8.4657845e+07
   5.8152718e-10  -5.8941141e-02   1.0297231e+00   1.0491160e-02  -8.4199643e+07
   5.8419473e-10  -5.8717150e-02   1.0222049e+00   1.0597678e-02  -8.3745572e+07
   5.8686229e-10  -5.8494364e-02   1.0147712e+00   1.0704586e-02  -8.3295573e+07
   5.8952984e-10  -5.8272773e-02   1.0074208e+00   1.0811881e-02  -8.2849591e+07
   5.9219740e-10  -5.8052366e-02   1.0001527e+00   1.0919562e-02  -8.2407572e+07
   5.9486495e-10  -5.7833133e-02   9.9296550e-01   1.1027625e-02  -8.1969462e+07
   5.9753251e-10  -5.7615064e-02   9.8585826e-01   1.1136069e-02  -8.1535208e+07
   6.0020007e-10  -5.7398147e-02   9.7882983e-01   1.1244891e-02  -8.1104759e+07
   6.0286762e-10  -5.7182373e-02   9.7187911e-01   1.1354089e-02  -8.0678064e+07
   6.0553518e-10  -5.6967733e-02   9.6500504e-01   1.1463661e-02  -8.0255073e+07
   6.0820273e-10  -5.6754216e-02   9.5820657e-01   1.1573605e-02  -7.9835736e+07
   6.1087029e-10  -5.6541812e-02   9.5148265e-01   1.1683917e-02  -7.9420006e+07
   6.1353785e-10  -5.6330513e-02   9.4483227e-01   1.1794597e-02  -7.9007836e+07
   6.1620540e-10  -5.6120308e-02   9.3825442e-01   1.1905642e-02  -7.8599177e+07
   6.1887296e-10  -5.5911188e-02   9.3174811e-01   1.2017050e-02  -7.8193986e+07
   6.2154051e-10  -5.5703145e-02   9.2531236e-01   1.2128818e-02  -7.7792216e+07
   6.2420807e-10  -5.5496168e-02   9.1894623e-01   1.2240944e-02  -7.7393824e+07
   6.2687563e-10  -5.5290250e-02   9.1264876e-01   1.2353426e-02  -7.6998765e+07
   6.2954318e-10  -5.5085381e-02   9.0641904e-01   1.2466262e-02  -7.6606998e+07
   6.3221074e-10  -5.4881553e-02   9.0025613e-01   1.2579449e-02  -7.6218480e+07
   6.3487829e-10  -5.4678756e-02   8.9415915e-01   1.2692986e-02  -7.5833169e+07
   6.3754585e-10  -5.4476983e-02   8.8812721e-01   1.2806870e-02  -7.5451026e+07
   6.4021340e-10  -5.4276226e-02   8.8215943e-01   1.2921099e-02  -7.5072009e+07
   6.4288096e-10  -5.4076475e-02   8.7625496e-01   1.3035671e-02  -7.4696081e+07
   6.4554852e-10  -5.3877722e-02   8.7041296e-01   1.3150583e-02  -7.4323201e+07
   6.4821607e-10  -5.3679960e-02   8.6463258e-01   1.3265834e-02  -7.3953333e+07
   6.5088363e-10  -5.3483181e-02   8.5891302e-01   1.3381422e-02  -7.3586438e+07
   6.5355118e-10  -5.3287376e-02   8.5325346e-01   1.3497343e-02  -7.3222480e+07
   6.5621874e-10  -5.3092538e-02   8.4765312e-01   1.3613596e-02  -7.2861423e+07
   6.5888630e-10  -5.2898660e-02   8.4211121e-01   1.3730180e-02  -7.2503231e+07
   6.6155385e-10  -5.2705733e-02   8.3662696e-01   1.3847090e-02  -7.2147868e+07
   6.6422141e-10  -5.2513750e-02   8.3119961e-01   1.3964327e-02  -7.1795302e+07
   6.6688896e-10  -5.2322704e-02   8.2582842e-01   1.4081887e-02  -7.1445497e+07
   6.6955652e-10  -5.2132587e-02   8.2051266e-01   1.4199768e-02  -7.1098420e+07
   6.7222407e-10  -5.1943392e-02   8.1525159e-01   1.4317968e-02  -7.0754039e+07
   6.7489163e-10  -5.1755113e-02   8.1004452e-01   1.4436485e-02  -7.0412320e+07
   6.7755919e-10  -5.1567741e-02   8.0489073e-01   1.4555317e-02  -7.0073234e+07
   6.8022674e-10  -5.1381270e-02   7.9978953e-01   1.4674462e-02  -6.9736747e+07
   6.8289430e-10  -5.1195694e-02   7.9474026e-01   1.4793917e-02  -6.9402830e+07
   6.8556185e-10  -5.1011004e-02   7.8974223e-01   1.4913681e-02  -6.9071451e+07
   6.8822941e-10  -5.0827195e-02   7.8479479e-01   1.5033751e-02  -6.8742582e+07
   6.9089697e-10  -5.0644260e-02   7.7989728e-01   1.5154126e-02  -6.8416193e+07
   6.9356452e-10  -5.0462192e-02   7.7504908e-01   1.5274803e-02  -6.8092254e+07
   6.9623208e-10  -5.0280986e-02   7.7024954e-01   1.5395779e-02  -6.7770738e+07
   6.9889963e-10  -5.0100633e-02   7.6549806e-01   1.5517054e-02  -6.7451617e+07
   7.0156719e-10  -4.9921129e-02   7.6079400e-01   1.5638625e-02  -6.7134862e+07
   7.0423474e-10  -4.9742466e-02   7.5613679e-01   1.5760489e-02  -6.6820447e+07
   7.0690230e-10  -4.9564639e-02   7.5152582e-01   1.5882646e-02  -6.6508345e+07
   7.0956986e-10  -4.9387641e-02   7.4696050e-01   1.6005091e-02  -6.6198529e+07
   7.1223741e-10  -4.9211467e-02   7.4244027e-01   1.6127825e-02  -6.5890974e+07
   7.1490497e-10  -4.9036110e-02   7.3796456e-01   1.6250844e-02  -6.5585654e+07
   7.1757252e-10  -4.8861564e-02   7.3353280e-01   1.6374146e-02  -6.5282545e+07
   7.2024008e-10  -4.8687824e-02   7.2914446e-01   1.6497730e-02  -6.4981620e+07
   7.2290764e-10  -4.8514884e-02   7.2479898e-01   1.6621593e-02  -6.4682857e+07
   7.2557519e-10  -4.8342738e-02   7.2049583e-01   1.6745733e-02  -6.4386230e+07
   7.2824275e-10  -4.8171380e-02   7.1623450e-01   1.6870149e-02  -6.4091716e+07
   7.3091030e-10  -4.8000805e-02   7.1201445e-01   1.6994837e-02  -6.3799292e+07
   7.3357786e-10  -4.7831007e-02   7.0783518e-01   1.7119797e-02  -6.3508935e+07
   7.3624542e-10  -4.7661981e-02   7.0369619e-01   1.7245025e-02  -6.3220622e+07
   7.3891297e-10  -4.7493722e-02   6.9959698e-01   1.7370521e-02  -6.2934331e+07
   7.4158053e-10  -4.7326223e-02   6.9553706e-01   1.7496282e-02  -6.2650040e+07
   7.4424808e-10  -4.7159480e-02   6.9151596e-01   1.7622305e-02  -6.2367727e+07
   7.4691564e-10  -4.6993487e-02   6.8753319e-01   1.7748590e-02  -6.2087371e+07
   7.4958319e-10  -4.6828240e-02   6.8358830e-01   1.7875133e-02  -6.1808951e+07
   7.5225075e-10  -4.6663733e-02   6.7968082e-01   1.8001933e-02  -6.1532446e+07
   7.5491831e-10  -4.6499960e-02   6.7581029e-01   1.8128988e-02  -6.1257836e+07
   7.5758586e-10  -4.6336918e-02   6.7197627e-01   1.8256296e-02  -6.0985101e+07
   7.6025342e-10  -4.6174601e-02   6.6817833e-01   1.8383854e-02  -6.0714220e+07
   7.6292097e-10  -4.6013004e-02   6.6441602e-01   1.8511662e-02  -6.0445175e+07
   7.6558853e-10  -4.5852122e-02   6.6068892e-01   1.8639716e-02  -6.0177945e+07
   7.6825609e-10  -4.5691950e-02   6.5699660e-01   1.8768015e-02  -5.9912513e+07
   7.7092364e-10  -4.5532484e-02   6.5333865e-01   1.8896556e-02  -5.9648859e+07
   7.7359120e-10  -4.5373719e-02   6.4971467e-01   1.9025339e-02  -5.9386964e+07
   7.7625875e-10  -4.5215650e-02   6.4612424e-01   1.9154360e-02  -5.9126812e+07
   7.7892631e-10  -4.5058273e-02   6.4256697e-01   1.9283618e-02  -5.8868383e+07
   7.8159386e-10  -4.4901583e-02   6.3904247e-01   1.9413111e-02  -5.8611659e+07
   7.8426142e-10  -4.4745576e-02   6.3555035e-01   1.9542836e-02  -5.8356625e+07
   7.8692898e-10  -4.4590246e-02   6.3209022e-01   1.9672793e-02  -5.8103261e+07
   7.8959653e-10  -4.4435590e-02   6.2866172e-01   1.9802978e-02  -5.7851552e+07
   7.9226409e-10  -4.4281604e-02   6.2526446e-01   1.9933390e-02  -5.7601480e+07
   7.9493164e-10  -4.4128282e-02   6.2189810e-01   2.0064027e-02  -5.7353030e+07
   7.9759920e-10  -4.3975621e-02   6.1856226e-01   2.0194887e-02  -5.7106184e+07
   8.0026676e-10  -4.3823616e-02   6.1525659e-01   2.0325968e-02  -5.6860927e+07
   8.0293431e-10  -4.3672263e-02   6.1198074e-01   2.0457268e-02  -5.6617243e+07
   8.0560187e-10  -4.3521558e-02   6.0873436e-01   2.0588785e-02  -5.6375116e+07
   8.0826942e-10  -4.3371497e-02   6.0551712e-01   2.0720517e-02  -5.6134531e+07
   8.1093698e-10  -4.3222076e-02   6.0232868e-01   2.0852463e-02  -5.5895473e+07
   8.1360453e-10  -4.3073290e-02   5.9916870e-01   2.0984619e-02  -5.5657926e+07
   8.1627209e-10  -4.2925136e-02   5.9603687e-01   2.1116985e-02  -5.5421876e+07
   8.1893965e-10  -4.2777610e-02   5.9293285e-01   2.1249559e-02  -5.5187309e+07
   8.2160720e-10  -4.2630707e-02   5.8985633e-01   2.1382337e-02  -5.4954209e+07
   8.2427476e-10  -4.2484424e-02   5.8680701e-01   2.1515320e-02  -5.4722563e+07
   8.2694231e-10  -4.2338758e-02   5.8378456e-01   2.1648503e-02  -5.4492357e+07
   8.2960987e-10  -4.2193703e-02   5.8078868e-01   2.1781887e-02  -5.4263577e+07
   8.3227743e-10  -4.2049257e-02   5.7781908e-01   2.1915468e-02  -5.4036208e+07
   8.3494498e-10  -4.1905415e-02   5.7487546e-01   2.2049245e-02  -5.3810239e+07
   8.3761254e-10  -4.1762174e-02   5.7195752e-01   2.2183216e-02  -5.3585654e+07
   8.4028009e-10  -4.1619531e-02   5.6906498e-01   2.2317378e-02  -5.3362442e+07
   8.4294765e-10  -4.1477481e-02   5.6619755e-01   2.2451731e-02  -5.3140590e+07
   8.4561521e-10  -4.1336021e-02   5.6335495e-01   2.2586272e-02  -5.2920084e+07
   8.4828276e-10  -4.1195147e-02   5.6053691e-01   2.2720999e-02  -5.2700911e+07
   8.5095032e-10  -4.1054857e-02   5.5774315e-01   2.2855911e-02  -5.2483061e+07
   8.5361787e-10  -4.0915145e-02   5.5497340e-01   2.2991005e-02  -5.2266519e+07
   8.5628543e-10  -4.0776010e-02   5.5222740e-01   2.3126280e-02  -5.2051274e+07
   8.5895298e-10  -4.0637447e-02   5.4950488e-01   2.3261733e-02  -5.1837315e+07
   8.6162054e-10  -4.0499453e-02   5.4680559e-01   2.3397364e-02  -5.1624628e+07
   8.6428810e-10  -4.0362025e-02   5.4412926e-01   2.3533169e-02  -5.1413203e+07
   8.6695565e-10  -4.0225159e-02   5.4147566e-01   2.3669147e-02  -5.1203028e+07
   8.6962321e-10  -4.0088852e-02   5.3884453e-01   2.3805297e-02  -5.0994092e+07
   8.7229076e-10  -3.9953100e-02   5.3623562e-01   2.3941616e-02  -5.0786383e+07
   8.7495832e-10  -3.9817901e-02   5.3364870e-01   2.4078102e-02  -5.0579890e+07
   8.7762588e-10  -3.9683252e-02   5.3108351e-01   2.4214754e-02  -5.0374603e+07
   8.8029343e-10  -3.9549148e-02   5.2853984e-01   2.4351570e-02  -5.0170509e+07
   8.8296099e-10  -3.9415587e-02   5.2601745e-01   2.4488548e-02  -4.9967600e+07
   8.8562854e-10  -3.9282566e-02   5.2351610e-01   2.4625686e-02  -4.9765864e+07
   8.8829610e-10  -3.9150081e-02   5.2103557e-01   2.4762982e-02  -4.9565291e+07
   8.9096365e-10  -3.9018130e-02   5.1857564e-01   2.4900434e-02  -4.9365870e+07
   8.9363121e-10  -3.8886709e-02   5.1613608e-01   2.5038041e-02  -4.9167591e+07
   8.9629877e-10  -3.8755816e-02   5.1371668e-01   2.5175801e-02  -4.8970445e+07
   8.9896632e-10  -3.8625447e-02   5.1131723e-01   2.5313712e-02  -4.8774421e+07
   9.0163388e-10  -3.8495600e-02   5.0893751e-01   2.5451772e-02  -4.8579509e+07
   9.0430143e-10  -3.8366271e-02   5.0657731e-01   2.5589979e-02  -4.8385700e+07
   9.0696899e-10  -3.8237457e-02   5.0423642e-01   2.5728332e-02  -4.8192985e+07
   9.0963655e-10  -3.8109156e-02   5.0191465e-01   2.5866828e-02  -4.8001353e+07
   9.1230410e-10  -3.7981365e-02   4.9961179e-01   2.6005466e-02  -4.7810795e+07
   9.1497166e-10  -3.7854081e-02   4.9732763e-01   2.6144244e-02  -4.7621303e+07
   9.1763921e-10  -3.7727300e-02   4.9506200e-01   2.6283160e-02  -4.7432867e+07
   9.2030677e-10  -3.7601021e-02   4.9281468e-01   2.6422213e-02  -4.7245478e+07
   9.2297432e-10  -3.7475241e-02   4.9058550e-01   2.6561400e-02  -4.7059127e+07
   9.2564188e-10  -3.7349956e-02   4.8837426e-01   2.6700721e-02  -4.6873806e+07
   9.2830944e-10  -3.7225164e-02   4.8618077e-01   2.6840172e-02  -4.6689505e+07
   9.3097699e-10  -3.7100863e-02   4.8400485e-01   2.6979753e-02  -4.6506216e+07
   9.3364455e-10  -3.6977049e-02   4.8184632e-01   2.7119461e-02  -4.6323931e+07
   9.3631210e-10  -3.6853720e-02   4.7970500e-01   2.7259295e-02  -4.6142641e+07
   9.3897966e-10  -3.6730873e-02   4.7758072e-01   2.7399253e-02  -4.5962338e+07
   9.4164722e-10  -3.6608506e-02   4.7547329e-01   2.7539333e-02  -4.5783014e+07
   9.4431477e-10  -3.6486616e-02   4.7338255e-01   2.7679534e-02  -4.5604660e+07
   9.4698233e-10  -3.6365200e-02   4.7130832e-01   2.7819854e-02  -4.5427269e+07
   9.4964988e-10  -3.6244256e-02   4.6925043e-01   2.7960290e-02  -4.5250832e+07
   9.5231744e-10  -3.6123782e-02   4.6720873e-01   2.8100842e-02  -4.5075343e+07
   9.5498499e-10  -3.6003775e-02   4.6518304e-01   2.8241507e-02  -4.4900792e+07
   9.5765255e-10  -3.5884231e-02   4.6317320e-01   2.8382284e-02  -4.4727173e+07
   9.6032011e-10  -3.5765150e-02   4.6117906e-01   2.8523171e-02  -4.4554478e+07
   9.6298766e-10  -3.5646528e-02   4.5920045e-01   2.8664166e-02  -4.4382699e+07
   9.6565522e-10  -3.5528364e-02   4.5723722e-01   2.8805268e-02  -4.4211829e+07
   9.6832277e-10  -3.5410654e-02   4.5528921e-01   2.8946475e-02  -4.4041861e+07
   9.7099033e-10  -3.5293396e-02   4.5335627e-01   2.9087785e-02  -4.3872788e+07
   9.7365789e-10  -3.5176588e-02   4.5143825e-01   2.9229196e-02  -4.3704602e+07
   9.7632544e-10  -3.5060227e-02   4.4953501e-01   2.9370707e-02  -4.3537296e+07
   9.7899300e-10  -3.4944311e-02   4.4764639e-01   2.9512316e-02  -4.3370864e+07
   9.8166055e-10  -3.4828839e-02   4.4577224e-01   2.9654022e-02  -4.3205297e+07
   9.8432811e-10  -3.4713806e-02   4.4391244e-01   2.9795822e-02  -4.3040591e+07
   9.8699567e-10  -3.4599212e-02   4.4206682e-01   2.9937715e-02  -4.2876737e+07
   9.8966322e-10  -3.4485054e-02   4.4023526e-01   3.0079699e-02  -4.2713730e+07
   9.9233078e-10  -3.4371330e-02   4.3841762e-01   3.0221773e-02  -4.2551562e+07
   9.9499833e-10  -3.4258037e-02   4.3661376e-01   3.0363935e-02  -4.2390227e+07
   9.9766589e-10  -3.4145173e-02   4.3482354e-01   3.0506183e-02  -4.2229719e+07
   1.0003334e-09  -3.4032737e-02   4.3304683e-01   3.0648516e-02  -4.2070031e+07
   1.0030010e-09  -3.3920725e-02   4.3128350e-01   3.0790931e-02  -4.1911156e+07
   1.0056686e-09  -3.3809136e-02   4.2953341e-01   3.0933428e-02  -4.1753089e+07
   1.0083361e-09  -3.3697968e-02   4.2779645e-01   3.1076005e-02  -4.1595824e+07
   1.0110037e-09  -3.3587218e-02   4.2607248e-01   3.1218659e-02  -4.1439354e+07
   1.0136712e-09  -3.3476884e-02   4.2436138e-01   3.1361390e-02  -4.1283673e+07
   1.0163388e-09  -3.3366965e-02   4.2266302e-01   3.1504196e-02  -4.1128776e+07
   1.0190063e-09  -3.3257457e-02   4.2097729e-01   3.1647074e-02  -4.0974656e+07
   1.0216739e-09  -3.3148360e-02   4.1930405e-01   3.1790024e-02  -4.0821307e+07
   1.0243414e-09  -3.3039671e-02   4.1764319e-01   3.1933044e-02  -4.0668724e+07
   1.0270090e-09  -3.2931388e-02   4.1599459e-01   3.2076132e-02  -4.0516901e+07
   1.0296766e-09  -3.2823509e-02   4.1435813e-01   3.2219287e-02  -4.0365832e+07
   1.0323441e-09  -3.2716032e-02   4.1273371e-01   3.2362506e-02  -4.0215511e+07
   1.0350117e-09  -3.2608954e-02   4.1112120e-01   3.2505789e-02  -4.0065934e+07
   1.0376792e-09  -3.2502275e-02   4.0952049e-01   3.2649134e-02  -3.9917095e+07
   1.0403468e-09  -3.2395992e-02   4.0793147e-01   3.2792539e-02  -3.9768987e+07
   1.0430143e-09  -3.2290103e-02   4.0635402e-01   3.2936003e-02  -3.9621607e+07
   1.0456819e-09  -3.2184606e-02   4.0478805e-01   3.3079523e-02  -3.9474948e+07
   1.0483494e-09  -3.2079500e-02   4.0323344e-01   3.3223099e-02  -3.9329005e+07
   1.0510170e-09  -3.1974782e-02   4.0169009e-01   3.3366729e-02  -3.9183773e+07
   1.0536846e-09  -3.1870450e-02   4.0015789e-01   3.3510411e-02  -3.9039246e+07
   1.0563521e-09  -3.1766503e-02   3.9863673e-01   3.3654144e-02  -3.8895421e+07
   1.0590197e-09  -3.1662938e-02   3.9712652e-01   3.3797926e-02  -3.8752291e+07
   1.0616872e-09  -3.1559755e-02   3.9562715e-01   3.3941755e-02  -3.8609852e+07
   1.0643548e-09  -3.1456950e-02   3.9413852e-01   3.4085631e-02  -3.8468098e+07
   1.0670223e-09  -3.1354523e-02   3.9266053e-01   3.4229551e-02  -3.8327025e+07
   1.0696899e-09  -3.1252471e-02   3.9119308e-01   3.4373514e-02  -3.8186628e+07
   1.0723575e-09  -3.1150793e-02   3.8973609e-01   3.4517518e-02  -3.8046902e+07
   1.0750250e-09  -3.1049487e-02   3.8828944e-01   3.4661562e-02  -3.7907843e+07
   1.0776926e-09  -3.0948550e-02   3.8685304e-01   3.4805645e-02  -3.7769445e+07
   1.0803601e-09  -3.0847982e-02   3.8542681e-01   3.4949765e-02  -3.7631704e+07
   1.0830277e-09  -3.0747781e-02   3.8401065e-01   3.5093919e-02  -3.7494615e+07
   1.0856952e-09  -3.0647944e-02   3.8260446e-01   3.5238108e-02  -3.7358175e+07
   1.0883628e-09  -3.0548471e-02   3.8120815e-01   3.5382329e-02  -3.7222377e+07
   1.0910303e-09  -3.0449359e-02   3.7982165e-01   3.5526581e-02  -3.7087218e+07
   1.0936979e-09  -3.0350606e-02   3.7844485e-01   3.5670862e-02  -3.6952694e+07
   1.0963655e-09  -3.0252212e-02   3.7707767e-01   3.5815171e-02  -3.6818800e+07
   1.0990330e-09  -3.0154174e-02   3.7572002e-01   3.5959506e-02  -3.6685531e+07
   1.1017006e-09  -3.0056490e-02   3.7437182e-01   3.6103866e-02  -3.6552884e+07
   1.1043681e-09  -2.9959160e-02   3.7303298e-01   3.6248250e-02  -3.6420853e+07
   1.1070357e-09  -2.9862181e-02   3.7170341e-01   3.6392655e-02  -3.6289436e+07
   1.1097032e-09  -2.9765551e-02   3.7038305e-01   3.6537081e-02  -3.6158627e+07
   1.1123708e-09  -2.9669270e-02   3.6907179e-01   3.6681526e-02  -3.6028422e+07
   1.1150383e-09  -2.9573335e-02   3.6776957e-01   3.6825988e-02  -3.5898819e+07
   1.1177059e-09  -2.9477746e-02   3.6647629e-01   3.6970466e-02  -3.5769811e+07
   1.1203735e-09  -2.9382499e-02   3.6519189e-01   3.7114959e-02  -3.5641396e+07
   1.1230410e-09  -2.9287595e-02   3.6391628e-01   3.7259465e-02  -3.5513569e+07
   1.1257086e-09  -2.9193030e-02   3.6264939e-01   3.7403983e-02  -3.5386327e+07
   1.1283761e-09  -2.9098805e-02   3.6139113e-01   3.7548512e-02  -3.5259665e+07
   1.1310437e-09  -2.9004916e-02   3.6014144e-01   3.7693049e-02  -3.5133580e+07
   1.1337112e-09  -2.8911363e-02   3.5890023e-01   3.7837594e-02  -3.5008067e+07
   1.1363788e-09  -2.8818144e-02   3.5766743e-01   3.7982144e-02  -3.4883124e+07
   1.1390463e-09  -2.8725257e-02   3.5644298e-01   3.8126700e-02  -3.4758746e+07
   1.1417139e-09  -2.8632702e-02   3.5522679e-01   3.8271259e-02  -3.4634929e+07
   1.1443815e-09  -2.8540476e-02   3.5401879e-01   3.8415819e-02  -3.4511671e+07
   1.1470490e-09  -2.8448578e-02   3.5281892e-01   3.8560380e-02  -3.4388966e+07
   1.1497166e-09  -2.8357007e-02   3.5162710e-01   3.8704940e-02  -3.4266812e+07
   1.1523841e-09  -2.8265760e-02   3.5044326e-01   3.8849498e-02  -3.4145205e+07
   1.1550517e-09  -2.8174838e-02   3.4926733e-01   3.8994052e-02  -3.4024142e+07
   1.1577192e-09  -2.8084238e-02   3.4809926e-01   3.9138601e-02  -3.3903619e+07
   1.1603868e-09  -2.7993958e-02   3.4693895e-01   3.9283144e-02  -3.3783632e+07
   1.1630544e-09  -2.7903998e-02   3.4578636e-01   3.9427679e-02  -3.3664178e+07
   1.1657219e-09  -2.7814356e-02   3.4464142e-01   3.9572204e-02  -3.3545253e+07
   1.1683895e-09  -2.7725030e-02   3.4350405e-01   3.9716719e-02  -3.3426855e+07
   1.1710570e-09  -2.7636019e-02   3.4237420e-01   3.9861223e-02  -3.3308980e+07
   1.1737246e-09  -2.7547323e-02   3.4125179e-01   4.0005713e-02  -3.3191624e+07
   1.1763921e-09  -2.7458938e-02   3.4013678e-01   4.0150189e-02  -3.3074784e+07
   1.1790597e-09  -2.7370865e-02   3.3902909e-01   4.0294649e-02  -3.2958457e+07
   1.1817272e-09  -2.7283101e-02   3.3792866e-01   4.0439091e-02  -3.2842640e+07
   1.1843948e-09  -2.7195645e-02   3.3683543e-01   4.0583516e-02  -3.2727330e+07
   1.1870624e-09  -2.7108497e-02   3.3574935e-01   4.0727920e-02  -3.2612522e+07
   1.1897299e-09  -2.7021654e-02   3.3467034e-01   4.0872303e-02  -3.2498215e+07
   1.1923975e-09  -2.6935115e-02   3.3359836e-01   4.1016664e-02  -3.2384405e+07
   1.1950650e-09  -2.6848879e-02   3.3253333e-01   4.1161002e-02  -3.2271089e+07
   1.1977326e-09  -2.6762945e-02   3.3147521e-01   4.1305314e-02  -3.2158264e+07
   1.2004001e-09  -2.6677311e-02   3.3042394e-01   4.1449600e-02  -3.2045926e+07
   1.2030677e-09  -2.6591976e-02   3.2937945e-01   4.1593858e-02  -3.1934074e+07
   1.2057352e-09  -2.6506939e-02   3.2834169e-01   4.1738088e-02  -3.1822703e+07
   1.2084028e-09  -2.6422198e-02   3.2731062e-01   4.1882287e-02  -3.1711811e+07
   1.2110704e-09  -2.6337752e-02   3.2628616e-01   4.2026455e-02  -3.1601395e+07
   1.2137379e-09  -2.6253601e-02   3.2526827e-01   4.2170591e-02  -3.1491453e+07
   1.2164055e-09  -2.6169742e-02   3.2425689e-01   4.2314692e-02  -3.1381980e+07
   1.2190730e-09  -2.6086174e-02   3.2325197e-01   4.2458758e-02  -3.1272974e+07
   1.2217406e-09  -2.6002897e-02   3.2225345e-01   4.2602788e-02  -3.1164433e+07
   1.2244081e-09  -2.5919908e-02   3.2126129e-01   4.2746781e-02  -3.1056354e+07
   1.2270757e-09  -2.5837207e-02   3.2027542e-01   4.2890734e-02  -3.0948734e+07
   1.2297432e-09  -2.5754793e-02   3.1929581e-01   4.3034648e-02  -3.0841570e+07
   1.2324108e-09  -2.5672664e-02   3.1832239e-01   4.3178520e-02  -3.0734859e+07
   1.2350784e-09  -2.5590819e-02   3.1735512e-01   4.3322350e-02  -3.0628598e+07
   1.2377459e-09  -2.5509257e-02   3.1639395e-01   4.3466136e-02  -3.0522786e+07
   1.2404135e-09  -2.5427976e-02   3.1543883e-01   4.3609877e-02  -3.0417419e+07
   1.2430810e-09  -2.5346976e-02   3.1448970e-01   4.3753571e-02  -3.0312495e+07
   1.2457486e-09  -2.5266255e-02   3.1354653e-01   4.3897219e-02  -3.0208011e+07
   1.2484161e-09  -2.5185813e-02   3.1260926e-01   4.4040818e-02  -3.0103964e+07
   1.2510837e-09  -2.5105647e-02   3.1167784e-01   4.4184367e-02  -3.0000352e+07
   1.2537513e-09  -2.5025757e-02   3.1075223e-01   4.4327866e-02  -2.9897173e+07
   1.2564188e-09  -2.4946142e-02   3.0983238e-01   4.4471312e-02  -2.9794423e+07
   1.2590864e-09  -2.4866800e-02   3.0891825e-01   4.4614705e-02  -2.9692101e+07
   1.2617539e-09  -2.4787731e-02   3.0800979e-01   4.4758044e-02  -2.9590203e+07
   1.2644215e-09  -2.4708933e-02   3.0710695e-01   4.4901327e-02  -2.9488728e+07
   1.2670890e-09  -2.4630405e-02   3.0620969e-01   4.5044554e-02  -2.9387673e+07
   1.2697566e-09  -2.4552146e-02   3.0531797e-01   4.5187722e-02  -2.9287035e+07
   1.2724241e-09  -2.4474155e-02   3.0443173e-01   4.5330832e-02  -2.9186812e+07
   1.2750917e-09  -2.4396431e-02   3.0355095e-01   4.5473882e-02  -2.9087002e+07
   1.2777593e-09  -2.4318973e-02   3.0267557e-01   4.5616870e-02  -2.8987602e+07
   1.2804268e-09  -2.4241779e-02   3.0180555e-01   4.5759796e-02  -2.8888610e+07
   1.2830944e-09  -2.4164849e-02   3.0094085e-01   4.5902658e-02  -2.8790024e+07
   1.2857619e-09  -2.4088181e-02   3.0008143e-01   4.6045456e-02  -2.8691841e+07
   1.2884295e-09  -2.4011774e-02   2.9922724e-01   4.6188188e-02  -2.8594059e+07
   1.2910970e-09  -2.3935628e-02   2.9837825e-01   4.6330854e-02  -2.8496676e+07
   1.2937646e-09  -2.3859741e-02   2.9753442e-01   4.6473451e-02  -2.8399689e+07
   1.2964321e-09  -2.3784112e-02   2.9669570e-01   4.6615980e-02  -2.8303097e+07
   1.2990997e-09  -2.3708741e-02   2.9586206e-01   4.6758438e-02  -2.8206896e+07
   1.3017673e-09  -2.3633625e-02   2.9503345e-01   4.6900825e-02  -2.8111086e+07
   1.3044348e-09  -2.3558765e-02   2.9420984e-01   4.7043140e-02  -2.8015663e+07
   1.3071024e-09  -2.3484158e-02   2.9339118e-01   4.7185382e-02  -2.7920625e+07
   1.3097699e-09  -2.3409805e-02   2.9257745e-01   4.7327549e-02  -2.7825972e+07
   1.3124375e-09  -2.3335703e-02   2.9176860e-01   4.7469641e-02  -2.7731699e+07
   1.3151050e-09  -2.3261853e-02   2.9096459e-01   4.7611657e-02  -2.7637805e+07
   1.3177726e-09  -2.3188252e-02   2.9016539e-01   4.7753594e-02  -2.7544289e+07
   1.3204401e-09  -2.3114901e-02   2.8937096e-01   4.7895454e-02  -2.7451147e+07
   1.3231077e-09  -2.3041797e-02   2.8858126e-01   4.8037233e-02  -2.7358378e+07
   1.3257753e-09  -2.2968940e-02   2.8779626e-01   4.8178932e-02  -2.7265980e+07
   1.3284428e-09  -2.2896330e-02   2.8701592e-01   4.8320550e-02  -2.7173951e+07
   1.3311104e-09  -2.2823964e-02   2.8624020e-01   4.8462084e-02  -2.7082289e+07
   1.3337779e-09  -2.2751842e-02   2.8546908e-01   4.8603535e-02  -2.6990991e+07
   1.3364455e-09  -2.2679964e-02   2.8470251e-01   4.8744901e-02  -2.6900057e+07
   1.3391130e-09  -2.2608327e-02   2.8394046e-01   4.8886182e-02  -2.6809483e+07
   1.3417806e-09  -2.2536932e-02   2.8318290e-01   4.9027376e-02  -2.6719268e+07
   1.3444481e-09  -2.2465777e-02   2.8242980e-01   4.9168482e-02  -2.6629410e+07
   1.3471157e-09  -2.2394861e-02   2.8168111e-01   4.9309499e-02  -2.6539907e+07
   1.3497833e-09  -2.2324183e-02   2.8093681e-01   4.9450427e-02  -2.6450757e+07
   1.3524508e-09  -2.2253743e-02   2.8019687e-01   4.9591264e-02  -2.6361959e+07
   1.3551184e-09  -2.2183539e-02   2.7946124e-01   4.9732009e-02  -2.6273510e+07
   1.3577859e-09  -2.2113571e-02   2.7872991e-01   4.9872662e-02  -2.6185408e+07
   1.3604535e-09  -2.2043837e-02   2.7800283e-01   5.0013221e-02  -2.6097652e+07
   1.3631210e-09  -2.1974336e-02   2.7727997e-01   5.0153686e-02  -2.6010240e+07
   1.3657886e-09  -2.1905069e-02   2.7656131e-01   5.0294055e-02  -2.5923170e+07
   1.3684562e-09  -2.1836033e-02   2.7584681e-01   5.0434328e-02  -2.5836440e+07
   1.3711237e-09  -2.1767228e-02   2.7513644e-01   5.0574503e-02  -2.5750048e+07
   1.3737913e-09  -2.1698654e-02   2.7443018e-01   5.0714580e-02  -2.5663993e+07
   1.3764588e-09  -2.1630308e-02   2.7372798e-01   5.0854558e-02  -2.5578273e+07
   1.3791264e-09  -2.1562190e-02   2.7302983e-01   5.0994436e-02  -2.5492887e+07
   1.3817939e-09  -2.1494300e-02   2.7233568e-01   5.1134212e-02  -2.5407831e+07
   1.3844615e-09  -2.1426637e-02   2.7164552e-01   5.1273887e-02  -2.5323105e+07
   1.3871290e-09  -2.1359198e-02   2.7095931e-01   5.1413459e-02  -2.5238707e+07
   1.3897966e-09  -2.1291985e-02   2.7027702e-01   5.1552927e-02  -2.5154635e+07
   1.3924642e-09  -2.1224995e-02   2.6959863e-01   5.1692290e-02  -2.5070888e+07
   1.3951317e-09  -2.1158229e-02   2.6892410e-01   5.1831548e-02  -2.4987464e+07
   1.3977993e-09  -2.1091684e-02   2.6825341e-01   5.1970699e-02  -2.4904361e+07
   1.4004668e-09  -2.1025361e-02   2.6758654e-01   5.2109743e-02  -2.4821578e+07
   1.4031344e-09  -2.0959258e-02   2.6692344e-01   5.2248679e-02  -2.4739112e+07
   1.4058019e-09  -2.0893375e-02   2.6626410e-01   5.2387505e-02  -2.4656963e+07
   1.4084695e-09  -2.0827710e-02   2.6560849e-01   5.2526222e-02  -2.4575128e+07
   1.4111370e-09  -2.0762264e-02   2.6495658e-01   5.2664828e-02  -2.4493607e+07
   1.4138046e-09  -2.0697034e-02   2.6430834e-01   5.2803322e-02  -2.4412397e+07
   1.4164722e-09  -2.0632020e-02   2.6366375e-01   5.2941703e-02  -2.4331497e+07
   1.4191397e-09  -2.0567222e-02   2.6302278e-01   5.3079972e-02  -2.4250905e+07
   1.4218073e-09  -2.0502639e-02   2.6238541e-01   5.3218126e-02  -2.4170620e+07
   1.4244748e-09  -2.0438269e-02   2.6175161e-01   5.3356165e-02  -2.4090640e+07
   1.4271424e-09  -2.0374112e-02   2.6112135e-01   5.3494088e-02  -2.4010964e+07
   1.4298099e-09  -2.0310168e-02   2.6049461e-01   5.3631894e-02  -2.3931590e+07
   1.4324775e-09  -2.0246435e-02   2.5987136e-01   5.3769583e-02  -2.3852517e+07
   1.4351450e-09  -2.0182912e-02   2.5925159e-01   5.3907153e-02  -2.3773743e+07
   1.4378126e-09  -2.0119599e-02   2.5863526e-01   5.4044605e-02  -2.3695267e+07
   1.4404802e-09  -2.0056495e-02   2.5802235e-01   5.4181936e-02  -2.3617087e+07
   1.4431477e-09  -1.9993599e-02   2.5741283e-01   5.4319147e-02  -2.3539202e+07
   1.4458153e-09  -1.9930910e-02   2.5680669e-01   5.4456236e-02  -2.3461610e+07
   1.4484828e-09  -1.9868428e-02   2.5620390e-01   5.4593203e-02  -2.3384310e+07
   1.4511504e-09  -1.9806152e-02   2.5560443e-01   5.4730047e-02  -2.3307300e+07
   1.4538179e-09  -1.9744081e-02   2.5500826e-01   5.4866767e-02  -2.3230579e+07
   1.4564855e-09  -1.9682214e-02   2.5441537e-01   5.5003362e-02  -2.3154146e+07
   1.4591531e-09  -1.9620551e-02   2.5382573e-01   5.5139832e-02  -2.3077999e+07
   1.4618206e-09  -1.9559090e-02   2.5323933e-01   5.5276175e-02  -2.3002136e+07
   1.4644882e-09  -1.9497832e-02   2.5265614e-01   5.5412392e-02  -2.2926557e+07
   1.4671557e-09  -1.9436774e-02   2.5207614e-01   5.5548481e-02  -2.2851260e+07
   1.4698233e-09  -1.9375917e-02   2.5149930e-01   5.5684441e-02  -2.2776244e+07
   1.4724908e-09  -1.9315260e-02   2.5092560e-01   5.5820273e-02  -2.2701506e+07
   1.4751584e-09  -1.9254802e-02   2.5035503e-01   5.5955974e-02  -2.2627047e+07
   1.4778259e-09  -1.9194542e-02   2.4978755e-01   5.6091545e-02  -2.2552864e+07
   1.4804935e-09  -1.9134480e-02   2.4922316e-01   5.6226984e-02  -2.2478957e+07
   1.4831611e-09  -1.9074614e-02   2.4866182e-01   5.6362292e-02  -2.2405323e+07
   1.4858286e-09  -1.9014945e-02   2.4810352e-01   5.6497466e-02  -2.2331962e+07
   1.4884962e-09  -1.8955470e-02   2.4754823e-01   5.6632507e-02  -2.2258872e+07
   1.4911637e-09  -1.8896191e-02   2.4699594e-01   5.6767414e-02  -2.2186052e+07
   1.4938313e-09  -1.8837105e-02   2.4644662e-01   5.6902186e-02  -2.2113501e+07
   1.4964988e-09  -1.8778213e-02   2.4590026e-01   5.7036822e-02  -2.2041217e+07
   1.4991664e-09  -1.8719513e-02   2.4535683e-01   5.7171322e-02  -2.1969200e+07
   1.5018339e-09  -1.8661004e-02   2.4481631e-01   5.7305684e-02  -2.1897447e+07
   1.5045015e-09  -1.8602687e-02   2.4427869e-01   5.7439910e-02  -2.1825958e+07
   1.5071691e-09  -1.8544560e-02   2.4374395e-01   5.7573996e-02  -2.1754732e+07
   1.5098366e-09  -1.8486623e-02   2.4321205e-01   5.7707944e-02  -2.1683766e+07
   1.5125042e-09  -1.8428875e-02   2.4268300e-01   5.7841752e-02  -2.1613061e+07
   1.5151717e-09  -1.8371315e-02   2.4215675e-01   5.7975420e-02  -2.1542614e+07
   1.5178393e-09  -1.8313942e-02   2.4163331e-01   5.8108947e-02  -2.1472424e+07
   1.5205068e-09  -1.8256757e-02   2.4111264e-01   5.8242332e-02  -2.1402491e+07
   1.5231744e-09  -1.8199757e-02   2.4059474e-01   5.8375574e-02  -2.1332813e+07
   1.5258419e-09  -1.8142944e-02   2.4007957e-01   5.8508674e-02  -2.1263389e+07
   1.5285095e-09  -1.8086315e-02   2.3956713e-01   5.8641630e-02  -2.1194218e+07
   1.5311771e-09  -1.8029870e-02   2.3905739e-01   5.8774442e-02  -2.1125298e+07
   1.5338446e-09  -1.7973609e-02   2.3855034e-01   5.8907109e-02  -2.1056629e+07
   1.5365122e-09  -1.7917530e-02   2.3804596e-01   5.9039631e-02  -2.0988209e+07
   1.5391797e-09  -1.7861634e-02   2.3754423e-01   5.9172006e-02  -2.0920037e+07
   1.5418473e-09  -1.7805919e-02   2.3704513e-01   5.9304235e-02  -2.0852112e+07
   1.5445148e-09  -1.7750385e-02   2.3654864e-01   5.9436316e-02  -2.0784432e+07
   1.5471824e-09  -1.7695032e-02   2.3605476e-01   5.9568250e-02  -2.0716998e+07
   1.5498499e-09  -1.7639858e-02   2.3556345e-01   5.9700035e-02  -2.0649807e+07
   1.5525175e-09  -1.7584863e-02   2.3507471e-01   5.9831671e-02  -2.0582858e+07
   1.5551851e-09  -1.7530046e-02   2.3458852e-01   5.9963157e-02  -2.0516151e+07
   1.5578526e-09  -1.7475406e-02   2.3410486e-01   6.0094493e-02  -2.0449684e+07
   1.5605202e-09  -1.7420944e-02   2.3362371e-01   6.0225678e-02  -2.0383456e+07
   1.5631877e-09  -1.7366658e-02   2.3314505e-01   6.0356711e-02  -2.0317467e+07
   1.5658553e-09  -1.7312548e-02   2.3266888e-01   6.0487593e-02  -2.0251714e+07
   1.5685228e-09  -1.7258613e-02   2.3219517e-01   6.0618322e-02  -2.0186197e+07
   1.5711904e-09  -1.7204852e-02   2.3172392e-01   6.0748897e-02  -2.0120915e+07
   1.5738580e-09  -1.7151265e-02   2.3125509e-01   6.0879320e-02  -2.0055867e+07
   1.5765255e-09  -1.7097852e-02   2.3078868e-01   6.1009587e-02  -1.9991052e+07
   1.5791931e-09  -1.7044611e-02   2.3032467e-01   6.1139700e-02  -1.9926468e+07
   1.5818606e-09  -1.6991542e-02   2.2986304e-01   6.1269658e-02  -1.9862115e+07
   1.5845282e-09  -1.6938644e-02   2.2940379e-01   6.1399460e-02  -1.9797992e+07
   1.5871957e-09  -1.6885917e-02   2.2894689e-01   6.1529105e-02  -1.9734097e+07
   1.5898633e-09  -1.6833360e-02   2.2849233e-01   6.1658594e-02  -1.9670430e+07
   1.5925308e-09  -1.6780973e-02   2.2804009e-01   6.1787925e-02  -1.9606989e+07
   1.5951984e-09  -1.6728754e-02   2.2759016e-01   6.1917098e-02  -1.9543774e+07
   1.5978660e-09  -1.6676704e-02   2.2714252e-01   6.2046113e-02  -1.9480784e+07
   1.6005335e-09  -1.6624822e-02   2.2669717e-01   6.2174968e-02  -1.9418017e+07
   1.6032011e-09  -1.6573107e-02   2.2625408e-01   6.2303664e-02  -1.9355473e+07
   1.6058686e-09  -1.6521558e-02   2.2581324e-01   6.2432200e-02  -1.9293151e+07
   1.6085362e-09  -1.6470176e-02   2.2537463e-01   6.2560576e-02  -1.9231049e+07
   1.6112037e-09  -1.6418958e-02   2.2493825e-01   6.2688790e-02  -1.9169167e+07
   1.6138713e-09  -1.6367906e-02   2.2450408e-01   6.2816843e-02  -1.9107504e+07
   1.6165388e-09  -1.6317017e-02   2.2407209e-01   6.2944734e-02  -1.9046058e+07
   1.6192064e-09  -1.6266293e-02   2.2364229e-01   6.3072463e-02  -1.8984829e+07
   1.6218740e-09  -1.6215731e-02   2.2321465e-01   6.3200028e-02  -1.8923816e+07
   1.6245415e-09  -1.6165332e-02   2.2278917e-01   6.3327431e-02  -1.8863018e+07
   1.6272091e-09  -1.6115095e-02   2.2236582e-01   6.3454669e-02  -1.8802434e+07
   1.6298766e-09  -1.6065019e-02   2.2194460e-01   6.3581743e-02  -1.8742063e+07
   1.6325442e-09  -1.6015103e-02   2.2152549e-01   6.3708652e-02  -1.8681904e+07
   1.6352117e-09  -1.5965348e-02   2.2110847e-01   6.3835396e-02  -1.8621957e+07
   1.6378793e-09  -1.5915753e-02   2.2069354e-01   6.3961975e-02  -1.8562220e+07
   1.6405468e-09  -1.5866317e-02   2.2028069e-01   6.4088387e-02  -1.8502692e+07
   1.6432144e-09  -1.5817039e-02   2.1986989e-01   6.4214632e-02  -1.8443373e+07
   1.6458820e-09  -1.5767919e-02   2.1946113e-01   6.4340711e-02  -1.8384261e+07
   1.6485495e-09  -1.5718957e-02   2.1905442e-01   6.4466622e-02  -1.8325356e+07
   1.6512171e-09  -1.5670151e-02   2.1864972e-01   6.4592366e-02  -1.8266657e+07
   1.6538846e-09  -1.5621502e-02   2.1824702e-01   6.4717941e-02  -1.8208163e+07
   1.6565522e-09  -1.5573008e-02   2.1784633e-01   6.4843347e-02  -1.8149873e+07
   1.6592197e-09  -1.5524670e-02   2.1744761e-01   6.4968584e-02  -1.8091786e+07
   1.6618873e-09  -1.5476486e-02   2.1705087e-01   6.5093652e-02  -1.8033902e+07
   1.6645549e-09  -1.5428457e-02   2.1665608e-01   6.5218550e-02  -1.7976219e+07
   1.6672224e-09  -1.5380581e-02   2.1626324e-01   6.5343277e-02  -1.7918736e+07
   1.6698900e-09  -1.5332858e-02   2.1587234e-01   6.5467834e-02  -1.7861454e+07
   1.6725575e-09  -1.5285288e-02   2.1548336e-01   6.5592219e-02  -1.7804370e+07
   1.6752251e-09  -1.5237870e-02   2.1509628e-01   6.5716433e-02  -1.7747485e+07
   1.6778926e-09  -1.5190603e-02   2.1471111e-01   6.5840475e-02  -1.7690797e+07
   1.6805602e-09  -1.5143487e-02   2.1432782e-01   6.5964345e-02  -1.7634305e+07
   1.6832277e-09  -1.5096522e-02   2.1394641e-01   6.6088043e-02  -1.7578009e+07
   1.6858953e-09  -1.5049707e-02   2.1356686e-01   6.6211567e-02  -1.7521908e+07
   1.6885629e-09  -1.5003041e-02   2.1318917e-01   6.6334918e-02  -1.7466001e+07
   1.6912304e-09  -1.4956523e-02   2.1281331e-01   6.6458095e-02  -1.7410287e+07
   1.6938980e-09  -1.4910155e-02   2.1243929e-01   6.6581098e-02  -1.7354765e+07
   1.6965655e-09  -1.4863934e-02   2.1206708e-01   6.6703926e-02  -1.7299435e+07
   1.6992331e-09  -1.4817860e-02   2.1169668e-01   6.6826580e-02  -1.7244296e+07
   1.7019006e-09  -1.4771933e-02   2.1132808e-01   6.6949058e-02  -1.7189346e+07
   1.7045682e-09  -1.4726153e-02   2.1096127e-01   6.7071361e-02  -1.7134586e+07
   1.7072357e-09  -1.4680518e-02   2.1059623e-01   6.7193488e-02  -1.7080014e+07
   1.7099033e-09  -1.4635029e-02   2.1023295e-01   6.7315439e-02  -1.7025630e+07
   1.7125709e-09  -1.4589684e-02   2.0987143e-01   6.7437213e-02  -1.6971433e+07
   1.7152384e-09  -1.4544484e-02   2.0951165e-01   6.7558811e-02  -1.6917422e+07
   1.7179060e-09  -1.4499428e-02   2.0915360e-01   6.7680231e-02  -1.6863596e+07
   1.7205735e-09  -1.4454515e-02   2.0879727e-01   6.7801474e-02  -1.6809955e+07
   1.7232411e-09  -1.4409745e-02   2.0844266e-01   6.7922539e-02  -1.6756498e+07
   1.7259086e-09  -1.4365117e-02   2.0808975e-01   6.8043426e-02  -1.6703223e+07
   1.7285762e-09  -1.4320631e-02   2.0773853e-01   6.8164134e-02  -1.6650131e+07
   1.7312437e-09  -1.4276286e-02   2.0738899e-01   6.8284664e-02  -1.6597221e+07
   1.7339113e-09  -1.4232083e-02   2.0704112e-01   6.8405014e-02  -1.6544491e+07
   1.7365789e-09  -1.4188020e-02   2.0669491e-01   6.8525186e-02  -1.6491942e+07
   1.7392464e-09  -1.4144096e-02   2.0635036e-01   6.8645177e-02  -1.6439572e+07
   1.7419140e-09  -1.4100312e-02   2.0600744e-01   6.8764989e-02  -1.6387380e+07
   1.7445815e-09  -1.4056668e-02   2.0566616e-01   6.8884620e-02  -1.6335366e+07
   1.7472491e-09  -1.4013161e-02   2.0532650e-01   6.9004071e-02  -1.6283530e+07
   1.7499166e-09  -1.3969793e-02   2.0498845e-01   6.9123342e-02  -1.6231870e+07
   1.7525842e-09  -1.3926562e-02   2.0465201e-01   6.9242431e-02  -1.6180386e+07
   1.7552518e-09  -1.3883469e-02   2.0431716e-01   6.9361339e-02  -1.6129076e+07
   1.7579193e-09  -1.3840512e-02   2.0398389e-01   6.9480065e-02  -1.6077942e+07
   1.7605869e-09  -1.3797691e-02   2.0365220e-01   6.9598609e-02  -1.6026980e+07
   1.7632544e-09  -1.3755006e-02   2.0332207e-01   6.9716972e-02  -1.5976192e+07
   1.7659220e-09  -1.3712456e-02   2.0299350e-01   6.9835152e-02  -1.5925576e+07
   1.7685895e-09  -1.3670041e-02   2.0266648e-01   6.9953149e-02  -1.5875132e+07
   1.7712571e-09  -1.3627760e-02   2.0234099e-01   7.0070963e-02  -1.5824858e+07
   1.7739246e-09  -1.3585613e-02   2.0201704e-01   7.0188595e-02  -1.5774755e+07
   1.7765922e-09  -1.3543600e-02   2.0169460e-01   7.0306043e-02  -1.5724821e+07
   1.7792598e-09  -1.3501720e-02   2.0137368e-01   7.0423307e-02  -1.5675056e+07
   1.7819273e-09  -1.3459972e-02   2.0105425e-01   7.0540388e-02  -1.5625459e+07
   1.7845949e-09  -1.3418356e-02   2.0073633e-01   7.0657284e-02  -1.5576030e+07
   1.7872624e-09  -1.3376872e-02   2.0041988e-01   7.0773997e-02  -1.5526767e+07
   1.7899300e-09  -1.3335519e-02   2.0010492e-01   7.0890524e-02  -1.5477671e+07
   1.7925975e-09  -1.3294296e-02   1.9979142e-01   7.1006867e-02  -1.5428740e+07
   1.7952651e-09  -1.3253204e-02   1.9947938e-01   7.1123026e-02  -1.5379974e+07
   1.7979326e-09  -1.3212242e-02   1.9916880e-01   7.1238998e-02  -1.5331372e+07
   1.8006002e-09  -1.3171410e-02   1.9885965e-01   7.1354786e-02  -1.5282934e+07
   1.8032678e-09  -1.3130706e-02   1.9855194e-01   7.1470388e-02  -1.5234659e+07
   1.8059353e-09  -1.3090131e-02   1.9824566e-01   7.1585804e-02  -1.5186546e+07
   1.8086029e-09  -1.3049684e-02   1.9794079e-01   7.1701034e-02  -1.5138595e+07
   1.8112704e-09  -1.3009365e-02   1.9763734e-01   7.1816079e-02  -1.5090804e+07
   1.8139380e-09  -1.2969173e-02   1.9733528e-01   7.1930936e-02  -1.5043175e+07
   1.8166055e-09  -1.2929108e-02   1.9703462e-01   7.2045607e-02  -1.4995704e+07
   1.8192731e-09  -1.2889169e-02   1.9673535e-01   7.2160092e-02  -1.4948393e+07
   1.8219406e-09  -1.2849356e-02   1.9643745e-01   7.2274389e-02  -1.4901241e+07
   1.8246082e-09  -1.2809669e-02   1.9614093e-01   7.2388500e-02  -1.4854246e+07
   1.8272758e-09  -1.2770107e-02   1.9584577e-01   7.2502423e-02  -1.4807409e+07
   1.8299433e-09  -1.2730670e-02   1.9555196e-01   7.2616158e-02  -1.4760728e+07
   1.8326109e-09  -1.2691357e-02   1.9525949e-01   7.2729706e-02  -1.4714204e+07
   1.8352784e-09  -1.2652168e-02   1.9496837e-01   7.2843067e-02  -1.4667835e+07
   1.8379460e-09  -1.2613102e-02   1.9467858e-01   7.2956239e-02  -1.4621620e+07
   1.8406135e-09  -1.2574159e-02   1.9439011e-01   7.3069223e-02  -1.4575560e+07
   1.8432811e-09  -1.2535340e-02   1.9410296e-01   7.3182019e-02  -1.4529654e+07
   1.8459486e-09  -1.2496642e-02   1.9381712e-01   7.3294626e-02  -1.4483901e+07
   1.8486162e-09  -1.2458066e-02   1.9353258e-01   7.3407045e-02  -1.4438300e+07
   1.8512838e-09  -1.2419612e-02   1.9324934e-01   7.3519276e-02  -1.4392851e+07
   1.8539513e-09  -1.2381279e-02   1.9296738e-01   7.3631317e-02  -1.4347554e+07
   1.8566189e-09  -1.2343066e-02   1.9268671e-01   7.3743169e-02  -1.4302407e+07
   1.8592864e-09  -1.2304974e-02   1.9240730e-01   7.3854832e-02  -1.4257410e+07
   1.8619540e-09  -1.2267001e-02   1.9212916e-01   7.3966306e-02  -1.4212563e+07
   1.8646215e-09  -1.2229148e-02   1.9185229e-01   7.4077591e-02  -1.4167865e+07
   1.8672891e-09  -1.2191414e-02   1.9157666e-01   7.4188686e-02  -1.4123316e+07
   1.8699567e-09  -1.2153798e-02   1.9130228e-01   7.4299591e-02  -1.4078914e+07
   1.8726242e-09  -1.2116301e-02   1.9102913e-01   7.4410307e-02  -1.4034659e+07
   1.8752918e-09  -1.2078922e-02   1.9075722e-01   7.4520833e-02  -1.3990552e+07
   1.8779593e-09  -1.2041660e-02   1.9048653e-01   7.4631168e-02  -1.3946590e+07
   1.8806269e-09  -1.2004515e-02   1.9021706e-01   7.4741314e-02  -1.3902774e+07
   1.8832944e-09  -1.1967487e-02   1.8994879e-01   7.4851269e-02  -1.3859103e+07
   1.8859620e-09  -1.1930575e-02   1.8968174e-01   7.4961034e-02  -1.3815577e+07
   1.8886295e-09  -1.1893779e-02   1.8941588e-01   7.5070609e-02  -1.3772195e+07
   1.8912971e-09  -1.1857099e-02   1.8915121e-01   7.5179992e-02  -1.3728956e+07
   1.8939647e-09  -1.1820533e-02   1.8888772e-01   7.5289186e-02  -1.3685860e+07
   1.8966322e-09  -1.1784083e-02   1.8862542e-01   7.5398188e-02  -1.3642907e+07
   1.8992998e-09  -1.1747747e-02   1.8836428e-01   7.5507000e-02  -1.3600095e+07
   1.9019673e-09  -1.1711525e-02   1.8810431e-01   7.5615621e-02  -1.3557425e+07
   1.9046349e-09  -1.1675416e-02   1.8784550e-01   7.5724051e-02  -1.3514895e+07
   1.9073024e-09  -1.1639421e-02   1.8758783e-01   7.5832290e-02  -1.3472506e+07
   1.9099700e-09  -1.1603539e-02   1.8733132e-01   7.5940337e-02  -1.3430256e+07
   1.9126375e-09  -1.1567769e-02   1.8707594e-01   7.6048194e-02  -1.3388145e+07
   1.9153051e-09  -1.1532111e-02   1.8682170e-01   7.6155859e-02  -1.3346174e+07
   1.9179727e-09  -1.1496566e-02   1.8656859e-01   7.6263332e-02  -1.3304340e+07
   1.9206402e-09  -1.1461131e-02   1.8631659e-01   7.6370614e-02  -1.3262644e+07
   1.9233078e-09  -1.1425808e-02   1.8606571e-01   7.6477705e-02  -1.3221085e+07
   1.9259753e-09  -1.1390595e-02   1.8581594e-01   7.6584604e-02  -1.3179663e+07
   1.9286429e-09  -1.1355493e-02   1.8556728e-01   7.6691311e-02  -1.3138376e+07
   1.9313104e-09  -1.1320500e-02   1.8531971e-01   7.6797827e-02  -1.3097226e+07
   1.9339780e-09  -1.1285617e-02   1.8507323e-01   7.6904151e-02  -1.3056210e+07
   1.9366455e-09  -1.1250844e-02   1.8482784e-01   7.7010283e-02  -1.3015329e+07
   1.9393131e-09  -1.1216179e-02   1.8458352e-01   7.7116223e-02  -1.2974582e+07
   1.9419807e-09  -1.1181623e-02   1.8434028e-01   7.7221972e-02  -1.2933969e+07
   1.9446482e-09  -1.1147175e-02   1.8409811e-01   7.7327528e-02  -1.2893489e+07
   1.9473158e-09  -1.1112835e-02   1.8385700e-01   7.7432892e-02  -1.2853141e+07
   1.9499833e-09  -1.1078602e-02   1.8361694e-01   7.7538065e-02  -1.2812926e+07
   1.9526509e-09  -1.1044476e-02   1.8337794e-01   7.7643045e-02  -1.2772842e+07
   1.9553184e-09  -1.1010457e-02   1.8313998e-01   7.7747833e-02  -1.2732889e+07
   1.9579860e-09  -1.0976545e-02   1.8290306e-01   7.7852429e-02  -1.2693067e+07
   1.9606536e-09  -1.0942738e-02   1.8266717e-01   7.7956833e-02  -1.2653376e+07
   1.9633211e-09  -1.0909037e-02   1.8243232e-01   7.8061044e-02  -1.2613814e+07
   1.9659887e-09  -1.0875442e-02   1.8219848e-01   7.8165064e-02  -1.2574381e+07
   1.9686562e-09  -1.0841951e-02   1.8196566e-01   7.8268891e-02  -1.2535077e+07
   1.9713238e-09  -1.0808566e-02   1.8173386e-01   7.8372526e-02  -1.2495901e+07
   1.9739913e-09  -1.0775284e-02   1.8150306e-01   7.8475968e-02  -1.2456853e+07
   1.9766589e-09  -1.0742107e-02   1.8127327e-01   7.8579219e-02  -1.2417932e+07
   1.9793264e-09  -1.0709033e-02   1.8104447e-01   7.8682277e-02  -1.2379138e+07
   1.9819940e-09  -1.0676063e-02   1.8081666e-01   7.8785142e-02  -1.2340471e+07
   1.9846616e-09  -1.0643195e-02   1.8058983e-01   7.8887816e-02  -1.2301930e+07
   1.9873291e-09  -1.0610430e-02   1.8036399e-01   7.8990297e-02  -1.2263514e+07
   1.9899967e-09  -1.0577768e-02   1.8013912e-01   7.9092585e-02  -1.2225223e+07
   1.9926642e-09  -1.0545207e-02   1.7991523e-01   7.9194682e-02  -1.2187057e+07
   1.9953318e-09  -1.0512748e-02   1.7969229e-01   7.9296586e-02  -1.2149015e+07
   1.9979993e-09  -1.0480391e-02   1.7947032e-01   7.9398298e-02  -1.2111096e+07
   2.0006669e-09  -1.0448134e-02   1.7924930e-01   7.9499817e-02  -1.2073301e+07
   2.0033344e-09  -1.0415978e-02   1.7902924e-01   7.9601144e-02  -1.2035629e+07
   2.0060020e-09  -1.0383923e-02   1.7881011e-01   7.9702279e-02  -1.1998079e+07
   2.0086696e-09  -1.0351967e-02   1.7859193e-01   7.9803222e-02  -1.1960651e+07
   2.0113371e-09  -1.0320111e-02   1.7837469e-01   7.9903972e-02  -1.1923344e+07
   2.0140047e-09  -1.0288355e-02   1.7815837e-01   8.0004531e-02  -1.1886158e+07
   2.0166722e-09  -1.0256697e-02   1.7794298e-01   8.0104897e-02  -1.1849093e+07
   2.0193398e-09  -1.0225138e-02   1.7772851e-01   8.0205070e-02  -1.1812149e+07
   2.0220073e-09  -1.0193678e-02   1.7751495e-01   8.0305052e-02  -1.1775324e+07
   2.0246749e-09  -1.0162316e-02   1.7730231e-01   8.0404842e-02  -1.1738618e+07
   2.0273424e-09  -1.0131051e-02   1.7709057e-01   8.0504439e-02  -1.1702031e+07
   2.0300100e-09  -1.0099884e-02   1.7687974e-01   8.0603845e-02  -1.1665562e+07
   2.0326776e-09  -1.0068814e-02   1.7666980e-01   8.0703058e-02  -1.1629212e+07
   2.0353451e-09  -1.0037841e-02   1.7646076e-01   8.0802079e-02  -1.1592979e+07
   2.0380127e-09  -1.0006964e-02   1.7625260e-01   8.0900909e-02  -1.1556863e+07
   2.0406802e-09  -9.9761834e-03   1.7604533e-01   8.0999546e-02  -1.1520864e+07
   2.0433478e-09  -9.9454987e-03   1.7583893e-01   8.1097992e-02  -1.1484982e+07
   2.0460153e-09  -9.9149096e-03   1.7563341e-01   8.1196246e-02  -1.1449215e+07
   2.0486829e-09  -9.8844157e-03   1.7542876e-01   8.1294308e-02  -1.1413564e+07
   2.0513505e-09  -9.8540169e-03   1.7522498e-01   8.1392179e-02  -1.1378028e+07
   2.0540180e-09  -9.8237126e-03   1.7502205e-01   8.1489857e-02  -1.1342607e+07
   2.0566856e-09  -9.7935027e-03   1.7481998e-01   8.1587345e-02  -1.1307300e+07
   2.0593531e-09  -9.7633868e-03   1.7461877e-01   8.1684640e-02  -1.1272107e+07
   2.0620207e-09  -9.7333646e-03   1.7441840e-01   8.1781744e-02  -1.1237027e+07
   2.0646882e-09  -9.7034359e-03   1.7421888e-01   8.1878657e-02  -1.1202060e+07
   2.0673558e-09  -9.6736003e-03   1.7402019e-01   8.1975379e-02  -1.1167206e+07
   2.0700233e-09  -9.6438575e-03   1.7382234e-01   8.2071909e-02  -1.1132465e+07
   2.0726909e-09  -9.6142072e-03   1.7362533e-01   8.2168248e-02  -1.1097835e+07
   2.0753585e-09  -9.5846492e-03   1.7342913e-01   8.2264395e-02  -1.1063317e+07
   2.0780260e-09  -9.5551831e-03   1.7323376e-01   8.2360352e-02  -1.1028909e+07
   2.0806936e-09  -9.5258087e-03   1.7303921e-01   8.2456118e-02  -1.0994613e+07
   2.0833611e-09  -9.4965255e-03   1.7284547e-01   8.2551692e-02  -1.0960427e+07
   2.0860287e-09  -9.4673335e-03   1.7265255e-01   8.2647076e-02  -1.0926350e+07
   2.0886962e-09  -9.4382321e-03   1.7246043e-01   8.2742269e-02  -1.0892384e+07
   2.0913638e-09  -9.4092213e-03   1.7226911e-01   8.2837272e-02  -1.0858526e+07
   2.0940313e-09  -9.3803006e-03   1.7207858e-01   8.2932084e-02  -1.0824777e+07
   2.0966989e-09  -9.3514698e-03   1.7188886e-01   8.3026705e-02  -1.0791137e+07
   2.0993665e-09  -9.3227286e-03   1.7169992e-01   8.3121136e-02  -1.0757604e+07
   2.1020340e-09  -9.2940767e-03   1.7151177e-01   8.3215376e-02  -1.0724179e+07
   2.1047016e-09  -9.2655138e-03   1.7132440e-01   8.3309426e-02  -1.0690862e+07
   2.1073691e-09  -9.2370396e-03   1.7113780e-01   8.3403287e-02  -1.0657651e+07
   2.1100367e-09  -9.2086539e-03   1.7095199e-01   8.3496957e-02  -1.0624547e+07
   2.1127042e-09  -9.1803564e-03   1.7076694e-01   8.3590437e-02  -1.0591549e+07
   2.1153718e-09  -9.1521467e-03   1.7058266e-01   8.3683727e-02  -1.0558656e+07
   2.1180393e-09  -9.1240247e-03   1.7039914e-01   8.3776827e-02  -1.0525869e+07
   2.1207069e-09  -9.0959900e-03   1.7021638e-01   8.3869738e-02  -1.0493187e+07
   2.1233745e-09  -9.0680423e-03   1.7003437e-01   8.3962459e-02  -1.0460610e+07
   2.1260420e-09  -9.0401813e-03   1.6985312e-01   8.4054991e-02  -1.0428137e+07
   2.1287096e-09  -9.0124069e-03   1.6967262e-01   8.4147333e-02  -1.0395768e+07
   2.1313771e-09  -8.9847187e-03   1.6949285e-01   8.4239486e-02  -1.0363502e+07
   2.1340447e-09  -8.9571164e-03   1.6931383e-01   8.4331450e-02  -1.0331340e+07
   2.1367122e-09  -8.9295997e-03   1.6913555e-01   8.4423225e-02  -1.0299280e+07
   2.1393798e-09  -8.9021685e-03   1.6895800e-01   8.4514811e-02  -1.0267323e+07
   2.1420473e-09  -8.8748223e-03   1.6878117e-01   8.4606208e-02  -1.0235468e+07
   2.1447149e-09  -8.8475610e-03   1.6860508e-01   8.4697417e-02  -1.0203715e+07
   2.1473825e-09  -8.8203843e-03   1.6842970e-01   8.4788437e-02  -1.0172063e+07
   2.1500500e-09  -8.7932918e-03   1.6825505e-01   8.4879269e-02  -1.0140513e+07
   2.1527176e-09  -8.7662834e-03   1.6808111e-01   8.4969912e-02  -1.0109063e+07
   2.1553851e-09  -8.7393588e-03   1.6790788e-01   8.5060367e-02  -1.0077713e+07
   2.1580527e-09  -8.7125176e-03   1.6773536e-01   8.5150634e-02  -1.0046464e+07
   2.1607202e-09  -8.6857597e-03   1.6756354e-01   8.5240713e-02  -1.0015314e+07
   2.1633878e-09  -8.6590847e-03   1.6739243e-01   8.5330604e-02  -9.9842632e+06
   2.1660554e-09  -8.6324924e-03   1.6722201e-01   8.5420308e-02  -9.9533117e+06
   2.1687229e-09  -8.6059826e-03   1.6705229e-01   8.5509824e-02  -9.9224588e+06
   2.1713905e-09  -8.5795549e-03   1.6688326e-01   8.5599153e-02  -9.8917042e+06
   2.1740580e-09  -8.5532092e-03   1.6671491e-01   8.5688294e-02  -9.8610476e+06
   2.1767256e-09  -8.5269450e-03   1.6654726e-01   8.5777248e-02  -9.8304887e+06
   2.1793931e-09  -8.5007623e-03   1.6638028e-01   8.5866016e-02  -9.8000270e+06
   2.1820607e-09  -8.4746607e-03   1.6621398e-01   8.5954596e-02  -9.7696624e+06
   2.1847282e-09  -8.4486400e-03   1.6604835e-01   8.6042990e-02  -9.7393943e+06
   2.1873958e-09  -8.4226999e-03   1.6588340e-01   8.6131197e-02  -9.7092226e+06
   2.1900634e-09  -8.3968401e-03   1.6571911e-01   8.6219218e-02  -9.6791469e+06
   2.1927309e-09  -8.3710605e-03   1.6555549e-01   8.6307052e-02  -9.6491668e+06
   2.1953985e-09  -8.3453606e-03   1.6539253e-01   8.6394700e-02  -9.6192820e+06
   2.1980660e-09  -8.3197404e-03   1.6523023e-01   8.6482163e-02  -9.5894922e+06
   2.2007336e-09  -8.2941995e-03   1.6506858e-01   8.6569439e-02  -9.5597971e+06
   2.2034011e-09  -8.2687378e-03   1.6490759e-01   8.6656530e-02  -9.5301963e+06
   2.2060687e-09  -8.2433548e-03   1.6474724e-01   8.6743435e-02  -9.5006896e+06
   2.2087362e-09  -8.2180504e-03   1.6458754e-01   8.6830155e-02  -9.4712765e+06
   2.2114038e-09  -8.1928244e-03   1.6442848e-01   8.6916690e-02  -9.4419569e+06
   2.2140714e-09  -8.1676765e-03   1.6427006e-01   8.7003039e-02  -9.4127303e+06
   2.2167389e-09  -8.1426064e-03   1.6411228e-01   8.7089204e-02  -9.3835965e+06
   2.2194065e-09  -8.1176138e-03   1.6395514e-01   8.7175184e-02  -9.3545551e+06
   2.2220740e-09  -8.0926987e-03   1.6379862e-01   8.7260979e-02  -9.3256058e+06
   2.2247416e-09  -8.0678606e-03   1.6364273e-01   8.7346590e-02  -9.2967483e+06
   2.2274091e-09  -8.0430994e-03   1.6348746e-01   8.7432017e-02  -9.2679823e+06
   2.2300767e-09  -8.0184148e-03   1.6333282e-01   8.7517259e-02  -9.2393075e+06
   2.2327442e-09  -7.9938066e-03   1.6317880e-01   8.7602318e-02  -9.2107236e+06
   2.2354118e-09  -7.9692745e-03   1.6302539e-01   8.7687193e-02  -9.1822303e+06
   2.2380794e-09  -7.9448183e-03   1.6287259e-01   8.7771884e-02  -9.1538272e+06
   2.2407469e-09  -7.9204377e-03   1.6272041e-01   8.7856392e-02  -9.1255141e+06
   2.2434145e-09  -7.8961326e-03   1.6256883e-01   8.7940717e-02  -9.0972906e+06
   2.2460820e-09  -7.8719026e-03   1.6241785e-01   8.8024859e-02  -9.0691565e+06
   2.2487496e-09  -7.8477475e-03   1.6226748e-01   8.8108818e-02  -9.0411114e+06
   2.2514171e-09  -7.8236672e-03   1.6211770e-01   8.8192594e-02  -9.0131551e+06
   2.2540847e-09  -7.7996613e-03   1.6196852e-01   8.8276187e-02  -8.9852872e+06
   2.2567523e-09  -7.7757296e-03   1.6181993e-01   8.8359598e-02  -8.9575074e+06
   2.2594198e-09  -7.7518719e-03   1.6167194e-01   8.8442827e-02  -8.9298155e+06
   2.2620874e-09  -7.7280879e-03   1.6152453e-01   8.8525874e-02  -8.9022112e+06
   2.2647549e-09  -7.7043775e-03   1.6137770e-01   8.8608739e-02  -8.8746941e+06
   2.2674225e-09  -7.6807404e-03   1.6123146e-01   8.8691423e-02  -8.8472640e+06
   2.2700900e-09  -7.6571763e-03   1.6108579e-01   8.8773925e-02  -8.8199206e+06
   2.2727576e-09  -7.6336850e-03   1.6094070e-01   8.8856246e-02  -8.7926635e+06
   2.2754251e-09  -7.6102664e-03   1.6079619e-01   8.8938385e-02  -8.7654925e+06
   2.2780927e-09  -7.5869201e-03   1.6065224e-01   8.9020344e-02  -8.7384074e+06
   2.2807603e-09  -7.5636459e-03   1.6050887e-01   8.9102122e-02  -8.7114077e+06
   2.2834278e-09  -7.5404437e-03   1.6036606e-01   8.9183720e-02  -8.6844933e+06
   2.2860954e-09  -7.5173131e-03   1.6022381e-01   8.9265137e-02  -8.6576638e+06
   2.2887629e-09  -7.4942540e-03   1.6008213e-01   8.9346374e-02  -8.6309190e+06
   2.2914305e-09  -7.4712661e-03   1.5994100e-01   8.9427431e-02  -8.6042586e+06
   2.2940980e-09  -7.4483492e-03   1.5980042e-01   8.9508309e-02  -8.5776822e+06
   2.2967656e-09  -7.4255031e-03   1.5966040e-01   8.9589007e-02  -8.5511897e+06
   2.2994331e-09  -7.4027276e-03   1.5952093e-01   8.9669525e-02  -8.5247807e+06
   2.3021007e-09  -7.3800224e-03   1.5938201e-01   8.9749865e-02  -8.4984549e+06
   2.3047683e-09  -7.3573873e-03   1.5924363e-01   8.9830025e-02  -8.4722121e+06
   2.3074358e-09  -7.3348221e-03   1.5910579e-01   8.9910007e-02  -8.4460520e+06
   2.3101034e-09  -7.3123266e-03   1.5896850e-01   8.9989810e-02  -8.4199743e+06
   2.3127709e-09  -7.2899006e-03   1.5883174e-01   9.0069435e-02  -8.3939788e+06
   2.3154385e-09  -7.2675437e-03   1.5869551e-01   9.0148882e-02  -8.3680651e+06
   2.3181060e-09  -7.2452559e-03   1.5855982e-01   9.0228151e-02  -8.3422331e+06
   2.3207736e-09  -7.2230369e-03   1.5842466e-01   9.0307242e-02  -8.3164823e+06
   2.3234411e-09  -7.2008865e-03   1.5829003e-01   9.0386155e-02  -8.2908126e+06
   2.3261087e-09  -7.1788044e-03   1.5815592e-01   9.0464891e-02  -8.2652237e+06
   2.3287763e-09  -7.1567905e-03   1.5802234e-01   9.0543450e-02  -8.2397154e+06
   2.3314438e-09  -7.1348446e-03   1.5788927e-01   9.0621832e-02  -8.2142872e+06
   2.3341114e-09  -7.1129663e-03   1.5775672e-01   9.0700038e-02  -8.1889391e+06
   2.3367789e-09  -7.0911556e-03   1.5762469e-01   9.0778067e-02  -8.1636706e+06
   2.3394465e-09  -7.0694122e-03   1.5749318e-01   9.0855919e-02  -8.1384817e+06
   2.3421140e-09  -7.0477358e-03   1.5736217e-01   9.0933596e-02  -8.1133719e+06
   2.3447816e-09  -7.0261263e-03   1.5723167e-01   9.1011096e-02  -8.0883410e+06
   2.3474491e-09  -7.0045835e-03   1.5710168e-01   9.1088422e-02  -8.0633888e+06
   2.3501167e-09  -6.9831072e-03   1.5697219e-01   9.1165571e-02  -8.0385150e+06
   2.3527843e-09  -6.9616971e-03   1.5684321e-01   9.1242546e-02  -8.0137194e+06
   2.3554518e-09  -6.9403530e-03   1.5671472e-01   9.1319345e-02  -7.9890016e+06
   2.3581194e-09  -6.9190748e-03   1.5658673e-01   9.1395970e-02  -7.9643615e+06
   2.3607869e-09  -6.8978622e-03   1.5645924e-01   9.1472420e-02  -7.9397987e+06
   2.3634545e-09  -6.8767150e-03   1.5633224e-01   9.1548696e-02  -7.9153130e+06
   2.3661220e-09  -6.8556331e-03   1.5620572e-01   9.1624797e-02  -7.8909043e+06
   2.3687896e-09  -6.8346161e-03   1.5607970e-01   9.1700725e-02  -7.8665721e+06
   2.3714572e-09  -6.8136639e-03   1.5595417e-01   9.1776479e-02  -7.8423162e+06
   2.3741247e-09  -6.7927764e-03   1.5582911e-01   9.1852060e-02  -7.8181365e+06
   2.3767923e-09  -6.7719532e-03   1.5570454e-01   9.1927467e-02  -7.7940327e+06
   2.3794598e-09  -6.7511943e-03   1.5558045e-01   9.2002702e-02  -7.7700044e+06
   2.3821274e-09  -6.7304993e-03   1.5545684e-01   9.2077763e-02  -7.7460515e+06
   2.3847949e-09  -6.7098682e-03   1.5533370e-01   9.2152652e-02  -7.7221737e+06
   2.3874625e-09  -6.6893006e-03   1.5521103e-01   9.2227369e-02  -7.6983707e+06
   2.3901300e-09  -6.6687964e-03   1.5508884e-01   9.2301914e-02  -7.6746424e+06
   2.3927976e-09  -6.6483555e-03   1.5496711e-01   9.2376287e-02  -7.6509884e+06
   2.3954652e-09  -6.6279775e-03   1.5484585e-01   9.2450488e-02  -7.6274085e+06
   2.3981327e-09  -6.6076623e-03   1.5472506e-01   9.2524518e-02  -7.6039025e+06
   2.4008003e-09  -6.5874098e-03   1.5460473e-01   9.2598376e-02  -7.5804702e+06
   2.4034678e-09  -6.5672196e-03   1.5448486e-01   9.2672064e-02  -7.5571112e+06
   2.4061354e-09  -6.5470917e-03   1.5436544e-01   9.2745581e-02  -7.5338254e+06
   2.4088029e-09  -6.5270257e-03   1.5424649e-01   9.2818927e-02  -7.5106126e+06
   2.4114705e-09  -6.5070216e-03   1.5412799e-01   9.2892103e-02  -7.4874723e+06
   2.4141380e-09  -6.4870792e-03   1.5400994e-01   9.2965109e-02  -7.4644046e+06
   2.4168056e-09  -6.4671982e-03   1.5389234e-01   9.3037946e-02  -7.4414090e+06
   2.4194732e-09  -6.4473784e-03   1.5377519e-01   9.3110613e-02  -7.4184854e+06
   2.4221407e-09  -6.4276196e-03   1.5365848e-01   9.3183110e-02  -7.3956335e+06
   2.4248083e-09  -6.4079218e-03   1.5354222e-01   9.3255439e-02  -7.3728531e+06
   2.4274758e-09  -6.3882846e-03   1.5342641e-01   9.3327598e-02  -7.3501439e+06
   2.4301434e-09  -6.3687079e-03   1.5331103e-01   9.3399589e-02  -7.3275058e+06
   2.4328109e-09  -6.3491915e-03   1.5319609e-01   9.3471412e-02  -7.3049385e+06
   2.4354785e-09  -6.3297351e-03   1.5308159e-01   9.3543066e-02  -7.2824417e+06
   2.4381460e-09  -6.3103388e-03   1.5296753e-01   9.3614553e-02  -7.2600153e+06
   2.4408136e-09  -6.2910021e-03   1.5285389e-01   9.3685872e-02  -7.2376589e+06
   2.4434812e-09  -6.2717250e-03   1.5274069e-01   9.3757023e-02  -7.2153725e+06
   2.4461487e-09  -6.2525072e-03   1.5262791e-01   9.3828008e-02  -7.1931556e+06
   2.4488163e-09  -6.2333486e-03   1.5251557e-01   9.3898825e-02  -7.1710082e+06
   2.4514838e-09  -6.2142490e-03   1.5240365e-01   9.3969476e-02  -7.1489300e+06
   2.4541514e-09  -6.1952082e-03   1.5229215e-01   9.4039960e-02  -7.1269208e+06
   2.4568189e-09  -6.1762260e-03   1.5218107e-01   9.4110279e-02  -7.1049803e+06
   2.4594865e-09  -6.1573023e-03   1.5207041e-01   9.4180431e-02  -7.0831083e+06
   2.4621541e-09  -6.1384368e-03   1.5196017e-01   9.4250417e-02  -7.0613046e+06
   2.4648216e-09  -6.1196294e-03   1.5185035e-01   9.4320239e-02  -7.0395689e+06
   2.4674892e-09  -6.1008799e-03   1.5174094e-01   9.4389894e-02  -7.0179012e+06
   2.4701567e-09  -6.0821880e-03   1.5163195e-01   9.4459385e-02  -6.9963010e+06
   2.4728243e-09  -6.0635538e-03   1.5152336e-01   9.4528712e-02  -6.9747683e+06
   2.4754918e-09  -6.0449768e-03   1.5141518e-01   9.4597873e-02  -6.9533027e+06
   2.4781594e-09  -6.0264570e-03   1.5130741e-01   9.4666871e-02  -6.9319042e+06
   2.4808269e-09  -6.0079943e-03   1.5120005e-01   9.4735704e-02  -6.9105724e+06
   2.4834945e-09  -5.9895883e-03   1.5109309e-01   9.4804374e-02  -6.8893071e+06
   2.4861621e-09  -5.9712390e-03   1.5098653e-01   9.4872881e-02  -6.8681081e+06
   2.4888296e-09  -5.9529461e-03   1.5088037e-01   9.4941224e-02  -6.8469753e+06
   2.4914972e-09  -5.9347096e-03   1.5077460e-01   9.5009404e-02  -6.8259083e+06
   2.4941647e-09  -5.9165291e-03   1.5066924e-01   9.5077421e-02  -6.8049071e+06
   2.4968323e-09  -5.8984046e-03   1.5056427e-01   9.5145276e-02  -6.7839712e+06
   2.4994998e-09  -5.8803358e-03   1.5045969e-01   9.5212969e-02  -6.7631007e+06
   2.5021674e-09  -5.8623226e-03   1.5035551e-01   9.5280500e-02  -6.7422952e+06
   2.5048349e-09  -5.8443648e-03   1.5025171e-01   9.5347869e-02  -6.7215545e+06
   2.5075025e-09  -5.8264623e-03   1.5014830e-01   9.5415077e-02  -6.7008785e+06
   2.5101701e-09  -5.8086148e-03   1.5004528e-01   9.5482123e-02  -6.6802668e+06
   2.5128376e-09  -5.7908223e-03   1.4994264e-01   9.5549008e-02  -6.6597194e+06
   2.5155052e-09  -5.7730844e-03   1.4984039e-01   9.5615733e-02  -6.6392360e+06
   2.5181727e-09  -5.7554012e-03   1.4973852e-01   9.5682298e-02  -6.6188163e+06
   2.5208403e-09  -5.7377723e-03   1.4963703e-01   9.5748702e-02  -6.5984603e+06
   2.5235078e-09  -5.7201976e-03   1.4953591e-01   9.5814946e-02  -6.5781676e+06
   2.5261754e-09  -5.7026769e-03   1.4943517e-01   9.5881031e-02  -6.5579381e+06
   2.5288429e-09  -5.6852102e-03   1.4933481e-01   9.5946956e-02  -6.5377716e+06
   2.5315105e-09  -5.6677971e-03   1.4923482e-01   9.6012722e-02  -6.5176679e+06
   2.5341781e-09  -5.6504376e-03   1.4913520e-01   9.6078329e-02  -6.4976267e+06
   2.5368456e-09  -5.6331315e-03   1.4903595e-01   9.6143777e-02  -6.4776479e+06
   2.5395132e-09  -5.6158786e-03   1.4893707e-01   9.6209067e-02  -6.4577312e+06
   2.5421807e-09  -5.5986787e-03   1.4883856e-01   9.6274199e-02  -6.4378765e+06
   2.5448483e-09  -5.5815318e-03   1.4874042e-01   9.6339173e-02  -6.4180836e+06
   2.5475158e-09  -5.5644375e-03   1.4864263e-01   9.6403990e-02  -6.3983522e+06
   2.5501834e-09  -5.5473958e-03   1.4854521e-01   9.6468649e-02  -6.3786822e+06
   2.5528510e-09  -5.5304065e-03   1.4844815e-01   9.6533151e-02  -6.3590734e+06
   2.5555185e-09  -5.5134694e-03   1.4835145e-01   9.6597496e-02  -6.3395256e+06
   2.5581861e-09  -5.4965843e-03   1.4825511e-01   9.6661685e-02  -6.3200385e+06
   2.5608536e-09  -5.4797512e-03   1.4815912e-01   9.6725717e-02  -6.3006120e+06
   2.5635212e-09  -5.4629698e-03   1.4806349e-01   9.6789593e-02  -6.2812459e+06
   2.5661887e-09  -5.4462400e-03   1.4796821e-01   9.6853314e-02  -6.2619400e+06
   2.5688563e-09  -5.4295616e-03   1.4787328e-01   9.6916879e-02  -6.2426941e+06
   2.5715238e-09  -5.4129345e-03   1.4777870e-01   9.6980288e-02  -6.2235080e+06
   2.5741914e-09  -5.3963584e-03   1.4768448e-01   9.7043543e-02  -6.2043815e+06
   2.5768590e-09  -5.3798334e-03   1.4759059e-01   9.7106643e-02  -6.1853145e+06
   2.5795265e-09  -5.3633590e-03   1.4749706e-01   9.7169588e-02  -6.1663067e+06
   2.5821941e-09  -5.3469354e-03   1.4740387e-01   9.7232380e-02  -6.1473579e+06
   2.5848616e-09  -5.3305622e-03   1.4731102e-01   9.7295017e-02  -6.1284680e+06
   2.5875292e-09  -5.3142393e-03   1.4721851e-01   9.7357501e-02  -6.1096367e+06
   2.5901967e-09  -5.2979665e-03   1.4712635e-01   9.7419831e-02  -6.0908639e+06
   2.5928643e-09  -5.2817438e-03   1.4703452e-01   9.7482008e-02  -6.0721494e+06
   2.5955318e-09  -5.2655709e-03   1.4694303e-01   9.7544032e-02  -6.0534930e+06
   2.5981994e-09  -5.2494477e-03   1.4685187e-01   9.7605903e-02  -6.0348946e+06
   2.6008670e-09  -5.2333740e-03   1.4676105e-01   9.7667623e-02  -6.0163538e+06
   2.6035345e-09  -5.2173497e-03   1.4667056e-01   9.7729190e-02  -5.9978707e+06
   2.6062021e-09  -5.2013746e-03   1.4658041e-01   9.7790605e-02  -5.9794448e+06
   2.6088696e-09  -5.1854486e-03   1.4649058e-01   9.7851868e-02  -5.9610762e+06
   2.6115372e-09  -5.1695716e-03   1.4640108e-01   9.7912981e-02  -5.9427645e+06
   2.6142047e-09  -5.1537433e-03   1.4631191e-01   9.7973942e-02  -5.9245097e+06
   2.6168723e-09  -5.1379636e-03   1.4622307e-01   9.8034753e-02  -5.9063115e+06
   2.6195398e-09  -5.1222324e-03   1.4613455e-01   9.8095413e-02  -5.8881698e+06
   2.6222074e-09  -5.1065495e-03   1.4604635e-01   9.8155923e-02  -5.8700843e+06
   2.6248750e-09  -5.0909148e-03   1.4595848e-01   9.8216282e-02  -5.8520549e+06
   2.6275425e-09  -5.0753281e-03   1.4587092e-01   9.8276492e-02  -5.8340815e+06
   2.6302101e-09  -5.0597892e-03   1.4578369e-01   9.8336553e-02  -5.8161637e+06
   2.6328776e-09  -5.0442981e-03   1.4569677e-01   9.8396465e-02  -5.7983016e+06
   2.6355452e-09  -5.0288546e-03   1.4561017e-01   9.8456227e-02  -5.7804948e+06
   2.6382127e-09  -5.0134585e-03   1.4552389e-01   9.8515841e-02  -5.7627432e+06
   2.6408803e-09  -4.9981097e-03   1.4543792e-01   9.8575307e-02  -5.7450467e+06
   2.6435478e-09  -4.9828080e-03   1.4535226e-01   9.8634624e-02  -5.7274050e+06
   2.6462154e-09  -4.9675533e-03   1.4526691e-01   9.8693794e-02  -5.7098179e+06
   2.6488830e-09  -4.9523454e-03   1.4518188e-01   9.8752816e-02  -5.6922854e+06
   2.6515505e-09  -4.9371843e-03   1.4509715e-01   9.8811691e-02  -5.6748072e+06
   2.6542181e-09  -4.9220696e-03   1.4501273e-01   9.8870419e-02  -5.6573832e+06
   2.6568856e-09  -4.9070014e-03   1.4492862e-01   9.8929000e-02  -5.6400132e+06
   2.6595532e-09  -4.8919795e-03   1.4484481e-01   9.8987434e-02  -5.6226969e+06
   2.6622207e-09  -4.8770037e-03   1.4476131e-01   9.9045722e-02  -5.6054343e+06
   2.6648883e-09  -4.8620738e-03   1.4467811e-01   9.9103865e-02  -5.5882252e+06
   2.6675559e-09  -4.8471898e-03   1.4459521e-01   9.9161861e-02  -5.5710694e+06
   2.6702234e-09  -4.8323515e-03   1.4451261e-01   9.9219713e-02  -5.5539667e+06
   2.6728910e-09  -4.8175587e-03   1.4443030e-01   9.9277419e-02  -5.5369170e+06
   2.6755585e-09  -4.8028114e-03   1.4434830e-01   9.9334980e-02  -5.5199201e+06
   2.6782261e-09  -4.7881093e-03   1.4426659e-01   9.9392396e-02  -5.5029758e+06
   2.6808936e-09  -4.7734524e-03   1.4418518e-01   9.9449669e-02  -5.4860839e+06
   2.6835612e-09  -4.7588404e-03   1.4410406e-01   9.9506797e-02  -5.4692444e+06
   2.6862287e-09  -4.7442733e-03   1.4402324e-01   9.9563781e-02  -5.4524570e+06
   2.6888963e-09  -4.7297509e-03   1.4394271e-01   9.9620622e-02  -5.4357215e+06
   2.6915639e-09  -4.7152731e-03   1.4386246e-01   9.9677320e-02  -5.4190378e+06
   2.6942314e-09  -4.7008397e-03   1.4378251e-01   9.9733874e-02  -5.4024058e+06
   2.6968990e-09  -4.6864506e-03   1.4370284e-01   9.9790286e-02  -5.3858253e+06
   2.6995665e-09  -4.6721056e-03   1.4362346e-01   9.9846556e-02  -5.3692960e+06
   2.7022341e-09  -4.6578047e-03   1.4354437e-01   9.9902683e-02  -5.3528179e+06
   2.7049016e-09  -4.6435477e-03   1.4346556e-01   9.9958668e-02  -5.3363908e+06
   2.7075692e-09  -4.6293344e-03   1.4338704e-01   1.0001451e-01  -5.3200145e+06
   2.7102367e-09  -4.6151648e-03   1.4330879e-01   1.0007021e-01  -5.3036888e+06
   2.7129043e-09  -4.6010386e-03   1.4323083e-01   1.0012578e-01  -5.2874137e+06
   2.7155719e-09  -4.5869558e-03   1.4315315e-01   1.0018120e-01  -5.2711889e+06
   2.7182394e-09  -4.5729162e-03   1.4307575e-01   1.0023648e-01  -5.2550142e+06
   2.7209070e-09  -4.5589197e-03   1.4299862e-01   1.0029161e-01  -5.2388896e+06
   2.7235745e-09  -4.5449661e-03   1.4292177e-01   1.0034661e-01  -5.2228149e+06
   2.7262421e-09  -4.5310553e-03   1.4284520e-01   1.0040147e-01  -5.2067898e+06
   2.7289096e-09  -4.5171872e-03   1.4276890e-01   1.0045619e-01  -5.1908143e+06
   2.7315772e-09  -4.5033617e-03   1.4269287e-01   1.0051077e-01  -5.1748882e+06
   2.7342447e-09  -4.4895786e-03   1.4261712e-01   1.0056522e-01  -5.1590113e+06
   2.7369123e-09  -4.4758378e-03   1.4254164e-01   1.0061952e-01  -5.1431835e+06
   2.7395799e-09  -4.4621391e-03   1.4246642e-01   1.0067369e-01  -5.1274046e+06
   2.7422474e-09  -4.4484824e-03   1.4239148e-01   1.0072771e-01  -5.1116745e+06
   2.7449150e-09  -4.4348677e-03   1.4231680e-01   1.0078160e-01  -5.0959930e+06
   2.7475825e-09  -4.4212947e-03   1.4224240e-01   1.0083535e-01  -5.0803600e+06
   2.7502501e-09  -4.4077634e-03   1.4216825e-01   1.0088897e-01  -5.0647753e+06
   2.7529176e-09  -4.3942735e-03   1.4209437e-01   1.0094244e-01  -5.0492387e+06
   2.7555852e-09  -4.3808251e-03   1.4202076e-01   1.0099578e-01  -5.0337501e+06
   2.7582528e-09  -4.3674179e-03   1.4194740e-01   1.0104899e-01  -5.0183094e+06
   2.7609203e-09  -4.3540518e-03   1.4187431e-01   1.0110205e-01  -5.0029164e+06
   2.7635879e-09  -4.3407267e-03   1.4180148e-01   1.0115499e-01  -4.9875710e+06
   2.7662554e-09  -4.3274425e-03   1.4172891e-01   1.0120778e-01  -4.9722729e+06
   2.7689230e-09  -4.3141990e-03   1.4165659e-01   1.0126044e-01  -4.9570221e+06
   2.7715905e-09  -4.3009962e-03   1.4158454e-01   1.0131297e-01  -4.9418184e+06
   2.7742581e-09  -4.2878338e-03   1.4151273e-01   1.0136536e-01  -4.9266616e+06
   2.7769256e-09  -4.2747119e-03   1.4144119e-01   1.0141761e-01  -4.9115517e+06
   2.7795932e-09  -4.2616301e-03   1.4136990e-01   1.0146973e-01  -4.8964884e+06
   2.7822608e-09  -4.2485885e-03   1.4129886e-01   1.0152172e-01  -4.8814716e+06
   2.7849283e-09  -4.2355869e-03   1.4122807e-01   1.0157357e-01  -4.8665012e+06
   2.7875959e-09  -4.2226251e-03   1.4115754e-01   1.0162529e-01  -4.8515770e+06
   2.7902634e-09  -4.2097031e-03   1.4108725e-01   1.0167688e-01  -4.8366988e+06
   2.7929310e-09  -4.1968208e-03   1.4101722e-01   1.0172833e-01  -4.8218666e+06
   2.7955985e-09  -4.1839779e-03   1.4094743e-01   1.0177965e-01  -4.8070802e+06
   2.7982661e-09  -4.1711744e-03   1.4087789e-01   1.0183084e-01  -4.7923395e+06
   2.8009336e-09  -4.1584102e-03   1.4080860e-01   1.0188190e-01  -4.7776442e+06
   2.8036012e-09  -4.1456851e-03   1.4073955e-01   1.0193282e-01  -4.7629942e+06
   2.8062688e-09  -4.1329990e-03   1.4067074e-01   1.0198362e-01  -4.7483895e+06
   2.8089363e-09  -4.1203519e-03   1.4060218e-01   1.0203428e-01  -4.7338299e+06
   2.8116039e-09  -4.1077435e-03   1.4053386e-01   1.0208481e-01  -4.7193151e+06
   2.8142714e-09  -4.0951738e-03   1.4046578e-01   1.0213520e-01  -4.7048452e+06
   2.8169390e-09  -4.0826426e-03   1.4039795e-01   1.0218547e-01  -4.6904199e+06
   2.8196065e-09  -4.0701498e-03   1.4033035e-01   1.0223561e-01  -4.6760391e+06
   2.8222741e-09  -4.0576953e-03   1.4026299e-01   1.0228562e-01  -4.6617027e+06
   2.8249416e-09  -4.0452791e-03   1.4019587e-01   1.0233550e-01  -4.6474105e+06
   2.8276092e-09  -4.0329009e-03   1.4012898e-01   1.0238525e-01  -4.6331623e+06
   2.8302768e-09  -4.0205606e-03   1.4006233e-01   1.0243487e-01  -4.6189581e+06
   2.8329443e-09  -4.0082582e-03   1.3999592e-01   1.0248436e-01  -4.6047978e+06
   2.8356119e-09  -3.9959934e-03   1.3992974e-01   1.0253372e-01  -4.5906811e+06
   2.8382794e-09  -3.9837663e-03   1.3986379e-01   1.0258295e-01  -4.5766079e+06
   2.8409470e-09  -3.9715767e-03   1.3979807e-01   1.0263206e-01  -4.5625782e+06
   2.8436145e-09  -3.9594244e-03   1.3973259e-01   1.0268103e-01  -4.5485916e+06
   2.8462821e-09  -3.9473094e-03   1.3966733e-01   1.0272988e-01  -4.5346483e+06
   2.8489496e-09  -3.9352315e-03   1.3960231e-01   1.0277860e-01  -4.5207479e+06
   2.8516172e-09  -3.9231907e-03   1.3953751e-01   1.0282720e-01  -4.5068903e+06
   2.8542848e-09  -3.9111867e-03   1.3947294e-01   1.0287567e-01  -4.4930755e+06
   2.8569523e-09  -3.8992196e-03   1.3940860e-01   1.0292401e-01  -4.4793033e+06
   2.8596199e-09  -3.8872891e-03   1.3934448e-01   1.0297222e-01  -4.4655735e+06
   2.8622874e-09  -3.8753952e-03   1.3928059e-01   1.0302031e-01  -4.4518861e+06
   2.8649550e-09  -3.8635378e-03   1.3921692e-01   1.0306828e-01  -4.4382408e+06
   2.8676225e-09  -3.8517167e-03   1.3915348e-01   1.0311611e-01  -4.4246376e+06
   2.8702901e-09  -3.8399318e-03   1.3909025e-01   1.0316383e-01  -4.4110763e+06
   2.8729577e-09  -3.8281830e-03   1.3902725e-01   1.0321141e-01  -4.3975568e+06
   2.8756252e-09  -3.8164703e-03   1.3896447e-01   1.0325888e-01  -4.3840790e+06
   2.8782928e-09  -3.8047934e-03   1.3890191e-01   1.0330621e-01  -4.3706427e+06
   2.8809603e-09  -3.7931524e-03   1.3883957e-01   1.0335343e-01  -4.3572478e+06
   2.8836279e-09  -3.7815470e-03   1.3877744e-01   1.0340052e-01  -4.3438942e+06
   2.8862954e-09  -3.7699772e-03   1.3871553e-01   1.0344748e-01  -4.3305817e+06
   2.8889630e-09  -3.7584428e-03   1.3865384e-01   1.0349433e-01  -4.3173102e+06
   2.8916305e-09  -3.7469438e-03   1.3859237e-01   1.0354105e-01  -4.3040796e+06
   2.8942981e-09  -3.7354800e-03   1.3853111e-01   1.0358764e-01  -4.2908898e+06
   2.8969657e-09  -3.7240514e-03   1.3847006e-01   1.0363412e-01  -4.2777406e+06
   2.8996332e-09  -3.7126578e-03   1.3840922e-01   1.0368047e-01  -4.2646319e+06
   2.9023008e-09  -3.7012991e-03   1.3834860e-01   1.0372670e-01  -4.2515635e+06
   2.9049683e-09  -3.6899752e-03   1.3828819e-01   1.0377281e-01  -4.2385355e+06
   2.9076359e-09  -3.6786860e-03   1.3822799e-01   1.0381879e-01  -4.2255475e+06
   2.9103034e-09  -3.6674314e-03   1.3816800e-01   1.0386466e-01  -4.2125996e+06
   2.9129710e-09  -3.6562113e-03   1.3810821e-01   1.0391040e-01  -4.1996915e+06
   2.9156385e-09  -3.6450255e-03   1.3804864e-01   1.0395603e-01  -4.1868231e+06
   2.9183061e-09  -3.6338741e-03   1.3798927e-01   1.0400153e-01  -4.1739944e+06
   2.9209737e-09  -3.6227568e-03   1.3793011e-01   1.0404691e-01  -4.1612052e+06
   2.9236412e-09  -3.6116735e-03   1.3787116e-01   1.0409217e-01  -4.1484554e+06
   2.9263088e-09  -3.6006243e-03   1.3781241e-01   1.0413732e-01  -4.1357448e+06
   2.9289763e-09  -3.5896088e-03   1.3775386e-01   1.0418234e-01  -4.1230734e+06
   2.9316439e-09  -3.5786272e-03   1.3769552e-01   1.0422724e-01  -4.1104409e+06
   2.9343114e-09  -3.5676791e-03   1.3763738e-01   1.0427203e-01  -4.0978474e+06
   2.9369790e-09  -3.5567647e-03   1.3757944e-01   1.0431669e-01  -4.0852926e+06
   2.9396465e-09  -3.5458836e-03   1.3752170e-01   1.0436124e-01  -4.0727765e+06
   2.9423141e-09  -3.5350359e-03   1.3746416e-01   1.0440567e-01  -4.0602989e+06
   2.9449817e-09  -3.5242214e-03   1.3740682e-01   1.0444998e-01  -4.0478597e+06
   2.9476492e-09  -3.5134401e-03   1.3734969e-01   1.0449418e-01  -4.0354587e+06
   2.9503168e-09  -3.5026918e-03   1.3729274e-01   1.0453825e-01  -4.0230960e+06
   2.9529843e-09  -3.4919764e-03   1.3723600e-01   1.0458221e-01  -4.0107713e+06
   2.9556519e-09  -3.4812938e-03   1.3717945e-01   1.0462606e-01  -3.9984845e+06
   2.9583194e-09  -3.4706440e-03   1.3712310e-01   1.0466978e-01  -3.9862355e+06
   2.9609870e-09  -3.4600268e-03   1.3706694e-01   1.0471339e-01  -3.9740242e+06
   2.9636546e-09  -3.4494421e-03   1.3701098e-01   1.0475688e-01  -3.9618505e+06
   2.9663221e-09  -3.4388898e-03   1.3695521e-01   1.0480026e-01  -3.9497142e+06
   2.9689897e-09  -3.4283699e-03   1.3689963e-01   1.0484352e-01  -3.9376153e+06
   2.9716572e-09  -3.4178822e-03   1.3684424e-01   1.0488667e-01  -3.9255536e+06
   2.9743248e-09  -3.4074266e-03   1.3678905e-01   1.0492970e-01  -3.9135290e+06
   2.9769923e-09  -3.3970030e-03   1.3673404e-01   1.0497262e-01  -3.9015414e+06
   2.9796599e-09  -3.3866114e-03   1.3667923e-01   1.0501542e-01  -3.8895907e+06
   2.9823274e-09  -3.3762516e-03   1.3662460e-01   1.0505811e-01  -3.8776767e+06
   2.9849950e-09  -3.3659235e-03   1.3657017e-01   1.0510068e-01  -3.8657994e+06
   2.9876626e-09  -3.3556271e-03   1.3651592e-01   1.0514314e-01  -3.8539586e+06
   2.9903301e-09  -3.3453622e-03   1.3646185e-01   1.0518549e-01  -3.8421543e+06
   2.9929977e-09  -3.3351287e-03   1.3640798e-01   1.0522772e-01  -3.8303862e+06
   2.9956652e-09  -3.3249266e-03   1.3635429e-01   1.0526984e-01  -3.8186544e+06
   2.9983328e-09  -3.3147558e-03   1.3630078e-01   1.0531185e-01  -3.8069586e+06
   3.0010003e-09  -3.3046160e-03   1.3624746e-01   1.0535374e-01  -3.7952988e+06
   3.0036679e-09  -3.2945074e-03   1.3619432e-01   1.0539553e-01  -3.7836748e+06
   3.0063354e-09  -3.2844297e-03   1.3614136e-01   1.0543720e-01  -3.7720866e+06
   3.0090030e-09  -3.2743829e-03   1.3608859e-01   1.0547875e-01  -3.7605340e+06
   3.0116706e-09  -3.2643668e-03   1.3603600e-01   1.0552020e-01  -3.7490169e+06
   3.0143381e-09  -3.2543814e-03   1.3598358e-01   1.0556154e-01  -3.7375353e+06
   3.0170057e-09  -3.2444266e-03   1.3593135e-01   1.0560276e-01  -3.7260889e+06
   3.0196732e-09  -3.2345023e-03   1.3587930e-01   1.0564388e-01  -3.7146778e+06
   3.0223408e-09  -3.2246083e-03   1.3582742e-01   1.0568488e-01  -3.7033017e+06
   3.0250083e-09  -3.2147447e-03   1.3577573e-01   1.0572577e-01  -3.6919606e+06
   3.0276759e-09  -3.2049113e-03   1.3572421e-01   1.0576656e-01  -3.6806543e+06
   3.0303434e-09  -3.1951080e-03   1.3567286e-01   1.0580723e-01  -3.6693828e+06
   3.0330110e-09  -3.1853347e-03   1.3562170e-01   1.0584779e-01  -3.6581460e+06
   3.0356786e-09  -3.1755913e-03   1.3557071e-01   1.0588825e-01  -3.6469437e+06
   3.0383461e-09  -3.1658778e-03   1.3551989e-01   1.0592859e-01  -3.6357758e+06
   3.0410137e-09  -3.1561940e-03   1.3546924e-01   1.0596883e-01  -3.6246423e+06
   3.0436812e-09  -3.1465399e-03   1.3541877e-01   1.0600896e-01  -3.6135430e+06
   3.0463488e-09  -3.1369153e-03   1.3536848e-01   1.0604898e-01  -3.6024777e+06
   3.0490163e-09  -3.1273203e-03   1.3531835e-01   1.0608889e-01  -3.5914465e+06
   3.0516839e-09  -3.1177545e-03   1.3526840e-01   1.0612870e-01  -3.5804492e+06
   3.0543515e-09  -3.1082181e-03   1.3521861e-01   1.0616839e-01  -3.5694857e+06
   3.0570190e-09  -3.0987109e-03   1.3516900e-01   1.0620798e-01  -3.5585559e+06
   3.0596866e-09  -3.0892328e-03   1.3511956e-01   1.0624747e-01  -3.5476597e+06
   3.0623541e-09  -3.0797837e-03   1.3507028e-01   1.0628684e-01  -3.5367969e+06
   3.0650217e-09  -3.0703636e-03   1.3502117e-01   1.0632611e-01  -3.5259675e+06
   3.0676892e-09  -3.0609723e-03   1.3497223e-01   1.0636527e-01  -3.5151714e+06
   3.0703568e-09  -3.0516097e-03   1.3492346e-01   1.0640433e-01  -3.5044085e+06
   3.0730243e-09  -3.0422758e-03   1.3487485e-01   1.0644328e-01  -3.4936786e+06
   3.0756919e-09  -3.0329705e-03   1.3482641e-01   1.0648213e-01  -3.4829817e+06
   3.0783595e-09  -3.0236937e-03   1.3477814e-01   1.0652087e-01  -3.4723177e+06
   3.0810270e-09  -3.0144453e-03   1.3473003e-01   1.0655950e-01  -3.4616864e+06
   3.0836946e-09  -3.0052252e-03   1.3468208e-01   1.0659803e-01  -3.4510878e+06
   3.0863621e-09  -2.9960333e-03   1.3463429e-01   1.0663646e-01  -3.4405217e+06
   3.0890297e-09  -2.9868696e-03   1.3458667e-01   1.0667478e-01  -3.4299881e+06
   3.0916972e-09  -2.9777339e-03   1.3453921e-01   1.0671300e-01  -3.4194869e+06
   3.0943648e-09  -2.9686262e-03   1.3449191e-01   1.0675111e-01  -3.4090179e+06
   3.0970323e-09  -2.9595464e-03   1.3444478e-01   1.0678912e-01  -3.3985811e+06
   3.0996999e-09  -2.9504944e-03   1.3439780e-01   1.0682703e-01  -3.3881763e+06
   3.1023675e-09  -2.9414701e-03   1.3435098e-01   1.0686483e-01  -3.3778035e+06
   3.1050350e-09  -2.9324734e-03   1.3430432e-01   1.0690253e-01  -3.3674625e+06
   3.1077026e-09  -2.9235042e-03   1.3425782e-01   1.0694013e-01  -3.3571533e+06
   3.1103701e-09  -2.9145626e-03   1.3421148e-01   1.0697762e-01  -3.3468757e+06
   3.1130377e-09  -2.9056483e-03   1.3416529e-01   1.0701502e-01  -3.3366298e+06
   3.1157052e-09  -2.8967612e-03   1.3411926e-01   1.0705231e-01  -3.3264152e+06
   3.1183728e-09  -2.8879014e-03   1.3407339e-01   1.0708950e-01  -3.3162321e+06
   3.1210403e-09  -2.8790688e-03   1.3402767e-01   1.0712659e-01  -3.3060802e+06
   3.1237079e-09  -2.8702631e-03   1.3398211e-01   1.0716358e-01  -3.2959595e+06
   3.1263755e-09  -2.8614844e-03   1.3393670e-01   1.0720046e-01  -3.2858698e+06
   3.1290430e-09  -2.8527326e-03   1.3389145e-01   1.0723725e-01  -3.2758112e+06
   3.1317106e-09  -2.8440076e-03   1.3384635e-01   1.0727393e-01  -3.2657834e+06
   3.1343781e-09  -2.8353092e-03   1.3380140e-01   1.0731052e-01  -3.2557864e+06
   3.1370457e-09  -2.8266376e-03   1.3375660e-01   1.0734700e-01  -3.2458201e+06
   3.1397132e-09  -2.8179924e-03   1.3371196e-01   1.0738339e-01  -3.2358844e+06
   3.1423808e-09  -2.8093737e-03   1.3366747e-01   1.0741967e-01  -3.2259792e+06
   3.1450483e-09  -2.8007814e-03   1.3362312e-01   1.0745586e-01  -3.2161044e+06
   3.1477159e-09  -2.7922154e-03   1.3357893e-01   1.0749195e-01  -3.2062600e+06
   3.1503835e-09  -2.7836756e-03   1.3353488e-01   1.0752794e-01  -3.1964457e+06
   3.1530510e-09  -2.7751620e-03   1.3349099e-01   1.0756383e-01  -3.1866616e+06
   3.1557186e-09  -2.7666744e-03   1.3344724e-01   1.0759962e-01  -3.1769075e+06
   3.1583861e-09  -2.7582128e-03   1.3340364e-01   1.0763531e-01  -3.1671834e+06
   3.1610537e-09  -2.7497771e-03   1.3336019e-01   1.0767091e-01  -3.1574891e+06
   3.1637212e-09  -2.7413672e-03   1.3331689e-01   1.0770641e-01  -3.1478245e+06
   3.1663888e-09  -2.7329831e-03   1.3327373e-01   1.0774181e-01  -3.1381896e+06
   3.1690564e-09  -2.7246246e-03   1.3323071e-01   1.0777711e-01  -3.1285843e+06
   3.1717239e-09  -2.7162917e-03   1.3318784e-01   1.0781232e-01  -3.1190085e+06
   3.1743915e-09  -2.7079843e-03   1.3314512e-01   1.0784743e-01  -3.1094620e+06
   3.1770590e-09  -2.6997024e-03   1.3310254e-01   1.0788244e-01  -3.0999449e+06
   3.1797266e-09  -2.6914457e-03   1.3306010e-01   1.0791736e-01  -3.0904569e+06
   3.1823941e-09  -2.6832144e-03   1.3301781e-01   1.0795218e-01  -3.0809981e+06
   3.1850617e-09  -2.6750083e-03   1.3297565e-01   1.0798690e-01  -3.0715683e+06
   3.1877292e-09  -2.6668272e-03   1.3293364e-01   1.0802153e-01  -3.0621675e+06
   3.1903968e-09  -2.6586712e-03   1.3289177e-01   1.0805607e-01  -3.0527955e+06
   3.1930644e-09  -2.6505402e-03   1.3285005e-01   1.0809051e-01  -3.0434522e+06
   3.1957319e-09  -2.6424340e-03   1.3280846e-01   1.0812485e-01  -3.0341376e+06
   3.1983995e-09  -2.6343527e-03   1.3276701e-01   1.0815910e-01  -3.0248516e+06
   3.2010670e-09  -2.6262961e-03   1.3272570e-01   1.0819326e-01  -3.0155941e+06
   3.2037346e-09  -2.6182641e-03   1.3268453e-01   1.0822732e-01  -3.0063650e+06
   3.2064021e-09  -2.6102568e-03   1.3264350e-01   1.0826129e-01  -2.9971642e+06
   3.2090697e-09  -2.6022739e-03   1.3260261e-01   1.0829516e-01  -2.9879917e+06
   3.2117372e-09  -2.5943155e-03   1.3256185e-01   1.0832894e-01  -2.9788472e+06
   3.2144048e-09  -2.5863814e-03   1.3252123e-01   1.0836263e-01  -2.9697309e+06
   3.2170724e-09  -2.5784716e-03   1.3248075e-01   1.0839622e-01  -2.9606425e+06
   3.2197399e-09  -2.5705860e-03   1.3244040e-01   1.0842972e-01  -2.9515820e+06
   3.2224075e-09  -2.5627246e-03   1.3240019e-01   1.0846313e-01  -2.9425492e+06
   3.2250750e-09  -2.5548872e-03   1.3236011e-01   1.0849645e-01  -2.9335442e+06
   3.2277426e-09  -2.5470738e-03   1.3232017e-01   1.0852967e-01  -2.9245668e+06
   3.2304101e-09  -2.5392843e-03   1.3228036e-01   1.0856281e-01  -2.9156170e+06
   3.2330777e-09  -2.5315186e-03   1.3224068e-01   1.0859585e-01  -2.9066946e+06
   3.2357452e-09  -2.5237767e-03   1.3220114e-01   1.0862880e-01  -2.8977996e+06
   3.2384128e-09  -2.5160585e-03   1.3216173e-01   1.0866165e-01  -2.8889318e+06
   3.2410804e-09  -2.5083639e-03   1.3212245e-01   1.0869442e-01  -2.8800913e+06
   3.2437479e-09  -2.5006928e-03   1.3208330e-01   1.0872710e-01  -2.8712779e+06
   3.2464155e-09  -2.4930453e-03   1.3204428e-01   1.0875968e-01  -2.8624915e+06
   3.2490830e-09  -2.4854211e-03   1.3200540e-01   1.0879218e-01  -2.8537320e+06
   3.2517506e-09  -2.4778203e-03   1.3196664e-01   1.0882458e-01  -2.8449995e+06
   3.2544181e-09  -2.4702427e-03   1.3192801e-01   1.0885690e-01  -2.8362937e+06
   3.2570857e-09  -2.4626883e-03   1.3188952e-01   1.0888913e-01  -2.8276146e+06
   3.2597533e-09  -2.4551570e-03   1.3185115e-01   1.0892126e-01  -2.8189621e+06
   3.2624208e-09  -2.4476488e-03   1.3181291e-01   1.0895331e-01  -2.8103361e+06
   3.2650884e-09  -2.4401636e-03   1.3177479e-01   1.0898527e-01  -2.8017367e+06
   3.2677559e-09  -2.4327012e-03   1.3173681e-01   1.0901714e-01  -2.7931635e+06
   3.2704235e-09  -2.4252617e-03   1.3169895e-01   1.0904892e-01  -2.7846167e+06
   3.2730910e-09  -2.4178449e-03   1.3166121e-01   1.0908061e-01  -2.7760961e+06
   3.2757586e-09  -2.4104509e-03   1.3162361e-01   1.0911222e-01  -2.7676016e+06
   3.2784261e-09  -2.4030795e-03   1.3158612e-01   1.0914373e-01  -2.7591332e+06
   3.2810937e-09  -2.3957306e-03   1.3154877e-01   1.0917516e-01  -2.7506907e+06
   3.2837613e-09  -2.3884042e-03   1.3151154e-01   1.0920650e-01  -2.7422741e+06
   3.2864288e-09  -2.3811002e-03   1.3147443e-01   1.0923776e-01  -2.7338833e+06
   3.2890964e-09  -2.3738186e-03   1.3143744e-01   1.0926892e-01  -2.7255183e+06
   3.2917639e-09  -2.3665592e-03   1.3140058e-01   1.0930000e-01  -2.7171788e+06
   3.2944315e-09  -2.3593221e-03   1.3136384e-01   1.0933100e-01  -2.7088650e+06
   3.2970990e-09  -2.3521071e-03   1.3132723e-01   1.0936190e-01  -2.7005767e+06
   3.2997666e-09  -2.3449142e-03   1.3129073e-01   1.0939273e-01  -2.6923137e+06
   3.3024341e-09  -2.3377433e-03   1.3125436e-01   1.0942346e-01  -2.6840761e+06
   3.3051017e-09  -2.3305943e-03   1.3121811e-01   1.0945411e-01  -2.6758638e+06
   3.3077693e-09  -2.3234673e-03   1.3118197e-01   1.0948467e-01  -2.6676766e+06
   3.3104368e-09  -2.3163620e-03   1.3114596e-01   1.0951515e-01  -2.6595145e+06
   3.3131044e-09  -2.3092784e-03   1.3111007e-01   1.0954555e-01  -2.6513775e+06
   3.3157719e-09  -2.3022166e-03   1.3107430e-01   1.0957586e-01  -2.6432654e+06
   3.3184395e-09  -2.2951763e-03   1.3103864e-01   1.0960608e-01  -2.6351782e+06
   3.3211070e-09  -2.2881576e-03   1.3100311e-01   1.0963622e-01  -2.6271157e+06
   3.3237746e-09  -2.2811603e-03   1.3096769e-01   1.0966627e-01  -2.6190780e+06
   3.3264421e-09  -2.2741845e-03   1.3093239e-01   1.0969625e-01  -2.6110649e+06
   3.3291097e-09  -2.2672300e-03   1.3089721e-01   1.0972613e-01  -2.6030764e+06
   3.3317773e-09  -2.2602967e-03   1.3086214e-01   1.0975594e-01  -2.5951123e+06
   3.3344448e-09  -2.2533847e-03   1.3082719e-01   1.0978566e-01  -2.5871727e+06
   3.3371124e-09  -2.2464939e-03   1.3079236e-01   1.0981530e-01  -2.5792574e+06
   3.3397799e-09  -2.2396241e-03   1.3075764e-01   1.0984485e-01  -2.5713664e+06
   3.3424475e-09  -2.2327753e-03   1.3072304e-01   1.0987432e-01  -2.5634996e+06
   3.3451150e-09  -2.2259475e-03   1.3068855e-01   1.0990371e-01  -2.5556568e+06
   3.3477826e-09  -2.2191406e-03   1.3065417e-01   1.0993302e-01  -2.5478381e+06
   3.3504502e-09  -2.2123545e-03   1.3061991e-01   1.0996224e-01  -2.5400434e+06
   3.3531177e-09  -2.2055891e-03   1.3058577e-01   1.0999138e-01  -2.5322726e+06
   3.3557853e-09  -2.1988445e-03   1.3055173e-01   1.1002044e-01  -2.5245255e+06
   3.3584528e-09  -2.1921205e-03   1.3051781e-01   1.1004942e-01  -2.5168023e+06
   3.3611204e-09  -2.1854171e-03   1.3048400e-01   1.1007832e-01  -2.5091027e+06
   3.3637879e-09  -2.1787341e-03   1.3045031e-01   1.1010714e-01  -2.5014266e+06
   3.3664555e-09  -2.1720717e-03   1.3041672e-01   1.1013588e-01  -2.4937742e+06
   3.3691230e-09  -2.1654295e-03   1.3038324e-01   1.1016453e-01  -2.4861451e+06
   3.3717906e-09  -2.1588078e-03   1.3034988e-01   1.1019311e-01  -2.4785395e+06
   3.3744582e-09  -2.1522062e-03   1.3031663e-01   1.1022160e-01  -2.4709571e+06
   3.3771257e-09  -2.1456249e-03   1.3028348e-01   1.1025001e-01  -2.4633980e+06
   3.3797933e-09  -2.1390637e-03   1.3025045e-01   1.1027835e-01  -2.4558620e+06
   3.3824608e-09  -2.1325226e-03   1.3021752e-01   1.1030660e-01  -2.4483492e+06
   3.3851284e-09  -2.1260015e-03   1.3018471e-01   1.1033478e-01  -2.4408594e+06
   3.3877959e-09  -2.1195003e-03   1.3015200e-01   1.1036288e-01  -2.4333925e+06
   3.3904635e-09  -2.1130190e-03   1.3011940e-01   1.1039089e-01  -2.4259485e+06
   3.3931310e-09  -2.1065576e-03   1.3008691e-01   1.1041883e-01  -2.4185273e+06
   3.3957986e-09  -2.1001159e-03   1.3005452e-01   1.1044669e-01  -2.4111288e+06
   3.3984662e-09  -2.0936939e-03   1.3002224e-01   1.1047447e-01  -2.4037530e+06
   3.4011337e-09  -2.0872916e-03   1.2999007e-01   1.1050217e-01  -2.3963999e+06
   3.4038013e-09  -2.0809088e-03   1.2995800e-01   1.1052980e-01  -2.3890692e+06
   3.4064688e-09  -2.0745456e-03   1.2992604e-01   1.1055735e-01  -2.3817610e+06
   3.4091364e-09  -2.0682019e-03   1.2989419e-01   1.1058482e-01  -2.3744752e+06
   3.4118039e-09  -2.0618775e-03   1.2986244e-01   1.1061221e-01  -2.3672117e+06
   3.4144715e-09  -2.0555725e-03   1.2983079e-01   1.1063952e-01  -2.3599705e+06
   3.4171390e-09  -2.0492868e-03   1.2979925e-01   1.1066676e-01  -2.3527515e+06
   3.4198066e-09  -2.0430203e-03   1.2976781e-01   1.1069392e-01  -2.3455545e+06
   3.4224742e-09  -2.0367730e-03   1.2973648e-01   1.1072100e-01  -2.3383797e+06
   3.4251417e-09  -2.0305448e-03   1.2970525e-01   1.1074801e-01  -2.3312268e+06
   3.4278093e-09  -2.0243356e-03   1.2967412e-01   1.1077494e-01  -2.3240958e+06
   3.4304768e-09  -2.0181454e-03   1.2964309e-01   1.1080180e-01  -2.3169867e+06
   3.4331444e-09  -2.0119742e-03   1.2961217e-01   1.1082858e-01  -2.3098993e+06
   3.4358119e-09  -2.0058218e-03   1.2958135e-01   1.1085528e-01  -2.3028337e+06
   3.4384795e-09  -1.9996883e-03   1.2955063e-01   1.1088191e-01  -2.2957897e+06
   3.4411470e-09  -1.9935735e-03   1.2952001e-01   1.1090846e-01  -2.2887673e+06
   3.4438146e-09  -1.9874775e-03   1.2948949e-01   1.1093494e-01  -2.2817664e+06
   3.4464822e-09  -1.9814000e-03   1.2945907e-01   1.1096134e-01  -2.2747869e+06
   3.4491497e-09  -1.9753412e-03   1.2942875e-01   1.1098767e-01  -2.2678288e+06
   3.4518173e-09  -1.9693009e-03   1.2939853e-01   1.1101392e-01  -2.2608921e+06
   3.4544848e-09  -1.9632791e-03   1.2936841e-01   1.1104010e-01  -2.2539765e+06
   3.4571524e-09  -1.9572757e-03   1.2933839e-01   1.1106621e-01  -2.2470822e+06
   3.4598199e-09  -1.9512906e-03   1.2930846e-01   1.1109224e-01  -2.2402090e+06
   3.4624875e-09  -1.9453239e-03   1.2927864e-01   1.1111820e-01  -2.2333568e+06
   3.4651551e-09  -1.9393754e-03   1.2924891e-01   1.1114408e-01  -2.2265257e+06
   3.4678226e-09  -1.9334451e-03   1.2921928e-01   1.1116989e-01  -2.2197154e+06
   3.4704902e-09  -1.9275329e-03   1.2918975e-01   1.1119563e-01  -2.2129260e+06
   3.4731577e-09  -1.9216389e-03   1.2916032e-01   1.1122129e-01  -2.2061574e+06
   3.4758253e-09  -1.9157628e-03   1.2913098e-01   1.1124688e-01  -2.1994096e+06
   3.4784928e-09  -1.9099048e-03   1.2910173e-01   1.1127240e-01  -2.1926824e+06
   3.4811604e-09  -1.9040646e-03   1.2907259e-01   1.1129785e-01  -2.1859758e+06
   3.4838279e-09  -1.8982423e-03   1.2904354e-01   1.1132322e-01  -2.1792898e+06
   3.4864955e-09  -1.8924378e-03   1.2901458e-01   1.1134852e-01  -2.1726242e+06
   3.4891631e-09  -1.8866511e-03   1.2898572e-01   1.1137375e-01  -2.1659790e+06
   3.4918306e-09  -1.8808821e-03   1.2895695e-01   1.1139891e-01  -2.1593542e+06
   3.4944982e-09  -1.8751307e-03   1.2892828e-01   1.1142400e-01  -2.1527497e+06
   3.4971657e-09  -1.8693969e-03   1.2889970e-01   1.1144902e-01  -2.1461654e+06
   3.4998333e-09  -1.8636806e-03   1.2887121e-01   1.1147396e-01  -2.1396013e+06
   3.5025008e-09  -1.8579819e-03   1.2884282e-01   1.1149883e-01  -2.1330573e+06
   3.5051684e-09  -1.8523005e-03   1.2881452e-01   1.1152364e-01  -2.1265333e+06
   3.5078359e-09  -1.8466365e-03   1.2878632e-01   1.1154837e-01  -2.1200293e+06
   3.5105035e-09  -1.8409899e-03   1.2875820e-01   1.1157303e-01  -2.1135453e+06
   3.5131711e-09  -1.8353605e-03   1.2873018e-01   1.1159762e-01  -2.1070810e+06
   3.5158386e-09  -1.8297484e-03   1.2870225e-01   1.1162215e-01  -2.1006366e+06
   3.5185062e-09  -1.8241534e-03   1.2867441e-01   1.1164660e-01  -2.0942119e+06
   3.5211737e-09  -1.8185755e-03   1.2864666e-01   1.1167098e-01  -2.0878069e+06
   3.5238413e-09  -1.8130147e-03   1.2861900e-01   1.1169529e-01  -2.0814215e+06
   3.5265088e-09  -1.8074709e-03   1.2859143e-01   1.1171954e-01  -2.0750557e+06
   3.5291764e-09  -1.8019440e-03   1.2856395e-01   1.1174371e-01  -2.0687093e+06
   3.5318439e-09  -1.7964341e-03   1.2853656e-01   1.1176782e-01  -2.0623824e+06
   3.5345115e-09  -1.7909410e-03   1.2850926e-01   1.1179185e-01  -2.0560749e+06
   3.5371791e-09  -1.7854646e-03   1.2848205e-01   1.1181582e-01  -2.0497866e+06
   3.5398466e-09  -1.7800051e-03   1.2845493e-01   1.1183972e-01  -2.0435177e+06
   3.5425142e-09  -1.7745622e-03   1.2842790e-01   1.1186356e-01  -2.0372679e+06
   3.5451817e-09  -1.7691360e-03   1.2840095e-01   1.1188732e-01  -2.0310372e+06
   3.5478493e-09  -1.7637264e-03   1.2837410e-01   1.1191102e-01  -2.0248257e+06
   3.5505168e-09  -1.7583333e-03   1.2834733e-01   1.1193464e-01  -2.0186331e+06
   3.5531844e-09  -1.7529568e-03   1.2832065e-01   1.1195820e-01  -2.0124595e+06
   3.5558520e-09  -1.7475966e-03   1.2829405e-01   1.1198170e-01  -2.0063049e+06
   3.5585195e-09  -1.7422529e-03   1.2826754e-01   1.1200513e-01  -2.0001690e+06
   3.5611871e-09  -1.7369255e-03   1.2824112e-01   1.1202849e-01  -1.9940520e+06
   3.5638546e-09  -1.7316144e-03   1.2821478e-01   1.1205178e-01  -1.9879537e+06
   3.5665222e-09  -1.7263195e-03   1.2818853e-01   1.1207500e-01  -1.9818740e+06
   3.5691897e-09  -1.7210408e-03   1.2816237e-01   1.1209816e-01  -1.9758130e+06
   3.5718573e-09  -1.7157783e-03   1.2813629e-01   1.1212126e-01  -1.9697705e+06
   3.5745248e-09  -1.7105319e-03   1.2811029e-01   1.1214429e-01  -1.9637466e+06
   3.5771924e-09  -1.7053015e-03   1.2808438e-01   1.1216725e-01  -1.9577410e+06
   3.5798600e-09  -1.7000871e-03   1.2805856e-01   1.1219014e-01  -1.9517539e+06
   3.5825275e-09  -1.6948886e-03   1.2803281e-01   1.1221297e-01  -1.9457851e+06
   3.5851951e-09  -1.6897061e-03   1.2800716e-01   1.1223574e-01  -1.9398345e+06
   3.5878626e-09  -1.6845394e-03   1.2798158e-01   1.1225844e-01  -1.9339022e+06
   3.5905302e-09  -1.6793885e-03   1.2795609e-01   1.1228108e-01  -1.9279881e+06
   3.5931977e-09  -1.6742533e-03   1.2793068e-01   1.1230365e-01  -1.9220920e+06
   3.5958653e-09  -1.6691339e-03   1.2790535e-01   1.1232615e-01  -1.9162140e+06
   3.5985328e-09  -1.6640301e-03   1.2788011e-01   1.1234859e-01  -1.9103540e+06
   3.6012004e-09  -1.6589419e-03   1.2785495e-01   1.1237097e-01  -1.9045119e+06
   3.6038680e-09  -1.6538693e-03   1.2782987e-01   1.1239328e-01  -1.8986878e+06
   3.6065355e-09  -1.6488122e-03   1.2780487e-01   1.1241553e-01  -1.8928814e+06
   3.6092031e-09  -1.6437706e-03   1.2777995e-01   1.1243772e-01  -1.8870928e+06
   3.6118706e-09  -1.6387443e-03   1.2775511e-01   1.1245984e-01  -1.8813220e+06
   3.6145382e-09  -1.6337335e-03   1.2773036e-01   1.1248189e-01  -1.8755688e+06
   3.6172057e-09  -1.6287380e-03   1.2770568e-01   1.1250389e-01  -1.8698332e+06
   3.6198733e-09  -1.6237577e-03   1.2768108e-01   1.1252582e-01  -1.8641152e+06
   3.6225408e-09  -1.6187927e-03   1.2765657e-01   1.1254769e-01  -1.8584147e+06
   3.6252084e-09  -1.6138428e-03   1.2763213e-01   1.1256949e-01  -1.8527316e+06
   3.6278760e-09  -1.6089081e-03   1.2760777e-01   1.1259124e-01  -1.8470660e+06
   3.6305435e-09  -1.6039885e-03   1.2758349e-01   1.1261292e-01  -1.8414177e+06
   3.6332111e-09  -1.5990839e-03   1.2755929e-01   1.1263454e-01  -1.8357866e+06
   3.6358786e-09  -1.5941944e-03   1.2753517e-01   1.1265609e-01  -1.8301728e+06
   3.6385462e-09  -1.5893198e-03   1.2751113e-01   1.1267759e-01  -1.8245762e+06
   3.6412137e-09  -1.5844600e-03   1.2748716e-01   1.1269902e-01  -1.8189968e+06
   3.6438813e-09  -1.5796152e-03   1.2746327e-01   1.1272039e-01  -1.8134344e+06
   3.6465488e-09  -1.5747852e-03   1.2743946e-01   1.1274170e-01  -1.8078890e+06
   3.6492164e-09  -1.5699699e-03   1.2741573e-01   1.1276295e-01  -1.8023606e+06
   3.6518840e-09  -1.5651693e-03   1.2739207e-01   1.1278413e-01  -1.7968491e+06
   3.6545515e-09  -1.5603835e-03   1.2736849e-01   1.1280526e-01  -1.7913545e+06
   3.6572191e-09  -1.5556123e-03   1.2734499e-01   1.1282633e-01  -1.7858767e+06
   3.6598866e-09  -1.5508556e-03   1.2732156e-01   1.1284733e-01  -1.7804157e+06
   3.6625542e-09  -1.5461135e-03   1.2729821e-01   1.1286827e-01  -1.7749714e+06
   3.6652217e-09  -1.5413859e-03   1.2727493e-01   1.1288916e-01  -1.7695438e+06
   3.6678893e-09  -1.5366728e-03   1.2725173e-01   1.1290998e-01  -1.7641328e+06
   3.6705569e-09  -1.5319741e-03   1.2722860e-01   1.1293074e-01  -1.7587383e+06
   3.6732244e-09  -1.5272897e-03   1.2720555e-01   1.1295145e-01  -1.7533603e+06
   3.6758920e-09  -1.5226197e-03   1.2718258e-01   1.1297209e-01  -1.7479989e+06
   3.6785595e-09  -1.5179639e-03   1.2715967e-01   1.1299268e-01  -1.7426538e+06
   3.6812271e-09  -1.5133224e-03   1.2713684e-01   1.1301320e-01  -1.7373251e+06
   3.6838946e-09  -1.5086951e-03   1.2711409e-01   1.1303367e-01  -1.7320127e+06
   3.6865622e-09  -1.5040819e-03   1.2709141e-01   1.1305408e-01  -1.7267165e+06
   3.6892297e-09  -1.4994829e-03   1.2706880e-01   1.1307442e-01  -1.7214366e+06
   3.6918973e-09  -1.4948978e-03   1.2704626e-01   1.1309471e-01  -1.7161728e+06
   3.6945649e-09  -1.4903269e-03   1.2702380e-01   1.1311495e-01  -1.7109251e+06
   3.6972324e-09  -1.4857699e-03   1.2700141e-01   1.1313512e-01  -1.7056935e+06
   3.6999000e-09  -1.4812268e-03   1.2697909e-01   1.1315523e-01  -1.7004779e+06
   3.7025675e-09  -1.4766976e-03   1.2695685e-01   1.1317529e-01  -1.6952783e+06
   3.7052351e-09  -1.4721823e-03   1.2693467e-01   1.1319529e-01  -1.6900946e+06
   3.7079026e-09  -1.4676807e-03   1.2691257e-01   1.1321523e-01  -1.6849267e+06
   3.7105702e-09  -1.4631930e-03   1.2689054e-01   1.1323511e-01  -1.6797747e+06
   3.7132377e-09  -1.4587189e-03   1.2686858e-01   1.1325494e-01  -1.6746384e+06
   3.7159053e-09  -1.4542586e-03   1.2684669e-01   1.1327471e-01  -1.6695179e+06
   3.7185729e-09  -1.4498119e-03   1.2682487e-01   1.1329442e-01  -1.6644130e+06
   3.7212404e-09  -1.4453787e-03   1.2680312e-01   1.1331407e-01  -1.6593237e+06
   3.7239080e-09  -1.4409592e-03   1.2678145e-01   1.1333367e-01  -1.6542500e+06
   3.7265755e-09  -1.4365531e-03   1.2675984e-01   1.1335321e-01  -1.6491919e+06
   3.7292431e-09  -1.4321605e-03   1.2673830e-01   1.1337269e-01  -1.6441492e+06
   3.7319106e-09  -1.4277814e-03   1.2671683e-01   1.1339212e-01  -1.6391220e+06
   3.7345782e-09  -1.4234156e-03   1.2669543e-01   1.1341149e-01  -1.6341101e+06
   3.7372457e-09  -1.4190632e-03   1.2667410e-01   1.1343081e-01  -1.6291136e+06
   3.7399133e-09  -1.4147241e-03   1.2665283e-01   1.1345007e-01  -1.6241324e+06
   3.7425809e-09  -1.4103983e-03   1.2663164e-01   1.1346927e-01  -1.6191664e+06
   3.7452484e-09  -1.4060857e-03   1.2661051e-01   1.1348842e-01  -1.6142156e+06
   3.7479160e-09  -1.4017862e-03   1.2658946e-01   1.1350752e-01  -1.6092800e+06
   3.7505835e-09  -1.3975000e-03   1.2656847e-01   1.1352655e-01  -1.6043595e+06
   3.7532511e-09  -1.3932268e-03   1.2654754e-01   1.1354554e-01  -1.5994540e+06
   3.7559186e-09  -1.3889667e-03   1.2652669e-01   1.1356446e-01  -1.5945635e+06
   3.7585862e-09  -1.3847196e-03   1.2650590e-01   1.1358334e-01  -1.5896880e+06
   3.7612538e-09  -1.3804855e-03   1.2648518e-01   1.1360215e-01  -1.5848275e+06
   3.7639213e-09  -1.3762644e-03   1.2646452e-01   1.1362092e-01  -1.5799818e+06
   3.7665889e-09  -1.3720561e-03   1.2644393e-01   1.1363963e-01  -1.5751509e+06
   3.7692564e-09  -1.3678607e-03   1.2642341e-01   1.1365828e-01  -1.5703348e+06
   3.7719240e-09  -1.3636782e-03   1.2640295e-01   1.1367688e-01  -1.5655334e+06
   3.7745915e-09  -1.3595084e-03   1.2638256e-01   1.1369543e-01  -1.5607468e+06
   3.7772591e-09  -1.3553514e-03   1.2636224e-01   1.1371392e-01  -1.5559748e+06
   3.7799266e-09  -1.3512071e-03   1.2634198e-01   1.1373236e-01  -1.5512174e+06
   3.7825942e-09  -1.3470755e-03   1.2632178e-01   1.1375075e-01  -1.5464745e+06
   3.7852618e-09  -1.3429565e-03   1.2630165e-01   1.1376908e-01  -1.5417462e+06
   3.7879293e-09  -1.3388501e-03   1.2628159e-01   1.1378736e-01  -1.5370323e+06
   3.7905969e-09  -1.3347562e-03   1.2626159e-01   1.1380559e-01  -1.5323329e+06
   3.7932644e-09  -1.3306749e-03   1.2624165e-01   1.1382376e-01  -1.5276478e+06
   3.7959320e-09  -1.3266061e-03   1.2622178e-01   1.1384188e-01  -1.5229771e+06
   3.7985995e-09  -1.3225496e-03   1.2620197e-01   1.1385995e-01  -1.5183207e+06
   3.8012671e-09  -1.3185056e-03   1.2618222e-01   1.1387796e-01  -1.5136785e+06
   3.8039346e-09  -1.3144740e-03   1.2616254e-01   1.1389593e-01  -1.5090505e+06
   3.8066022e-09  -1.3104547e-03   1.2614292e-01   1.1391384e-01  -1.5044367e+06
   3.8092698e-09  -1.3064476e-03   1.2612336e-01   1.1393170e-01  -1.4998370e+06
   3.8119373e-09  -1.3024529e-03   1.2610387e-01   1.1394951e-01  -1.4952514e+06
   3.8146049e-09  -1.2984703e-03   1.2608444e-01   1.1396726e-01  -1.4906798e+06
   3.8172724e-09  -1.2944999e-03   1.2606507e-01   1.1398496e-01  -1.4861222e+06
   3.8199400e-09  -1.2905416e-03   1.2604577e-01   1.1400262e-01  -1.4815785e+06
   3.8226075e-09  -1.2865955e-03   1.2602652e-01   1.1402022e-01  -1.4770487e+06
   3.8252751e-09  -1.2826614e-03   1.2600734e-01   1.1403777e-01  -1.4725328e+06
   3.8279426e-09  -1.2787394e-03   1.2598822e-01   1.1405527e-01  -1.4680308e+06
   3.8306102e-09  -1.2748293e-03   1.2596916e-01   1.1407271e-01  -1.4635425e+06
   3.8332778e-09  -1.2709312e-03   1.2595016e-01   1.1409011e-01  -1.4590679e+06
   3.8359453e-09  -1.2670450e-03   1.2593122e-01   1.1410746e-01  -1.4546070e+06
   3.8386129e-09  -1.2631707e-03   1.2591234e-01   1.1412475e-01  -1.4501598e+06
   3.8412804e-09  -1.2593082e-03   1.2589352e-01   1.1414200e-01  -1.4457261e+06
   3.8439480e-09  -1.2554576e-03   1.2587477e-01   1.1415919e-01  -1.4413061e+06
   3.8466155e-09  -1.2516187e-03   1.2585607e-01   1.1417634e-01  -1.4368996e+06
   3.8492831e-09  -1.2477915e-03   1.2583743e-01   1.1419343e-01  -1.4325065e+06
   3.8519507e-09  -1.2439761e-03   1.2581885e-01   1.1421048e-01  -1.4281269e+06
   3.8546182e-09  -1.2401723e-03   1.2580034e-01   1.1422747e-01  -1.4237607e+06
   3.8572858e-09  -1.2363801e-03   1.2578188e-01   1.1424442e-01  -1.4194078e+06
   3.8599533e-09  -1.2325996e-03   1.2576348e-01   1.1426132e-01  -1.4150683e+06
   3.8626209e-09  -1.2288306e-03   1.2574514e-01   1.1427816e-01  -1.4107421e+06
   3.8652884e-09  -1.2250731e-03   1.2572685e-01   1.1429496e-01  -1.4064290e+06
   3.8679560e-09  -1.2213271e-03   1.2570863e-01   1.1431171e-01  -1.4021292e+06
   3.8706235e-09  -1.2175926e-03   1.2569046e-01   1.1432841e-01  -1.3978426e+06
   3.8732911e-09  -1.2138695e-03   1.2567236e-01   1.1434506e-01  -1.3935690e+06
   3.8759587e-09  -1.2101577e-03   1.2565431e-01   1.1436167e-01  -1.3893085e+06
   3.8786262e-09  -1.2064573e-03   1.2563631e-01   1.1437822e-01  -1.3850611e+06
   3.8812938e-09  -1.2027683e-03   1.2561838e-01   1.1439473e-01  -1.3808267e+06
   3.8839613e-09  -1.1990905e-03   1.2560050e-01   1.1441119e-01  -1.3766052e+06
   3.8866289e-09  -1.1954239e-03   1.2558268e-01   1.1442760e-01  -1.3723966e+06
   3.8892964e-09  -1.1917686e-03   1.2556492e-01   1.1444396e-01  -1.3682009e+06
   3.8919640e-09  -1.1881244e-03   1.2554721e-01   1.1446028e-01  -1.3640180e+06
   3.8946315e-09  -1.1844914e-03   1.2552956e-01   1.1447654e-01  -1.3598480e+06
   3.8972991e-09  -1.1808694e-03   1.2551197e-01   1.1449276e-01  -1.3556907e+06
   3.8999667e-09  -1.1772586e-03   1.2549443e-01   1.1450893e-01  -1.3515461e+06
