   0.0000000e+00  -1.9511397e-01   6.1910277e+00   1.5774255e-06  -5.1698822e+08
   2.6675559e-12  -1.9374020e-01   6.1802708e+00   1.7523447e-06  -5.1316383e+08
   5.3351117e-12  -1.9237665e-01   6.1690498e+00   1.9449626e-06  -5.0933696e+08
   8.0026676e-12  -1.9102331e-01   6.1573520e+00   2.1568636e-06  -5.0550775e+08
   1.0670223e-11  -1.8968018e-01   6.1451646e+00   2.3897506e-06  -5.0167636e+08
   1.3337779e-11  -1.8834729e-01   6.1324752e+00   2.6454503e-06  -4.9784297e+08
   1.6005335e-11  -1.8702463e-01   6.1192715e+00   2.9259206e-06  -4.9400777e+08
   1.8672891e-11  -1.8571220e-01   6.1055414e+00   3.2332561e-06  -4.9017097e+08
   2.1340447e-11  -1.8441001e-01   6.0912732e+00   3.5696948e-06  -4.8633281e+08
   2.4008003e-11  -1.8311806e-01   6.0764555e+00   3.9376242e-06  -4.8249355e+08
   2.6675559e-11  -1.8183636e-01   6.0610771e+00   4.3395878e-06  -4.7865344e+08
   2.9343114e-11  -1.8056490e-01   6.0451274e+00   4.7782908e-06  -4.7481280e+08
   3.2010670e-11  -1.7930369e-01   6.0285964e+00   5.2566065e-06  -4.7097192e+08
   3.4678226e-11  -1.7805273e-01   6.0114743e+00   5.7775815e-06  -4.6713115e+08
   3.7345782e-11  -1.7681202e-01   5.9937521e+00   6.3444416e-06  -4.6329085e+08
   4.0013338e-11  -1.7558155e-01   5.9754212e+00   6.9605968e-06  -4.5945139e+08
   4.2680894e-11  -1.7436132e-01   5.9564739e+00   7.6296462e-06  -4.5561318e+08
   4.5348449e-11  -1.7315133e-01   5.9369029e+00   8.3553822e-06  -4.5177664e+08
   4.8016005e-11  -1.7195157e-01   5.9167018e+00   9.1417948e-06  -4.4794223e+08
   5.0683561e-11  -1.7076204e-01   5.8958651e+00   9.9930745e-06  -4.4411040e+08
   5.3351117e-11  -1.6958273e-01   5.8743878e+00   1.0913616e-05  -4.4028166e+08
   5.6018673e-11  -1.6841363e-01   5.8522660e+00   1.1908019e-05  -4.3645651e+08
   5.8686229e-11  -1.6725473e-01   5.8294966e+00   1.2981093e-05  -4.3263550e+08
   6.1353785e-11  -1.6610601e-01   5.8060773e+00   1.4137853e-05  -4.2881918e+08
   6.4021340e-11  -1.6496747e-01   5.7820071e+00   1.5383525e-05  -4.2500812e+08
   6.6688896e-11  -1.6383909e-01   5.7572855e+00   1.6723542e-05  -4.2120294e+08
   6.9356452e-11  -1.6272085e-01   5.7319135e+00   1.8163544e-05  -4.1740423e+08
   7.2024008e-11  -1.6161274e-01   5.7058926e+00   1.9709375e-05  -4.1361265e+08
   7.4691564e-11  -1.6051474e-01   5.6792258e+00   2.1367080e-05  -4.0982885e+08
   7.7359120e-11  -1.5942681e-01   5.6519168e+00   2.3142901e-05  -4.0605349e+08
   8.0026676e-11  -1.5834895e-01   5.6239707e+00   2.5043272e-05  -4.0228727e+08
   8.2694231e-11  -1.5728112e-01   5.5953932e+00   2.7074815e-05  -3.9853089e+08
   8.5361787e-11  -1.5622331e-01   5.5661915e+00   2.9244329e-05  -3.9478506e+08
   8.8029343e-11  -1.5517547e-01   5.5363737e+00   3.1558785e-05  -3.9105051e+08
   9.0696899e-11  -1.5413758e-01   5.5059487e+00   3.4025319e-05  -3.8732799e+08
   9.3364455e-11  -1.5310960e-01   5.4749269e+00   3.6651219e-05  -3.8361823e+08
   9.6032011e-11  -1.5209151e-01   5.4433193e+00   3.9443918e-05  -3.7992200e+08
   9.8699567e-11  -1.5108326e-01   5.4111380e+00   4.2410981e-05  -3.7624006e+08
   1.0136712e-10  -1.5008482e-01   5.3783962e+00   4.5560092e-05  -3.7257317e+08
   1.0403468e-10  -1.4909614e-01   5.3451080e+00   4.8899047e-05  -3.6892211e+08
   1.0670223e-10  -1.4811718e-01   5.3112881e+00   5.2435734e-05  -3.6528764e+08
   1.0936979e-10  -1.4714790e-01   5.2769525e+00   5.6178126e-05  -3.6167054e+08
   1.1203735e-10  -1.4618824e-01   5.2421177e+00   6.0134260e-05  -3.5807157e+08
   1.1470490e-10  -1.4523817e-01   5.2068011e+00   6.4312231e-05  -3.5449150e+08
   1.1737246e-10  -1.4429763e-01   5.1710207e+00   6.8720169e-05  -3.5093108e+08
   1.2004001e-10  -1.4336656e-01   5.1347953e+00   7.3366227e-05  -3.4739107e+08
   1.2270757e-10  -1.4244492e-01   5.0981443e+00   7.8258570e-05  -3.4387220e+08
   1.2537513e-10  -1.4153263e-01   5.0610875e+00   8.3405353e-05  -3.4037520e+08
   1.2804268e-10  -1.4062966e-01   5.0236455e+00   8.8814710e-05  -3.3690079e+08
   1.3071024e-10  -1.3973592e-01   4.9858391e+00   9.4494736e-05  -3.3344967e+08
   1.3337779e-10  -1.3885137e-01   4.9476895e+00   1.0045348e-04  -3.3002253e+08
   1.3604535e-10  -1.3797593e-01   4.9092183e+00   1.0669891e-04  -3.2662004e+08
   1.3871290e-10  -1.3710955e-01   4.8704473e+00   1.1323892e-04  -3.2324284e+08
   1.4138046e-10  -1.3625214e-01   4.8313986e+00   1.2008132e-04  -3.1989156e+08
   1.4404802e-10  -1.3540365e-01   4.7920944e+00   1.2723380e-04  -3.1656681e+08
   1.4671557e-10  -1.3456400e-01   4.7525569e+00   1.3470392e-04  -3.1326916e+08
   1.4938313e-10  -1.3373311e-01   4.7128085e+00   1.4249912e-04  -3.0999919e+08
   1.5205068e-10  -1.3291092e-01   4.6728714e+00   1.5062670e-04  -3.0675743e+08
   1.5471824e-10  -1.3209734e-01   4.6327678e+00   1.5909376e-04  -3.0354438e+08
   1.5738580e-10  -1.3129231e-01   4.5925198e+00   1.6790730e-04  -3.0036052e+08
   1.6005335e-10  -1.3049574e-01   4.5521492e+00   1.7707408e-04  -2.9720630e+08
   1.6272091e-10  -1.2970754e-01   4.5116777e+00   1.8660072e-04  -2.9408217e+08
   1.6538846e-10  -1.2892765e-01   4.4711267e+00   1.9649362e-04  -2.9098850e+08
   1.6805602e-10  -1.2815597e-01   4.4305171e+00   2.0675898e-04  -2.8792566e+08
   1.7072357e-10  -1.2739244e-01   4.3898698e+00   2.1740281e-04  -2.8489401e+08
   1.7339113e-10  -1.2663695e-01   4.3492049e+00   2.2843090e-04  -2.8189384e+08
   1.7605869e-10  -1.2588943e-01   4.3085424e+00   2.3984882e-04  -2.7892543e+08
   1.7872624e-10  -1.2514979e-01   4.2679016e+00   2.5166191e-04  -2.7598904e+08
   1.8139380e-10  -1.2441794e-01   4.2273014e+00   2.6387531e-04  -2.7308488e+08
   1.8406135e-10  -1.2369381e-01   4.1867603e+00   2.7649391e-04  -2.7021315e+08
   1.8672891e-10  -1.2297729e-01   4.1462960e+00   2.8952239e-04  -2.6737401e+08
   1.8939647e-10  -1.2226831e-01   4.1059259e+00   3.0296520e-04  -2.6456759e+08
   1.9206402e-10  -1.2156678e-01   4.0656666e+00   3.1682654e-04  -2.6179400e+08
   1.9473158e-10  -1.2087260e-01   4.0255344e+00   3.3111041e-04  -2.5905332e+08
   1.9739913e-10  -1.2018569e-01   3.9855447e+00   3.4582057e-04  -2.5634560e+08
   2.0006669e-10  -1.1950596e-01   3.9457125e+00   3.6096055e-04  -2.5367086e+08
   2.0273424e-10  -1.1883333e-01   3.9060520e+00   3.7653368e-04  -2.5102911e+08
   2.0540180e-10  -1.1816770e-01   3.8665769e+00   3.9254304e-04  -2.4842032e+08
   2.0806936e-10  -1.1750898e-01   3.8273003e+00   4.0899152e-04  -2.4584444e+08
   2.1073691e-10  -1.1685709e-01   3.7882347e+00   4.2588177e-04  -2.4330140e+08
   2.1340447e-10  -1.1621194e-01   3.7493919e+00   4.4321626e-04  -2.4079111e+08
   2.1607202e-10  -1.1557344e-01   3.7107830e+00   4.6099723e-04  -2.3831345e+08
   2.1873958e-10  -1.1494150e-01   3.6724187e+00   4.7922674e-04  -2.3586829e+08
   2.2140714e-10  -1.1431604e-01   3.6343091e+00   4.9790665e-04  -2.3345546e+08
   2.2407469e-10  -1.1369697e-01   3.5964633e+00   5.1703862e-04  -2.3107481e+08
   2.2674225e-10  -1.1308421e-01   3.5588905e+00   5.3662413e-04  -2.2872613e+08
   2.2940980e-10  -1.1247766e-01   3.5215986e+00   5.5666450e-04  -2.2640922e+08
   2.3207736e-10  -1.1187724e-01   3.4845956e+00   5.7716085e-04  -2.2412385e+08
   2.3474491e-10  -1.1128288e-01   3.4478884e+00   5.9811414e-04  -2.2186979e+08
   2.3741247e-10  -1.1069448e-01   3.4114838e+00   6.1952518e-04  -2.1964679e+08
   2.4008003e-10  -1.1011196e-01   3.3753879e+00   6.4139461e-04  -2.1745458e+08
   2.4274758e-10  -1.0953524e-01   3.3396061e+00   6.6372294e-04  -2.1529288e+08
   2.4541514e-10  -1.0896425e-01   3.3041436e+00   6.8651051e-04  -2.1316141e+08
   2.4808269e-10  -1.0839889e-01   3.2690052e+00   7.0975753e-04  -2.1105987e+08
   2.5075025e-10  -1.0783909e-01   3.2341948e+00   7.3346409e-04  -2.0898795e+08
   2.5341781e-10  -1.0728477e-01   3.1997163e+00   7.5763015e-04  -2.0694534e+08
   2.5608536e-10  -1.0673585e-01   3.1655730e+00   7.8225553e-04  -2.0493171e+08
   2.5875292e-10  -1.0619225e-01   3.1317677e+00   8.0733995e-04  -2.0294673e+08
   2.6142047e-10  -1.0565391e-01   3.0983031e+00   8.3288303e-04  -2.0099007e+08
   2.6408803e-10  -1.0512073e-01   3.0651811e+00   8.5888427e-04  -1.9906138e+08
   2.6675559e-10  -1.0459266e-01   3.0324036e+00   8.8534307e-04  -1.9716033e+08
   2.6942314e-10  -1.0406961e-01   2.9999721e+00   9.1225874e-04  -1.9528654e+08
   2.7209070e-10  -1.0355152e-01   2.9678875e+00   9.3963050e-04  -1.9343968e+08
   2.7475825e-10  -1.0303831e-01   2.9361508e+00   9.6745748e-04  -1.9161939e+08
   2.7742581e-10  -1.0252990e-01   2.9047623e+00   9.9573875e-04  -1.8982529e+08
   2.8009336e-10  -1.0202624e-01   2.8737224e+00   1.0244733e-03  -1.8805705e+08
   2.8276092e-10  -1.0152726e-01   2.8430309e+00   1.0536600e-03  -1.8631428e+08
   2.8542848e-10  -1.0103288e-01   2.8126875e+00   1.0832977e-03  -1.8459663e+08
   2.8809603e-10  -1.0054304e-01   2.7826917e+00   1.1133852e-03  -1.8290374e+08
   2.9076359e-10  -1.0005767e-01   2.7530427e+00   1.1439213e-03  -1.8123524e+08
   2.9343114e-10  -9.9576711e-02   2.7237394e+00   1.1749045e-03  -1.7959076e+08
   2.9609870e-10  -9.9100099e-02   2.6947808e+00   1.2063335e-03  -1.7796995e+08
   2.9876626e-10  -9.8627770e-02   2.6661654e+00   1.2382069e-03  -1.7637244e+08
   3.0143381e-10  -9.8159663e-02   2.6378915e+00   1.2705232e-03  -1.7479788e+08
   3.0410137e-10  -9.7695718e-02   2.6099576e+00   1.3032809e-03  -1.7324590e+08
   3.0676892e-10  -9.7235873e-02   2.5823618e+00   1.3364784e-03  -1.7171616e+08
   3.0943648e-10  -9.6780072e-02   2.5551019e+00   1.3701142e-03  -1.7020829e+08
   3.1210403e-10  -9.6328255e-02   2.5281758e+00   1.4041865e-03  -1.6872196e+08
   3.1477159e-10  -9.5880367e-02   2.5015812e+00   1.4386938e-03  -1.6725680e+08
   3.1743915e-10  -9.5436351e-02   2.4753158e+00   1.4736344e-03  -1.6581249e+08
   3.2010670e-10  -9.4996153e-02   2.4493770e+00   1.5090066e-03  -1.6438867e+08
   3.2277426e-10  -9.4559717e-02   2.4237621e+00   1.5448086e-03  -1.6298501e+08
   3.2544181e-10  -9.4126992e-02   2.3984685e+00   1.5810388e-03  -1.6160117e+08
   3.2810937e-10  -9.3697925e-02   2.3734935e+00   1.6176953e-03  -1.6023683e+08
   3.3077693e-10  -9.3272465e-02   2.3488340e+00   1.6547763e-03  -1.5889166e+08
   3.3344448e-10  -9.2850561e-02   2.3244873e+00   1.6922802e-03  -1.5756534e+08
   3.3611204e-10  -9.2432163e-02   2.3004502e+00   1.7302050e-03  -1.5625754e+08
   3.3877959e-10  -9.2017223e-02   2.2767198e+00   1.7685489e-03  -1.5496796e+08
   3.4144715e-10  -9.1605692e-02   2.2532930e+00   1.8073102e-03  -1.5369629e+08
   3.4411470e-10  -9.1197524e-02   2.2301666e+00   1.8464870e-03  -1.5244221e+08
   3.4678226e-10  -9.0792672e-02   2.2073374e+00   1.8860774e-03  -1.5120544e+08
   3.4944982e-10  -9.0391091e-02   2.1848022e+00   1.9260796e-03  -1.4998567e+08
   3.5211737e-10  -8.9992735e-02   2.1625579e+00   1.9664918e-03  -1.4878260e+08
   3.5478493e-10  -8.9597561e-02   2.1406010e+00   2.0073121e-03  -1.4759596e+08
   3.5745248e-10  -8.9205526e-02   2.1189284e+00   2.0485386e-03  -1.4642546e+08
   3.6012004e-10  -8.8816587e-02   2.0975367e+00   2.0901695e-03  -1.4527082e+08
   3.6278760e-10  -8.8430702e-02   2.0764226e+00   2.1322030e-03  -1.4413177e+08
   3.6545515e-10  -8.8047831e-02   2.0555829e+00   2.1746371e-03  -1.4300803e+08
   3.6812271e-10  -8.7667933e-02   2.0350141e+00   2.2174701e-03  -1.4189934e+08
   3.7079026e-10  -8.7290968e-02   2.0147130e+00   2.2607001e-03  -1.4080544e+08
   3.7345782e-10  -8.6916897e-02   1.9946763e+00   2.3043253e-03  -1.3972608e+08
   3.7612538e-10  -8.6545683e-02   1.9749005e+00   2.3483437e-03  -1.3866100e+08
   3.7879293e-10  -8.6177287e-02   1.9553825e+00   2.3927536e-03  -1.3760994e+08
   3.8146049e-10  -8.5811673e-02   1.9361189e+00   2.4375531e-03  -1.3657268e+08
   3.8412804e-10  -8.5448804e-02   1.9171064e+00   2.4827405e-03  -1.3554897e+08
   3.8679560e-10  -8.5088644e-02   1.8983418e+00   2.5283138e-03  -1.3453858e+08
   3.8946315e-10  -8.4731160e-02   1.8798217e+00   2.5742713e-03  -1.3354127e+08
   3.9213071e-10  -8.4376315e-02   1.8615431e+00   2.6206112e-03  -1.3255681e+08
   3.9479827e-10  -8.4024077e-02   1.8435025e+00   2.6673317e-03  -1.3158500e+08
   3.9746582e-10  -8.3674411e-02   1.8256969e+00   2.7144309e-03  -1.3062560e+08
   4.0013338e-10  -8.3327286e-02   1.8081230e+00   2.7619072e-03  -1.2967840e+08
   4.0280093e-10  -8.2982669e-02   1.7907778e+00   2.8097587e-03  -1.2874320e+08
   4.0546849e-10  -8.2640529e-02   1.7736580e+00   2.8579836e-03  -1.2781978e+08
   4.0813605e-10  -8.2300834e-02   1.7567606e+00   2.9065802e-03  -1.2690795e+08
   4.1080360e-10  -8.1963553e-02   1.7400825e+00   2.9555468e-03  -1.2600750e+08
   4.1347116e-10  -8.1628658e-02   1.7236206e+00   3.0048816e-03  -1.2511824e+08
   4.1613871e-10  -8.1296118e-02   1.7073720e+00   3.0545829e-03  -1.2423998e+08
   4.1880627e-10  -8.0965905e-02   1.6913336e+00   3.1046490e-03  -1.2337253e+08
   4.2147382e-10  -8.0637990e-02   1.6755025e+00   3.1550781e-03  -1.2251571e+08
   4.2414138e-10  -8.0312344e-02   1.6598758e+00   3.2058685e-03  -1.2166934e+08
   4.2680894e-10  -7.9988941e-02   1.6444506e+00   3.2570186e-03  -1.2083323e+08
   4.2947649e-10  -7.9667753e-02   1.6292239e+00   3.3085267e-03  -1.2000722e+08
   4.3214405e-10  -7.9348754e-02   1.6141931e+00   3.3603910e-03  -1.1919113e+08
   4.3481160e-10  -7.9031917e-02   1.5993552e+00   3.4126100e-03  -1.1838480e+08
   4.3747916e-10  -7.8717217e-02   1.5847076e+00   3.4651819e-03  -1.1758807e+08
   4.4014672e-10  -7.8404629e-02   1.5702474e+00   3.5181052e-03  -1.1680077e+08
   4.4281427e-10  -7.8094127e-02   1.5559720e+00   3.5713781e-03  -1.1602274e+08
   4.4548183e-10  -7.7785687e-02   1.5418787e+00   3.6249991e-03  -1.1525384e+08
   4.4814938e-10  -7.7479285e-02   1.5279650e+00   3.6789665e-03  -1.1449391e+08
   4.5081694e-10  -7.7174897e-02   1.5142281e+00   3.7332787e-03  -1.1374279e+08
   4.5348449e-10  -7.6872501e-02   1.5006655e+00   3.7879342e-03  -1.1300036e+08
   4.5615205e-10  -7.6572072e-02   1.4872748e+00   3.8429313e-03  -1.1226645e+08
   4.5881961e-10  -7.6273589e-02   1.4740534e+00   3.8982684e-03  -1.1154094e+08
   4.6148716e-10  -7.5977030e-02   1.4609988e+00   3.9539440e-03  -1.1082368e+08
   4.6415472e-10  -7.5682373e-02   1.4481086e+00   4.0099564e-03  -1.1011455e+08
   4.6682227e-10  -7.5389595e-02   1.4353805e+00   4.0663043e-03  -1.0941340e+08
   4.6948983e-10  -7.5098677e-02   1.4228120e+00   4.1229859e-03  -1.0872011e+08
   4.7215739e-10  -7.4809597e-02   1.4104009e+00   4.1799998e-03  -1.0803455e+08
   4.7482494e-10  -7.4522335e-02   1.3981448e+00   4.2373444e-03  -1.0735660e+08
   4.7749250e-10  -7.4236870e-02   1.3860415e+00   4.2950182e-03  -1.0668614e+08
   4.8016005e-10  -7.3953184e-02   1.3740887e+00   4.3530197e-03  -1.0602304e+08
   4.8282761e-10  -7.3671257e-02   1.3622842e+00   4.4113474e-03  -1.0536719e+08
   4.8549517e-10  -7.3391069e-02   1.3506260e+00   4.4699997e-03  -1.0471847e+08
   4.8816272e-10  -7.3112601e-02   1.3391118e+00   4.5289753e-03  -1.0407678e+08
   4.9083028e-10  -7.2835836e-02   1.3277395e+00   4.5882725e-03  -1.0344199e+08
   4.9349783e-10  -7.2560754e-02   1.3165072e+00   4.6478899e-03  -1.0281400e+08
   4.9616539e-10  -7.2287338e-02   1.3054126e+00   4.7078262e-03  -1.0219271e+08
   4.9883294e-10  -7.2015570e-02   1.2944539e+00   4.7680797e-03  -1.0157800e+08
   5.0150050e-10  -7.1745433e-02   1.2836290e+00   4.8286490e-03  -1.0096979e+08
   5.0416806e-10  -7.1476909e-02   1.2729360e+00   4.8895327e-03  -1.0036796e+08
   5.0683561e-10  -7.1209982e-02   1.2623730e+00   4.9507294e-03  -9.9772413e+07
   5.0950317e-10  -7.0944635e-02   1.2519380e+00   5.0122376e-03  -9.9183062e+07
   5.1217072e-10  -7.0680852e-02   1.2416293e+00   5.0740559e-03  -9.8599807e+07
   5.1483828e-10  -7.0418616e-02   1.2314450e+00   5.1361829e-03  -9.8022555e+07
   5.1750584e-10  -7.0157912e-02   1.2213832e+00   5.1986171e-03  -9.7451216e+07
   5.2017339e-10  -6.9898724e-02   1.2114423e+00   5.2613572e-03  -9.6885698e+07
   5.2284095e-10  -6.9641036e-02   1.2016204e+00   5.3244017e-03  -9.6325915e+07
   5.2550850e-10  -6.9384834e-02   1.1919158e+00   5.3877492e-03  -9.5771780e+07
   5.2817606e-10  -6.9130102e-02   1.1823268e+00   5.4513984e-03  -9.5223209e+07
   5.3084361e-10  -6.8876826e-02   1.1728518e+00   5.5153479e-03  -9.4680118e+07
   5.3351117e-10  -6.8624992e-02   1.1634892e+00   5.5795963e-03  -9.4142427e+07
   5.3617873e-10  -6.8374584e-02   1.1542372e+00   5.6441422e-03  -9.3610054e+07
   5.3884628e-10  -6.8125589e-02   1.1450943e+00   5.7089842e-03  -9.3082922e+07
   5.4151384e-10  -6.7877993e-02   1.1360590e+00   5.7741211e-03  -9.2560954e+07
   5.4418139e-10  -6.7631783e-02   1.1271297e+00   5.8395514e-03  -9.2044074e+07
   5.4684895e-10  -6.7386945e-02   1.1183048e+00   5.9052738e-03  -9.1532207e+07
   5.4951651e-10  -6.7143465e-02   1.1095830e+00   5.9712869e-03  -9.1025282e+07
   5.5218406e-10  -6.6901330e-02   1.1009626e+00   6.0375894e-03  -9.0523226e+07
   5.5485162e-10  -6.6660529e-02   1.0924423e+00   6.1041800e-03  -9.0025969e+07
   5.5751917e-10  -6.6421047e-02   1.0840206e+00   6.1710573e-03  -8.9533443e+07
   5.6018673e-10  -6.6182873e-02   1.0756962e+00   6.2382200e-03  -8.9045580e+07
   5.6285428e-10  -6.5945993e-02   1.0674676e+00   6.3056668e-03  -8.8562314e+07
   5.6552184e-10  -6.5710397e-02   1.0593335e+00   6.3733964e-03  -8.8083579e+07
   5.6818940e-10  -6.5476072e-02   1.0512926e+00   6.4414074e-03  -8.7609310e+07
   5.7085695e-10  -6.5243005e-02   1.0433435e+00   6.5096986e-03  -8.7139447e+07
   5.7352451e-10  -6.5011187e-02   1.0354849e+00   6.5782686e-03  -8.6673926e+07
   5.7619206e-10  -6.4780604e-02   1.0277157e+00   6.6471161e-03  -8.6212687e+07
   5.7885962e-10  -6.4551245e-02   1.0200344e+00   6.7162399e-03  -8.5755671e+07
   5.8152718e-10  -6.4323101e-02   1.0124399e+00   6.7856386e-03  -8.5302819e+07
   5.8419473e-10  -6.4096158e-02   1.0049310e+00   6.8553109e-03  -8.4854073e+07
   5.8686229e-10  -6.3870407e-02   9.9750646e-01   6.9252557e-03  -8.4409378e+07
   5.8952984e-10  -6.3645837e-02   9.9016510e-01   6.9954715e-03  -8.3968677e+07
   5.9219740e-10  -6.3422437e-02   9.8290578e-01   7.0659571e-03  -8.3531917e+07
   5.9486495e-10  -6.3200196e-02   9.7572736e-01   7.1367113e-03  -8.3099044e+07
   5.9753251e-10  -6.2979106e-02   9.6862870e-01   7.2077327e-03  -8.2670005e+07
   6.0020007e-10  -6.2759154e-02   9.6160871e-01   7.2790202e-03  -8.2244748e+07
   6.0286762e-10  -6.2540332e-02   9.5466631e-01   7.3505723e-03  -8.1823224e+07
   6.0553518e-10  -6.2322629e-02   9.4780041e-01   7.4223880e-03  -8.1405382e+07
   6.0820273e-10  -6.2106036e-02   9.4100998e-01   7.4944658e-03  -8.0991173e+07
   6.1087029e-10  -6.1890543e-02   9.3429397e-01   7.5668046e-03  -8.0580548e+07
   6.1353785e-10  -6.1676140e-02   9.2765136e-01   7.6394031e-03  -8.0173462e+07
   6.1620540e-10  -6.1462818e-02   9.2108115e-01   7.7122601e-03  -7.9769867e+07
   6.1887296e-10  -6.1250569e-02   9.1458235e-01   7.7853743e-03  -7.9369717e+07
   6.2154051e-10  -6.1039382e-02   9.0815399e-01   7.8587444e-03  -7.8972967e+07
   6.2420807e-10  -6.0829249e-02   9.0179511e-01   7.9323693e-03  -7.8579574e+07
   6.2687563e-10  -6.0620161e-02   8.9550477e-01   8.0062477e-03  -7.8189494e+07
   6.2954318e-10  -6.0412109e-02   8.8928204e-01   8.0803783e-03  -7.7802685e+07
   6.3221074e-10  -6.0205084e-02   8.8312601e-01   8.1547599e-03  -7.7419103e+07
   6.3487829e-10  -5.9999078e-02   8.7703578e-01   8.2293914e-03  -7.7038708e+07
   6.3754585e-10  -5.9794083e-02   8.7101047e-01   8.3042714e-03  -7.6661460e+07
   6.4021340e-10  -5.9590090e-02   8.6504920e-01   8.3793987e-03  -7.6287319e+07
   6.4288096e-10  -5.9387090e-02   8.5915113e-01   8.4547721e-03  -7.5916244e+07
   6.4554852e-10  -5.9185077e-02   8.5331539e-01   8.5303905e-03  -7.5548199e+07
   6.4821607e-10  -5.8984041e-02   8.4754118e-01   8.6062525e-03  -7.5183144e+07
   6.5088363e-10  -5.8783974e-02   8.4182765e-01   8.6823570e-03  -7.4821042e+07
   6.5355118e-10  -5.8584870e-02   8.3617402e-01   8.7587028e-03  -7.4461857e+07
   6.5621874e-10  -5.8386720e-02   8.3057949e-01   8.8352886e-03  -7.4105553e+07
   6.5888630e-10  -5.8189517e-02   8.2504328e-01   8.9121132e-03  -7.3752093e+07
   6.6155385e-10  -5.7993252e-02   8.1956461e-01   8.9891754e-03  -7.3401444e+07
   6.6422141e-10  -5.7797919e-02   8.1414274e-01   9.0664741e-03  -7.3053571e+07
   6.6688896e-10  -5.7603511e-02   8.0877692e-01   9.1440080e-03  -7.2708439e+07
   6.6955652e-10  -5.7410019e-02   8.0346641e-01   9.2217759e-03  -7.2366016e+07
   6.7222407e-10  -5.7217437e-02   7.9821050e-01   9.2997766e-03  -7.2026268e+07
   6.7489163e-10  -5.7025758e-02   7.9300847e-01   9.3780089e-03  -7.1689164e+07
   6.7755919e-10  -5.6834974e-02   7.8785962e-01   9.4564717e-03  -7.1354672e+07
   6.8022674e-10  -5.6645080e-02   7.8276327e-01   9.5351637e-03  -7.1022761e+07
   6.8289430e-10  -5.6456067e-02   7.7771873e-01   9.6140838e-03  -7.0693399e+07
   6.8556185e-10  -5.6267929e-02   7.7272533e-01   9.6932307e-03  -7.0366557e+07
   6.8822941e-10  -5.6080660e-02   7.6778243e-01   9.7726033e-03  -7.0042205e+07
   6.9089697e-10  -5.5894252e-02   7.6288936e-01   9.8522003e-03  -6.9720313e+07
   6.9356452e-10  -5.5708700e-02   7.5804549e-01   9.9320207e-03  -6.9400853e+07
   6.9623208e-10  -5.5523997e-02   7.5325019e-01   1.0012063e-02  -6.9083797e+07
   6.9889963e-10  -5.5340137e-02   7.4850285e-01   1.0092327e-02  -6.8769116e+07
   7.0156719e-10  -5.5157112e-02   7.4380284e-01   1.0172810e-02  -6.8456782e+07
   7.0423474e-10  -5.4974918e-02   7.3914958e-01   1.0253511e-02  -6.8146770e+07
   7.0690230e-10  -5.4793548e-02   7.3454247e-01   1.0334431e-02  -6.7839051e+07
   7.0956986e-10  -5.4612995e-02   7.2998092e-01   1.0415566e-02  -6.7533600e+07
   7.1223741e-10  -5.4433254e-02   7.2546437e-01   1.0496916e-02  -6.7230391e+07
   7.1490497e-10  -5.4254319e-02   7.2099224e-01   1.0578481e-02  -6.6929398e+07
   7.1757252e-10  -5.4076184e-02   7.1656398e-01   1.0660258e-02  -6.6630597e+07
   7.2024008e-10  -5.3898842e-02   7.1217905e-01   1.0742246e-02  -6.6333962e+07
   7.2290764e-10  -5.3722290e-02   7.0783689e-01   1.0824445e-02  -6.6039469e+07
   7.2557519e-10  -5.3546520e-02   7.0353698e-01   1.0906854e-02  -6.5747095e+07
   7.2824275e-10  -5.3371527e-02   6.9927879e-01   1.0989470e-02  -6.5456815e+07
   7.3091030e-10  -5.3197305e-02   6.9506181e-01   1.1072293e-02  -6.5168607e+07
   7.3357786e-10  -5.3023850e-02   6.9088552e-01   1.1155322e-02  -6.4882447e+07
   7.3624542e-10  -5.2851155e-02   6.8674943e-01   1.1238555e-02  -6.4598312e+07
   7.3891297e-10  -5.2679215e-02   6.8265303e-01   1.1321992e-02  -6.4316182e+07
   7.4158053e-10  -5.2508025e-02   6.7859585e-01   1.1405631e-02  -6.4036032e+07
   7.4424808e-10  -5.2337580e-02   6.7457740e-01   1.1489472e-02  -6.3757843e+07
   7.4691564e-10  -5.2167875e-02   6.7059721e-01   1.1573512e-02  -6.3481593e+07
   7.4958319e-10  -5.1998903e-02   6.6665482e-01   1.1657751e-02  -6.3207260e+07
   7.5225075e-10  -5.1830661e-02   6.6274975e-01   1.1742187e-02  -6.2934824e+07
   7.5491831e-10  -5.1663143e-02   6.5888157e-01   1.1826821e-02  -6.2664265e+07
   7.5758586e-10  -5.1496345e-02   6.5504982e-01   1.1911649e-02  -6.2395563e+07
   7.6025342e-10  -5.1330260e-02   6.5125407e-01   1.1996672e-02  -6.2128697e+07
   7.6292097e-10  -5.1164885e-02   6.4749388e-01   1.2081888e-02  -6.1863649e+07
   7.6558853e-10  -5.1000215e-02   6.4376882e-01   1.2167295e-02  -6.1600399e+07
   7.6825609e-10  -5.0836244e-02   6.4007847e-01   1.2252894e-02  -6.1338927e+07
   7.7092364e-10  -5.0672968e-02   6.3642243e-01   1.2338682e-02  -6.1079217e+07
   7.7359120e-10  -5.0510383e-02   6.3280027e-01   1.2424658e-02  -6.0821248e+07
   7.7625875e-10  -5.0348484e-02   6.2921160e-01   1.2510822e-02  -6.0565002e+07
   7.7892631e-10  -5.0187266e-02   6.2565602e-01   1.2597173e-02  -6.0310463e+07
   7.8159386e-10  -5.0026725e-02   6.2213313e-01   1.2683708e-02  -6.0057612e+07
   7.8426142e-10  -4.9866855e-02   6.1864256e-01   1.2770427e-02  -5.9806432e+07
   7.8692898e-10  -4.9707654e-02   6.1518392e-01   1.2857329e-02  -5.9556905e+07
   7.8959653e-10  -4.9549116e-02   6.1175683e-01   1.2944413e-02  -5.9309015e+07
   7.9226409e-10  -4.9391237e-02   6.0836093e-01   1.3031677e-02  -5.9062745e+07
   7.9493164e-10  -4.9234013e-02   6.0499584e-01   1.3119121e-02  -5.8818078e+07
   7.9759920e-10  -4.9077439e-02   6.0166122e-01   1.3206743e-02  -5.8574999e+07
   8.0026676e-10  -4.8921512e-02   5.9835671e-01   1.3294542e-02  -5.8333491e+07
   8.0293431e-10  -4.8766227e-02   5.9508195e-01   1.3382517e-02  -5.8093538e+07
   8.0560187e-10  -4.8611580e-02   5.9183660e-01   1.3470667e-02  -5.7855126e+07
   8.0826942e-10  -4.8457566e-02   5.8862033e-01   1.3558991e-02  -5.7618237e+07
   8.1093698e-10  -4.8304183e-02   5.8543279e-01   1.3647487e-02  -5.7382858e+07
   8.1360453e-10  -4.8151425e-02   5.8227366e-01   1.3736155e-02  -5.7148973e+07
   8.1627209e-10  -4.7999289e-02   5.7914261e-01   1.3824994e-02  -5.6916568e+07
   8.1893965e-10  -4.7847772e-02   5.7603932e-01   1.3914001e-02  -5.6685628e+07
   8.2160720e-10  -4.7696868e-02   5.7296347e-01   1.4003177e-02  -5.6456138e+07
   8.2427476e-10  -4.7546575e-02   5.6991475e-01   1.4092520e-02  -5.6228085e+07
   8.2694231e-10  -4.7396888e-02   5.6689285e-01   1.4182029e-02  -5.6001454e+07
   8.2960987e-10  -4.7247803e-02   5.6389747e-01   1.4271703e-02  -5.5776232e+07
   8.3227743e-10  -4.7099318e-02   5.6092831e-01   1.4361541e-02  -5.5552405e+07
   8.3494498e-10  -4.6951427e-02   5.5798506e-01   1.4451541e-02  -5.5329960e+07
   8.3761254e-10  -4.6804129e-02   5.5506745e-01   1.4541703e-02  -5.5108882e+07
   8.4028009e-10  -4.6657418e-02   5.5217518e-01   1.4632025e-02  -5.4889160e+07
   8.4294765e-10  -4.6511291e-02   5.4930796e-01   1.4722506e-02  -5.4670780e+07
   8.4561521e-10  -4.6365745e-02   5.4646553e-01   1.4813146e-02  -5.4453730e+07
   8.4828276e-10  -4.6220777e-02   5.4364760e-01   1.4903942e-02  -5.4237997e+07
   8.5095032e-10  -4.6076382e-02   5.4085389e-01   1.4994895e-02  -5.4023568e+07
   8.5361787e-10  -4.5932557e-02   5.3808415e-01   1.5086002e-02  -5.3810431e+07
   8.5628543e-10  -4.5789299e-02   5.3533810e-01   1.5177264e-02  -5.3598574e+07
   8.5895298e-10  -4.5646605e-02   5.3261548e-01   1.5268678e-02  -5.3387986e+07
   8.6162054e-10  -4.5504471e-02   5.2991604e-01   1.5360243e-02  -5.3178654e+07
   8.6428810e-10  -4.5362893e-02   5.2723952e-01   1.5451959e-02  -5.2970566e+07
   8.6695565e-10  -4.5221869e-02   5.2458567e-01   1.5543825e-02  -5.2763712e+07
   8.6962321e-10  -4.5081395e-02   5.2195424e-01   1.5635838e-02  -5.2558079e+07
   8.7229076e-10  -4.4941467e-02   5.1934499e-01   1.5727999e-02  -5.2353657e+07
   8.7495832e-10  -4.4802084e-02   5.1675767e-01   1.5820306e-02  -5.2150435e+07
   8.7762588e-10  -4.4663241e-02   5.1419204e-01   1.5912758e-02  -5.1948401e+07
   8.8029343e-10  -4.4524935e-02   5.1164788e-01   1.6005354e-02  -5.1747545e+07
   8.8296099e-10  -4.4387164e-02   5.0912495e-01   1.6098093e-02  -5.1547856e+07
   8.8562854e-10  -4.4249923e-02   5.0662302e-01   1.6190973e-02  -5.1349323e+07
   8.8829610e-10  -4.4113211e-02   5.0414187e-01   1.6283995e-02  -5.1151937e+07
   8.9096365e-10  -4.3977024e-02   5.0168126e-01   1.6377156e-02  -5.0955686e+07
   8.9363121e-10  -4.3841358e-02   4.9924099e-01   1.6470455e-02  -5.0760561e+07
   8.9629877e-10  -4.3706212e-02   4.9682083e-01   1.6563892e-02  -5.0566552e+07
   8.9896632e-10  -4.3571582e-02   4.9442057e-01   1.6657465e-02  -5.0373648e+07
   9.0163388e-10  -4.3437465e-02   4.9204000e-01   1.6751173e-02  -5.0181841e+07
   9.0430143e-10  -4.3303858e-02   4.8967890e-01   1.6845016e-02  -4.9991120e+07
   9.0696899e-10  -4.3170758e-02   4.8733708e-01   1.6938991e-02  -4.9801475e+07
   9.0963655e-10  -4.3038163e-02   4.8501433e-01   1.7033099e-02  -4.9612898e+07
   9.1230410e-10  -4.2906069e-02   4.8271045e-01   1.7127338e-02  -4.9425379e+07
   9.1497166e-10  -4.2774474e-02   4.8042524e-01   1.7221706e-02  -4.9238909e+07
   9.1763921e-10  -4.2643376e-02   4.7815850e-01   1.7316204e-02  -4.9053479e+07
   9.2030677e-10  -4.2512770e-02   4.7591004e-01   1.7410829e-02  -4.8869079e+07
   9.2297432e-10  -4.2382655e-02   4.7367967e-01   1.7505581e-02  -4.8685701e+07
   9.2564188e-10  -4.2253028e-02   4.7146721e-01   1.7600459e-02  -4.8503336e+07
   9.2830944e-10  -4.2123885e-02   4.6927246e-01   1.7695461e-02  -4.8321975e+07
   9.3097699e-10  -4.1995226e-02   4.6709524e-01   1.7790586e-02  -4.8141610e+07
   9.3364455e-10  -4.1867046e-02   4.6493537e-01   1.7885834e-02  -4.7962233e+07
   9.3631210e-10  -4.1739343e-02   4.6279267e-01   1.7981204e-02  -4.7783835e+07
   9.3897966e-10  -4.1612115e-02   4.6066697e-01   1.8076694e-02  -4.7606407e+07
   9.4164722e-10  -4.1485359e-02   4.5855808e-01   1.8172303e-02  -4.7429942e+07
   9.4431477e-10  -4.1359072e-02   4.5646585e-01   1.8268030e-02  -4.7254431e+07
   9.4698233e-10  -4.1233252e-02   4.5439009e-01   1.8363875e-02  -4.7079866e+07
   9.4964988e-10  -4.1107897e-02   4.5233064e-01   1.8459835e-02  -4.6906241e+07
   9.5231744e-10  -4.0983003e-02   4.5028733e-01   1.8555911e-02  -4.6733546e+07
   9.5498499e-10  -4.0858569e-02   4.4826000e-01   1.8652101e-02  -4.6561774e+07
   9.5765255e-10  -4.0734592e-02   4.4624849e-01   1.8748403e-02  -4.6390917e+07
   9.6032011e-10  -4.0611070e-02   4.4425264e-01   1.8844818e-02  -4.6220968e+07
   9.6298766e-10  -4.0487999e-02   4.4227228e-01   1.8941344e-02  -4.6051920e+07
   9.6565522e-10  -4.0365379e-02   4.4030727e-01   1.9037979e-02  -4.5883765e+07
   9.6832277e-10  -4.0243205e-02   4.3835744e-01   1.9134723e-02  -4.5716495e+07
   9.7099033e-10  -4.0121477e-02   4.3642266e-01   1.9231575e-02  -4.5550104e+07
   9.7365789e-10  -4.0000191e-02   4.3450276e-01   1.9328534e-02  -4.5384585e+07
   9.7632544e-10  -3.9879346e-02   4.3259759e-01   1.9425598e-02  -4.5219930e+07
   9.7899300e-10  -3.9758939e-02   4.3070702e-01   1.9522767e-02  -4.5056132e+07
   9.8166055e-10  -3.9638967e-02   4.2883090e-01   1.9620040e-02  -4.4893185e+07
   9.8432811e-10  -3.9519430e-02   4.2696908e-01   1.9717415e-02  -4.4731082e+07
   9.8699567e-10  -3.9400323e-02   4.2512142e-01   1.9814892e-02  -4.4569816e+07
   9.8966322e-10  -3.9281645e-02   4.2328778e-01   1.9912470e-02  -4.4409380e+07
   9.9233078e-10  -3.9163395e-02   4.2146802e-01   2.0010147e-02  -4.4249767e+07
   9.9499833e-10  -3.9045569e-02   4.1966202e-01   2.0107922e-02  -4.4090973e+07
   9.9766589e-10  -3.8928165e-02   4.1786962e-01   2.0205795e-02  -4.3932988e+07
   1.0003334e-09  -3.8811182e-02   4.1609071e-01   2.0303765e-02  -4.3775809e+07
   1.0030010e-09  -3.8694617e-02   4.1432514e-01   2.0401830e-02  -4.3619427e+07
   1.0056686e-09  -3.8578468e-02   4.1257279e-01   2.0499989e-02  -4.3463838e+07
   1.0083361e-09  -3.8462734e-02   4.1083354e-01   2.0598242e-02  -4.3309034e+07
   1.0110037e-09  -3.8347411e-02   4.0910724e-01   2.0696587e-02  -4.3155010e+07
   1.0136712e-09  -3.8232497e-02   4.0739378e-01   2.0795024e-02  -4.3001759e+07
   1.0163388e-09  -3.8117992e-02   4.0569304e-01   2.0893551e-02  -4.2849277e+07
   1.0190063e-09  -3.8003892e-02   4.0400489e-01   2.0992167e-02  -4.2697556e+07
   1.0216739e-09  -3.7890196e-02   4.0232921e-01   2.1090872e-02  -4.2546590e+07
   1.0243414e-09  -3.7776902e-02   4.0066587e-01   2.1189664e-02  -4.2396375e+07
   1.0270090e-09  -3.7664008e-02   3.9901478e-01   2.1288542e-02  -4.2246905e+07
   1.0296766e-09  -3.7551511e-02   3.9737579e-01   2.1387506e-02  -4.2098173e+07
   1.0323441e-09  -3.7439410e-02   3.9574881e-01   2.1486554e-02  -4.1950175e+07
   1.0350117e-09  -3.7327703e-02   3.9413372e-01   2.1585686e-02  -4.1802904e+07
   1.0376792e-09  -3.7216387e-02   3.9253039e-01   2.1684900e-02  -4.1656355e+07
   1.0403468e-09  -3.7105462e-02   3.9093873e-01   2.1784196e-02  -4.1510523e+07
   1.0430143e-09  -3.6994925e-02   3.8935863e-01   2.1883571e-02  -4.1365403e+07
   1.0456819e-09  -3.6884773e-02   3.8778996e-01   2.1983027e-02  -4.1220988e+07
   1.0483494e-09  -3.6775007e-02   3.8623264e-01   2.2082560e-02  -4.1077275e+07
   1.0510170e-09  -3.6665622e-02   3.8468654e-01   2.2182171e-02  -4.0934257e+07
   1.0536846e-09  -3.6556618e-02   3.8315156e-01   2.2281859e-02  -4.0791929e+07
   1.0563521e-09  -3.6447993e-02   3.8162761e-01   2.2381622e-02  -4.0650287e+07
   1.0590197e-09  -3.6339745e-02   3.8011458e-01   2.2481460e-02  -4.0509326e+07
   1.0616872e-09  -3.6231872e-02   3.7861236e-01   2.2581371e-02  -4.0369040e+07
   1.0643548e-09  -3.6124372e-02   3.7712085e-01   2.2681355e-02  -4.0229424e+07
   1.0670223e-09  -3.6017244e-02   3.7563997e-01   2.2781410e-02  -4.0090474e+07
   1.0696899e-09  -3.5910485e-02   3.7416960e-01   2.2881536e-02  -3.9952185e+07
   1.0723575e-09  -3.5804095e-02   3.7270965e-01   2.2981731e-02  -3.9814551e+07
   1.0750250e-09  -3.5698071e-02   3.7126003e-01   2.3081996e-02  -3.9677569e+07
   1.0776926e-09  -3.5592411e-02   3.6982064e-01   2.3182328e-02  -3.9541234e+07
   1.0803601e-09  -3.5487114e-02   3.6839139e-01   2.3282726e-02  -3.9405540e+07
   1.0830277e-09  -3.5382178e-02   3.6697218e-01   2.3383191e-02  -3.9270484e+07
   1.0856952e-09  -3.5277602e-02   3.6556292e-01   2.3483720e-02  -3.9136060e+07
   1.0883628e-09  -3.5173384e-02   3.6416353e-01   2.3584313e-02  -3.9002265e+07
   1.0910303e-09  -3.5069521e-02   3.6277391e-01   2.3684969e-02  -3.8869094e+07
   1.0936979e-09  -3.4966013e-02   3.6139397e-01   2.3785688e-02  -3.8736542e+07
   1.0963655e-09  -3.4862858e-02   3.6002363e-01   2.3886467e-02  -3.8604605e+07
   1.0990330e-09  -3.4760054e-02   3.5866279e-01   2.3987306e-02  -3.8473279e+07
   1.1017006e-09  -3.4657599e-02   3.5731139e-01   2.4088204e-02  -3.8342559e+07
   1.1043681e-09  -3.4555492e-02   3.5596932e-01   2.4189161e-02  -3.8212441e+07
   1.1070357e-09  -3.4453731e-02   3.5463650e-01   2.4290175e-02  -3.8082922e+07
   1.1097032e-09  -3.4352316e-02   3.5331286e-01   2.4391245e-02  -3.7953996e+07
   1.1123708e-09  -3.4251243e-02   3.5199831e-01   2.4492370e-02  -3.7825660e+07
   1.1150383e-09  -3.4150512e-02   3.5069277e-01   2.4593550e-02  -3.7697910e+07
   1.1177059e-09  -3.4050121e-02   3.4939616e-01   2.4694784e-02  -3.7570742e+07
   1.1203735e-09  -3.3950068e-02   3.4810840e-01   2.4796070e-02  -3.7444151e+07
   1.1230410e-09  -3.3850352e-02   3.4682941e-01   2.4897408e-02  -3.7318134e+07
   1.1257086e-09  -3.3750972e-02   3.4555912e-01   2.4998796e-02  -3.7192686e+07
   1.1283761e-09  -3.3651925e-02   3.4429744e-01   2.5100234e-02  -3.7067804e+07
   1.1310437e-09  -3.3553211e-02   3.4304430e-01   2.5201721e-02  -3.6943485e+07
   1.1337112e-09  -3.3454828e-02   3.4179963e-01   2.5303256e-02  -3.6819724e+07
   1.1363788e-09  -3.3356774e-02   3.4056335e-01   2.5404838e-02  -3.6696517e+07
   1.1390463e-09  -3.3259048e-02   3.3933539e-01   2.5506467e-02  -3.6573861e+07
   1.1417139e-09  -3.3161649e-02   3.3811568e-01   2.5608140e-02  -3.6451752e+07
   1.1443815e-09  -3.3064574e-02   3.3690414e-01   2.5709858e-02  -3.6330186e+07
   1.1470490e-09  -3.2967823e-02   3.3570071e-01   2.5811619e-02  -3.6209160e+07
   1.1497166e-09  -3.2871395e-02   3.3450530e-01   2.5913422e-02  -3.6088670e+07
   1.1523841e-09  -3.2775287e-02   3.3331786e-01   2.6015268e-02  -3.5968713e+07
   1.1550517e-09  -3.2679498e-02   3.3213832e-01   2.6117153e-02  -3.5849285e+07
   1.1577192e-09  -3.2584027e-02   3.3096660e-01   2.6219079e-02  -3.5730382e+07
   1.1603868e-09  -3.2488872e-02   3.2980263e-01   2.6321044e-02  -3.5612002e+07
   1.1630544e-09  -3.2394033e-02   3.2864636e-01   2.6423046e-02  -3.5494140e+07
   1.1657219e-09  -3.2299507e-02   3.2749772e-01   2.6525086e-02  -3.5376794e+07
   1.1683895e-09  -3.2205294e-02   3.2635664e-01   2.6627162e-02  -3.5259959e+07
   1.1710570e-09  -3.2111392e-02   3.2522305e-01   2.6729273e-02  -3.5143633e+07
   1.1737246e-09  -3.2017799e-02   3.2409690e-01   2.6831418e-02  -3.5027813e+07
   1.1763921e-09  -3.1924515e-02   3.2297811e-01   2.6933598e-02  -3.4912494e+07
   1.1790597e-09  -3.1831537e-02   3.2186663e-01   2.7035809e-02  -3.4797674e+07
   1.1817272e-09  -3.1738865e-02   3.2076240e-01   2.7138053e-02  -3.4683350e+07
   1.1843948e-09  -3.1646498e-02   3.1966535e-01   2.7240328e-02  -3.4569518e+07
   1.1870624e-09  -3.1554433e-02   3.1857542e-01   2.7342632e-02  -3.4456175e+07
   1.1897299e-09  -3.1462670e-02   3.1749255e-01   2.7444966e-02  -3.4343318e+07
   1.1923975e-09  -3.1371208e-02   3.1641669e-01   2.7547328e-02  -3.4230945e+07
   1.1950650e-09  -3.1280045e-02   3.1534777e-01   2.7649718e-02  -3.4119051e+07
   1.1977326e-09  -3.1189179e-02   3.1428574e-01   2.7752134e-02  -3.4007634e+07
   1.2004001e-09  -3.1098610e-02   3.1323054e-01   2.7854576e-02  -3.3896691e+07
   1.2030677e-09  -3.1008337e-02   3.1218211e-01   2.7957042e-02  -3.3786219e+07
   1.2057352e-09  -3.0918357e-02   3.1114039e-01   2.8059533e-02  -3.3676215e+07
   1.2084028e-09  -3.0828670e-02   3.1010533e-01   2.8162047e-02  -3.3566676e+07
   1.2110704e-09  -3.0739275e-02   3.0907688e-01   2.8264583e-02  -3.3457599e+07
   1.2137379e-09  -3.0650170e-02   3.0805498e-01   2.8367141e-02  -3.3348981e+07
   1.2164055e-09  -3.0561355e-02   3.0703957e-01   2.8469719e-02  -3.3240820e+07
   1.2190730e-09  -3.0472827e-02   3.0603061e-01   2.8572317e-02  -3.3133112e+07
   1.2217406e-09  -3.0384586e-02   3.0502803e-01   2.8674934e-02  -3.3025855e+07
   1.2244081e-09  -3.0296630e-02   3.0403179e-01   2.8777569e-02  -3.2919045e+07
   1.2270757e-09  -3.0208959e-02   3.0304184e-01   2.8880221e-02  -3.2812681e+07
   1.2297432e-09  -3.0121571e-02   3.0205812e-01   2.8982889e-02  -3.2706760e+07
   1.2324108e-09  -3.0034465e-02   3.0108058e-01   2.9085574e-02  -3.2601278e+07
   1.2350784e-09  -2.9947640e-02   3.0010917e-01   2.9188273e-02  -3.2496233e+07
   1.2377459e-09  -2.9861094e-02   2.9914385e-01   2.9290985e-02  -3.2391623e+07
   1.2404135e-09  -2.9774827e-02   2.9818455e-01   2.9393711e-02  -3.2287444e+07
   1.2430810e-09  -2.9688837e-02   2.9723125e-01   2.9496449e-02  -3.2183694e+07
   1.2457486e-09  -2.9603123e-02   2.9628387e-01   2.9599199e-02  -3.2080371e+07
   1.2484161e-09  -2.9517685e-02   2.9534239e-01   2.9701959e-02  -3.1977472e+07
   1.2510837e-09  -2.9432520e-02   2.9440674e-01   2.9804729e-02  -3.1874995e+07
   1.2537513e-09  -2.9347628e-02   2.9347689e-01   2.9907509e-02  -3.1772936e+07
   1.2564188e-09  -2.9263008e-02   2.9255279e-01   3.0010296e-02  -3.1671294e+07
   1.2590864e-09  -2.9178658e-02   2.9163438e-01   3.0113090e-02  -3.1570066e+07
   1.2617539e-09  -2.9094578e-02   2.9072163e-01   3.0215892e-02  -3.1469249e+07
   1.2644215e-09  -2.9010766e-02   2.8981449e-01   3.0318699e-02  -3.1368841e+07
   1.2670890e-09  -2.8927222e-02   2.8891292e-01   3.0421511e-02  -3.1268840e+07
   1.2697566e-09  -2.8843944e-02   2.8801686e-01   3.0524327e-02  -3.1169243e+07
   1.2724241e-09  -2.8760931e-02   2.8712629e-01   3.0627147e-02  -3.1070047e+07
   1.2750917e-09  -2.8678182e-02   2.8624115e-01   3.0729969e-02  -3.0971252e+07
   1.2777593e-09  -2.8595696e-02   2.8536139e-01   3.0832793e-02  -3.0872853e+07
   1.2804268e-09  -2.8513471e-02   2.8448699e-01   3.0935618e-02  -3.0774849e+07
   1.2830944e-09  -2.8431508e-02   2.8361789e-01   3.1038443e-02  -3.0677238e+07
   1.2857619e-09  -2.8349805e-02   2.8275406e-01   3.1141268e-02  -3.0580017e+07
   1.2884295e-09  -2.8268360e-02   2.8189545e-01   3.1244092e-02  -3.0483184e+07
   1.2910970e-09  -2.8187174e-02   2.8104203e-01   3.1346913e-02  -3.0386736e+07
   1.2937646e-09  -2.8106244e-02   2.8019374e-01   3.1449731e-02  -3.0290672e+07
   1.2964321e-09  -2.8025570e-02   2.7935056e-01   3.1552546e-02  -3.0194990e+07
   1.2990997e-09  -2.7945150e-02   2.7851244e-01   3.1655357e-02  -3.0099686e+07
   1.3017673e-09  -2.7864984e-02   2.7767934e-01   3.1758162e-02  -3.0004760e+07
   1.3044348e-09  -2.7785071e-02   2.7685123e-01   3.1860961e-02  -2.9910208e+07
   1.3071024e-09  -2.7705410e-02   2.7602806e-01   3.1963754e-02  -2.9816029e+07
   1.3097699e-09  -2.7626000e-02   2.7520979e-01   3.2066539e-02  -2.9722220e+07
   1.3124375e-09  -2.7546839e-02   2.7439640e-01   3.2169316e-02  -2.9628780e+07
   1.3151050e-09  -2.7467927e-02   2.7358784e-01   3.2272084e-02  -2.9535706e+07
   1.3177726e-09  -2.7389263e-02   2.7278407e-01   3.2374843e-02  -2.9442997e+07
   1.3204401e-09  -2.7310845e-02   2.7198506e-01   3.2477591e-02  -2.9350649e+07
   1.3231077e-09  -2.7232674e-02   2.7119077e-01   3.2580327e-02  -2.9258662e+07
   1.3257753e-09  -2.7154747e-02   2.7040117e-01   3.2683052e-02  -2.9167033e+07
   1.3284428e-09  -2.7077064e-02   2.6961621e-01   3.2785764e-02  -2.9075760e+07
   1.3311104e-09  -2.6999624e-02   2.6883587e-01   3.2888463e-02  -2.8984842e+07
   1.3337779e-09  -2.6922427e-02   2.6806011e-01   3.2991147e-02  -2.8894275e+07
   1.3364455e-09  -2.6845470e-02   2.6728889e-01   3.3093817e-02  -2.8804059e+07
   1.3391130e-09  -2.6768754e-02   2.6652218e-01   3.3196471e-02  -2.8714192e+07
   1.3417806e-09  -2.6692277e-02   2.6575995e-01   3.3299108e-02  -2.8624670e+07
   1.3444481e-09  -2.6616038e-02   2.6500216e-01   3.3401729e-02  -2.8535494e+07
   1.3471157e-09  -2.6540037e-02   2.6424878e-01   3.3504332e-02  -2.8446660e+07
   1.3497833e-09  -2.6464272e-02   2.6349977e-01   3.3606916e-02  -2.8358166e+07
   1.3524508e-09  -2.6388743e-02   2.6275510e-01   3.3709481e-02  -2.8270012e+07
   1.3551184e-09  -2.6313448e-02   2.6201475e-01   3.3812026e-02  -2.8182194e+07
   1.3577859e-09  -2.6238387e-02   2.6127867e-01   3.3914551e-02  -2.8094712e+07
   1.3604535e-09  -2.6163560e-02   2.6054684e-01   3.4017054e-02  -2.8007563e+07
   1.3631210e-09  -2.6088964e-02   2.5981922e-01   3.4119535e-02  -2.7920746e+07
   1.3657886e-09  -2.6014599e-02   2.5909578e-01   3.4221994e-02  -2.7834258e+07
   1.3684562e-09  -2.5940465e-02   2.5837650e-01   3.4324428e-02  -2.7748099e+07
   1.3711237e-09  -2.5866560e-02   2.5766133e-01   3.4426839e-02  -2.7662266e+07
   1.3737913e-09  -2.5792884e-02   2.5695026e-01   3.4529225e-02  -2.7576757e+07
   1.3764588e-09  -2.5719435e-02   2.5624325e-01   3.4631586e-02  -2.7491571e+07
   1.3791264e-09  -2.5646213e-02   2.5554026e-01   3.4733920e-02  -2.7406707e+07
   1.3817939e-09  -2.5573217e-02   2.5484128e-01   3.4836227e-02  -2.7322161e+07
   1.3844615e-09  -2.5500446e-02   2.5414627e-01   3.4938507e-02  -2.7237933e+07
   1.3871290e-09  -2.5427900e-02   2.5345520e-01   3.5040758e-02  -2.7154021e+07
   1.3897966e-09  -2.5355576e-02   2.5276804e-01   3.5142980e-02  -2.7070424e+07
   1.3924642e-09  -2.5283476e-02   2.5208477e-01   3.5245173e-02  -2.6987139e+07
   1.3951317e-09  -2.5211597e-02   2.5140535e-01   3.5347336e-02  -2.6904165e+07
   1.3977993e-09  -2.5139939e-02   2.5072976e-01   3.5449467e-02  -2.6821500e+07
   1.4004668e-09  -2.5068501e-02   2.5005797e-01   3.5551567e-02  -2.6739144e+07
   1.4031344e-09  -2.4997283e-02   2.4938996e-01   3.5653635e-02  -2.6657093e+07
   1.4058019e-09  -2.4926283e-02   2.4872569e-01   3.5755670e-02  -2.6575347e+07
   1.4084695e-09  -2.4855500e-02   2.4806513e-01   3.5857671e-02  -2.6493904e+07
   1.4111370e-09  -2.4784935e-02   2.4740827e-01   3.5959637e-02  -2.6412762e+07
   1.4138046e-09  -2.4714585e-02   2.4675508e-01   3.6061569e-02  -2.6331920e+07
   1.4164722e-09  -2.4644451e-02   2.4610552e-01   3.6163465e-02  -2.6251377e+07
   1.4191397e-09  -2.4574531e-02   2.4545957e-01   3.6265325e-02  -2.6171130e+07
   1.4218073e-09  -2.4504825e-02   2.4481721e-01   3.6367149e-02  -2.6091178e+07
   1.4244748e-09  -2.4435332e-02   2.4417841e-01   3.6468934e-02  -2.6011520e+07
   1.4271424e-09  -2.4366050e-02   2.4354315e-01   3.6570682e-02  -2.5932155e+07
   1.4298099e-09  -2.4296981e-02   2.4291139e-01   3.6672390e-02  -2.5853080e+07
   1.4324775e-09  -2.4228121e-02   2.4228312e-01   3.6774060e-02  -2.5774294e+07
   1.4351450e-09  -2.4159472e-02   2.4165831e-01   3.6875689e-02  -2.5695796e+07
   1.4378126e-09  -2.4091031e-02   2.4103694e-01   3.6977277e-02  -2.5617584e+07
   1.4404802e-09  -2.4022799e-02   2.4041898e-01   3.7078825e-02  -2.5539657e+07
   1.4431477e-09  -2.3954774e-02   2.3980440e-01   3.7180330e-02  -2.5462014e+07
   1.4458153e-09  -2.3886956e-02   2.3919319e-01   3.7281792e-02  -2.5384653e+07
   1.4484828e-09  -2.3819344e-02   2.3858532e-01   3.7383212e-02  -2.5307572e+07
   1.4511504e-09  -2.3751938e-02   2.3798076e-01   3.7484588e-02  -2.5230770e+07
   1.4538179e-09  -2.3684735e-02   2.3737950e-01   3.7585919e-02  -2.5154246e+07
   1.4564855e-09  -2.3617737e-02   2.3678150e-01   3.7687205e-02  -2.5077999e+07
   1.4591531e-09  -2.3550941e-02   2.3618675e-01   3.7788446e-02  -2.5002026e+07
   1.4618206e-09  -2.3484348e-02   2.3559523e-01   3.7889640e-02  -2.4926328e+07
   1.4644882e-09  -2.3417956e-02   2.3500691e-01   3.7990788e-02  -2.4850901e+07
   1.4671557e-09  -2.3351766e-02   2.3442176e-01   3.8091888e-02  -2.4775746e+07
   1.4698233e-09  -2.3285775e-02   2.3383978e-01   3.8192940e-02  -2.4700860e+07
   1.4724908e-09  -2.3219984e-02   2.3326093e-01   3.8293944e-02  -2.4626242e+07
   1.4751584e-09  -2.3154391e-02   2.3268519e-01   3.8394898e-02  -2.4551891e+07
   1.4778259e-09  -2.3088997e-02   2.3211254e-01   3.8495803e-02  -2.4477806e+07
   1.4804935e-09  -2.3023799e-02   2.3154297e-01   3.8596657e-02  -2.4403986e+07
   1.4831611e-09  -2.2958799e-02   2.3097644e-01   3.8697460e-02  -2.4330428e+07
   1.4858286e-09  -2.2893994e-02   2.3041295e-01   3.8798212e-02  -2.4257132e+07
   1.4884962e-09  -2.2829384e-02   2.2985246e-01   3.8898911e-02  -2.4184097e+07
   1.4911637e-09  -2.2764969e-02   2.2929495e-01   3.8999558e-02  -2.4111321e+07
   1.4938313e-09  -2.2700747e-02   2.2874042e-01   3.9100152e-02  -2.4038802e+07
   1.4964988e-09  -2.2636719e-02   2.2818883e-01   3.9200691e-02  -2.3966541e+07
   1.4991664e-09  -2.2572883e-02   2.2764016e-01   3.9301176e-02  -2.3894535e+07
   1.5018339e-09  -2.2509239e-02   2.2709441e-01   3.9401607e-02  -2.3822784e+07
   1.5045015e-09  -2.2445786e-02   2.2655153e-01   3.9501982e-02  -2.3751285e+07
   1.5071691e-09  -2.2382523e-02   2.2601153e-01   3.9602300e-02  -2.3680038e+07
   1.5098366e-09  -2.2319450e-02   2.2547437e-01   3.9702562e-02  -2.3609042e+07
   1.5125042e-09  -2.2256566e-02   2.2494004e-01   3.9802767e-02  -2.3538296e+07
   1.5151717e-09  -2.2193871e-02   2.2440852e-01   3.9902914e-02  -2.3467797e+07
   1.5178393e-09  -2.2131363e-02   2.2387979e-01   4.0003003e-02  -2.3397546e+07
   1.5205068e-09  -2.2069042e-02   2.2335383e-01   4.0103033e-02  -2.3327541e+07
   1.5231744e-09  -2.2006908e-02   2.2283062e-01   4.0203003e-02  -2.3257780e+07
   1.5258419e-09  -2.1944959e-02   2.2231015e-01   4.0302914e-02  -2.3188263e+07
   1.5285095e-09  -2.1883196e-02   2.2179239e-01   4.0402764e-02  -2.3118988e+07
   1.5311771e-09  -2.1821617e-02   2.2127733e-01   4.0502553e-02  -2.3049955e+07
   1.5338446e-09  -2.1760221e-02   2.2076495e-01   4.0602281e-02  -2.2981162e+07
   1.5365122e-09  -2.1699009e-02   2.2025523e-01   4.0701946e-02  -2.2912608e+07
   1.5391797e-09  -2.1637980e-02   2.1974816e-01   4.0801549e-02  -2.2844292e+07
   1.5418473e-09  -2.1577132e-02   2.1924371e-01   4.0901089e-02  -2.2776212e+07
   1.5445148e-09  -2.1516466e-02   2.1874187e-01   4.1000565e-02  -2.2708369e+07
   1.5471824e-09  -2.1455981e-02   2.1824262e-01   4.1099977e-02  -2.2640760e+07
   1.5498499e-09  -2.1395675e-02   2.1774594e-01   4.1199324e-02  -2.2573384e+07
   1.5525175e-09  -2.1335549e-02   2.1725182e-01   4.1298607e-02  -2.2506241e+07
   1.5551851e-09  -2.1275602e-02   2.1676025e-01   4.1397823e-02  -2.2439330e+07
   1.5578526e-09  -2.1215833e-02   2.1627119e-01   4.1496973e-02  -2.2372648e+07
   1.5605202e-09  -2.1156241e-02   2.1578465e-01   4.1596057e-02  -2.2306196e+07
   1.5631877e-09  -2.1096826e-02   2.1530059e-01   4.1695073e-02  -2.2239973e+07
   1.5658553e-09  -2.1037588e-02   2.1481901e-01   4.1794022e-02  -2.2173976e+07
   1.5685228e-09  -2.0978526e-02   2.1433989e-01   4.1892902e-02  -2.2108205e+07
   1.5711904e-09  -2.0919638e-02   2.1386320e-01   4.1991714e-02  -2.2042660e+07
   1.5738580e-09  -2.0860926e-02   2.1338895e-01   4.2090457e-02  -2.1977339e+07
   1.5765255e-09  -2.0802387e-02   2.1291710e-01   4.2189130e-02  -2.1912240e+07
   1.5791931e-09  -2.0744021e-02   2.1244765e-01   4.2287732e-02  -2.1847364e+07
   1.5818606e-09  -2.0685829e-02   2.1198058e-01   4.2386264e-02  -2.1782709e+07
   1.5845282e-09  -2.0627808e-02   2.1151587e-01   4.2484725e-02  -2.1718274e+07
   1.5871957e-09  -2.0569959e-02   2.1105351e-01   4.2583115e-02  -2.1654058e+07
   1.5898633e-09  -2.0512281e-02   2.1059349e-01   4.2681432e-02  -2.1590059e+07
   1.5925308e-09  -2.0454774e-02   2.1013578e-01   4.2779677e-02  -2.1526278e+07
   1.5951984e-09  -2.0397436e-02   2.0968037e-01   4.2877848e-02  -2.1462714e+07
   1.5978660e-09  -2.0340268e-02   2.0922726e-01   4.2975946e-02  -2.1399364e+07
   1.6005335e-09  -2.0283268e-02   2.0877641e-01   4.3073971e-02  -2.1336228e+07
   1.6032011e-09  -2.0226436e-02   2.0832783e-01   4.3171920e-02  -2.1273306e+07
   1.6058686e-09  -2.0169772e-02   2.0788149e-01   4.3269795e-02  -2.1210596e+07
   1.6085362e-09  -2.0113275e-02   2.0743738e-01   4.3367595e-02  -2.1148097e+07
   1.6112037e-09  -2.0056945e-02   2.0699549e-01   4.3465318e-02  -2.1085809e+07
   1.6138713e-09  -2.0000780e-02   2.0655579e-01   4.3562966e-02  -2.1023730e+07
   1.6165388e-09  -1.9944781e-02   2.0611829e-01   4.3660537e-02  -2.0961860e+07
   1.6192064e-09  -1.9888946e-02   2.0568296e-01   4.3758030e-02  -2.0900198e+07
   1.6218740e-09  -1.9833276e-02   2.0524979e-01   4.3855446e-02  -2.0838742e+07
   1.6245415e-09  -1.9777769e-02   2.0481877e-01   4.3952784e-02  -2.0777492e+07
   1.6272091e-09  -1.9722425e-02   2.0438988e-01   4.4050044e-02  -2.0716447e+07
   1.6298766e-09  -1.9667244e-02   2.0396310e-01   4.4147224e-02  -2.0655606e+07
   1.6325442e-09  -1.9612225e-02   2.0353844e-01   4.4244326e-02  -2.0594968e+07
   1.6352117e-09  -1.9557368e-02   2.0311587e-01   4.4341347e-02  -2.0534532e+07
   1.6378793e-09  -1.9502671e-02   2.0269537e-01   4.4438288e-02  -2.0474298e+07
   1.6405468e-09  -1.9448135e-02   2.0227695e-01   4.4535149e-02  -2.0414264e+07
   1.6432144e-09  -1.9393759e-02   2.0186057e-01   4.4631928e-02  -2.0354430e+07
   1.6458820e-09  -1.9339542e-02   2.0144624e-01   4.4728626e-02  -2.0294794e+07
   1.6485495e-09  -1.9285484e-02   2.0103394e-01   4.4825243e-02  -2.0235357e+07
   1.6512171e-09  -1.9231584e-02   2.0062365e-01   4.4921776e-02  -2.0176116e+07
   1.6538846e-09  -1.9177842e-02   2.0021536e-01   4.5018227e-02  -2.0117072e+07
   1.6565522e-09  -1.9124257e-02   1.9980907e-01   4.5114595e-02  -2.0058223e+07
   1.6592197e-09  -1.9070829e-02   1.9940475e-01   4.5210880e-02  -1.9999569e+07
   1.6618873e-09  -1.9017557e-02   1.9900240e-01   4.5307080e-02  -1.9941108e+07
   1.6645549e-09  -1.8964441e-02   1.9860200e-01   4.5403196e-02  -1.9882840e+07
   1.6672224e-09  -1.8911480e-02   1.9820354e-01   4.5499228e-02  -1.9824765e+07
   1.6698900e-09  -1.8858673e-02   1.9780701e-01   4.5595174e-02  -1.9766880e+07
   1.6725575e-09  -1.8806021e-02   1.9741240e-01   4.5691034e-02  -1.9709186e+07
   1.6752251e-09  -1.8753522e-02   1.9701970e-01   4.5786809e-02  -1.9651682e+07
   1.6778926e-09  -1.8701177e-02   1.9662889e-01   4.5882497e-02  -1.9594366e+07
   1.6805602e-09  -1.8648984e-02   1.9623996e-01   4.5978099e-02  -1.9537238e+07
   1.6832277e-09  -1.8596944e-02   1.9585290e-01   4.6073613e-02  -1.9480298e+07
   1.6858953e-09  -1.8545055e-02   1.9546770e-01   4.6169040e-02  -1.9423544e+07
   1.6885629e-09  -1.8493317e-02   1.9508435e-01   4.6264379e-02  -1.9366976e+07
   1.6912304e-09  -1.8441729e-02   1.9470284e-01   4.6359630e-02  -1.9310592e+07
   1.6938980e-09  -1.8390292e-02   1.9432315e-01   4.6454792e-02  -1.9254393e+07
   1.6965655e-09  -1.8339005e-02   1.9394528e-01   4.6549865e-02  -1.9198377e+07
   1.6992331e-09  -1.8287867e-02   1.9356921e-01   4.6644848e-02  -1.9142544e+07
   1.7019006e-09  -1.8236877e-02   1.9319493e-01   4.6739742e-02  -1.9086892e+07
   1.7045682e-09  -1.8186036e-02   1.9282244e-01   4.6834546e-02  -1.9031422e+07
   1.7072357e-09  -1.8135342e-02   1.9245171e-01   4.6929260e-02  -1.8976132e+07
   1.7099033e-09  -1.8084796e-02   1.9208275e-01   4.7023882e-02  -1.8921021e+07
   1.7125709e-09  -1.8034397e-02   1.9171553e-01   4.7118413e-02  -1.8866089e+07
   1.7152384e-09  -1.7984143e-02   1.9135006e-01   4.7212853e-02  -1.8811336e+07
   1.7179060e-09  -1.7934036e-02   1.9098631e-01   4.7307201e-02  -1.8756759e+07
   1.7205735e-09  -1.7884074e-02   1.9062428e-01   4.7401456e-02  -1.8702360e+07
   1.7232411e-09  -1.7834257e-02   1.9026396e-01   4.7495619e-02  -1.8648136e+07
   1.7259086e-09  -1.7784584e-02   1.8990534e-01   4.7589689e-02  -1.8594087e+07
   1.7285762e-09  -1.7735055e-02   1.8954840e-01   4.7683666e-02  -1.8540213e+07
   1.7312437e-09  -1.7685670e-02   1.8919314e-01   4.7777548e-02  -1.8486512e+07
   1.7339113e-09  -1.7636427e-02   1.8883955e-01   4.7871337e-02  -1.8432985e+07
   1.7365789e-09  -1.7587328e-02   1.8848762e-01   4.7965032e-02  -1.8379630e+07
   1.7392464e-09  -1.7538370e-02   1.8813733e-01   4.8058632e-02  -1.8326447e+07
   1.7419140e-09  -1.7489554e-02   1.8778869e-01   4.8152137e-02  -1.8273434e+07
   1.7445815e-09  -1.7440879e-02   1.8744167e-01   4.8245546e-02  -1.8220592e+07
   1.7472491e-09  -1.7392345e-02   1.8709627e-01   4.8338860e-02  -1.8167919e+07
   1.7499166e-09  -1.7343951e-02   1.8675247e-01   4.8432078e-02  -1.8115415e+07
   1.7525842e-09  -1.7295697e-02   1.8641028e-01   4.8525200e-02  -1.8063080e+07
   1.7552518e-09  -1.7247582e-02   1.8606968e-01   4.8618225e-02  -1.8010912e+07
   1.7579193e-09  -1.7199607e-02   1.8573066e-01   4.8711153e-02  -1.7958910e+07
   1.7605869e-09  -1.7151770e-02   1.8539321e-01   4.8803984e-02  -1.7907075e+07
   1.7632544e-09  -1.7104070e-02   1.8505732e-01   4.8896717e-02  -1.7855406e+07
   1.7659220e-09  -1.7056509e-02   1.8472299e-01   4.8989352e-02  -1.7803901e+07
   1.7685895e-09  -1.7009084e-02   1.8439019e-01   4.9081889e-02  -1.7752560e+07
   1.7712571e-09  -1.6961797e-02   1.8405894e-01   4.9174328e-02  -1.7701383e+07
   1.7739246e-09  -1.6914646e-02   1.8372921e-01   4.9266668e-02  -1.7650369e+07
   1.7765922e-09  -1.6867630e-02   1.8340100e-01   4.9358908e-02  -1.7599518e+07
   1.7792598e-09  -1.6820750e-02   1.8307429e-01   4.9451050e-02  -1.7548827e+07
   1.7819273e-09  -1.6774005e-02   1.8274909e-01   4.9543091e-02  -1.7498298e+07
   1.7845949e-09  -1.6727395e-02   1.8242537e-01   4.9635033e-02  -1.7447929e+07
   1.7872624e-09  -1.6680918e-02   1.8210314e-01   4.9726874e-02  -1.7397720e+07
   1.7899300e-09  -1.6634576e-02   1.8178238e-01   4.9818614e-02  -1.7347669e+07
   1.7925975e-09  -1.6588366e-02   1.8146309e-01   4.9910254e-02  -1.7297778e+07
   1.7952651e-09  -1.6542290e-02   1.8114525e-01   5.0001793e-02  -1.7248044e+07
   1.7979326e-09  -1.6496346e-02   1.8082887e-01   5.0093230e-02  -1.7198467e+07
   1.8006002e-09  -1.6450534e-02   1.8051392e-01   5.0184565e-02  -1.7149047e+07
   1.8032678e-09  -1.6404854e-02   1.8020040e-01   5.0275799e-02  -1.7099782e+07
   1.8059353e-09  -1.6359305e-02   1.7988831e-01   5.0366930e-02  -1.7050673e+07
   1.8086029e-09  -1.6313887e-02   1.7957763e-01   5.0457958e-02  -1.7001719e+07
   1.8112704e-09  -1.6268599e-02   1.7926836e-01   5.0548884e-02  -1.6952919e+07
   1.8139380e-09  -1.6223441e-02   1.7896049e-01   5.0639707e-02  -1.6904273e+07
   1.8166055e-09  -1.6178412e-02   1.7865401e-01   5.0730426e-02  -1.6855779e+07
   1.8192731e-09  -1.6133513e-02   1.7834891e-01   5.0821042e-02  -1.6807438e+07
   1.8219406e-09  -1.6088743e-02   1.7804519e-01   5.0911553e-02  -1.6759249e+07
   1.8246082e-09  -1.6044101e-02   1.7774284e-01   5.1001961e-02  -1.6711210e+07
   1.8272758e-09  -1.5999587e-02   1.7744184e-01   5.1092264e-02  -1.6663323e+07
   1.8299433e-09  -1.5955200e-02   1.7714220e-01   5.1182462e-02  -1.6615585e+07
   1.8326109e-09  -1.5910940e-02   1.7684390e-01   5.1272556e-02  -1.6567997e+07
   1.8352784e-09  -1.5866808e-02   1.7654694e-01   5.1362544e-02  -1.6520558e+07
   1.8379460e-09  -1.5822801e-02   1.7625131e-01   5.1452427e-02  -1.6473267e+07
   1.8406135e-09  -1.5778921e-02   1.7595700e-01   5.1542204e-02  -1.6426124e+07
   1.8432811e-09  -1.5735166e-02   1.7566401e-01   5.1631875e-02  -1.6379128e+07
   1.8459486e-09  -1.5691536e-02   1.7537232e-01   5.1721440e-02  -1.6332278e+07
   1.8486162e-09  -1.5648031e-02   1.7508193e-01   5.1810899e-02  -1.6285575e+07
   1.8512838e-09  -1.5604651e-02   1.7479284e-01   5.1900251e-02  -1.6239017e+07
   1.8539513e-09  -1.5561394e-02   1.7450503e-01   5.1989496e-02  -1.6192604e+07
   1.8566189e-09  -1.5518261e-02   1.7421849e-01   5.2078634e-02  -1.6146335e+07
   1.8592864e-09  -1.5475252e-02   1.7393323e-01   5.2167665e-02  -1.6100211e+07
   1.8619540e-09  -1.5432365e-02   1.7364923e-01   5.2256588e-02  -1.6054229e+07
   1.8646215e-09  -1.5389601e-02   1.7336649e-01   5.2345403e-02  -1.6008391e+07
   1.8672891e-09  -1.5346958e-02   1.7308500e-01   5.2434110e-02  -1.5962694e+07
   1.8699567e-09  -1.5304438e-02   1.7280475e-01   5.2522709e-02  -1.5917139e+07
   1.8726242e-09  -1.5262039e-02   1.7252574e-01   5.2611199e-02  -1.5871726e+07
   1.8752918e-09  -1.5219760e-02   1.7224795e-01   5.2699581e-02  -1.5826453e+07
   1.8779593e-09  -1.5177603e-02   1.7197139e-01   5.2787853e-02  -1.5781320e+07
   1.8806269e-09  -1.5135565e-02   1.7169605e-01   5.2876017e-02  -1.5736326e+07
   1.8832944e-09  -1.5093647e-02   1.7142191e-01   5.2964071e-02  -1.5691472e+07
   1.8859620e-09  -1.5051849e-02   1.7114897e-01   5.3052015e-02  -1.5646756e+07
   1.8886295e-09  -1.5010170e-02   1.7087723e-01   5.3139850e-02  -1.5602179e+07
   1.8912971e-09  -1.4968610e-02   1.7060668e-01   5.3227575e-02  -1.5557738e+07
   1.8939647e-09  -1.4927168e-02   1.7033732e-01   5.3315189e-02  -1.5513435e+07
   1.8966322e-09  -1.4885844e-02   1.7006912e-01   5.3402693e-02  -1.5469268e+07
   1.8992998e-09  -1.4844637e-02   1.6980210e-01   5.3490087e-02  -1.5425237e+07
   1.9019673e-09  -1.4803548e-02   1.6953624e-01   5.3577370e-02  -1.5381342e+07
   1.9046349e-09  -1.4762576e-02   1.6927154e-01   5.3664541e-02  -1.5337582e+07
   1.9073024e-09  -1.4721721e-02   1.6900799e-01   5.3751602e-02  -1.5293956e+07
   1.9099700e-09  -1.4680981e-02   1.6874558e-01   5.3838551e-02  -1.5250464e+07
   1.9126375e-09  -1.4640358e-02   1.6848431e-01   5.3925388e-02  -1.5207105e+07
   1.9153051e-09  -1.4599849e-02   1.6822417e-01   5.4012114e-02  -1.5163880e+07
   1.9179727e-09  -1.4559456e-02   1.6796516e-01   5.4098728e-02  -1.5120787e+07
   1.9206402e-09  -1.4519178e-02   1.6770727e-01   5.4185229e-02  -1.5077826e+07
   1.9233078e-09  -1.4479014e-02   1.6745049e-01   5.4271618e-02  -1.5034996e+07
   1.9259753e-09  -1.4438965e-02   1.6719482e-01   5.4357895e-02  -1.4992298e+07
   1.9286429e-09  -1.4399029e-02   1.6694025e-01   5.4444059e-02  -1.4949730e+07
   1.9313104e-09  -1.4359206e-02   1.6668677e-01   5.4530110e-02  -1.4907292e+07
   1.9339780e-09  -1.4319497e-02   1.6643439e-01   5.4616048e-02  -1.4864984e+07
   1.9366455e-09  -1.4279900e-02   1.6618309e-01   5.4701873e-02  -1.4822805e+07
   1.9393131e-09  -1.4240415e-02   1.6593287e-01   5.4787584e-02  -1.4780755e+07
   1.9419807e-09  -1.4201043e-02   1.6568372e-01   5.4873182e-02  -1.4738832e+07
   1.9446482e-09  -1.4161782e-02   1.6543563e-01   5.4958666e-02  -1.4697038e+07
   1.9473158e-09  -1.4122632e-02   1.6518861e-01   5.5044036e-02  -1.4655371e+07
   1.9499833e-09  -1.4083594e-02   1.6494264e-01   5.5129292e-02  -1.4613831e+07
   1.9526509e-09  -1.4044666e-02   1.6469772e-01   5.5214434e-02  -1.4572417e+07
   1.9553184e-09  -1.4005848e-02   1.6445385e-01   5.5299461e-02  -1.4531129e+07
   1.9579860e-09  -1.3967141e-02   1.6421101e-01   5.5384374e-02  -1.4489966e+07
   1.9606536e-09  -1.3928543e-02   1.6396921e-01   5.5469172e-02  -1.4448928e+07
   1.9633211e-09  -1.3890054e-02   1.6372844e-01   5.5553855e-02  -1.4408015e+07
   1.9659887e-09  -1.3851674e-02   1.6348868e-01   5.5638424e-02  -1.4367226e+07
   1.9686562e-09  -1.3813403e-02   1.6324995e-01   5.5722877e-02  -1.4326561e+07
   1.9713238e-09  -1.3775240e-02   1.6301222e-01   5.5807214e-02  -1.4286019e+07
   1.9739913e-09  -1.3737185e-02   1.6277550e-01   5.5891437e-02  -1.4245600e+07
   1.9766589e-09  -1.3699238e-02   1.6253978e-01   5.5975543e-02  -1.4205303e+07
   1.9793264e-09  -1.3661398e-02   1.6230506e-01   5.6059534e-02  -1.4165128e+07
   1.9819940e-09  -1.3623666e-02   1.6207133e-01   5.6143409e-02  -1.4125074e+07
   1.9846616e-09  -1.3586039e-02   1.6183858e-01   5.6227168e-02  -1.4085141e+07
   1.9873291e-09  -1.3548520e-02   1.6160681e-01   5.6310811e-02  -1.4045329e+07
   1.9899967e-09  -1.3511106e-02   1.6137602e-01   5.6394337e-02  -1.4005638e+07
   1.9926642e-09  -1.3473798e-02   1.6114619e-01   5.6477747e-02  -1.3966065e+07
   1.9953318e-09  -1.3436595e-02   1.6091733e-01   5.6561040e-02  -1.3926613e+07
   1.9979993e-09  -1.3399498e-02   1.6068943e-01   5.6644217e-02  -1.3887279e+07
   2.0006669e-09  -1.3362505e-02   1.6046248e-01   5.6727277e-02  -1.3848063e+07
   2.0033344e-09  -1.3325617e-02   1.6023649e-01   5.6810220e-02  -1.3808966e+07
   2.0060020e-09  -1.3288833e-02   1.6001143e-01   5.6893045e-02  -1.3769987e+07
   2.0086696e-09  -1.3252152e-02   1.5978732e-01   5.6975754e-02  -1.3731124e+07
   2.0113371e-09  -1.3215576e-02   1.5956414e-01   5.7058345e-02  -1.3692378e+07
   2.0140047e-09  -1.3179102e-02   1.5934189e-01   5.7140819e-02  -1.3653749e+07
   2.0166722e-09  -1.3142731e-02   1.5912057e-01   5.7223175e-02  -1.3615236e+07
   2.0193398e-09  -1.3106463e-02   1.5890017e-01   5.7305413e-02  -1.3576838e+07
   2.0220073e-09  -1.3070297e-02   1.5868068e-01   5.7387533e-02  -1.3538556e+07
   2.0246749e-09  -1.3034233e-02   1.5846210e-01   5.7469536e-02  -1.3500388e+07
   2.0273424e-09  -1.2998271e-02   1.5824443e-01   5.7551421e-02  -1.3462335e+07
   2.0300100e-09  -1.2962410e-02   1.5802767e-01   5.7633187e-02  -1.3424396e+07
   2.0326776e-09  -1.2926650e-02   1.5781179e-01   5.7714835e-02  -1.3386570e+07
   2.0353451e-09  -1.2890991e-02   1.5759681e-01   5.7796365e-02  -1.3348858e+07
   2.0380127e-09  -1.2855433e-02   1.5738272e-01   5.7877776e-02  -1.3311258e+07
   2.0406802e-09  -1.2819974e-02   1.5716951e-01   5.7959069e-02  -1.3273771e+07
   2.0433478e-09  -1.2784615e-02   1.5695718e-01   5.8040243e-02  -1.3236395e+07
   2.0460153e-09  -1.2749356e-02   1.5674573e-01   5.8121298e-02  -1.3199132e+07
   2.0486829e-09  -1.2714197e-02   1.5653514e-01   5.8202234e-02  -1.3161979e+07
   2.0513505e-09  -1.2679136e-02   1.5632542e-01   5.8283052e-02  -1.3124938e+07
   2.0540180e-09  -1.2644173e-02   1.5611656e-01   5.8363750e-02  -1.3088007e+07
   2.0566856e-09  -1.2609310e-02   1.5590855e-01   5.8444329e-02  -1.3051186e+07
   2.0593531e-09  -1.2574544e-02   1.5570140e-01   5.8524789e-02  -1.3014474e+07
   2.0620207e-09  -1.2539876e-02   1.5549510e-01   5.8605129e-02  -1.2977872e+07
   2.0646882e-09  -1.2505305e-02   1.5528964e-01   5.8685350e-02  -1.2941379e+07
   2.0673558e-09  -1.2470832e-02   1.5508502e-01   5.8765452e-02  -1.2904995e+07
   2.0700233e-09  -1.2436456e-02   1.5488123e-01   5.8845434e-02  -1.2868719e+07
   2.0726909e-09  -1.2402176e-02   1.5467828e-01   5.8925296e-02  -1.2832551e+07
   2.0753585e-09  -1.2367993e-02   1.5447615e-01   5.9005038e-02  -1.2796490e+07
   2.0780260e-09  -1.2333905e-02   1.5427484e-01   5.9084661e-02  -1.2760536e+07
   2.0806936e-09  -1.2299914e-02   1.5407436e-01   5.9164163e-02  -1.2724689e+07
   2.0833611e-09  -1.2266017e-02   1.5387468e-01   5.9243546e-02  -1.2688948e+07
   2.0860287e-09  -1.2232217e-02   1.5367582e-01   5.9322809e-02  -1.2653314e+07
   2.0886962e-09  -1.2198511e-02   1.5347776e-01   5.9401951e-02  -1.2617785e+07
   2.0913638e-09  -1.2164899e-02   1.5328051e-01   5.9480973e-02  -1.2582361e+07
   2.0940313e-09  -1.2131382e-02   1.5308405e-01   5.9559875e-02  -1.2547042e+07
   2.0966989e-09  -1.2097959e-02   1.5288839e-01   5.9638656e-02  -1.2511828e+07
   2.0993665e-09  -1.2064630e-02   1.5269351e-01   5.9717317e-02  -1.2476718e+07
   2.1020340e-09  -1.2031394e-02   1.5249943e-01   5.9795858e-02  -1.2441712e+07
   2.1047016e-09  -1.1998252e-02   1.5230612e-01   5.9874278e-02  -1.2406810e+07
   2.1073691e-09  -1.1965203e-02   1.5211360e-01   5.9952577e-02  -1.2372010e+07
   2.1100367e-09  -1.1932246e-02   1.5192185e-01   6.0030755e-02  -1.2337314e+07
   2.1127042e-09  -1.1899382e-02   1.5173087e-01   6.0108813e-02  -1.2302720e+07
   2.1153718e-09  -1.1866609e-02   1.5154065e-01   6.0186750e-02  -1.2268228e+07
   2.1180393e-09  -1.1833929e-02   1.5135120e-01   6.0264566e-02  -1.2233837e+07
   2.1207069e-09  -1.1801341e-02   1.5116251e-01   6.0342261e-02  -1.2199549e+07
   2.1233745e-09  -1.1768843e-02   1.5097458e-01   6.0419836e-02  -1.2165361e+07
   2.1260420e-09  -1.1736437e-02   1.5078739e-01   6.0497289e-02  -1.2131274e+07
   2.1287096e-09  -1.1704121e-02   1.5060096e-01   6.0574621e-02  -1.2097288e+07
   2.1313771e-09  -1.1671896e-02   1.5041527e-01   6.0651832e-02  -1.2063401e+07
   2.1340447e-09  -1.1639762e-02   1.5023032e-01   6.0728921e-02  -1.2029615e+07
   2.1367122e-09  -1.1607717e-02   1.5004610e-01   6.0805890e-02  -1.1995928e+07
   2.1393798e-09  -1.1575762e-02   1.4986262e-01   6.0882737e-02  -1.1962339e+07
   2.1420473e-09  -1.1543897e-02   1.4967987e-01   6.0959463e-02  -1.1928850e+07
   2.1447149e-09  -1.1512120e-02   1.4949785e-01   6.1036067e-02  -1.1895459e+07
   2.1473825e-09  -1.1480433e-02   1.4931655e-01   6.1112550e-02  -1.1862166e+07
   2.1500500e-09  -1.1448834e-02   1.4913597e-01   6.1188912e-02  -1.1828971e+07
   2.1527176e-09  -1.1417324e-02   1.4895611e-01   6.1265152e-02  -1.1795874e+07
   2.1553851e-09  -1.1385902e-02   1.4877695e-01   6.1341271e-02  -1.1762873e+07
   2.1580527e-09  -1.1354568e-02   1.4859851e-01   6.1417268e-02  -1.1729969e+07
   2.1607202e-09  -1.1323321e-02   1.4842077e-01   6.1493143e-02  -1.1697162e+07
   2.1633878e-09  -1.1292162e-02   1.4824374e-01   6.1568897e-02  -1.1664451e+07
   2.1660554e-09  -1.1261090e-02   1.4806740e-01   6.1644529e-02  -1.1631836e+07
   2.1687229e-09  -1.1230105e-02   1.4789176e-01   6.1720039e-02  -1.1599316e+07
   2.1713905e-09  -1.1199206e-02   1.4771681e-01   6.1795428e-02  -1.1566892e+07
   2.1740580e-09  -1.1168394e-02   1.4754255e-01   6.1870695e-02  -1.1534562e+07
   2.1767256e-09  -1.1137668e-02   1.4736897e-01   6.1945840e-02  -1.1502327e+07
   2.1793931e-09  -1.1107028e-02   1.4719608e-01   6.2020863e-02  -1.1470186e+07
   2.1820607e-09  -1.1076473e-02   1.4702386e-01   6.2095765e-02  -1.1438139e+07
   2.1847282e-09  -1.1046004e-02   1.4685233e-01   6.2170545e-02  -1.1406186e+07
   2.1873958e-09  -1.1015620e-02   1.4668146e-01   6.2245203e-02  -1.1374327e+07
   2.1900634e-09  -1.0985320e-02   1.4651126e-01   6.2319739e-02  -1.1342560e+07
   2.1927309e-09  -1.0955106e-02   1.4634173e-01   6.2394153e-02  -1.1310886e+07
   2.1953985e-09  -1.0924976e-02   1.4617286e-01   6.2468445e-02  -1.1279304e+07
   2.1980660e-09  -1.0894929e-02   1.4600465e-01   6.2542615e-02  -1.1247815e+07
   2.2007336e-09  -1.0864967e-02   1.4583709e-01   6.2616663e-02  -1.1216417e+07
   2.2034011e-09  -1.0835089e-02   1.4567019e-01   6.2690589e-02  -1.1185111e+07
   2.2060687e-09  -1.0805293e-02   1.4550394e-01   6.2764394e-02  -1.1153896e+07
   2.2087362e-09  -1.0775581e-02   1.4533834e-01   6.2838076e-02  -1.1122772e+07
   2.2114038e-09  -1.0745952e-02   1.4517338e-01   6.2911636e-02  -1.1091739e+07
   2.2140714e-09  -1.0716405e-02   1.4500906e-01   6.2985075e-02  -1.1060796e+07
   2.2167389e-09  -1.0686941e-02   1.4484538e-01   6.3058391e-02  -1.1029943e+07
   2.2194065e-09  -1.0657559e-02   1.4468233e-01   6.3131585e-02  -1.0999179e+07
   2.2220740e-09  -1.0628259e-02   1.4451992e-01   6.3204657e-02  -1.0968506e+07
   2.2247416e-09  -1.0599041e-02   1.4435813e-01   6.3277608e-02  -1.0937921e+07
   2.2274091e-09  -1.0569904e-02   1.4419697e-01   6.3350436e-02  -1.0907425e+07
   2.2300767e-09  -1.0540849e-02   1.4403643e-01   6.3423142e-02  -1.0877018e+07
   2.2327442e-09  -1.0511874e-02   1.4387651e-01   6.3495726e-02  -1.0846699e+07
   2.2354118e-09  -1.0482980e-02   1.4371721e-01   6.3568188e-02  -1.0816468e+07
   2.2380794e-09  -1.0454167e-02   1.4355853e-01   6.3640529e-02  -1.0786325e+07
   2.2407469e-09  -1.0425434e-02   1.4340045e-01   6.3712747e-02  -1.0756270e+07
   2.2434145e-09  -1.0396781e-02   1.4324299e-01   6.3784843e-02  -1.0726301e+07
   2.2460820e-09  -1.0368208e-02   1.4308613e-01   6.3856817e-02  -1.0696419e+07
   2.2487496e-09  -1.0339714e-02   1.4292987e-01   6.3928669e-02  -1.0666624e+07
   2.2514171e-09  -1.0311300e-02   1.4277421e-01   6.4000399e-02  -1.0636916e+07
   2.2540847e-09  -1.0282965e-02   1.4261915e-01   6.4072007e-02  -1.0607293e+07
   2.2567523e-09  -1.0254709e-02   1.4246468e-01   6.4143494e-02  -1.0577756e+07
   2.2594198e-09  -1.0226532e-02   1.4231081e-01   6.4214858e-02  -1.0548305e+07
   2.2620874e-09  -1.0198433e-02   1.4215752e-01   6.4286100e-02  -1.0518939e+07
   2.2647549e-09  -1.0170412e-02   1.4200482e-01   6.4357221e-02  -1.0489658e+07
   2.2674225e-09  -1.0142469e-02   1.4185270e-01   6.4428219e-02  -1.0460461e+07
   2.2700900e-09  -1.0114604e-02   1.4170117e-01   6.4499096e-02  -1.0431349e+07
   2.2727576e-09  -1.0086817e-02   1.4155021e-01   6.4569851e-02  -1.0402321e+07
   2.2754251e-09  -1.0059106e-02   1.4139982e-01   6.4640484e-02  -1.0373377e+07
   2.2780927e-09  -1.0031473e-02   1.4125001e-01   6.4710995e-02  -1.0344516e+07
   2.2807603e-09  -1.0003917e-02   1.4110077e-01   6.4781384e-02  -1.0315739e+07
   2.2834278e-09  -9.9764377e-03   1.4095210e-01   6.4851651e-02  -1.0287045e+07
   2.2860954e-09  -9.9490346e-03   1.4080399e-01   6.4921797e-02  -1.0258434e+07
   2.2887629e-09  -9.9217078e-03   1.4065645e-01   6.4991821e-02  -1.0229905e+07
   2.2914305e-09  -9.8944569e-03   1.4050946e-01   6.5061724e-02  -1.0201459e+07
   2.2940980e-09  -9.8672818e-03   1.4036303e-01   6.5131504e-02  -1.0173094e+07
   2.2967656e-09  -9.8401822e-03   1.4021715e-01   6.5201163e-02  -1.0144811e+07
   2.2994331e-09  -9.8131580e-03   1.4007183e-01   6.5270701e-02  -1.0116610e+07
   2.3021007e-09  -9.7862089e-03   1.3992705e-01   6.5340116e-02  -1.0088490e+07
   2.3047683e-09  -9.7593347e-03   1.3978283e-01   6.5409411e-02  -1.0060451e+07
   2.3074358e-09  -9.7325352e-03   1.3963914e-01   6.5478583e-02  -1.0032493e+07
   2.3101034e-09  -9.7058102e-03   1.3949600e-01   6.5547634e-02  -1.0004615e+07
   2.3127709e-09  -9.6791594e-03   1.3935340e-01   6.5616564e-02  -9.9768175e+06
   2.3154385e-09  -9.6525827e-03   1.3921134e-01   6.5685373e-02  -9.9490999e+06
   2.3181060e-09  -9.6260798e-03   1.3906981e-01   6.5754059e-02  -9.9214619e+06
   2.3207736e-09  -9.5996505e-03   1.3892881e-01   6.5822625e-02  -9.8939034e+06
   2.3234411e-09  -9.5732947e-03   1.3878834e-01   6.5891069e-02  -9.8664241e+06
   2.3261087e-09  -9.5470120e-03   1.3864840e-01   6.5959392e-02  -9.8390238e+06
   2.3287763e-09  -9.5208023e-03   1.3850898e-01   6.6027594e-02  -9.8117022e+06
   2.3314438e-09  -9.4946654e-03   1.3837009e-01   6.6095675e-02  -9.7844590e+06
   2.3341114e-09  -9.4686011e-03   1.3823171e-01   6.6163634e-02  -9.7572940e+06
   2.3367789e-09  -9.4426091e-03   1.3809386e-01   6.6231473e-02  -9.7302070e+06
   2.3394465e-09  -9.4166893e-03   1.3795651e-01   6.6299190e-02  -9.7031978e+06
   2.3421140e-09  -9.3908414e-03   1.3781969e-01   6.6366786e-02  -9.6762660e+06
   2.3447816e-09  -9.3650653e-03   1.3768337e-01   6.6434262e-02  -9.6494114e+06
   2.3474491e-09  -9.3393607e-03   1.3754756e-01   6.6501616e-02  -9.6226338e+06
   2.3501167e-09  -9.3137274e-03   1.3741226e-01   6.6568850e-02  -9.5959330e+06
   2.3527843e-09  -9.2881652e-03   1.3727746e-01   6.6635962e-02  -9.5693087e+06
   2.3554518e-09  -9.2626740e-03   1.3714316e-01   6.6702954e-02  -9.5427607e+06
   2.3581194e-09  -9.2372535e-03   1.3700937e-01   6.6769826e-02  -9.5162886e+06
   2.3607869e-09  -9.2119035e-03   1.3687607e-01   6.6836576e-02  -9.4898924e+06
   2.3634545e-09  -9.1866238e-03   1.3674326e-01   6.6903206e-02  -9.4635718e+06
   2.3661220e-09  -9.1614142e-03   1.3661095e-01   6.6969716e-02  -9.4373264e+06
   2.3687896e-09  -9.1362745e-03   1.3647913e-01   6.7036105e-02  -9.4111562e+06
   2.3714572e-09  -9.1112046e-03   1.3634779e-01   6.7102373e-02  -9.3850608e+06
   2.3741247e-09  -9.0862041e-03   1.3621695e-01   6.7168521e-02  -9.3590401e+06
   2.3767923e-09  -9.0612730e-03   1.3608658e-01   6.7234549e-02  -9.3330937e+06
   2.3794598e-09  -9.0364110e-03   1.3595670e-01   6.7300457e-02  -9.3072215e+06
   2.3821274e-09  -9.0116179e-03   1.3582730e-01   6.7366244e-02  -9.2814232e+06
   2.3847949e-09  -8.9868935e-03   1.3569838e-01   6.7431911e-02  -9.2556986e+06
   2.3874625e-09  -8.9622376e-03   1.3556993e-01   6.7497458e-02  -9.2300475e+06
   2.3901300e-09  -8.9376501e-03   1.3544195e-01   6.7562885e-02  -9.2044696e+06
   2.3927976e-09  -8.9131307e-03   1.3531445e-01   6.7628192e-02  -9.1789647e+06
   2.3954652e-09  -8.8886792e-03   1.3518741e-01   6.7693380e-02  -9.1535327e+06
   2.3981327e-09  -8.8642955e-03   1.3506085e-01   6.7758447e-02  -9.1281731e+06
   2.4008003e-09  -8.8399794e-03   1.3493474e-01   6.7823395e-02  -9.1028860e+06
   2.4034678e-09  -8.8157306e-03   1.3480910e-01   6.7888222e-02  -9.0776709e+06
   2.4061354e-09  -8.7915489e-03   1.3468393e-01   6.7952931e-02  -9.0525278e+06
   2.4088029e-09  -8.7674343e-03   1.3455921e-01   6.8017520e-02  -9.0274563e+06
   2.4114705e-09  -8.7433864e-03   1.3443494e-01   6.8081989e-02  -9.0024562e+06
   2.4141380e-09  -8.7194051e-03   1.3431114e-01   6.8146339e-02  -8.9775274e+06
   2.4168056e-09  -8.6954902e-03   1.3418778e-01   6.8210569e-02  -8.9526696e+06
   2.4194732e-09  -8.6716416e-03   1.3406488e-01   6.8274680e-02  -8.9278826e+06
   2.4221407e-09  -8.6478589e-03   1.3394242e-01   6.8338672e-02  -8.9031662e+06
   2.4248083e-09  -8.6241421e-03   1.3382042e-01   6.8402545e-02  -8.8785201e+06
   2.4274758e-09  -8.6004910e-03   1.3369885e-01   6.8466299e-02  -8.8539442e+06
   2.4301434e-09  -8.5769053e-03   1.3357773e-01   6.8529934e-02  -8.8294382e+06
   2.4328109e-09  -8.5533849e-03   1.3345706e-01   6.8593450e-02  -8.8050019e+06
   2.4354785e-09  -8.5299296e-03   1.3333682e-01   6.8656847e-02  -8.7806351e+06
   2.4381460e-09  -8.5065391e-03   1.3321702e-01   6.8720125e-02  -8.7563376e+06
   2.4408136e-09  -8.4832135e-03   1.3309765e-01   6.8783285e-02  -8.7321092e+06
   2.4434812e-09  -8.4599523e-03   1.3297872e-01   6.8846326e-02  -8.7079496e+06
   2.4461487e-09  -8.4367555e-03   1.3286022e-01   6.8909248e-02  -8.6838587e+06
   2.4488163e-09  -8.4136229e-03   1.3274215e-01   6.8972052e-02  -8.6598362e+06
   2.4514838e-09  -8.3905543e-03   1.3262450e-01   6.9034738e-02  -8.6358819e+06
   2.4541514e-09  -8.3675495e-03   1.3250729e-01   6.9097306e-02  -8.6119957e+06
   2.4568189e-09  -8.3446083e-03   1.3239049e-01   6.9159755e-02  -8.5881773e+06
   2.4594865e-09  -8.3217305e-03   1.3227412e-01   6.9222086e-02  -8.5644264e+06
   2.4621541e-09  -8.2989160e-03   1.3215817e-01   6.9284299e-02  -8.5407430e+06
   2.4648216e-09  -8.2761646e-03   1.3204264e-01   6.9346394e-02  -8.5171268e+06
   2.4674892e-09  -8.2534762e-03   1.3192753e-01   6.9408372e-02  -8.4935776e+06
   2.4701567e-09  -8.2308504e-03   1.3181283e-01   6.9470231e-02  -8.4700951e+06
   2.4728243e-09  -8.2082872e-03   1.3169855e-01   6.9531973e-02  -8.4466793e+06
   2.4754918e-09  -8.1857864e-03   1.3158467e-01   6.9593598e-02  -8.4233298e+06
   2.4781594e-09  -8.1633478e-03   1.3147121e-01   6.9655104e-02  -8.4000465e+06
   2.4808269e-09  -8.1409711e-03   1.3135816e-01   6.9716494e-02  -8.3768292e+06
   2.4834945e-09  -8.1186564e-03   1.3124551e-01   6.9777766e-02  -8.3536777e+06
   2.4861621e-09  -8.0964033e-03   1.3113326e-01   6.9838921e-02  -8.3305917e+06
   2.4888296e-09  -8.0742117e-03   1.3102142e-01   6.9899958e-02  -8.3075711e+06
   2.4914972e-09  -8.0520814e-03   1.3090998e-01   6.9960879e-02  -8.2846157e+06
   2.4941647e-09  -8.0300123e-03   1.3079894e-01   7.0021683e-02  -8.2617253e+06
   2.4968323e-09  -8.0080041e-03   1.3068830e-01   7.0082370e-02  -8.2388997e+06
   2.4994998e-09  -7.9860568e-03   1.3057805e-01   7.0142940e-02  -8.2161387e+06
   2.5021674e-09  -7.9641701e-03   1.3046820e-01   7.0203393e-02  -8.1934420e+06
   2.5048349e-09  -7.9423438e-03   1.3035874e-01   7.0263730e-02  -8.1708096e+06
   2.5075025e-09  -7.9205778e-03   1.3024967e-01   7.0323950e-02  -8.1482411e+06
   2.5101701e-09  -7.8988720e-03   1.3014099e-01   7.0384054e-02  -8.1257365e+06
   2.5128376e-09  -7.8772261e-03   1.3003270e-01   7.0444042e-02  -8.1032955e+06
   2.5155052e-09  -7.8556399e-03   1.2992480e-01   7.0503913e-02  -8.0809180e+06
   2.5181727e-09  -7.8341134e-03   1.2981728e-01   7.0563669e-02  -8.0586036e+06
   2.5208403e-09  -7.8126463e-03   1.2971014e-01   7.0623308e-02  -8.0363524e+06
   2.5235078e-09  -7.7912385e-03   1.2960338e-01   7.0682831e-02  -8.0141639e+06
   2.5261754e-09  -7.7698898e-03   1.2949701e-01   7.0742239e-02  -7.9920382e+06
   2.5288429e-09  -7.7486001e-03   1.2939101e-01   7.0801531e-02  -7.9699749e+06
   2.5315105e-09  -7.7273691e-03   1.2928539e-01   7.0860707e-02  -7.9479739e+06
   2.5341781e-09  -7.7061967e-03   1.2918014e-01   7.0919768e-02  -7.9260350e+06
   2.5368456e-09  -7.6850828e-03   1.2907527e-01   7.0978714e-02  -7.9041581e+06
   2.5395132e-09  -7.6640271e-03   1.2897076e-01   7.1037544e-02  -7.8823428e+06
   2.5421807e-09  -7.6430295e-03   1.2886663e-01   7.1096259e-02  -7.8605892e+06
   2.5448483e-09  -7.6220899e-03   1.2876287e-01   7.1154859e-02  -7.8388968e+06
   2.5475158e-09  -7.6012081e-03   1.2865947e-01   7.1213344e-02  -7.8172657e+06
   2.5501834e-09  -7.5803839e-03   1.2855644e-01   7.1271714e-02  -7.7956955e+06
   2.5528510e-09  -7.5596171e-03   1.2845378e-01   7.1329970e-02  -7.7741862e+06
   2.5555185e-09  -7.5389077e-03   1.2835147e-01   7.1388110e-02  -7.7527375e+06
   2.5581861e-09  -7.5182554e-03   1.2824953e-01   7.1446137e-02  -7.7313492e+06
   2.5608536e-09  -7.4976600e-03   1.2814794e-01   7.1504048e-02  -7.7100212e+06
   2.5635212e-09  -7.4771215e-03   1.2804672e-01   7.1561846e-02  -7.6887533e+06
   2.5661887e-09  -7.4566396e-03   1.2794585e-01   7.1619529e-02  -7.6675453e+06
   2.5688563e-09  -7.4362142e-03   1.2784534e-01   7.1677098e-02  -7.6463971e+06
   2.5715238e-09  -7.4158452e-03   1.2774518e-01   7.1734553e-02  -7.6253083e+06
   2.5741914e-09  -7.3955323e-03   1.2764537e-01   7.1791894e-02  -7.6042790e+06
   2.5768590e-09  -7.3752755e-03   1.2754591e-01   7.1849122e-02  -7.5833088e+06
   2.5795265e-09  -7.3550745e-03   1.2744680e-01   7.1906236e-02  -7.5623977e+06
   2.5821941e-09  -7.3349292e-03   1.2734804e-01   7.1963236e-02  -7.5415454e+06
   2.5848616e-09  -7.3148394e-03   1.2724962e-01   7.2020123e-02  -7.5207518e+06
   2.5875292e-09  -7.2948051e-03   1.2715155e-01   7.2076896e-02  -7.5000167e+06
   2.5901967e-09  -7.2748260e-03   1.2705383e-01   7.2133557e-02  -7.4793399e+06
   2.5928643e-09  -7.2549019e-03   1.2695644e-01   7.2190104e-02  -7.4587212e+06
   2.5955318e-09  -7.2350328e-03   1.2685940e-01   7.2246538e-02  -7.4381605e+06
   2.5981994e-09  -7.2152185e-03   1.2676270e-01   7.2302859e-02  -7.4176576e+06
   2.6008670e-09  -7.1954587e-03   1.2666633e-01   7.2359068e-02  -7.3972124e+06
   2.6035345e-09  -7.1757535e-03   1.2657030e-01   7.2415164e-02  -7.3768245e+06
   2.6062021e-09  -7.1561025e-03   1.2647460e-01   7.2471147e-02  -7.3564940e+06
   2.6088696e-09  -7.1365057e-03   1.2637924e-01   7.2527018e-02  -7.3362206e+06
   2.6115372e-09  -7.1169629e-03   1.2628421e-01   7.2582777e-02  -7.3160042e+06
   2.6142047e-09  -7.0974739e-03   1.2618951e-01   7.2638424e-02  -7.2958445e+06
   2.6168723e-09  -7.0780387e-03   1.2609514e-01   7.2693958e-02  -7.2757414e+06
   2.6195398e-09  -7.0586570e-03   1.2600110e-01   7.2749381e-02  -7.2556948e+06
   2.6222074e-09  -7.0393287e-03   1.2590739e-01   7.2804692e-02  -7.2357044e+06
   2.6248750e-09  -7.0200537e-03   1.2581400e-01   7.2859891e-02  -7.2157702e+06
   2.6275425e-09  -7.0008317e-03   1.2572094e-01   7.2914979e-02  -7.1958919e+06
   2.6302101e-09  -6.9816627e-03   1.2562820e-01   7.2969955e-02  -7.1760694e+06
   2.6328776e-09  -6.9625466e-03   1.2553578e-01   7.3024820e-02  -7.1563025e+06
   2.6355452e-09  -6.9434830e-03   1.2544368e-01   7.3079573e-02  -7.1365910e+06
   2.6382127e-09  -6.9244720e-03   1.2535190e-01   7.3134216e-02  -7.1169348e+06
   2.6408803e-09  -6.9055133e-03   1.2526044e-01   7.3188748e-02  -7.0973338e+06
   2.6435478e-09  -6.8866069e-03   1.2516929e-01   7.3243168e-02  -7.0777877e+06
   2.6462154e-09  -6.8677525e-03   1.2507846e-01   7.3297478e-02  -7.0582964e+06
   2.6488830e-09  -6.8489500e-03   1.2498794e-01   7.3351678e-02  -7.0388597e+06
   2.6515505e-09  -6.8301994e-03   1.2489774e-01   7.3405767e-02  -7.0194775e+06
   2.6542181e-09  -6.8115003e-03   1.2480785e-01   7.3459746e-02  -7.0001496e+06
   2.6568856e-09  -6.7928527e-03   1.2471826e-01   7.3513614e-02  -6.9808759e+06
   2.6595532e-09  -6.7742565e-03   1.2462899e-01   7.3567373e-02  -6.9616562e+06
   2.6622207e-09  -6.7557115e-03   1.2454002e-01   7.3621021e-02  -6.9424903e+06
   2.6648883e-09  -6.7372175e-03   1.2445136e-01   7.3674560e-02  -6.9233781e+06
   2.6675559e-09  -6.7187744e-03   1.2436301e-01   7.3727989e-02  -6.9043194e+06
   2.6702234e-09  -6.7003821e-03   1.2427496e-01   7.3781308e-02  -6.8853140e+06
   2.6728910e-09  -6.6820405e-03   1.2418721e-01   7.3834518e-02  -6.8663619e+06
   2.6755585e-09  -6.6637493e-03   1.2409976e-01   7.3887619e-02  -6.8474628e+06
   2.6782261e-09  -6.6455085e-03   1.2401261e-01   7.3940611e-02  -6.8286166e+06
   2.6808936e-09  -6.6273178e-03   1.2392576e-01   7.3993493e-02  -6.8098232e+06
   2.6835612e-09  -6.6091772e-03   1.2383921e-01   7.4046267e-02  -6.7910823e+06
   2.6862287e-09  -6.5910866e-03   1.2375296e-01   7.4098931e-02  -6.7723939e+06
   2.6888963e-09  -6.5730457e-03   1.2366700e-01   7.4151487e-02  -6.7537577e+06
   2.6915639e-09  -6.5550545e-03   1.2358134e-01   7.4203935e-02  -6.7351736e+06
   2.6942314e-09  -6.5371128e-03   1.2349597e-01   7.4256274e-02  -6.7166416e+06
   2.6968990e-09  -6.5192204e-03   1.2341089e-01   7.4308505e-02  -6.6981613e+06
   2.6995665e-09  -6.5013773e-03   1.2332610e-01   7.4360627e-02  -6.6797327e+06
   2.7022341e-09  -6.4835833e-03   1.2324160e-01   7.4412642e-02  -6.6613556e+06
   2.7049016e-09  -6.4658382e-03   1.2315739e-01   7.4464549e-02  -6.6430299e+06
   2.7075692e-09  -6.4481419e-03   1.2307347e-01   7.4516348e-02  -6.6247554e+06
   2.7102367e-09  -6.4304943e-03   1.2298983e-01   7.4568039e-02  -6.6065320e+06
   2.7129043e-09  -6.4128953e-03   1.2290648e-01   7.4619623e-02  -6.5883594e+06
   2.7155719e-09  -6.3953446e-03   1.2282342e-01   7.4671100e-02  -6.5702377e+06
   2.7182394e-09  -6.3778423e-03   1.2274063e-01   7.4722470e-02  -6.5521665e+06
   2.7209070e-09  -6.3603881e-03   1.2265813e-01   7.4773732e-02  -6.5341459e+06
   2.7235745e-09  -6.3429819e-03   1.2257590e-01   7.4824887e-02  -6.5161755e+06
   2.7262421e-09  -6.3256235e-03   1.2249396e-01   7.4875936e-02  -6.4982553e+06
   2.7289096e-09  -6.3083129e-03   1.2241230e-01   7.4926878e-02  -6.4803852e+06
   2.7315772e-09  -6.2910499e-03   1.2233091e-01   7.4977713e-02  -6.4625649e+06
   2.7342447e-09  -6.2738343e-03   1.2224980e-01   7.5028442e-02  -6.4447944e+06
   2.7369123e-09  -6.2566661e-03   1.2216896e-01   7.5079065e-02  -6.4270735e+06
   2.7395799e-09  -6.2395451e-03   1.2208840e-01   7.5129582e-02  -6.4094020e+06
   2.7422474e-09  -6.2224712e-03   1.2200811e-01   7.5179992e-02  -6.3917798e+06
   2.7449150e-09  -6.2054443e-03   1.2192809e-01   7.5230297e-02  -6.3742068e+06
   2.7475825e-09  -6.1884641e-03   1.2184834e-01   7.5280496e-02  -6.3566828e+06
   2.7502501e-09  -6.1715306e-03   1.2176887e-01   7.5330590e-02  -6.3392077e+06
   2.7529176e-09  -6.1546437e-03   1.2168966e-01   7.5380578e-02  -6.3217813e+06
   2.7555852e-09  -6.1378031e-03   1.2161072e-01   7.5430461e-02  -6.3044035e+06
   2.7582528e-09  -6.1210089e-03   1.2153204e-01   7.5480238e-02  -6.2870741e+06
   2.7609203e-09  -6.1042609e-03   1.2145363e-01   7.5529911e-02  -6.2697931e+06
   2.7635879e-09  -6.0875588e-03   1.2137549e-01   7.5579478e-02  -6.2525602e+06
   2.7662554e-09  -6.0709027e-03   1.2129761e-01   7.5628941e-02  -6.2353754e+06
   2.7689230e-09  -6.0542924e-03   1.2121999e-01   7.5678300e-02  -6.2182385e+06
   2.7715905e-09  -6.0377277e-03   1.2114263e-01   7.5727554e-02  -6.2011493e+06
   2.7742581e-09  -6.0212085e-03   1.2106553e-01   7.5776703e-02  -6.1841077e+06
   2.7769256e-09  -6.0047347e-03   1.2098869e-01   7.5825749e-02  -6.1671136e+06
   2.7795932e-09  -5.9883062e-03   1.2091211e-01   7.5874690e-02  -6.1501669e+06
   2.7822608e-09  -5.9719229e-03   1.2083579e-01   7.5923527e-02  -6.1332673e+06
   2.7849283e-09  -5.9555845e-03   1.2075973e-01   7.5972261e-02  -6.1164148e+06
   2.7875959e-09  -5.9392911e-03   1.2068392e-01   7.6020891e-02  -6.0996092e+06
   2.7902634e-09  -5.9230424e-03   1.2060836e-01   7.6069418e-02  -6.0828505e+06
   2.7929310e-09  -5.9068384e-03   1.2053306e-01   7.6117841e-02  -6.0661384e+06
   2.7955985e-09  -5.8906788e-03   1.2045801e-01   7.6166161e-02  -6.0494728e+06
   2.7982661e-09  -5.8745637e-03   1.2038321e-01   7.6214378e-02  -6.0328536e+06
   2.8009336e-09  -5.8584928e-03   1.2030866e-01   7.6262492e-02  -6.0162806e+06
   2.8036012e-09  -5.8424661e-03   1.2023436e-01   7.6310504e-02  -5.9997538e+06
   2.8062688e-09  -5.8264835e-03   1.2016031e-01   7.6358412e-02  -5.9832729e+06
   2.8089363e-09  -5.8105447e-03   1.2008650e-01   7.6406219e-02  -5.9668379e+06
   2.8116039e-09  -5.7946497e-03   1.2001295e-01   7.6453923e-02  -5.9504487e+06
   2.8142714e-09  -5.7787983e-03   1.1993964e-01   7.6501524e-02  -5.9341050e+06
   2.8169390e-09  -5.7629905e-03   1.1986657e-01   7.6549024e-02  -5.9178068e+06
   2.8196065e-09  -5.7472261e-03   1.1979375e-01   7.6596422e-02  -5.9015539e+06
   2.8222741e-09  -5.7315050e-03   1.1972117e-01   7.6643718e-02  -5.8853462e+06
   2.8249416e-09  -5.7158271e-03   1.1964883e-01   7.6690912e-02  -5.8691836e+06
   2.8276092e-09  -5.7001922e-03   1.1957673e-01   7.6738005e-02  -5.8530659e+06
   2.8302768e-09  -5.6846003e-03   1.1950487e-01   7.6784997e-02  -5.8369930e+06
   2.8329443e-09  -5.6690512e-03   1.1943325e-01   7.6831888e-02  -5.8209648e+06
   2.8356119e-09  -5.6535448e-03   1.1936187e-01   7.6878677e-02  -5.8049811e+06
   2.8382794e-09  -5.6380809e-03   1.1929073e-01   7.6925366e-02  -5.7890419e+06
   2.8409470e-09  -5.6226596e-03   1.1921983e-01   7.6971953e-02  -5.7731469e+06
   2.8436145e-09  -5.6072805e-03   1.1914916e-01   7.7018441e-02  -5.7572961e+06
   2.8462821e-09  -5.5919437e-03   1.1907872e-01   7.7064827e-02  -5.7414894e+06
   2.8489496e-09  -5.5766490e-03   1.1900852e-01   7.7111114e-02  -5.7257266e+06
   2.8516172e-09  -5.5613963e-03   1.1893855e-01   7.7157300e-02  -5.7100075e+06
   2.8542848e-09  -5.5461854e-03   1.1886881e-01   7.7203387e-02  -5.6943322e+06
   2.8569523e-09  -5.5310163e-03   1.1879930e-01   7.7249373e-02  -5.6787003e+06
   2.8596199e-09  -5.5158889e-03   1.1873002e-01   7.7295260e-02  -5.6631119e+06
   2.8622874e-09  -5.5008030e-03   1.1866098e-01   7.7341047e-02  -5.6475667e+06
   2.8649550e-09  -5.4857585e-03   1.1859216e-01   7.7386735e-02  -5.6320647e+06
   2.8676225e-09  -5.4707552e-03   1.1852357e-01   7.7432323e-02  -5.6166058e+06
   2.8702901e-09  -5.4557932e-03   1.1845520e-01   7.7477813e-02  -5.6011898e+06
   2.8729577e-09  -5.4408722e-03   1.1838706e-01   7.7523203e-02  -5.5858165e+06
   2.8756252e-09  -5.4259922e-03   1.1831915e-01   7.7568495e-02  -5.5704859e+06
   2.8782928e-09  -5.4111530e-03   1.1825146e-01   7.7613687e-02  -5.5551979e+06
   2.8809603e-09  -5.3963546e-03   1.1818399e-01   7.7658782e-02  -5.5399523e+06
   2.8836279e-09  -5.3815967e-03   1.1811674e-01   7.7703778e-02  -5.5247490e+06
   2.8862954e-09  -5.3668794e-03   1.1804972e-01   7.7748675e-02  -5.5095878e+06
   2.8889630e-09  -5.3522024e-03   1.1798292e-01   7.7793475e-02  -5.4944688e+06
   2.8916305e-09  -5.3375657e-03   1.1791634e-01   7.7838177e-02  -5.4793917e+06
   2.8942981e-09  -5.3229692e-03   1.1784997e-01   7.7882781e-02  -5.4643563e+06
   2.8969657e-09  -5.3084128e-03   1.1778383e-01   7.7927287e-02  -5.4493627e+06
   2.8996332e-09  -5.2938962e-03   1.1771790e-01   7.7971696e-02  -5.4344107e+06
   2.9023008e-09  -5.2794195e-03   1.1765219e-01   7.8016007e-02  -5.4195001e+06
   2.9049683e-09  -5.2649826e-03   1.1758669e-01   7.8060222e-02  -5.4046309e+06
   2.9076359e-09  -5.2505852e-03   1.1752141e-01   7.8104339e-02  -5.3898029e+06
   2.9103034e-09  -5.2362273e-03   1.1745635e-01   7.8148359e-02  -5.3750160e+06
   2.9129710e-09  -5.2219088e-03   1.1739149e-01   7.8192283e-02  -5.3602701e+06
   2.9156385e-09  -5.2076297e-03   1.1732685e-01   7.8236110e-02  -5.3455651e+06
   2.9183061e-09  -5.1933896e-03   1.1726242e-01   7.8279840e-02  -5.3309009e+06
   2.9209737e-09  -5.1791887e-03   1.1719821e-01   7.8323475e-02  -5.3162772e+06
   2.9236412e-09  -5.1650267e-03   1.1713420e-01   7.8367013e-02  -5.3016941e+06
   2.9263088e-09  -5.1509035e-03   1.1707040e-01   7.8410455e-02  -5.2871514e+06
   2.9289763e-09  -5.1368191e-03   1.1700681e-01   7.8453801e-02  -5.2726490e+06
   2.9316439e-09  -5.1227733e-03   1.1694343e-01   7.8497052e-02  -5.2581868e+06
   2.9343114e-09  -5.1087660e-03   1.1688025e-01   7.8540207e-02  -5.2437646e+06
   2.9369790e-09  -5.0947972e-03   1.1681729e-01   7.8583267e-02  -5.2293824e+06
   2.9396465e-09  -5.0808667e-03   1.1675452e-01   7.8626231e-02  -5.2150400e+06
   2.9423141e-09  -5.0669743e-03   1.1669197e-01   7.8669100e-02  -5.2007374e+06
   2.9449817e-09  -5.0531201e-03   1.1662961e-01   7.8711875e-02  -5.1864743e+06
   2.9476492e-09  -5.0393039e-03   1.1656746e-01   7.8754554e-02  -5.1722508e+06
   2.9503168e-09  -5.0255255e-03   1.1650551e-01   7.8797140e-02  -5.1580666e+06
   2.9529843e-09  -5.0117850e-03   1.1644377e-01   7.8839630e-02  -5.1439217e+06
   2.9556519e-09  -4.9980821e-03   1.1638222e-01   7.8882026e-02  -5.1298160e+06
   2.9583194e-09  -4.9844168e-03   1.1632088e-01   7.8924328e-02  -5.1157493e+06
   2.9609870e-09  -4.9707890e-03   1.1625973e-01   7.8966536e-02  -5.1017216e+06
   2.9636546e-09  -4.9571985e-03   1.1619878e-01   7.9008650e-02  -5.0877326e+06
   2.9663221e-09  -4.9436453e-03   1.1613803e-01   7.9050671e-02  -5.0737824e+06
   2.9689897e-09  -4.9301293e-03   1.1607748e-01   7.9092598e-02  -5.0598708e+06
   2.9716572e-09  -4.9166503e-03   1.1601713e-01   7.9134431e-02  -5.0459977e+06
   2.9743248e-09  -4.9032083e-03   1.1595697e-01   7.9176171e-02  -5.0321630e+06
   2.9769923e-09  -4.8898031e-03   1.1589700e-01   7.9217818e-02  -5.0183666e+06
   2.9796599e-09  -4.8764347e-03   1.1583723e-01   7.9259372e-02  -5.0046083e+06
   2.9823274e-09  -4.8631030e-03   1.1577766e-01   7.9300834e-02  -4.9908881e+06
   2.9849950e-09  -4.8498078e-03   1.1571827e-01   7.9342202e-02  -4.9772058e+06
   2.9876626e-09  -4.8365490e-03   1.1565908e-01   7.9383478e-02  -4.9635614e+06
   2.9903301e-09  -4.8233266e-03   1.1560008e-01   7.9424662e-02  -4.9499547e+06
   2.9929977e-09  -4.8101404e-03   1.1554128e-01   7.9465754e-02  -4.9363857e+06
   2.9956652e-09  -4.7969904e-03   1.1548266e-01   7.9506753e-02  -4.9228542e+06
   2.9983328e-09  -4.7838764e-03   1.1542423e-01   7.9547661e-02  -4.9093601e+06
   3.0010003e-09  -4.7707984e-03   1.1536599e-01   7.9588476e-02  -4.8959033e+06
   3.0036679e-09  -4.7577562e-03   1.1530794e-01   7.9629201e-02  -4.8824837e+06
   3.0063354e-09  -4.7447497e-03   1.1525007e-01   7.9669833e-02  -4.8691012e+06
   3.0090030e-09  -4.7317789e-03   1.1519239e-01   7.9710375e-02  -4.8557557e+06
   3.0116706e-09  -4.7188437e-03   1.1513490e-01   7.9750825e-02  -4.8424471e+06
   3.0143381e-09  -4.7059439e-03   1.1507760e-01   7.9791185e-02  -4.8291753e+06
   3.0170057e-09  -4.6930795e-03   1.1502047e-01   7.9831453e-02  -4.8159401e+06
   3.0196732e-09  -4.6802503e-03   1.1496354e-01   7.9871631e-02  -4.8027416e+06
   3.0223408e-09  -4.6674563e-03   1.1490678e-01   7.9911719e-02  -4.7895795e+06
   3.0250083e-09  -4.6546973e-03   1.1485021e-01   7.9951716e-02  -4.7764538e+06
   3.0276759e-09  -4.6419733e-03   1.1479382e-01   7.9991622e-02  -4.7633643e+06
   3.0303434e-09  -4.6292842e-03   1.1473761e-01   8.0031439e-02  -4.7503110e+06
   3.0330110e-09  -4.6166299e-03   1.1468158e-01   8.0071166e-02  -4.7372938e+06
   3.0356786e-09  -4.6040102e-03   1.1462573e-01   8.0110803e-02  -4.7243125e+06
   3.0383461e-09  -4.5914251e-03   1.1457007e-01   8.0150350e-02  -4.7113671e+06
   3.0410137e-09  -4.5788745e-03   1.1451458e-01   8.0189808e-02  -4.6984575e+06
   3.0436812e-09  -4.5663583e-03   1.1445926e-01   8.0229177e-02  -4.6855835e+06
   3.0463488e-09  -4.5538764e-03   1.1440413e-01   8.0268456e-02  -4.6727451e+06
   3.0490163e-09  -4.5414286e-03   1.1434917e-01   8.0307647e-02  -4.6599421e+06
   3.0516839e-09  -4.5290150e-03   1.1429439e-01   8.0346749e-02  -4.6471745e+06
   3.0543515e-09  -4.5166354e-03   1.1423978e-01   8.0385762e-02  -4.6344421e+06
   3.0570190e-09  -4.5042897e-03   1.1418535e-01   8.0424686e-02  -4.6217449e+06
   3.0596866e-09  -4.4919778e-03   1.1413110e-01   8.0463522e-02  -4.6090827e+06
   3.0623541e-09  -4.4796997e-03   1.1407701e-01   8.0502270e-02  -4.5964555e+06
   3.0650217e-09  -4.4674552e-03   1.1402310e-01   8.0540930e-02  -4.5838632e+06
   3.0676892e-09  -4.4552443e-03   1.1396936e-01   8.0579501e-02  -4.5713056e+06
   3.0703568e-09  -4.4430668e-03   1.1391580e-01   8.0617986e-02  -4.5587827e+06
   3.0730243e-09  -4.4309226e-03   1.1386240e-01   8.0656382e-02  -4.5462944e+06
   3.0756919e-09  -4.4188117e-03   1.1380918e-01   8.0694691e-02  -4.5338405e+06
   3.0783595e-09  -4.4067340e-03   1.1375612e-01   8.0732912e-02  -4.5214210e+06
   3.0810270e-09  -4.3946894e-03   1.1370324e-01   8.0771047e-02  -4.5090357e+06
   3.0836946e-09  -4.3826778e-03   1.1365052e-01   8.0809094e-02  -4.4966847e+06
   3.0863621e-09  -4.3706991e-03   1.1359797e-01   8.0847055e-02  -4.4843677e+06
   3.0890297e-09  -4.3587532e-03   1.1354559e-01   8.0884929e-02  -4.4720847e+06
   3.0916972e-09  -4.3468400e-03   1.1349338e-01   8.0922716e-02  -4.4598356e+06
   3.0943648e-09  -4.3349594e-03   1.1344133e-01   8.0960417e-02  -4.4476202e+06
   3.0970323e-09  -4.3231114e-03   1.1338944e-01   8.0998032e-02  -4.4354386e+06
   3.0996999e-09  -4.3112958e-03   1.1333773e-01   8.1035560e-02  -4.4232906e+06
   3.1023675e-09  -4.2995126e-03   1.1328617e-01   8.1073003e-02  -4.4111761e+06
   3.1050350e-09  -4.2877617e-03   1.1323478e-01   8.1110360e-02  -4.3990950e+06
   3.1077026e-09  -4.2760429e-03   1.1318356e-01   8.1147631e-02  -4.3870472e+06
   3.1103701e-09  -4.2643563e-03   1.1313250e-01   8.1184817e-02  -4.3750327e+06
   3.1130377e-09  -4.2527016e-03   1.1308159e-01   8.1221917e-02  -4.3630512e+06
   3.1157052e-09  -4.2410789e-03   1.1303086e-01   8.1258933e-02  -4.3511029e+06
   3.1183728e-09  -4.2294880e-03   1.1298028e-01   8.1295863e-02  -4.3391874e+06
   3.1210403e-09  -4.2179288e-03   1.1292986e-01   8.1332708e-02  -4.3273048e+06
   3.1237079e-09  -4.2064013e-03   1.1287960e-01   8.1369469e-02  -4.3154550e+06
   3.1263755e-09  -4.1949053e-03   1.1282950e-01   8.1406145e-02  -4.3036379e+06
   3.1290430e-09  -4.1834409e-03   1.1277956e-01   8.1442736e-02  -4.2918533e+06
   3.1317106e-09  -4.1720078e-03   1.1272978e-01   8.1479244e-02  -4.2801012e+06
   3.1343781e-09  -4.1606060e-03   1.1268015e-01   8.1515667e-02  -4.2683815e+06
   3.1370457e-09  -4.1492355e-03   1.1263069e-01   8.1552006e-02  -4.2566941e+06
   3.1397132e-09  -4.1378961e-03   1.1258138e-01   8.1588262e-02  -4.2450389e+06
   3.1423808e-09  -4.1265877e-03   1.1253222e-01   8.1624434e-02  -4.2334159e+06
   3.1450483e-09  -4.1153103e-03   1.1248322e-01   8.1660522e-02  -4.2218249e+06
   3.1477159e-09  -4.1040638e-03   1.1243438e-01   8.1696527e-02  -4.2102658e+06
   3.1503835e-09  -4.0928480e-03   1.1238568e-01   8.1732449e-02  -4.1987386e+06
   3.1530510e-09  -4.0816630e-03   1.1233715e-01   8.1768287e-02  -4.1872431e+06
   3.1557186e-09  -4.0705086e-03   1.1228876e-01   8.1804043e-02  -4.1757793e+06
   3.1583861e-09  -4.0593847e-03   1.1224053e-01   8.1839716e-02  -4.1643471e+06
   3.1610537e-09  -4.0482913e-03   1.1219245e-01   8.1875307e-02  -4.1529464e+06
   3.1637212e-09  -4.0372283e-03   1.1214453e-01   8.1910815e-02  -4.1415771e+06
   3.1663888e-09  -4.0261955e-03   1.1209675e-01   8.1946241e-02  -4.1302391e+06
   3.1690564e-09  -4.0151929e-03   1.1204912e-01   8.1981584e-02  -4.1189324e+06
   3.1717239e-09  -4.0042205e-03   1.1200165e-01   8.2016846e-02  -4.1076568e+06
   3.1743915e-09  -3.9932781e-03   1.1195432e-01   8.2052026e-02  -4.0964122e+06
   3.1770590e-09  -3.9823657e-03   1.1190714e-01   8.2087124e-02  -4.0851986e+06
   3.1797266e-09  -3.9714831e-03   1.1186011e-01   8.2122140e-02  -4.0740160e+06
   3.1823941e-09  -3.9606303e-03   1.1181323e-01   8.2157076e-02  -4.0628641e+06
   3.1850617e-09  -3.9498072e-03   1.1176650e-01   8.2191929e-02  -4.0517429e+06
   3.1877292e-09  -3.9390138e-03   1.1171991e-01   8.2226702e-02  -4.0406523e+06
   3.1903968e-09  -3.9282499e-03   1.1167347e-01   8.2261394e-02  -4.0295923e+06
   3.1930644e-09  -3.9175154e-03   1.1162717e-01   8.2296005e-02  -4.0185627e+06
   3.1957319e-09  -3.9068104e-03   1.1158102e-01   8.2330536e-02  -4.0075635e+06
   3.1983995e-09  -3.8961346e-03   1.1153502e-01   8.2364986e-02  -3.9965946e+06
   3.2010670e-09  -3.8854881e-03   1.1148916e-01   8.2399356e-02  -3.9856559e+06
   3.2037346e-09  -3.8748707e-03   1.1144344e-01   8.2433645e-02  -3.9747473e+06
   3.2064021e-09  -3.8642823e-03   1.1139787e-01   8.2467855e-02  -3.9638687e+06
   3.2090697e-09  -3.8537230e-03   1.1135244e-01   8.2501985e-02  -3.9530201e+06
   3.2117372e-09  -3.8431925e-03   1.1130715e-01   8.2536035e-02  -3.9422013e+06
   3.2144048e-09  -3.8326908e-03   1.1126200e-01   8.2570005e-02  -3.9314123e+06
   3.2170724e-09  -3.8222179e-03   1.1121700e-01   8.2603896e-02  -3.9206530e+06
   3.2197399e-09  -3.8117737e-03   1.1117213e-01   8.2637707e-02  -3.9099233e+06
   3.2224075e-09  -3.8013580e-03   1.1112741e-01   8.2671440e-02  -3.8992232e+06
   3.2250750e-09  -3.7909709e-03   1.1108282e-01   8.2705094e-02  -3.8885524e+06
   3.2277426e-09  -3.7806121e-03   1.1103838e-01   8.2738668e-02  -3.8779111e+06
   3.2304101e-09  -3.7702818e-03   1.1099407e-01   8.2772164e-02  -3.8672990e+06
   3.2330777e-09  -3.7599797e-03   1.1094990e-01   8.2805582e-02  -3.8567162e+06
   3.2357452e-09  -3.7497057e-03   1.1090587e-01   8.2838921e-02  -3.8461624e+06
   3.2384128e-09  -3.7394599e-03   1.1086198e-01   8.2872182e-02  -3.8356377e+06
   3.2410804e-09  -3.7292421e-03   1.1081822e-01   8.2905365e-02  -3.8251420e+06
   3.2437479e-09  -3.7190523e-03   1.1077460e-01   8.2938470e-02  -3.8146751e+06
   3.2464155e-09  -3.7088904e-03   1.1073112e-01   8.2971497e-02  -3.8042370e+06
   3.2490830e-09  -3.6987563e-03   1.1068777e-01   8.3004446e-02  -3.7938276e+06
   3.2517506e-09  -3.6886499e-03   1.1064456e-01   8.3037318e-02  -3.7834469e+06
   3.2544181e-09  -3.6785711e-03   1.1060148e-01   8.3070113e-02  -3.7730947e+06
   3.2570857e-09  -3.6685200e-03   1.1055853e-01   8.3102831e-02  -3.7627710e+06
   3.2597533e-09  -3.6584963e-03   1.1051572e-01   8.3135471e-02  -3.7524757e+06
   3.2624208e-09  -3.6485001e-03   1.1047305e-01   8.3168035e-02  -3.7422087e+06
   3.2650884e-09  -3.6385312e-03   1.1043050e-01   8.3200522e-02  -3.7319699e+06
   3.2677559e-09  -3.6285896e-03   1.1038809e-01   8.3232932e-02  -3.7217593e+06
   3.2704235e-09  -3.6186752e-03   1.1034581e-01   8.3265266e-02  -3.7115768e+06
   3.2730910e-09  -3.6087879e-03   1.1030366e-01   8.3297523e-02  -3.7014223e+06
   3.2757586e-09  -3.5989276e-03   1.1026164e-01   8.3329705e-02  -3.6912957e+06
   3.2784261e-09  -3.5890944e-03   1.1021975e-01   8.3361810e-02  -3.6811969e+06
   3.2810937e-09  -3.5792880e-03   1.1017799e-01   8.3393839e-02  -3.6711259e+06
   3.2837613e-09  -3.5695085e-03   1.1013637e-01   8.3425793e-02  -3.6610826e+06
   3.2864288e-09  -3.5597557e-03   1.1009487e-01   8.3457672e-02  -3.6510669e+06
   3.2890964e-09  -3.5500296e-03   1.1005349e-01   8.3489474e-02  -3.6410788e+06
   3.2917639e-09  -3.5403301e-03   1.1001225e-01   8.3521202e-02  -3.6311181e+06
   3.2944315e-09  -3.5306572e-03   1.0997114e-01   8.3552855e-02  -3.6211848e+06
   3.2970990e-09  -3.5210107e-03   1.0993015e-01   8.3584432e-02  -3.6112787e+06
   3.2997666e-09  -3.5113906e-03   1.0988929e-01   8.3615935e-02  -3.6014000e+06
   3.3024341e-09  -3.5017968e-03   1.0984856e-01   8.3647363e-02  -3.5915483e+06
   3.3051017e-09  -3.4922292e-03   1.0980795e-01   8.3678716e-02  -3.5817238e+06
   3.3077693e-09  -3.4826879e-03   1.0976747e-01   8.3709995e-02  -3.5719263e+06
   3.3104368e-09  -3.4731726e-03   1.0972711e-01   8.3741200e-02  -3.5621556e+06
   3.3131044e-09  -3.4636833e-03   1.0968688e-01   8.3772331e-02  -3.5524119e+06
   3.3157719e-09  -3.4542201e-03   1.0964677e-01   8.3803388e-02  -3.5426949e+06
   3.3184395e-09  -3.4447826e-03   1.0960678e-01   8.3834371e-02  -3.5330046e+06
   3.3211070e-09  -3.4353711e-03   1.0956692e-01   8.3865280e-02  -3.5233410e+06
   3.3237746e-09  -3.4259852e-03   1.0952719e-01   8.3896116e-02  -3.5137039e+06
   3.3264421e-09  -3.4166250e-03   1.0948757e-01   8.3926879e-02  -3.5040932e+06
   3.3291097e-09  -3.4072905e-03   1.0944808e-01   8.3957568e-02  -3.4945090e+06
   3.3317773e-09  -3.3979814e-03   1.0940871e-01   8.3988185e-02  -3.4849512e+06
   3.3344448e-09  -3.3886978e-03   1.0936946e-01   8.4018728e-02  -3.4754195e+06
   3.3371124e-09  -3.3794396e-03   1.0933033e-01   8.4049198e-02  -3.4659141e+06
   3.3397799e-09  -3.3702068e-03   1.0929132e-01   8.4079596e-02  -3.4564348e+06
   3.3424475e-09  -3.3609991e-03   1.0925243e-01   8.4109922e-02  -3.4469815e+06
   3.3451150e-09  -3.3518167e-03   1.0921366e-01   8.4140175e-02  -3.4375542e+06
   3.3477826e-09  -3.3426594e-03   1.0917502e-01   8.4170356e-02  -3.4281528e+06
   3.3504502e-09  -3.3335271e-03   1.0913649e-01   8.4200465e-02  -3.4187772e+06
   3.3531177e-09  -3.3244198e-03   1.0909808e-01   8.4230502e-02  -3.4094274e+06
   3.3557853e-09  -3.3153374e-03   1.0905978e-01   8.4260467e-02  -3.4001033e+06
   3.3584528e-09  -3.3062799e-03   1.0902161e-01   8.4290360e-02  -3.3908047e+06
   3.3611204e-09  -3.2972471e-03   1.0898355e-01   8.4320183e-02  -3.3815317e+06
   3.3637879e-09  -3.2882390e-03   1.0894561e-01   8.4349933e-02  -3.3722842e+06
   3.3664555e-09  -3.2792555e-03   1.0890778e-01   8.4379613e-02  -3.3630621e+06
   3.3691230e-09  -3.2702967e-03   1.0887007e-01   8.4409221e-02  -3.3538653e+06
   3.3717906e-09  -3.2613623e-03   1.0883248e-01   8.4438759e-02  -3.3446937e+06
   3.3744582e-09  -3.2524523e-03   1.0879500e-01   8.4468226e-02  -3.3355474e+06
   3.3771257e-09  -3.2435667e-03   1.0875764e-01   8.4497622e-02  -3.3264261e+06
   3.3797933e-09  -3.2347054e-03   1.0872039e-01   8.4526948e-02  -3.3173300e+06
   3.3824608e-09  -3.2258684e-03   1.0868326e-01   8.4556203e-02  -3.3082587e+06
   3.3851284e-09  -3.2170555e-03   1.0864624e-01   8.4585389e-02  -3.2992124e+06
   3.3877959e-09  -3.2082667e-03   1.0860934e-01   8.4614504e-02  -3.2901909e+06
   3.3904635e-09  -3.1995019e-03   1.0857254e-01   8.4643549e-02  -3.2811942e+06
   3.3931310e-09  -3.1907611e-03   1.0853586e-01   8.4672525e-02  -3.2722222e+06
   3.3957986e-09  -3.1820442e-03   1.0849929e-01   8.4701431e-02  -3.2632749e+06
   3.3984662e-09  -3.1733512e-03   1.0846284e-01   8.4730267e-02  -3.2543521e+06
   3.4011337e-09  -3.1646819e-03   1.0842649e-01   8.4759034e-02  -3.2454538e+06
   3.4038013e-09  -3.1560363e-03   1.0839026e-01   8.4787732e-02  -3.2365799e+06
   3.4064688e-09  -3.1474143e-03   1.0835414e-01   8.4816361e-02  -3.2277304e+06
   3.4091364e-09  -3.1388160e-03   1.0831812e-01   8.4844921e-02  -3.2189051e+06
   3.4118039e-09  -3.1302411e-03   1.0828222e-01   8.4873412e-02  -3.2101041e+06
   3.4144715e-09  -3.1216897e-03   1.0824643e-01   8.4901835e-02  -3.2013273e+06
   3.4171390e-09  -3.1131616e-03   1.0821075e-01   8.4930189e-02  -3.1925745e+06
   3.4198066e-09  -3.1046569e-03   1.0817517e-01   8.4958474e-02  -3.1838458e+06
   3.4224742e-09  -3.0961755e-03   1.0813970e-01   8.4986692e-02  -3.1751410e+06
   3.4251417e-09  -3.0877172e-03   1.0810435e-01   8.5014841e-02  -3.1664601e+06
   3.4278093e-09  -3.0792820e-03   1.0806910e-01   8.5042923e-02  -3.1578031e+06
   3.4304768e-09  -3.0708699e-03   1.0803396e-01   8.5070937e-02  -3.1491698e+06
   3.4331444e-09  -3.0624808e-03   1.0799892e-01   8.5098883e-02  -3.1405602e+06
   3.4358119e-09  -3.0541147e-03   1.0796399e-01   8.5126761e-02  -3.1319742e+06
   3.4384795e-09  -3.0457714e-03   1.0792917e-01   8.5154572e-02  -3.1234118e+06
   3.4411470e-09  -3.0374509e-03   1.0789445e-01   8.5182316e-02  -3.1148728e+06
   3.4438146e-09  -3.0291532e-03   1.0785984e-01   8.5209993e-02  -3.1063573e+06
   3.4464822e-09  -3.0208781e-03   1.0782534e-01   8.5237603e-02  -3.0978652e+06
   3.4491497e-09  -3.0126257e-03   1.0779094e-01   8.5265146e-02  -3.0893964e+06
   3.4518173e-09  -3.0043958e-03   1.0775665e-01   8.5292623e-02  -3.0809508e+06
   3.4544848e-09  -2.9961884e-03   1.0772245e-01   8.5320033e-02  -3.0725284e+06
   3.4571524e-09  -2.9880035e-03   1.0768837e-01   8.5347376e-02  -3.0641291e+06
   3.4598199e-09  -2.9798410e-03   1.0765438e-01   8.5374653e-02  -3.0557528e+06
   3.4624875e-09  -2.9717007e-03   1.0762050e-01   8.5401865e-02  -3.0473995e+06
   3.4651551e-09  -2.9635827e-03   1.0758673e-01   8.5429010e-02  -3.0390692e+06
   3.4678226e-09  -2.9554869e-03   1.0755305e-01   8.5456089e-02  -3.0307617e+06
   3.4704902e-09  -2.9474132e-03   1.0751948e-01   8.5483103e-02  -3.0224769e+06
   3.4731577e-09  -2.9393616e-03   1.0748601e-01   8.5510051e-02  -3.0142149e+06
   3.4758253e-09  -2.9313321e-03   1.0745264e-01   8.5536933e-02  -3.0059756e+06
   3.4784928e-09  -2.9233244e-03   1.0741938e-01   8.5563751e-02  -2.9977589e+06
   3.4811604e-09  -2.9153387e-03   1.0738621e-01   8.5590503e-02  -2.9895647e+06
   3.4838279e-09  -2.9073747e-03   1.0735314e-01   8.5617190e-02  -2.9813930e+06
   3.4864955e-09  -2.8994326e-03   1.0732018e-01   8.5643812e-02  -2.9732437e+06
   3.4891631e-09  -2.8915121e-03   1.0728731e-01   8.5670370e-02  -2.9651167e+06
   3.4918306e-09  -2.8836133e-03   1.0725455e-01   8.5696863e-02  -2.9570121e+06
   3.4944982e-09  -2.8757361e-03   1.0722188e-01   8.5723291e-02  -2.9489296e+06
   3.4971657e-09  -2.8678804e-03   1.0718931e-01   8.5749655e-02  -2.9408694e+06
   3.4998333e-09  -2.8600462e-03   1.0715684e-01   8.5775955e-02  -2.9328312e+06
   3.5025008e-09  -2.8522334e-03   1.0712447e-01   8.5802191e-02  -2.9248151e+06
   3.5051684e-09  -2.8444420e-03   1.0709220e-01   8.5828363e-02  -2.9168210e+06
   3.5078359e-09  -2.8366718e-03   1.0706002e-01   8.5854471e-02  -2.9088488e+06
   3.5105035e-09  -2.8289229e-03   1.0702794e-01   8.5880515e-02  -2.9008984e+06
   3.5131711e-09  -2.8211952e-03   1.0699596e-01   8.5906496e-02  -2.8929699e+06
   3.5158386e-09  -2.8134886e-03   1.0696408e-01   8.5932413e-02  -2.8850631e+06
   3.5185062e-09  -2.8058031e-03   1.0693229e-01   8.5958268e-02  -2.8771779e+06
   3.5211737e-09  -2.7981385e-03   1.0690060e-01   8.5984059e-02  -2.8693144e+06
   3.5238413e-09  -2.7904949e-03   1.0686900e-01   8.6009787e-02  -2.8614725e+06
   3.5265088e-09  -2.7828722e-03   1.0683750e-01   8.6035452e-02  -2.8536521e+06
   3.5291764e-09  -2.7752704e-03   1.0680609e-01   8.6061055e-02  -2.8458531e+06
   3.5318439e-09  -2.7676893e-03   1.0677478e-01   8.6086595e-02  -2.8380755e+06
   3.5345115e-09  -2.7601289e-03   1.0674357e-01   8.6112072e-02  -2.8303192e+06
   3.5371791e-09  -2.7525892e-03   1.0671244e-01   8.6137487e-02  -2.8225842e+06
   3.5398466e-09  -2.7450701e-03   1.0668142e-01   8.6162840e-02  -2.8148704e+06
   3.5425142e-09  -2.7375715e-03   1.0665048e-01   8.6188131e-02  -2.8071777e+06
   3.5451817e-09  -2.7300934e-03   1.0661964e-01   8.6213360e-02  -2.7995061e+06
   3.5478493e-09  -2.7226358e-03   1.0658889e-01   8.6238527e-02  -2.7918556e+06
   3.5505168e-09  -2.7151986e-03   1.0655823e-01   8.6263633e-02  -2.7842260e+06
   3.5531844e-09  -2.7077816e-03   1.0652767e-01   8.6288677e-02  -2.7766173e+06
   3.5558520e-09  -2.7003850e-03   1.0649720e-01   8.6313660e-02  -2.7690295e+06
   3.5585195e-09  -2.6930085e-03   1.0646682e-01   8.6338581e-02  -2.7614625e+06
   3.5611871e-09  -2.6856523e-03   1.0643653e-01   8.6363441e-02  -2.7539163e+06
   3.5638546e-09  -2.6783161e-03   1.0640633e-01   8.6388241e-02  -2.7463907e+06
   3.5665222e-09  -2.6709999e-03   1.0637622e-01   8.6412979e-02  -2.7388857e+06
   3.5691897e-09  -2.6637038e-03   1.0634621e-01   8.6437657e-02  -2.7314014e+06
   3.5718573e-09  -2.6564276e-03   1.0631628e-01   8.6462274e-02  -2.7239375e+06
   3.5745248e-09  -2.6491713e-03   1.0628644e-01   8.6486830e-02  -2.7164941e+06
   3.5771924e-09  -2.6419348e-03   1.0625670e-01   8.6511326e-02  -2.7090711e+06
   3.5798600e-09  -2.6347180e-03   1.0622704e-01   8.6535762e-02  -2.7016684e+06
   3.5825275e-09  -2.6275210e-03   1.0619747e-01   8.6560138e-02  -2.6942861e+06
   3.5851951e-09  -2.6203437e-03   1.0616799e-01   8.6584454e-02  -2.6869239e+06
   3.5878626e-09  -2.6131860e-03   1.0613860e-01   8.6608710e-02  -2.6795820e+06
   3.5905302e-09  -2.6060478e-03   1.0610930e-01   8.6632907e-02  -2.6722601e+06
   3.5931977e-09  -2.5989292e-03   1.0608008e-01   8.6657044e-02  -2.6649584e+06
   3.5958653e-09  -2.5918300e-03   1.0605095e-01   8.6681121e-02  -2.6576766e+06
   3.5985328e-09  -2.5847501e-03   1.0602191e-01   8.6705139e-02  -2.6504148e+06
   3.6012004e-09  -2.5776897e-03   1.0599296e-01   8.6729098e-02  -2.6431729e+06
   3.6038680e-09  -2.5706485e-03   1.0596409e-01   8.6752998e-02  -2.6359508e+06
   3.6065355e-09  -2.5636266e-03   1.0593532e-01   8.6776839e-02  -2.6287485e+06
   3.6092031e-09  -2.5566238e-03   1.0590662e-01   8.6800621e-02  -2.6215660e+06
   3.6118706e-09  -2.5496402e-03   1.0587801e-01   8.6824345e-02  -2.6144031e+06
   3.6145382e-09  -2.5426757e-03   1.0584949e-01   8.6848010e-02  -2.6072599e+06
   3.6172057e-09  -2.5357302e-03   1.0582106e-01   8.6871616e-02  -2.6001362e+06
   3.6198733e-09  -2.5288036e-03   1.0579270e-01   8.6895165e-02  -2.5930321e+06
   3.6225408e-09  -2.5218960e-03   1.0576444e-01   8.6918655e-02  -2.5859474e+06
   3.6252084e-09  -2.5150073e-03   1.0573626e-01   8.6942087e-02  -2.5788821e+06
   3.6278760e-09  -2.5081374e-03   1.0570816e-01   8.6965461e-02  -2.5718362e+06
   3.6305435e-09  -2.5012863e-03   1.0568014e-01   8.6988777e-02  -2.5648096e+06
   3.6332111e-09  -2.4944538e-03   1.0565221e-01   8.7012036e-02  -2.5578023e+06
   3.6358786e-09  -2.4876401e-03   1.0562437e-01   8.7035238e-02  -2.5508141e+06
   3.6385462e-09  -2.4808449e-03   1.0559660e-01   8.7058381e-02  -2.5438451e+06
   3.6412137e-09  -2.4740684e-03   1.0556892e-01   8.7081468e-02  -2.5368952e+06
   3.6438813e-09  -2.4673103e-03   1.0554132e-01   8.7104497e-02  -2.5299643e+06
   3.6465488e-09  -2.4605707e-03   1.0551381e-01   8.7127470e-02  -2.5230524e+06
   3.6492164e-09  -2.4538495e-03   1.0548638e-01   8.7150386e-02  -2.5161594e+06
   3.6518840e-09  -2.4471467e-03   1.0545902e-01   8.7173244e-02  -2.5092854e+06
   3.6545515e-09  -2.4404622e-03   1.0543175e-01   8.7196046e-02  -2.5024301e+06
   3.6572191e-09  -2.4337959e-03   1.0540457e-01   8.7218792e-02  -2.4955936e+06
   3.6598866e-09  -2.4271479e-03   1.0537746e-01   8.7241481e-02  -2.4887759e+06
   3.6625542e-09  -2.4205180e-03   1.0535043e-01   8.7264114e-02  -2.4819768e+06
   3.6652217e-09  -2.4139063e-03   1.0532348e-01   8.7286691e-02  -2.4751964e+06
   3.6678893e-09  -2.4073126e-03   1.0529662e-01   8.7309212e-02  -2.4684345e+06
   3.6705569e-09  -2.4007369e-03   1.0526983e-01   8.7331677e-02  -2.4616912e+06
   3.6732244e-09  -2.3941791e-03   1.0524313e-01   8.7354086e-02  -2.4549663e+06
   3.6758920e-09  -2.3876393e-03   1.0521650e-01   8.7376440e-02  -2.4482598e+06
   3.6785595e-09  -2.3811174e-03   1.0518995e-01   8.7398738e-02  -2.4415717e+06
   3.6812271e-09  -2.3746133e-03   1.0516348e-01   8.7420980e-02  -2.4349020e+06
   3.6838946e-09  -2.3681269e-03   1.0513709e-01   8.7443168e-02  -2.4282505e+06
   3.6865622e-09  -2.3616583e-03   1.0511078e-01   8.7465300e-02  -2.4216172e+06
   3.6892297e-09  -2.3552073e-03   1.0508455e-01   8.7487377e-02  -2.4150021e+06
   3.6918973e-09  -2.3487739e-03   1.0505840e-01   8.7509399e-02  -2.4084051e+06
   3.6945649e-09  -2.3423582e-03   1.0503232e-01   8.7531367e-02  -2.4018261e+06
   3.6972324e-09  -2.3359599e-03   1.0500632e-01   8.7553279e-02  -2.3952652e+06
   3.6999000e-09  -2.3295791e-03   1.0498040e-01   8.7575138e-02  -2.3887222e+06
   3.7025675e-09  -2.3232158e-03   1.0495455e-01   8.7596942e-02  -2.3821972e+06
   3.7052351e-09  -2.3168698e-03   1.0492878e-01   8.7618691e-02  -2.3756900e+06
   3.7079026e-09  -2.3105412e-03   1.0490309e-01   8.7640386e-02  -2.3692007e+06
   3.7105702e-09  -2.3042299e-03   1.0487747e-01   8.7662028e-02  -2.3627291e+06
   3.7132377e-09  -2.2979358e-03   1.0485193e-01   8.7683615e-02  -2.3562753e+06
   3.7159053e-09  -2.2916589e-03   1.0482647e-01   8.7705149e-02  -2.3498391e+06
   3.7185729e-09  -2.2853991e-03   1.0480108e-01   8.7726628e-02  -2.3434205e+06
   3.7212404e-09  -2.2791564e-03   1.0477577e-01   8.7748055e-02  -2.3370196e+06
   3.7239080e-09  -2.2729308e-03   1.0475053e-01   8.7769428e-02  -2.3306361e+06
   3.7265755e-09  -2.2667222e-03   1.0472537e-01   8.7790747e-02  -2.3242701e+06
   3.7292431e-09  -2.2605306e-03   1.0470028e-01   8.7812013e-02  -2.3179216e+06
   3.7319106e-09  -2.2543558e-03   1.0467526e-01   8.7833226e-02  -2.3115904e+06
   3.7345782e-09  -2.2481980e-03   1.0465032e-01   8.7854387e-02  -2.3052766e+06
   3.7372457e-09  -2.2420569e-03   1.0462546e-01   8.7875494e-02  -2.2989801e+06
   3.7399133e-09  -2.2359326e-03   1.0460067e-01   8.7896549e-02  -2.2927008e+06
   3.7425809e-09  -2.2298251e-03   1.0457595e-01   8.7917551e-02  -2.2864387e+06
   3.7452484e-09  -2.2237342e-03   1.0455130e-01   8.7938500e-02  -2.2801937e+06
   3.7479160e-09  -2.2176600e-03   1.0452673e-01   8.7959397e-02  -2.2739658e+06
   3.7505835e-09  -2.2116023e-03   1.0450223e-01   8.7980242e-02  -2.2677550e+06
   3.7532511e-09  -2.2055612e-03   1.0447780e-01   8.8001035e-02  -2.2615612e+06
   3.7559186e-09  -2.1995366e-03   1.0445344e-01   8.8021775e-02  -2.2553844e+06
   3.7585862e-09  -2.1935285e-03   1.0442916e-01   8.8042464e-02  -2.2492244e+06
   3.7612538e-09  -2.1875368e-03   1.0440495e-01   8.8063101e-02  -2.2430814e+06
   3.7639213e-09  -2.1815614e-03   1.0438081e-01   8.8083686e-02  -2.2369551e+06
   3.7665889e-09  -2.1756023e-03   1.0435674e-01   8.8104220e-02  -2.2308456e+06
   3.7692564e-09  -2.1696596e-03   1.0433274e-01   8.8124702e-02  -2.2247529e+06
   3.7719240e-09  -2.1637330e-03   1.0430881e-01   8.8145133e-02  -2.2186768e+06
   3.7745915e-09  -2.1578227e-03   1.0428496e-01   8.8165513e-02  -2.2126173e+06
   3.7772591e-09  -2.1519284e-03   1.0426117e-01   8.8185842e-02  -2.2065745e+06
   3.7799266e-09  -2.1460503e-03   1.0423745e-01   8.8206119e-02  -2.2005482e+06
   3.7825942e-09  -2.1401883e-03   1.0421381e-01   8.8226346e-02  -2.1945384e+06
   3.7852618e-09  -2.1343422e-03   1.0419023e-01   8.8246522e-02  -2.1885450e+06
   3.7879293e-09  -2.1285121e-03   1.0416673e-01   8.8266648e-02  -2.1825680e+06
   3.7905969e-09  -2.1226979e-03   1.0414329e-01   8.8286723e-02  -2.1766074e+06
   3.7932644e-09  -2.1168996e-03   1.0411992e-01   8.8306747e-02  -2.1706631e+06
   3.7959320e-09  -2.1111172e-03   1.0409662e-01   8.8326721e-02  -2.1647351e+06
   3.7985995e-09  -2.1053505e-03   1.0407339e-01   8.8346646e-02  -2.1588233e+06
   3.8012671e-09  -2.0995996e-03   1.0405023e-01   8.8366520e-02  -2.1529277e+06
   3.8039346e-09  -2.0938644e-03   1.0402714e-01   8.8386344e-02  -2.1470483e+06
   3.8066022e-09  -2.0881449e-03   1.0400411e-01   8.8406118e-02  -2.1411849e+06
   3.8092698e-09  -2.0824409e-03   1.0398115e-01   8.8425842e-02  -2.1353376e+06
   3.8119373e-09  -2.0767526e-03   1.0395826e-01   8.8445517e-02  -2.1295063e+06
   3.8146049e-09  -2.0710798e-03   1.0393544e-01   8.8465143e-02  -2.1236909e+06
   3.8172724e-09  -2.0654224e-03   1.0391268e-01   8.8484719e-02  -2.1178915e+06
   3.8199400e-09  -2.0597806e-03   1.0389000e-01   8.8504246e-02  -2.1121079e+06
   3.8226075e-09  -2.0541541e-03   1.0386737e-01   8.8523723e-02  -2.1063402e+06
   3.8252751e-09  -2.0485430e-03   1.0384482e-01   8.8543152e-02  -2.1005882e+06
   3.8279426e-09  -2.0429472e-03   1.0382233e-01   8.8562532e-02  -2.0948520e+06
   3.8306102e-09  -2.0373667e-03   1.0379991e-01   8.8581863e-02  -2.0891315e+06
   3.8332778e-09  -2.0318014e-03   1.0377755e-01   8.8601145e-02  -2.0834266e+06
   3.8359453e-09  -2.0262514e-03   1.0375526e-01   8.8620378e-02  -2.0777374e+06
   3.8386129e-09  -2.0207165e-03   1.0373303e-01   8.8639563e-02  -2.0720637e+06
   3.8412804e-09  -2.0151967e-03   1.0371087e-01   8.8658700e-02  -2.0664056e+06
   3.8439480e-09  -2.0096919e-03   1.0368878e-01   8.8677789e-02  -2.0607629e+06
   3.8466155e-09  -2.0042023e-03   1.0366675e-01   8.8696829e-02  -2.0551357e+06
   3.8492831e-09  -1.9987276e-03   1.0364478e-01   8.8715821e-02  -2.0495239e+06
   3.8519507e-09  -1.9932678e-03   1.0362288e-01   8.8734766e-02  -2.0439274e+06
   3.8546182e-09  -1.9878230e-03   1.0360104e-01   8.8753662e-02  -2.0383463e+06
   3.8572858e-09  -1.9823930e-03   1.0357927e-01   8.8772511e-02  -2.0327804e+06
   3.8599533e-09  -1.9769778e-03   1.0355756e-01   8.8791313e-02  -2.0272298e+06
   3.8626209e-09  -1.9715775e-03   1.0353591e-01   8.8810067e-02  -2.0216943e+06
   3.8652884e-09  -1.9661919e-03   1.0351433e-01   8.8828773e-02  -2.0161740e+06
   3.8679560e-09  -1.9608209e-03   1.0349281e-01   8.8847432e-02  -2.0106688e+06
   3.8706235e-09  -1.9554647e-03   1.0347136e-01   8.8866044e-02  -2.0051787e+06
   3.8732911e-09  -1.9501231e-03   1.0344997e-01   8.8884609e-02  -1.9997036e+06
   3.8759587e-09  -1.9447960e-03   1.0342864e-01   8.8903127e-02  -1.9942435e+06
   3.8786262e-09  -1.9394836e-03   1.0340737e-01   8.8921599e-02  -1.9887983e+06
   3.8812938e-09  -1.9341856e-03   1.0338616e-01   8.8940023e-02  -1.9833680e+06
   3.8839613e-09  -1.9289021e-03   1.0336502e-01   8.8958401e-02  -1.9779526e+06
   3.8866289e-09  -1.9236330e-03   1.0334394e-01   8.8976733e-02  -1.9725520e+06
   3.8892964e-09  -1.9183783e-03   1.0332292e-01   8.8995018e-02  -1.9671662e+06
   3.8919640e-09  -1.9131379e-03   1.0330196e-01   8.9013256e-02  -1.9617951e+06
   3.8946315e-09  -1.9079118e-03   1.0328107e-01   8.9031449e-02  -1.9564387e+06
   3.8972991e-09  -1.9027001e-03   1.0326023e-01   8.9049596e-02  -1.9510969e+06
   3.8999667e-09  -1.8975025e-03   1.0323946e-01   8.9067696e-02  -1.9457698e+06
