   0.0000000e+00  -1.9963865e-01   6.1888807e+00   1.1088886e-06  -5.1692951e+08
   2.6675559e-12  -1.9826486e-01   6.1780136e+00   1.2318318e-06  -5.1310234e+08
   5.3351117e-12  -1.9690128e-01   6.1666781e+00   1.3672112e-06  -5.0927260e+08
   8.0026676e-12  -1.9554791e-01   6.1548614e+00   1.5161398e-06  -5.0544041e+08
   1.0670223e-11  -1.9420477e-01   6.1425506e+00   1.6798132e-06  -5.0160594e+08
   1.3337779e-11  -1.9287184e-01   6.1297333e+00   1.8595144e-06  -4.9776937e+08
   1.6005335e-11  -1.9154915e-01   6.1163970e+00   2.0566179e-06  -4.9393089e+08
   1.8672891e-11  -1.9023669e-01   6.1025296e+00   2.2725945e-06  -4.9009071e+08
   2.1340447e-11  -1.8893447e-01   6.0881195e+00   2.5090153e-06  -4.8624906e+08
   2.4008003e-11  -1.8764250e-01   6.0731550e+00   2.7675563e-06  -4.8240621e+08
   2.6675559e-11  -1.8636076e-01   6.0576252e+00   3.0500027e-06  -4.7856242e+08
   2.9343114e-11  -1.8508928e-01   6.0415193e+00   3.3582531e-06  -4.7471799e+08
   3.2010670e-11  -1.8382804e-01   6.0248273e+00   3.6943236e-06  -4.7087323e+08
   3.4678226e-11  -1.8257705e-01   6.0075395e+00   4.0603520e-06  -4.6702849e+08
   3.7345782e-11  -1.8133632e-01   5.9896468e+00   4.4586013e-06  -4.6318413e+08
   4.0013338e-11  -1.8010582e-01   5.9711408e+00   4.8914633e-06  -4.5934053e+08
   4.2680894e-11  -1.7888558e-01   5.9520136e+00   5.3614623e-06  -4.5549810e+08
   4.5348449e-11  -1.7767557e-01   5.9322583e+00   5.8712574e-06  -4.5165727e+08
   4.8016005e-11  -1.7647580e-01   5.9118685e+00   6.4236459e-06  -4.4781849e+08
   5.0683561e-11  -1.7528627e-01   5.8908385e+00   7.0215653e-06  -4.4398224e+08
   5.3351117e-11  -1.7410696e-01   5.8691638e+00   7.6680952e-06  -4.4014902e+08
   5.6018673e-11  -1.7293786e-01   5.8468405e+00   8.3664588e-06  -4.3631936e+08
   5.8686229e-11  -1.7177898e-01   5.8238655e+00   9.1200241e-06  -4.3249379e+08
   6.1353785e-11  -1.7063029e-01   5.8002370e+00   9.9323042e-06  -4.2867289e+08
   6.4021340e-11  -1.6949178e-01   5.7759538e+00   1.0806957e-05  -4.2485725e+08
   6.6688896e-11  -1.6836344e-01   5.7510160e+00   1.1747786e-05  -4.2104747e+08
   6.9356452e-11  -1.6724526e-01   5.7254245e+00   1.2758737e-05  -4.1724418e+08
   7.2024008e-11  -1.6613722e-01   5.6991813e+00   1.3843898e-05  -4.1344804e+08
   7.4691564e-11  -1.6503930e-01   5.6722895e+00   1.5007496e-05  -4.0965972e+08
   7.7359120e-11  -1.6395148e-01   5.6447532e+00   1.6253893e-05  -4.0587989e+08
   8.0026676e-11  -1.6287373e-01   5.6165776e+00   1.7587587e-05  -4.0210927e+08
   8.2694231e-11  -1.6180604e-01   5.5877689e+00   1.9013200e-05  -3.9834857e+08
   8.5361787e-11  -1.6074838e-01   5.5583346e+00   2.0535481e-05  -3.9459852e+08
   8.8029343e-11  -1.5970071e-01   5.5282830e+00   2.2159294e-05  -3.9085987e+08
   9.0696899e-11  -1.5866302e-01   5.4976236e+00   2.3889615e-05  -3.8713338e+08
   9.3364455e-11  -1.5763527e-01   5.4663670e+00   2.5731527e-05  -3.8341980e+08
   9.6032011e-11  -1.5661742e-01   5.4345245e+00   2.7690207e-05  -3.7971992e+08
   9.8699567e-11  -1.5560944e-01   5.4021089e+00   2.9770925e-05  -3.7603451e+08
   1.0136712e-10  -1.5461129e-01   5.3691335e+00   3.1979029e-05  -3.7236436e+08
   1.0403468e-10  -1.5362293e-01   5.3356127e+00   3.4319941e-05  -3.6871026e+08
   1.0670223e-10  -1.5264433e-01   5.3015621e+00   3.6799147e-05  -3.6507298e+08
   1.0936979e-10  -1.5167543e-01   5.2669976e+00   3.9422185e-05  -3.6145333e+08
   1.1203735e-10  -1.5071619e-01   5.2319363e+00   4.2194636e-05  -3.5785208e+08
   1.1470490e-10  -1.4976656e-01   5.1963960e+00   4.5122116e-05  -3.5427001e+08
   1.1737246e-10  -1.4882649e-01   5.1603950e+00   4.8210264e-05  -3.5070789e+08
   1.2004001e-10  -1.4789593e-01   5.1239527e+00   5.1464730e-05  -3.4716650e+08
   1.2270757e-10  -1.4697482e-01   5.0870886e+00   5.4891167e-05  -3.4364657e+08
   1.2537513e-10  -1.4606311e-01   5.0498231e+00   5.8495219e-05  -3.4014886e+08
   1.2804268e-10  -1.4516073e-01   5.0121769e+00   6.2282511e-05  -3.3667410e+08
   1.3071024e-10  -1.4426763e-01   4.9741712e+00   6.6258639e-05  -3.3322298e+08
   1.3337779e-10  -1.4338374e-01   4.9358277e+00   7.0429157e-05  -3.2979621e+08
   1.3604535e-10  -1.4250900e-01   4.8971680e+00   7.4799571e-05  -3.2639445e+08
   1.3871290e-10  -1.4164334e-01   4.8582144e+00   7.9375327e-05  -3.2301838e+08
   1.4138046e-10  -1.4078669e-01   4.8189890e+00   8.4161800e-05  -3.1966861e+08
   1.4404802e-10  -1.3993898e-01   4.7795144e+00   8.9164290e-05  -3.1634576e+08
   1.4671557e-10  -1.3910013e-01   4.7398130e+00   9.4388006e-05  -3.1305040e+08
   1.4938313e-10  -1.3827008e-01   4.6999072e+00   9.9838065e-05  -3.0978311e+08
   1.5205068e-10  -1.3744875e-01   4.6598194e+00   1.0551948e-04  -3.0654441e+08
   1.5471824e-10  -1.3663606e-01   4.6195720e+00   1.1143715e-04  -3.0333481e+08
   1.5738580e-10  -1.3583193e-01   4.5791870e+00   1.1759587e-04  -3.0015478e+08
   1.6005335e-10  -1.3503627e-01   4.5386865e+00   1.2400029e-04  -2.9700478e+08
   1.6272091e-10  -1.3424902e-01   4.4980919e+00   1.3065496e-04  -2.9388521e+08
   1.6538846e-10  -1.3347008e-01   4.4574249e+00   1.3756426e-04  -2.9079647e+08
   1.6805602e-10  -1.3269937e-01   4.4167062e+00   1.4473247e-04  -2.8773891e+08
   1.7072357e-10  -1.3193680e-01   4.3759566e+00   1.5216370e-04  -2.8471287e+08
   1.7339113e-10  -1.3118230e-01   4.3351963e+00   1.5986194e-04  -2.8171864e+08
   1.7605869e-10  -1.3043577e-01   4.2944450e+00   1.6783099e-04  -2.7875648e+08
   1.7872624e-10  -1.2969712e-01   4.2537220e+00   1.7607455e-04  -2.7582664e+08
   1.8139380e-10  -1.2896627e-01   4.2130461e+00   1.8459614e-04  -2.7292931e+08
   1.8406135e-10  -1.2824312e-01   4.1724354e+00   1.9339912e-04  -2.7006468e+08
   1.8672891e-10  -1.2752759e-01   4.1319078e+00   2.0248672e-04  -2.6723289e+08
   1.8939647e-10  -1.2681959e-01   4.0914801e+00   2.1186200e-04  -2.6443407e+08
   1.9206402e-10  -1.2611903e-01   4.0511690e+00   2.2152786e-04  -2.6166829e+08
   1.9473158e-10  -1.2542581e-01   4.0109905e+00   2.3148707e-04  -2.5893562e+08
   1.9739913e-10  -1.2473984e-01   3.9709596e+00   2.4174223e-04  -2.5623611e+08
   2.0006669e-10  -1.2406104e-01   3.9310913e+00   2.5229579e-04  -2.5356974e+08
   2.0273424e-10  -1.2338932e-01   3.8913995e+00   2.6315005e-04  -2.5093652e+08
   2.0540180e-10  -1.2272457e-01   3.8518976e+00   2.7430718e-04  -2.4833639e+08
   2.0806936e-10  -1.2206672e-01   3.8125986e+00   2.8576918e-04  -2.4576930e+08
   2.1073691e-10  -1.2141567e-01   3.7735145e+00   2.9753793e-04  -2.4323516e+08
   2.1340447e-10  -1.2077134e-01   3.7346571e+00   3.0961515e-04  -2.4073384e+08
   2.1607202e-10  -1.2013362e-01   3.6960371e+00   3.2200244e-04  -2.3826524e+08
   2.1873958e-10  -1.1950244e-01   3.6576651e+00   3.3470126e-04  -2.3582919e+08
   2.2140714e-10  -1.1887770e-01   3.6195507e+00   3.4771294e-04  -2.3342552e+08
   2.2407469e-10  -1.1825932e-01   3.5817032e+00   3.6103869e-04  -2.3105406e+08
   2.2674225e-10  -1.1764721e-01   3.5441311e+00   3.7467958e-04  -2.2871458e+08
   2.2940980e-10  -1.1704128e-01   3.5068425e+00   3.8863658e-04  -2.2640688e+08
   2.3207736e-10  -1.1644145e-01   3.4698449e+00   4.0291054e-04  -2.2413072e+08
   2.3474491e-10  -1.1584763e-01   3.4331452e+00   4.1750218e-04  -2.2188585e+08
   2.3741247e-10  -1.1525973e-01   3.3967498e+00   4.3241214e-04  -2.1967200e+08
   2.4008003e-10  -1.1467768e-01   3.3606647e+00   4.4764093e-04  -2.1748891e+08
   2.4274758e-10  -1.1410139e-01   3.3248952e+00   4.6318899e-04  -2.1533628e+08
   2.4541514e-10  -1.1353077e-01   3.2894464e+00   4.7905662e-04  -2.1321382e+08
   2.4808269e-10  -1.1296575e-01   3.2543226e+00   4.9524407e-04  -2.1112123e+08
   2.5075025e-10  -1.1240625e-01   3.2195280e+00   5.1175148e-04  -2.0905818e+08
   2.5341781e-10  -1.1185218e-01   3.1850660e+00   5.2857890e-04  -2.0702436e+08
   2.5608536e-10  -1.1130348e-01   3.1509400e+00   5.4572631e-04  -2.0501943e+08
   2.5875292e-10  -1.1076005e-01   3.1171526e+00   5.6319361e-04  -2.0304307e+08
   2.6142047e-10  -1.1022183e-01   3.0837063e+00   5.8098061e-04  -2.0109493e+08
   2.6408803e-10  -1.0968874e-01   3.0506031e+00   5.9908707e-04  -1.9917466e+08
   2.6675559e-10  -1.0916071e-01   3.0178447e+00   6.1751267e-04  -1.9728192e+08
   2.6942314e-10  -1.0863765e-01   2.9854324e+00   6.3625703e-04  -1.9541634e+08
   2.7209070e-10  -1.0811951e-01   2.9533673e+00   6.5531970e-04  -1.9357757e+08
   2.7475825e-10  -1.0760621e-01   2.9216501e+00   6.7470019e-04  -1.9176526e+08
   2.7742581e-10  -1.0709768e-01   2.8902811e+00   6.9439793e-04  -1.8997904e+08
   2.8009336e-10  -1.0659385e-01   2.8592607e+00   7.1441232e-04  -1.8821854e+08
   2.8276092e-10  -1.0609465e-01   2.8285886e+00   7.3474270e-04  -1.8648341e+08
   2.8542848e-10  -1.0560001e-01   2.7982645e+00   7.5538837e-04  -1.8477329e+08
   2.8809603e-10  -1.0510987e-01   2.7682878e+00   7.7634856e-04  -1.8308779e+08
   2.9076359e-10  -1.0462417e-01   2.7386578e+00   7.9762251e-04  -1.8142657e+08
   2.9343114e-10  -1.0414284e-01   2.7093733e+00   8.1920936e-04  -1.7978926e+08
   2.9609870e-10  -1.0366582e-01   2.6804332e+00   8.4110826e-04  -1.7817550e+08
   2.9876626e-10  -1.0319304e-01   2.6518360e+00   8.6331831e-04  -1.7658493e+08
   3.0143381e-10  -1.0272445e-01   2.6235802e+00   8.8583858e-04  -1.7501719e+08
   3.0410137e-10  -1.0225998e-01   2.5956641e+00   9.0866810e-04  -1.7347192e+08
   3.0676892e-10  -1.0179958e-01   2.5680858e+00   9.3180589e-04  -1.7194877e+08
   3.0943648e-10  -1.0134318e-01   2.5408432e+00   9.5525093e-04  -1.7044740e+08
   3.1210403e-10  -1.0089074e-01   2.5139341e+00   9.7900218e-04  -1.6896744e+08
   3.1477159e-10  -1.0044219e-01   2.4873564e+00   1.0030586e-03  -1.6750857e+08
   3.1743915e-10  -9.9997487e-02   2.4611075e+00   1.0274190e-03  -1.6607043e+08
   3.2010670e-10  -9.9556565e-02   2.4351849e+00   1.0520825e-03  -1.6465268e+08
   3.2277426e-10  -9.9119376e-02   2.4095862e+00   1.0770478e-03  -1.6325500e+08
   3.2544181e-10  -9.8685867e-02   2.3843085e+00   1.1023138e-03  -1.6187704e+08
   3.2810937e-10  -9.8255987e-02   2.3593491e+00   1.1278794e-03  -1.6051849e+08
   3.3077693e-10  -9.7829686e-02   2.3347052e+00   1.1537434e-03  -1.5917902e+08
   3.3344448e-10  -9.7406912e-02   2.3103737e+00   1.1799046e-03  -1.5785831e+08
   3.3611204e-10  -9.6987619e-02   2.2863519e+00   1.2063619e-03  -1.5655604e+08
   3.3877959e-10  -9.6571757e-02   2.2626365e+00   1.2331141e-03  -1.5527191e+08
   3.4144715e-10  -9.6159280e-02   2.2392246e+00   1.2601599e-03  -1.5400561e+08
   3.4411470e-10  -9.5750140e-02   2.2161131e+00   1.2874983e-03  -1.5275683e+08
   3.4678226e-10  -9.5344293e-02   2.1932986e+00   1.3151279e-03  -1.5152527e+08
   3.4944982e-10  -9.4941694e-02   2.1707781e+00   1.3430475e-03  -1.5031065e+08
   3.5211737e-10  -9.4542298e-02   2.1485484e+00   1.3712559e-03  -1.4911267e+08
   3.5478493e-10  -9.4146062e-02   2.1266061e+00   1.3997520e-03  -1.4793105e+08
   3.5745248e-10  -9.3752944e-02   2.1049480e+00   1.4285345e-03  -1.4676550e+08
   3.6012004e-10  -9.3362902e-02   2.0835709e+00   1.4576021e-03  -1.4561576e+08
   3.6278760e-10  -9.2975894e-02   2.0624714e+00   1.4869536e-03  -1.4448155e+08
   3.6545515e-10  -9.2591881e-02   2.0416462e+00   1.5165878e-03  -1.4336260e+08
   3.6812271e-10  -9.2210823e-02   2.0210920e+00   1.5465036e-03  -1.4225865e+08
   3.7079026e-10  -9.1832680e-02   2.0008055e+00   1.5766995e-03  -1.4116944e+08
   3.7345782e-10  -9.1457414e-02   1.9807834e+00   1.6071745e-03  -1.4009471e+08
   3.7612538e-10  -9.1084988e-02   1.9610224e+00   1.6379273e-03  -1.3903422e+08
   3.7879293e-10  -9.0715364e-02   1.9415192e+00   1.6689567e-03  -1.3798773e+08
   3.8146049e-10  -9.0348507e-02   1.9222705e+00   1.7002615e-03  -1.3695498e+08
   3.8412804e-10  -8.9984379e-02   1.9032730e+00   1.7318404e-03  -1.3593575e+08
   3.8679560e-10  -8.9622947e-02   1.8845234e+00   1.7636923e-03  -1.3492979e+08
   3.8946315e-10  -8.9264175e-02   1.8660186e+00   1.7958159e-03  -1.3393689e+08
   3.9213071e-10  -8.8908029e-02   1.8477552e+00   1.8282101e-03  -1.3295681e+08
   3.9479827e-10  -8.8554477e-02   1.8297300e+00   1.8608736e-03  -1.3198934e+08
   3.9746582e-10  -8.8203484e-02   1.8119399e+00   1.8938054e-03  -1.3103426e+08
   4.0013338e-10  -8.7855020e-02   1.7943817e+00   1.9270041e-03  -1.3009136e+08
   4.0280093e-10  -8.7509051e-02   1.7770522e+00   1.9604686e-03  -1.2916043e+08
   4.0546849e-10  -8.7165547e-02   1.7599483e+00   1.9941977e-03  -1.2824126e+08
   4.0813605e-10  -8.6824478e-02   1.7430669e+00   2.0281903e-03  -1.2733365e+08
   4.1080360e-10  -8.6485812e-02   1.7264050e+00   2.0624453e-03  -1.2643740e+08
   4.1347116e-10  -8.6149520e-02   1.7099594e+00   2.0969613e-03  -1.2555233e+08
   4.1613871e-10  -8.5815573e-02   1.6937272e+00   2.1317374e-03  -1.2467824e+08
   4.1880627e-10  -8.5483942e-02   1.6777054e+00   2.1667724e-03  -1.2381494e+08
   4.2147382e-10  -8.5154600e-02   1.6618910e+00   2.2020651e-03  -1.2296226e+08
   4.2414138e-10  -8.4827518e-02   1.6462811e+00   2.2376145e-03  -1.2212001e+08
   4.2680894e-10  -8.4502668e-02   1.6308728e+00   2.2734193e-03  -1.2128801e+08
   4.2947649e-10  -8.4180025e-02   1.6156632e+00   2.3094785e-03  -1.2046610e+08
   4.3214405e-10  -8.3859561e-02   1.6006496e+00   2.3457910e-03  -1.1965410e+08
   4.3481160e-10  -8.3541251e-02   1.5858290e+00   2.3823557e-03  -1.1885186e+08
   4.3747916e-10  -8.3225069e-02   1.5711988e+00   2.4191714e-03  -1.1805919e+08
   4.4014672e-10  -8.2910990e-02   1.5567562e+00   2.4562372e-03  -1.1727595e+08
   4.4281427e-10  -8.2598989e-02   1.5424984e+00   2.4935519e-03  -1.1650198e+08
   4.4548183e-10  -8.2289041e-02   1.5284229e+00   2.5311145e-03  -1.1573713e+08
   4.4814938e-10  -8.1981124e-02   1.5145270e+00   2.5689239e-03  -1.1498124e+08
   4.5081694e-10  -8.1675213e-02   1.5008081e+00   2.6069791e-03  -1.1423416e+08
   4.5348449e-10  -8.1371285e-02   1.4872636e+00   2.6452789e-03  -1.1349576e+08
   4.5615205e-10  -8.1069318e-02   1.4738910e+00   2.6838224e-03  -1.1276588e+08
   4.5881961e-10  -8.0769288e-02   1.4606877e+00   2.7226085e-03  -1.1204439e+08
   4.6148716e-10  -8.0471175e-02   1.4476514e+00   2.7616363e-03  -1.1133115e+08
   4.6415472e-10  -8.0174955e-02   1.4347796e+00   2.8009046e-03  -1.1062603e+08
   4.6682227e-10  -7.9880608e-02   1.4220699e+00   2.8404125e-03  -1.0992890e+08
   4.6948983e-10  -7.9588113e-02   1.4095198e+00   2.8801589e-03  -1.0923962e+08
   4.7215739e-10  -7.9297449e-02   1.3971272e+00   2.9201430e-03  -1.0855807e+08
   4.7482494e-10  -7.9008595e-02   1.3848897e+00   2.9603636e-03  -1.0788412e+08
   4.7749250e-10  -7.8721532e-02   1.3728049e+00   3.0008197e-03  -1.0721766e+08
   4.8016005e-10  -7.8436240e-02   1.3608707e+00   3.0415105e-03  -1.0655856e+08
   4.8282761e-10  -7.8152699e-02   1.3490850e+00   3.0824350e-03  -1.0590671e+08
   4.8549517e-10  -7.7870890e-02   1.3374454e+00   3.1235921e-03  -1.0526199e+08
   4.8816272e-10  -7.7590794e-02   1.3259498e+00   3.1649809e-03  -1.0462429e+08
   4.9083028e-10  -7.7312394e-02   1.3145963e+00   3.2066005e-03  -1.0399349e+08
   4.9349783e-10  -7.7035670e-02   1.3033825e+00   3.2484499e-03  -1.0336950e+08
   4.9616539e-10  -7.6760604e-02   1.2923067e+00   3.2905281e-03  -1.0275220e+08
   4.9883294e-10  -7.6487179e-02   1.2813666e+00   3.3328343e-03  -1.0214148e+08
   5.0150050e-10  -7.6215378e-02   1.2705604e+00   3.3753675e-03  -1.0153725e+08
   5.0416806e-10  -7.5945183e-02   1.2598860e+00   3.4181268e-03  -1.0093941e+08
   5.0683561e-10  -7.5676577e-02   1.2493416e+00   3.4611112e-03  -1.0034785e+08
   5.0950317e-10  -7.5409544e-02   1.2389252e+00   3.5043198e-03  -9.9762479e+07
   5.1217072e-10  -7.5144068e-02   1.2286350e+00   3.5477518e-03  -9.9183204e+07
   5.1483828e-10  -7.4880131e-02   1.2184691e+00   3.5914063e-03  -9.8609931e+07
   5.1750584e-10  -7.4617719e-02   1.2084258e+00   3.6352822e-03  -9.8042568e+07
   5.2017339e-10  -7.4356815e-02   1.1985032e+00   3.6793788e-03  -9.7481024e+07
   5.2284095e-10  -7.4097405e-02   1.1886997e+00   3.7236952e-03  -9.6925213e+07
   5.2550850e-10  -7.3839472e-02   1.1790133e+00   3.7682304e-03  -9.6375048e+07
   5.2817606e-10  -7.3583003e-02   1.1694426e+00   3.8129837e-03  -9.5830443e+07
   5.3084361e-10  -7.3327981e-02   1.1599857e+00   3.8579540e-03  -9.5291317e+07
   5.3351117e-10  -7.3074394e-02   1.1506411e+00   3.9031406e-03  -9.4757586e+07
   5.3617873e-10  -7.2822226e-02   1.1414071e+00   3.9485426e-03  -9.4229172e+07
   5.3884628e-10  -7.2571463e-02   1.1322821e+00   3.9941590e-03  -9.3705994e+07
   5.4151384e-10  -7.2322091e-02   1.1232646e+00   4.0399892e-03  -9.3187977e+07
   5.4418139e-10  -7.2074097e-02   1.1143529e+00   4.0860322e-03  -9.2675045e+07
   5.4684895e-10  -7.1827467e-02   1.1055457e+00   4.1322871e-03  -9.2167122e+07
   5.4951651e-10  -7.1582188e-02   1.0968413e+00   4.1787532e-03  -9.1664137e+07
   5.5218406e-10  -7.1338247e-02   1.0882383e+00   4.2254295e-03  -9.1166017e+07
   5.5485162e-10  -7.1095630e-02   1.0797353e+00   4.2723153e-03  -9.0672692e+07
   5.5751917e-10  -7.0854326e-02   1.0713309e+00   4.3194097e-03  -9.0184093e+07
   5.6018673e-10  -7.0614321e-02   1.0630235e+00   4.3667119e-03  -8.9700152e+07
   5.6285428e-10  -7.0375603e-02   1.0548119e+00   4.4142211e-03  -8.9220803e+07
   5.6552184e-10  -7.0138161e-02   1.0466946e+00   4.4619364e-03  -8.8745980e+07
   5.6818940e-10  -6.9901981e-02   1.0386704e+00   4.5098570e-03  -8.8275618e+07
   5.7085695e-10  -6.9667052e-02   1.0307380e+00   4.5579821e-03  -8.7809656e+07
   5.7352451e-10  -6.9433362e-02   1.0228959e+00   4.6063109e-03  -8.7348031e+07
   5.7619206e-10  -6.9200900e-02   1.0151430e+00   4.6548426e-03  -8.6890682e+07
   5.7885962e-10  -6.8969655e-02   1.0074779e+00   4.7035763e-03  -8.6437549e+07
   5.8152718e-10  -6.8739615e-02   9.9989955e-01   4.7525114e-03  -8.5988574e+07
   5.8419473e-10  -6.8510768e-02   9.9240661e-01   4.8016469e-03  -8.5543700e+07
   5.8686229e-10  -6.8283106e-02   9.8499790e-01   4.8509820e-03  -8.5102869e+07
   5.8952984e-10  -6.8056615e-02   9.7767224e-01   4.9005161e-03  -8.4666026e+07
   5.9219740e-10  -6.7831287e-02   9.7042849e-01   4.9502482e-03  -8.4233116e+07
   5.9486495e-10  -6.7607110e-02   9.6326550e-01   5.0001776e-03  -8.3804086e+07
   5.9753251e-10  -6.7384074e-02   9.5618213e-01   5.0503036e-03  -8.3378883e+07
   6.0020007e-10  -6.7162168e-02   9.4917730e-01   5.1006252e-03  -8.2957456e+07
   6.0286762e-10  -6.6941384e-02   9.4224991e-01   5.1511418e-03  -8.2539753e+07
   6.0553518e-10  -6.6721711e-02   9.3539889e-01   5.2018526e-03  -8.2125724e+07
   6.0820273e-10  -6.6503139e-02   9.2862318e-01   5.2527567e-03  -8.1715320e+07
   6.1087029e-10  -6.6285658e-02   9.2192176e-01   5.3038535e-03  -8.1308493e+07
   6.1353785e-10  -6.6069260e-02   9.1529359e-01   5.3551421e-03  -8.0905195e+07
   6.1620540e-10  -6.5853934e-02   9.0873768e-01   5.4066217e-03  -8.0505381e+07
   6.1887296e-10  -6.5639671e-02   9.0225304e-01   5.4582916e-03  -8.0109003e+07
   6.2154051e-10  -6.5426463e-02   8.9583870e-01   5.5101511e-03  -7.9716017e+07
   6.2420807e-10  -6.5214300e-02   8.8949369e-01   5.5621993e-03  -7.9326378e+07
   6.2687563e-10  -6.5003173e-02   8.8321707e-01   5.6144355e-03  -7.8940044e+07
   6.2954318e-10  -6.4793073e-02   8.7700792e-01   5.6668590e-03  -7.8556970e+07
   6.3221074e-10  -6.4583992e-02   8.7086533e-01   5.7194689e-03  -7.8177116e+07
   6.3487829e-10  -6.4375922e-02   8.6478839e-01   5.7722646e-03  -7.7800440e+07
   6.3754585e-10  -6.4168853e-02   8.5877623e-01   5.8252452e-03  -7.7426900e+07
   6.4021340e-10  -6.3962778e-02   8.5282796e-01   5.8784100e-03  -7.7056457e+07
   6.4288096e-10  -6.3757688e-02   8.4694274e-01   5.9317582e-03  -7.6689072e+07
   6.4554852e-10  -6.3553575e-02   8.4111972e-01   5.9852892e-03  -7.6324706e+07
   6.4821607e-10  -6.3350431e-02   8.3535807e-01   6.0390021e-03  -7.5963320e+07
   6.5088363e-10  -6.3148248e-02   8.2965698e-01   6.0928962e-03  -7.5604878e+07
   6.5355118e-10  -6.2947019e-02   8.2401563e-01   6.1469707e-03  -7.5249343e+07
   6.5621874e-10  -6.2746735e-02   8.1843323e-01   6.2012250e-03  -7.4896678e+07
   6.5888630e-10  -6.2547389e-02   8.1290901e-01   6.2556582e-03  -7.4546848e+07
   6.6155385e-10  -6.2348973e-02   8.0744221e-01   6.3102697e-03  -7.4199817e+07
   6.6422141e-10  -6.2151480e-02   8.0203205e-01   6.3650586e-03  -7.3855552e+07
   6.6688896e-10  -6.1954903e-02   7.9667780e-01   6.4200242e-03  -7.3514018e+07
   6.6955652e-10  -6.1759233e-02   7.9137873e-01   6.4751659e-03  -7.3175182e+07
   6.7222407e-10  -6.1564465e-02   7.8613411e-01   6.5304828e-03  -7.2839011e+07
   6.7489163e-10  -6.1370591e-02   7.8094323e-01   6.5859742e-03  -7.2505473e+07
   6.7755919e-10  -6.1177604e-02   7.7580540e-01   6.6416394e-03  -7.2174535e+07
   6.8022674e-10  -6.0985497e-02   7.7071993e-01   6.6974776e-03  -7.1846168e+07
   6.8289430e-10  -6.0794264e-02   7.6568613e-01   6.7534882e-03  -7.1520339e+07
   6.8556185e-10  -6.0603897e-02   7.6070334e-01   6.8096703e-03  -7.1197019e+07
   6.8822941e-10  -6.0414389e-02   7.5577091e-01   6.8660233e-03  -7.0876178e+07
   6.9089697e-10  -6.0225735e-02   7.5088818e-01   6.9225464e-03  -7.0557787e+07
   6.9356452e-10  -6.0037928e-02   7.4605451e-01   6.9792389e-03  -7.0241815e+07
   6.9623208e-10  -5.9850960e-02   7.4126929e-01   7.0361001e-03  -6.9928236e+07
   6.9889963e-10  -5.9664827e-02   7.3653189e-01   7.0931291e-03  -6.9617021e+07
   7.0156719e-10  -5.9479522e-02   7.3184169e-01   7.1503254e-03  -6.9308143e+07
   7.0423474e-10  -5.9295037e-02   7.2719812e-01   7.2076882e-03  -6.9001573e+07
   7.0690230e-10  -5.9111368e-02   7.2260056e-01   7.2652167e-03  -6.8697287e+07
   7.0956986e-10  -5.8928509e-02   7.1804844e-01   7.3229102e-03  -6.8395256e+07
   7.1223741e-10  -5.8746452e-02   7.1354118e-01   7.3807680e-03  -6.8095456e+07
   7.1490497e-10  -5.8565193e-02   7.0907823e-01   7.4387894e-03  -6.7797861e+07
   7.1757252e-10  -5.8384725e-02   7.0465902e-01   7.4969737e-03  -6.7502446e+07
   7.2024008e-10  -5.8205042e-02   7.0028301e-01   7.5553201e-03  -6.7209185e+07
   7.2290764e-10  -5.8026140e-02   6.9594966e-01   7.6138279e-03  -6.6918056e+07
   7.2557519e-10  -5.7848011e-02   6.9165843e-01   7.6724964e-03  -6.6629032e+07
   7.2824275e-10  -5.7670652e-02   6.8740881e-01   7.7313249e-03  -6.6342092e+07
   7.3091030e-10  -5.7494055e-02   6.8320027e-01   7.7903126e-03  -6.6057211e+07
   7.3357786e-10  -5.7318216e-02   6.7903231e-01   7.8494589e-03  -6.5774367e+07
   7.3624542e-10  -5.7143129e-02   6.7490442e-01   7.9087630e-03  -6.5493537e+07
   7.3891297e-10  -5.6968789e-02   6.7081612e-01   7.9682242e-03  -6.5214699e+07
   7.4158053e-10  -5.6795191e-02   6.6676692e-01   8.0278418e-03  -6.4937831e+07
   7.4424808e-10  -5.6622328e-02   6.6275633e-01   8.0876150e-03  -6.4662910e+07
   7.4691564e-10  -5.6450197e-02   6.5878389e-01   8.1475432e-03  -6.4389917e+07
   7.4958319e-10  -5.6278792e-02   6.5484913e-01   8.2076257e-03  -6.4118830e+07
   7.5225075e-10  -5.6108108e-02   6.5095159e-01   8.2678616e-03  -6.3849628e+07
   7.5491831e-10  -5.5938139e-02   6.4709082e-01   8.3282504e-03  -6.3582290e+07
   7.5758586e-10  -5.5768882e-02   6.4326638e-01   8.3887913e-03  -6.3316798e+07
   7.6025342e-10  -5.5600330e-02   6.3947783e-01   8.4494836e-03  -6.3053130e+07
   7.6292097e-10  -5.5432480e-02   6.3572473e-01   8.5103266e-03  -6.2791268e+07
   7.6558853e-10  -5.5265326e-02   6.3200666e-01   8.5713195e-03  -6.2531191e+07
   7.6825609e-10  -5.5098864e-02   6.2832320e-01   8.6324617e-03  -6.2272882e+07
   7.7092364e-10  -5.4933089e-02   6.2467393e-01   8.6937525e-03  -6.2016322e+07
   7.7359120e-10  -5.4767996e-02   6.2105845e-01   8.7551910e-03  -6.1761491e+07
   7.7625875e-10  -5.4603581e-02   6.1747635e-01   8.8167768e-03  -6.1508373e+07
   7.7892631e-10  -5.4439839e-02   6.1392725e-01   8.8785089e-03  -6.1256948e+07
   7.8159386e-10  -5.4276765e-02   6.1041074e-01   8.9403868e-03  -6.1007200e+07
   7.8426142e-10  -5.4114356e-02   6.0692644e-01   9.0024096e-03  -6.0759110e+07
   7.8692898e-10  -5.3952606e-02   6.0347398e-01   9.0645768e-03  -6.0512663e+07
   7.8959653e-10  -5.3791512e-02   6.0005297e-01   9.1268876e-03  -6.0267840e+07
   7.9226409e-10  -5.3631069e-02   5.9666306e-01   9.1893413e-03  -6.0024625e+07
   7.9493164e-10  -5.3471273e-02   5.9330387e-01   9.2519371e-03  -5.9783002e+07
   7.9759920e-10  -5.3312119e-02   5.8997504e-01   9.3146745e-03  -5.9542954e+07
   8.0026676e-10  -5.3153604e-02   5.8667624e-01   9.3775526e-03  -5.9304465e+07
   8.0293431e-10  -5.2995723e-02   5.8340709e-01   9.4405708e-03  -5.9067520e+07
   8.0560187e-10  -5.2838472e-02   5.8016727e-01   9.5037283e-03  -5.8832103e+07
   8.0826942e-10  -5.2681848e-02   5.7695643e-01   9.5670246e-03  -5.8598199e+07
   8.1093698e-10  -5.2525845e-02   5.7377424e-01   9.6304588e-03  -5.8365792e+07
   8.1360453e-10  -5.2370460e-02   5.7062037e-01   9.6940302e-03  -5.8134867e+07
   8.1627209e-10  -5.2215690e-02   5.6749449e-01   9.7577383e-03  -5.7905410e+07
   8.1893965e-10  -5.2061530e-02   5.6439628e-01   9.8215822e-03  -5.7677406e+07
   8.2160720e-10  -5.1907976e-02   5.6132543e-01   9.8855612e-03  -5.7450842e+07
   8.2427476e-10  -5.1755025e-02   5.5828163e-01   9.9496747e-03  -5.7225701e+07
   8.2694231e-10  -5.1602672e-02   5.5526457e-01   1.0013922e-02  -5.7001972e+07
   8.2960987e-10  -5.1450915e-02   5.5227394e-01   1.0078302e-02  -5.6779639e+07
   8.3227743e-10  -5.1299749e-02   5.4930944e-01   1.0142815e-02  -5.6558689e+07
   8.3494498e-10  -5.1149171e-02   5.4637079e-01   1.0207460e-02  -5.6339109e+07
   8.3761254e-10  -5.0999176e-02   5.4345769e-01   1.0272235e-02  -5.6120886e+07
   8.4028009e-10  -5.0849762e-02   5.4056985e-01   1.0337141e-02  -5.5904006e+07
   8.4294765e-10  -5.0700925e-02   5.3770699e-01   1.0402176e-02  -5.5688457e+07
   8.4561521e-10  -5.0552661e-02   5.3486883e-01   1.0467340e-02  -5.5474225e+07
   8.4828276e-10  -5.0404967e-02   5.3205510e-01   1.0532632e-02  -5.5261299e+07
   8.5095032e-10  -5.0257840e-02   5.2926552e-01   1.0598052e-02  -5.5049666e+07
   8.5361787e-10  -5.0111275e-02   5.2649983e-01   1.0663599e-02  -5.4839313e+07
   8.5628543e-10  -4.9965269e-02   5.2375775e-01   1.0729271e-02  -5.4630228e+07
   8.5895298e-10  -4.9819820e-02   5.2103904e-01   1.0795069e-02  -5.4422400e+07
   8.6162054e-10  -4.9674924e-02   5.1834344e-01   1.0860992e-02  -5.4215817e+07
   8.6428810e-10  -4.9530577e-02   5.1567068e-01   1.0927039e-02  -5.4010466e+07
   8.6695565e-10  -4.9386776e-02   5.1302052e-01   1.0993209e-02  -5.3806337e+07
   8.6962321e-10  -4.9243518e-02   5.1039271e-01   1.1059502e-02  -5.3603419e+07
   8.7229076e-10  -4.9100800e-02   5.0778701e-01   1.1125917e-02  -5.3401699e+07
   8.7495832e-10  -4.8958618e-02   5.0520317e-01   1.1192453e-02  -5.3201167e+07
   8.7762588e-10  -4.8816970e-02   5.0264097e-01   1.1259109e-02  -5.3001813e+07
   8.8029343e-10  -4.8675852e-02   5.0010016e-01   1.1325886e-02  -5.2803624e+07
   8.8296099e-10  -4.8535261e-02   4.9758051e-01   1.1392782e-02  -5.2606591e+07
   8.8562854e-10  -4.8395195e-02   4.9508180e-01   1.1459796e-02  -5.2410704e+07
   8.8829610e-10  -4.8255649e-02   4.9260379e-01   1.1526928e-02  -5.2215950e+07
   8.9096365e-10  -4.8116622e-02   4.9014628e-01   1.1594177e-02  -5.2022322e+07
   8.9363121e-10  -4.7978109e-02   4.8770903e-01   1.1661542e-02  -5.1829807e+07
   8.9629877e-10  -4.7840109e-02   4.8529184e-01   1.1729024e-02  -5.1638397e+07
   8.9896632e-10  -4.7702617e-02   4.8289448e-01   1.1796620e-02  -5.1448081e+07
   9.0163388e-10  -4.7565632e-02   4.8051675e-01   1.1864331e-02  -5.1258849e+07
   9.0430143e-10  -4.7429151e-02   4.7815844e-01   1.1932155e-02  -5.1070693e+07
   9.0696899e-10  -4.7293170e-02   4.7581935e-01   1.2000093e-02  -5.0883602e+07
   9.0963655e-10  -4.7157686e-02   4.7349926e-01   1.2068143e-02  -5.0697567e+07
   9.1230410e-10  -4.7022698e-02   4.7119798e-01   1.2136304e-02  -5.0512578e+07
   9.1497166e-10  -4.6888201e-02   4.6891532e-01   1.2204576e-02  -5.0328628e+07
   9.1763921e-10  -4.6754194e-02   4.6665107e-01   1.2272959e-02  -5.0145705e+07
   9.2030677e-10  -4.6620673e-02   4.6440504e-01   1.2341451e-02  -4.9963802e+07
   9.2297432e-10  -4.6487637e-02   4.6217705e-01   1.2410052e-02  -4.9782910e+07
   9.2564188e-10  -4.6355081e-02   4.5996691e-01   1.2478762e-02  -4.9603019e+07
   9.2830944e-10  -4.6223004e-02   4.5777443e-01   1.2547579e-02  -4.9424121e+07
   9.3097699e-10  -4.6091403e-02   4.5559942e-01   1.2616503e-02  -4.9246209e+07
   9.3364455e-10  -4.5960276e-02   4.5344171e-01   1.2685533e-02  -4.9069272e+07
   9.3631210e-10  -4.5829619e-02   4.5130112e-01   1.2754668e-02  -4.8893303e+07
   9.3897966e-10  -4.5699430e-02   4.4917748e-01   1.2823909e-02  -4.8718293e+07
   9.4164722e-10  -4.5569706e-02   4.4707060e-01   1.2893253e-02  -4.8544235e+07
   9.4431477e-10  -4.5440446e-02   4.4498031e-01   1.2962701e-02  -4.8371121e+07
   9.4698233e-10  -4.5311646e-02   4.4290645e-01   1.3032252e-02  -4.8198941e+07
   9.4964988e-10  -4.5183305e-02   4.4084886e-01   1.3101905e-02  -4.8027689e+07
   9.5231744e-10  -4.5055419e-02   4.3880735e-01   1.3171659e-02  -4.7857357e+07
   9.5498499e-10  -4.4927986e-02   4.3678178e-01   1.3241514e-02  -4.7687937e+07
   9.5765255e-10  -4.4801003e-02   4.3477197e-01   1.3311470e-02  -4.7519421e+07
   9.6032011e-10  -4.4674469e-02   4.3277777e-01   1.3381524e-02  -4.7351802e+07
   9.6298766e-10  -4.4548381e-02   4.3079903e-01   1.3451678e-02  -4.7185073e+07
   9.6565522e-10  -4.4422737e-02   4.2883558e-01   1.3521929e-02  -4.7019225e+07
   9.6832277e-10  -4.4297534e-02   4.2688727e-01   1.3592278e-02  -4.6854253e+07
   9.7099033e-10  -4.4172770e-02   4.2495395e-01   1.3662724e-02  -4.6690148e+07
   9.7365789e-10  -4.4048442e-02   4.2303548e-01   1.3733266e-02  -4.6526903e+07
   9.7632544e-10  -4.3924549e-02   4.2113169e-01   1.3803903e-02  -4.6364512e+07
   9.7899300e-10  -4.3801087e-02   4.1924246e-01   1.3874635e-02  -4.6202968e+07
   9.8166055e-10  -4.3678056e-02   4.1736763e-01   1.3945461e-02  -4.6042263e+07
   9.8432811e-10  -4.3555452e-02   4.1550705e-01   1.4016380e-02  -4.5882391e+07
   9.8699567e-10  -4.3433274e-02   4.1366060e-01   1.4087392e-02  -4.5723345e+07
   9.8966322e-10  -4.3311518e-02   4.1182812e-01   1.4158497e-02  -4.5565119e+07
   9.9233078e-10  -4.3190184e-02   4.1000949e-01   1.4229692e-02  -4.5407706e+07
   9.9499833e-10  -4.3069268e-02   4.0820456e-01   1.4300979e-02  -4.5251099e+07
   9.9766589e-10  -4.2948769e-02   4.0641320e-01   1.4372355e-02  -4.5095293e+07
   1.0003334e-09  -4.2828685e-02   4.0463528e-01   1.4443821e-02  -4.4940280e+07
   1.0030010e-09  -4.2709013e-02   4.0287067e-01   1.4515375e-02  -4.4786054e+07
   1.0056686e-09  -4.2589751e-02   4.0111924e-01   1.4587018e-02  -4.4632610e+07
   1.0083361e-09  -4.2470898e-02   3.9938086e-01   1.4658748e-02  -4.4479941e+07
   1.0110037e-09  -4.2352451e-02   3.9765540e-01   1.4730565e-02  -4.4328040e+07
   1.0136712e-09  -4.2234408e-02   3.9594274e-01   1.4802468e-02  -4.4176903e+07
   1.0163388e-09  -4.2116767e-02   3.9424276e-01   1.4874456e-02  -4.4026523e+07
   1.0190063e-09  -4.1999526e-02   3.9255533e-01   1.4946530e-02  -4.3876894e+07
   1.0216739e-09  -4.1882684e-02   3.9088033e-01   1.5018687e-02  -4.3728010e+07
   1.0243414e-09  -4.1766237e-02   3.8921765e-01   1.5090928e-02  -4.3579866e+07
   1.0270090e-09  -4.1650185e-02   3.8756716e-01   1.5163251e-02  -4.3432455e+07
   1.0296766e-09  -4.1534525e-02   3.8592875e-01   1.5235657e-02  -4.3285773e+07
   1.0323441e-09  -4.1419256e-02   3.8430231e-01   1.5308144e-02  -4.3139814e+07
   1.0350117e-09  -4.1304374e-02   3.8268772e-01   1.5380712e-02  -4.2994572e+07
   1.0376792e-09  -4.1189880e-02   3.8108487e-01   1.5453361e-02  -4.2850041e+07
   1.0403468e-09  -4.1075769e-02   3.7949364e-01   1.5526089e-02  -4.2706217e+07
   1.0430143e-09  -4.0962042e-02   3.7791393e-01   1.5598895e-02  -4.2563093e+07
   1.0456819e-09  -4.0848695e-02   3.7634563e-01   1.5671780e-02  -4.2420665e+07
   1.0483494e-09  -4.0735727e-02   3.7478863e-01   1.5744743e-02  -4.2278928e+07
   1.0510170e-09  -4.0623137e-02   3.7324283e-01   1.5817782e-02  -4.2137876e+07
   1.0536846e-09  -4.0510922e-02   3.7170812e-01   1.5890898e-02  -4.1997504e+07
   1.0563521e-09  -4.0399080e-02   3.7018440e-01   1.5964090e-02  -4.1857807e+07
   1.0590197e-09  -4.0287610e-02   3.6867156e-01   1.6037356e-02  -4.1718780e+07
   1.0616872e-09  -4.0176510e-02   3.6716951e-01   1.6110697e-02  -4.1580418e+07
   1.0643548e-09  -4.0065779e-02   3.6567814e-01   1.6184112e-02  -4.1442716e+07
   1.0670223e-09  -3.9955413e-02   3.6419735e-01   1.6257599e-02  -4.1305670e+07
   1.0696899e-09  -3.9845413e-02   3.6272706e-01   1.6331160e-02  -4.1169274e+07
   1.0723575e-09  -3.9735775e-02   3.6126715e-01   1.6404791e-02  -4.1033524e+07
   1.0750250e-09  -3.9626499e-02   3.5981754e-01   1.6478494e-02  -4.0898415e+07
   1.0776926e-09  -3.9517582e-02   3.5837813e-01   1.6552268e-02  -4.0763942e+07
   1.0803601e-09  -3.9409023e-02   3.5694883e-01   1.6626111e-02  -4.0630100e+07
   1.0830277e-09  -3.9300820e-02   3.5552954e-01   1.6700024e-02  -4.0496886e+07
   1.0856952e-09  -3.9192972e-02   3.5412017e-01   1.6774005e-02  -4.0364295e+07
   1.0883628e-09  -3.9085476e-02   3.5272064e-01   1.6848054e-02  -4.0232321e+07
   1.0910303e-09  -3.8978332e-02   3.5133085e-01   1.6922171e-02  -4.0100961e+07
   1.0936979e-09  -3.8871537e-02   3.4995071e-01   1.6996354e-02  -3.9970211e+07
   1.0963655e-09  -3.8765090e-02   3.4858015e-01   1.7070603e-02  -3.9840065e+07
   1.0990330e-09  -3.8658990e-02   3.4721906e-01   1.7144918e-02  -3.9710520e+07
   1.1017006e-09  -3.8553234e-02   3.4586738e-01   1.7219297e-02  -3.9581572e+07
   1.1043681e-09  -3.8447822e-02   3.4452500e-01   1.7293741e-02  -3.9453215e+07
   1.1070357e-09  -3.8342751e-02   3.4319185e-01   1.7368248e-02  -3.9325446e+07
   1.1097032e-09  -3.8238020e-02   3.4186785e-01   1.7442818e-02  -3.9198262e+07
   1.1123708e-09  -3.8133628e-02   3.4055291e-01   1.7517450e-02  -3.9071657e+07
   1.1150383e-09  -3.8029572e-02   3.3924696e-01   1.7592144e-02  -3.8945627e+07
   1.1177059e-09  -3.7925852e-02   3.3794990e-01   1.7666899e-02  -3.8820170e+07
   1.1203735e-09  -3.7822466e-02   3.3666168e-01   1.7741714e-02  -3.8695280e+07
   1.1230410e-09  -3.7719413e-02   3.3538219e-01   1.7816589e-02  -3.8570953e+07
   1.1257086e-09  -3.7616690e-02   3.3411138e-01   1.7891523e-02  -3.8447187e+07
   1.1283761e-09  -3.7514296e-02   3.3284916e-01   1.7966516e-02  -3.8323976e+07
   1.1310437e-09  -3.7412231e-02   3.3159545e-01   1.8041566e-02  -3.8201318e+07
   1.1337112e-09  -3.7310492e-02   3.3035019e-01   1.8116674e-02  -3.8079208e+07
   1.1363788e-09  -3.7209078e-02   3.2911330e-01   1.8191838e-02  -3.7957642e+07
   1.1390463e-09  -3.7107987e-02   3.2788469e-01   1.8267059e-02  -3.7836618e+07
   1.1417139e-09  -3.7007219e-02   3.2666431e-01   1.8342335e-02  -3.7716130e+07
   1.1443815e-09  -3.6906771e-02   3.2545209e-01   1.8417665e-02  -3.7596176e+07
   1.1470490e-09  -3.6806643e-02   3.2424794e-01   1.8493050e-02  -3.7476752e+07
   1.1497166e-09  -3.6706832e-02   3.2305180e-01   1.8568489e-02  -3.7357855e+07
   1.1523841e-09  -3.6607338e-02   3.2186360e-01   1.8643980e-02  -3.7239480e+07
   1.1550517e-09  -3.6508159e-02   3.2068327e-01   1.8719524e-02  -3.7121624e+07
   1.1577192e-09  -3.6409293e-02   3.1951074e-01   1.8795119e-02  -3.7004285e+07
   1.1603868e-09  -3.6310740e-02   3.1834595e-01   1.8870766e-02  -3.6887457e+07
   1.1630544e-09  -3.6212498e-02   3.1718883e-01   1.8946463e-02  -3.6771139e+07
   1.1657219e-09  -3.6114565e-02   3.1603932e-01   1.9022210e-02  -3.6655326e+07
   1.1683895e-09  -3.6016941e-02   3.1489734e-01   1.9098006e-02  -3.6540016e+07
   1.1710570e-09  -3.5919623e-02   3.1376284e-01   1.9173851e-02  -3.6425204e+07
   1.1737246e-09  -3.5822612e-02   3.1263575e-01   1.9249745e-02  -3.6310888e+07
   1.1763921e-09  -3.5725904e-02   3.1151600e-01   1.9325685e-02  -3.6197065e+07
   1.1790597e-09  -3.5629499e-02   3.1040354e-01   1.9401673e-02  -3.6083730e+07
   1.1817272e-09  -3.5533397e-02   3.0929831e-01   1.9477706e-02  -3.5970882e+07
   1.1843948e-09  -3.5437594e-02   3.0820024e-01   1.9553786e-02  -3.5858516e+07
   1.1870624e-09  -3.5342090e-02   3.0710927e-01   1.9629910e-02  -3.5746630e+07
   1.1897299e-09  -3.5246885e-02   3.0602534e-01   1.9706079e-02  -3.5635221e+07
   1.1923975e-09  -3.5151976e-02   3.0494839e-01   1.9782292e-02  -3.5524285e+07
   1.1950650e-09  -3.5057362e-02   3.0387837e-01   1.9858548e-02  -3.5413819e+07
   1.1977326e-09  -3.4963042e-02   3.0281522e-01   1.9934847e-02  -3.5303821e+07
   1.2004001e-09  -3.4869015e-02   3.0175887e-01   2.0011188e-02  -3.5194287e+07
   1.2030677e-09  -3.4775280e-02   3.0070928e-01   2.0087571e-02  -3.5085215e+07
   1.2057352e-09  -3.4681834e-02   2.9966638e-01   2.0163994e-02  -3.4976601e+07
   1.2084028e-09  -3.4588678e-02   2.9863013e-01   2.0240458e-02  -3.4868442e+07
   1.2110704e-09  -3.4495810e-02   2.9760046e-01   2.0316961e-02  -3.4760736e+07
   1.2137379e-09  -3.4403229e-02   2.9657732e-01   2.0393504e-02  -3.4653481e+07
   1.2164055e-09  -3.4310933e-02   2.9556065e-01   2.0470085e-02  -3.4546672e+07
   1.2190730e-09  -3.4218921e-02   2.9455041e-01   2.0546704e-02  -3.4440307e+07
   1.2217406e-09  -3.4127193e-02   2.9354655e-01   2.0623361e-02  -3.4334383e+07
   1.2244081e-09  -3.4035746e-02   2.9254899e-01   2.0700054e-02  -3.4228899e+07
   1.2270757e-09  -3.3944581e-02   2.9155771e-01   2.0776784e-02  -3.4123850e+07
   1.2297432e-09  -3.3853695e-02   2.9057264e-01   2.0853549e-02  -3.4019234e+07
   1.2324108e-09  -3.3763087e-02   2.8959374e-01   2.0930349e-02  -3.3915048e+07
   1.2350784e-09  -3.3672757e-02   2.8862095e-01   2.1007184e-02  -3.3811291e+07
   1.2377459e-09  -3.3582703e-02   2.8765423e-01   2.1084053e-02  -3.3707958e+07
   1.2404135e-09  -3.3492924e-02   2.8669352e-01   2.1160955e-02  -3.3605048e+07
   1.2430810e-09  -3.3403419e-02   2.8573877e-01   2.1237890e-02  -3.3502558e+07
   1.2457486e-09  -3.3314186e-02   2.8478995e-01   2.1314857e-02  -3.3400486e+07
   1.2484161e-09  -3.3225226e-02   2.8384700e-01   2.1391856e-02  -3.3298828e+07
   1.2510837e-09  -3.3136536e-02   2.8290987e-01   2.1468885e-02  -3.3197582e+07
   1.2537513e-09  -3.3048116e-02   2.8197852e-01   2.1545946e-02  -3.3096746e+07
   1.2564188e-09  -3.2959964e-02   2.8105289e-01   2.1623036e-02  -3.2996317e+07
   1.2590864e-09  -3.2872079e-02   2.8013296e-01   2.1700155e-02  -3.2896294e+07
   1.2617539e-09  -3.2784461e-02   2.7921866e-01   2.1777304e-02  -3.2796672e+07
   1.2644215e-09  -3.2697108e-02   2.7830995e-01   2.1854480e-02  -3.2697451e+07
   1.2670890e-09  -3.2610019e-02   2.7740680e-01   2.1931684e-02  -3.2598627e+07
   1.2697566e-09  -3.2523193e-02   2.7650915e-01   2.2008915e-02  -3.2500198e+07
   1.2724241e-09  -3.2436629e-02   2.7561696e-01   2.2086173e-02  -3.2402162e+07
   1.2750917e-09  -3.2350326e-02   2.7473019e-01   2.2163457e-02  -3.2304516e+07
   1.2777593e-09  -3.2264283e-02   2.7384879e-01   2.2240766e-02  -3.2207258e+07
   1.2804268e-09  -3.2178499e-02   2.7297273e-01   2.2318100e-02  -3.2110386e+07
   1.2830944e-09  -3.2092973e-02   2.7210196e-01   2.2395458e-02  -3.2013898e+07
   1.2857619e-09  -3.2007703e-02   2.7123644e-01   2.2472841e-02  -3.1917791e+07
   1.2884295e-09  -3.1922690e-02   2.7037613e-01   2.2550246e-02  -3.1822063e+07
   1.2910970e-09  -3.1837931e-02   2.6952098e-01   2.2627674e-02  -3.1726712e+07
   1.2937646e-09  -3.1753427e-02   2.6867096e-01   2.2705124e-02  -3.1631736e+07
   1.2964321e-09  -3.1669175e-02   2.6782603e-01   2.2782595e-02  -3.1537131e+07
   1.2990997e-09  -3.1585175e-02   2.6698615e-01   2.2860088e-02  -3.1442897e+07
   1.3017673e-09  -3.1501426e-02   2.6615128e-01   2.2937601e-02  -3.1349032e+07
   1.3044348e-09  -3.1417926e-02   2.6532137e-01   2.3015134e-02  -3.1255532e+07
   1.3071024e-09  -3.1334676e-02   2.6449640e-01   2.3092686e-02  -3.1162395e+07
   1.3097699e-09  -3.1251673e-02   2.6367632e-01   2.3170257e-02  -3.1069621e+07
   1.3124375e-09  -3.1168918e-02   2.6286110e-01   2.3247847e-02  -3.0977206e+07
   1.3151050e-09  -3.1086409e-02   2.6205069e-01   2.3325454e-02  -3.0885149e+07
   1.3177726e-09  -3.1004144e-02   2.6124506e-01   2.3403078e-02  -3.0793447e+07
   1.3204401e-09  -3.0922124e-02   2.6044418e-01   2.3480719e-02  -3.0702099e+07
   1.3231077e-09  -3.0840347e-02   2.5964801e-01   2.3558376e-02  -3.0611102e+07
   1.3257753e-09  -3.0758813e-02   2.5885650e-01   2.3636049e-02  -3.0520455e+07
   1.3284428e-09  -3.0677519e-02   2.5806964e-01   2.3713737e-02  -3.0430155e+07
   1.3311104e-09  -3.0596466e-02   2.5728737e-01   2.3791439e-02  -3.0340201e+07
   1.3337779e-09  -3.0515653e-02   2.5650967e-01   2.3869155e-02  -3.0250590e+07
   1.3364455e-09  -3.0435078e-02   2.5573650e-01   2.3946885e-02  -3.0161321e+07
   1.3391130e-09  -3.0354741e-02   2.5496783e-01   2.4024628e-02  -3.0072392e+07
   1.3417806e-09  -3.0274640e-02   2.5420362e-01   2.4102383e-02  -2.9983800e+07
   1.3444481e-09  -3.0194776e-02   2.5344384e-01   2.4180150e-02  -2.9895545e+07
   1.3471157e-09  -3.0115146e-02   2.5268846e-01   2.4257929e-02  -2.9807623e+07
   1.3497833e-09  -3.0035750e-02   2.5193744e-01   2.4335718e-02  -2.9720034e+07
   1.3524508e-09  -2.9956588e-02   2.5119075e-01   2.4413518e-02  -2.9632775e+07
   1.3551184e-09  -2.9877658e-02   2.5044836e-01   2.4491327e-02  -2.9545844e+07
   1.3577859e-09  -2.9798960e-02   2.4971023e-01   2.4569146e-02  -2.9459240e+07
   1.3604535e-09  -2.9720492e-02   2.4897634e-01   2.4646973e-02  -2.9372961e+07
   1.3631210e-09  -2.9642253e-02   2.4824664e-01   2.4724809e-02  -2.9287006e+07
   1.3657886e-09  -2.9564244e-02   2.4752112e-01   2.4802653e-02  -2.9201371e+07
   1.3684562e-09  -2.9486462e-02   2.4679974e-01   2.4880504e-02  -2.9116056e+07
   1.3711237e-09  -2.9408908e-02   2.4608247e-01   2.4958361e-02  -2.9031059e+07
   1.3737913e-09  -2.9331580e-02   2.4536928e-01   2.5036225e-02  -2.8946378e+07
   1.3764588e-09  -2.9254478e-02   2.4466013e-01   2.5114095e-02  -2.8862012e+07
   1.3791264e-09  -2.9177600e-02   2.4395501e-01   2.5191969e-02  -2.8777958e+07
   1.3817939e-09  -2.9100946e-02   2.4325387e-01   2.5269849e-02  -2.8694215e+07
   1.3844615e-09  -2.9024515e-02   2.4255669e-01   2.5347732e-02  -2.8610781e+07
   1.3871290e-09  -2.8948306e-02   2.4186345e-01   2.5425620e-02  -2.8527655e+07
   1.3897966e-09  -2.8872318e-02   2.4117410e-01   2.5503510e-02  -2.8444835e+07
   1.3924642e-09  -2.8796551e-02   2.4048863e-01   2.5581403e-02  -2.8362320e+07
   1.3951317e-09  -2.8721003e-02   2.3980701e-01   2.5659299e-02  -2.8280107e+07
   1.3977993e-09  -2.8645675e-02   2.3912920e-01   2.5737196e-02  -2.8198195e+07
   1.4004668e-09  -2.8570564e-02   2.3845518e-01   2.5815094e-02  -2.8116583e+07
   1.4031344e-09  -2.8495671e-02   2.3778493e-01   2.5892993e-02  -2.8035268e+07
   1.4058019e-09  -2.8420995e-02   2.3711840e-01   2.5970892e-02  -2.7954250e+07
   1.4084695e-09  -2.8346534e-02   2.3645559e-01   2.6048792e-02  -2.7873527e+07
   1.4111370e-09  -2.8272288e-02   2.3579646e-01   2.6126690e-02  -2.7793097e+07
   1.4138046e-09  -2.8198256e-02   2.3514098e-01   2.6204587e-02  -2.7712959e+07
   1.4164722e-09  -2.8124437e-02   2.3448913e-01   2.6282482e-02  -2.7633111e+07
   1.4191397e-09  -2.8050832e-02   2.3384088e-01   2.6360375e-02  -2.7553551e+07
   1.4218073e-09  -2.7977438e-02   2.3319621e-01   2.6438266e-02  -2.7474279e+07
   1.4244748e-09  -2.7904255e-02   2.3255509e-01   2.6516153e-02  -2.7395292e+07
   1.4271424e-09  -2.7831282e-02   2.3191749e-01   2.6594036e-02  -2.7316590e+07
   1.4298099e-09  -2.7758519e-02   2.3128339e-01   2.6671916e-02  -2.7238170e+07
   1.4324775e-09  -2.7685965e-02   2.3065277e-01   2.6749791e-02  -2.7160031e+07
   1.4351450e-09  -2.7613619e-02   2.3002560e-01   2.6827661e-02  -2.7082172e+07
   1.4378126e-09  -2.7541480e-02   2.2940186e-01   2.6905525e-02  -2.7004591e+07
   1.4404802e-09  -2.7469547e-02   2.2878152e-01   2.6983383e-02  -2.6927287e+07
   1.4431477e-09  -2.7397821e-02   2.2816455e-01   2.7061235e-02  -2.6850259e+07
   1.4458153e-09  -2.7326300e-02   2.2755094e-01   2.7139079e-02  -2.6773505e+07
   1.4484828e-09  -2.7254983e-02   2.2694066e-01   2.7216917e-02  -2.6697023e+07
   1.4511504e-09  -2.7183869e-02   2.2633369e-01   2.7294746e-02  -2.6620813e+07
   1.4538179e-09  -2.7112959e-02   2.2573000e-01   2.7372567e-02  -2.6544872e+07
   1.4564855e-09  -2.7042251e-02   2.2512957e-01   2.7450379e-02  -2.6469200e+07
   1.4591531e-09  -2.6971744e-02   2.2453237e-01   2.7528182e-02  -2.6393795e+07
   1.4618206e-09  -2.6901438e-02   2.2393840e-01   2.7605975e-02  -2.6318656e+07
   1.4644882e-09  -2.6831332e-02   2.2334761e-01   2.7683758e-02  -2.6243782e+07
   1.4671557e-09  -2.6761426e-02   2.2276000e-01   2.7761530e-02  -2.6169171e+07
   1.4698233e-09  -2.6691718e-02   2.2217553e-01   2.7839292e-02  -2.6094821e+07
   1.4724908e-09  -2.6622208e-02   2.2159419e-01   2.7917041e-02  -2.6020732e+07
   1.4751584e-09  -2.6552896e-02   2.2101596e-01   2.7994779e-02  -2.5946902e+07
   1.4778259e-09  -2.6483780e-02   2.2044080e-01   2.8072504e-02  -2.5873330e+07
   1.4804935e-09  -2.6414860e-02   2.1986871e-01   2.8150216e-02  -2.5800015e+07
   1.4831611e-09  -2.6346135e-02   2.1929967e-01   2.8227914e-02  -2.5726955e+07
   1.4858286e-09  -2.6277605e-02   2.1873364e-01   2.8305599e-02  -2.5654149e+07
   1.4884962e-09  -2.6209268e-02   2.1817061e-01   2.8383270e-02  -2.5581596e+07
   1.4911637e-09  -2.6141125e-02   2.1761056e-01   2.8460926e-02  -2.5509295e+07
   1.4938313e-09  -2.6073175e-02   2.1705346e-01   2.8538567e-02  -2.5437244e+07
   1.4964988e-09  -2.6005416e-02   2.1649931e-01   2.8616192e-02  -2.5365442e+07
   1.4991664e-09  -2.5937848e-02   2.1594807e-01   2.8693801e-02  -2.5293888e+07
   1.5018339e-09  -2.5870471e-02   2.1539973e-01   2.8771393e-02  -2.5222580e+07
   1.5045015e-09  -2.5803284e-02   2.1485427e-01   2.8848969e-02  -2.5151518e+07
   1.5071691e-09  -2.5736286e-02   2.1431167e-01   2.8926527e-02  -2.5080701e+07
   1.5098366e-09  -2.5669477e-02   2.1377191e-01   2.9004068e-02  -2.5010127e+07
   1.5125042e-09  -2.5602855e-02   2.1323497e-01   2.9081590e-02  -2.4939794e+07
   1.5151717e-09  -2.5536421e-02   2.1270083e-01   2.9159094e-02  -2.4869702e+07
   1.5178393e-09  -2.5470174e-02   2.1216947e-01   2.9236578e-02  -2.4799850e+07
   1.5205068e-09  -2.5404112e-02   2.1164087e-01   2.9314043e-02  -2.4730237e+07
   1.5231744e-09  -2.5338236e-02   2.1111502e-01   2.9391489e-02  -2.4660860e+07
   1.5258419e-09  -2.5272545e-02   2.1059190e-01   2.9468913e-02  -2.4591720e+07
   1.5285095e-09  -2.5207038e-02   2.1007148e-01   2.9546317e-02  -2.4522815e+07
   1.5311771e-09  -2.5141714e-02   2.0955376e-01   2.9623700e-02  -2.4454144e+07
   1.5338446e-09  -2.5076573e-02   2.0903870e-01   2.9701061e-02  -2.4385706e+07
   1.5365122e-09  -2.5011614e-02   2.0852630e-01   2.9778401e-02  -2.4317499e+07
   1.5391797e-09  -2.4946837e-02   2.0801654e-01   2.9855717e-02  -2.4249523e+07
   1.5418473e-09  -2.4882241e-02   2.0750940e-01   2.9933011e-02  -2.4181777e+07
   1.5445148e-09  -2.4817826e-02   2.0700486e-01   3.0010282e-02  -2.4114258e+07
   1.5471824e-09  -2.4753590e-02   2.0650290e-01   3.0087529e-02  -2.4046968e+07
   1.5498499e-09  -2.4689533e-02   2.0600351e-01   3.0164752e-02  -2.3979903e+07
   1.5525175e-09  -2.4625655e-02   2.0550667e-01   3.0241950e-02  -2.3913064e+07
   1.5551851e-09  -2.4561956e-02   2.0501236e-01   3.0319123e-02  -2.3846449e+07
   1.5578526e-09  -2.4498433e-02   2.0452057e-01   3.0396271e-02  -2.3780057e+07
   1.5605202e-09  -2.4435087e-02   2.0403128e-01   3.0473394e-02  -2.3713887e+07
   1.5631877e-09  -2.4371918e-02   2.0354447e-01   3.0550490e-02  -2.3647938e+07
   1.5658553e-09  -2.4308924e-02   2.0306013e-01   3.0627559e-02  -2.3582209e+07
   1.5685228e-09  -2.4246105e-02   2.0257824e-01   3.0704602e-02  -2.3516700e+07
   1.5711904e-09  -2.4183460e-02   2.0209879e-01   3.0781618e-02  -2.3451408e+07
   1.5738580e-09  -2.4120990e-02   2.0162176e-01   3.0858605e-02  -2.3386333e+07
   1.5765255e-09  -2.4058692e-02   2.0114713e-01   3.0935565e-02  -2.3321474e+07
   1.5791931e-09  -2.3996568e-02   2.0067489e-01   3.1012496e-02  -2.3256830e+07
   1.5818606e-09  -2.3934615e-02   2.0020502e-01   3.1089398e-02  -2.3192400e+07
   1.5845282e-09  -2.3872835e-02   1.9973751e-01   3.1166271e-02  -2.3128183e+07
   1.5871957e-09  -2.3811225e-02   1.9927234e-01   3.1243114e-02  -2.3064179e+07
   1.5898633e-09  -2.3749785e-02   1.9880950e-01   3.1319927e-02  -2.3000385e+07
   1.5925308e-09  -2.3688516e-02   1.9834896e-01   3.1396710e-02  -2.2936801e+07
   1.5951984e-09  -2.3627416e-02   1.9789073e-01   3.1473462e-02  -2.2873427e+07
   1.5978660e-09  -2.3566485e-02   1.9743478e-01   3.1550182e-02  -2.2810261e+07
   1.6005335e-09  -2.3505721e-02   1.9698109e-01   3.1626871e-02  -2.2747302e+07
   1.6032011e-09  -2.3445126e-02   1.9652966e-01   3.1703528e-02  -2.2684549e+07
   1.6058686e-09  -2.3384698e-02   1.9608047e-01   3.1780153e-02  -2.2622002e+07
   1.6085362e-09  -2.3324436e-02   1.9563350e-01   3.1856745e-02  -2.2559659e+07
   1.6112037e-09  -2.3264340e-02   1.9518874e-01   3.1933304e-02  -2.2497520e+07
   1.6138713e-09  -2.3204410e-02   1.9474617e-01   3.2009829e-02  -2.2435584e+07
   1.6165388e-09  -2.3144644e-02   1.9430579e-01   3.2086321e-02  -2.2373849e+07
   1.6192064e-09  -2.3085043e-02   1.9386758e-01   3.2162778e-02  -2.2312315e+07
   1.6218740e-09  -2.3025606e-02   1.9343152e-01   3.2239201e-02  -2.2250981e+07
   1.6245415e-09  -2.2966333e-02   1.9299760e-01   3.2315588e-02  -2.2189847e+07
   1.6272091e-09  -2.2907222e-02   1.9256581e-01   3.2391941e-02  -2.2128910e+07
   1.6298766e-09  -2.2848273e-02   1.9213613e-01   3.2468257e-02  -2.2068171e+07
   1.6325442e-09  -2.2789486e-02   1.9170855e-01   3.2544538e-02  -2.2007628e+07
   1.6352117e-09  -2.2730861e-02   1.9128306e-01   3.2620782e-02  -2.1947280e+07
   1.6378793e-09  -2.2672396e-02   1.9085964e-01   3.2696990e-02  -2.1887128e+07
   1.6405468e-09  -2.2614091e-02   1.9043829e-01   3.2773160e-02  -2.1827169e+07
   1.6432144e-09  -2.2555946e-02   1.9001898e-01   3.2849293e-02  -2.1767404e+07
   1.6458820e-09  -2.2497960e-02   1.8960171e-01   3.2925388e-02  -2.1707830e+07
   1.6485495e-09  -2.2440133e-02   1.8918646e-01   3.3001445e-02  -2.1648448e+07
   1.6512171e-09  -2.2382464e-02   1.8877322e-01   3.3077463e-02  -2.1589256e+07
   1.6538846e-09  -2.2324953e-02   1.8836198e-01   3.3153442e-02  -2.1530254e+07
   1.6565522e-09  -2.2267598e-02   1.8795272e-01   3.3229382e-02  -2.1471441e+07
   1.6592197e-09  -2.2210401e-02   1.8754543e-01   3.3305283e-02  -2.1412816e+07
   1.6618873e-09  -2.2153359e-02   1.8714011e-01   3.3381143e-02  -2.1354378e+07
   1.6645549e-09  -2.2096473e-02   1.8673673e-01   3.3456964e-02  -2.1296126e+07
   1.6672224e-09  -2.2039743e-02   1.8633529e-01   3.3532743e-02  -2.1238060e+07
   1.6698900e-09  -2.1983167e-02   1.8593577e-01   3.3608482e-02  -2.1180179e+07
   1.6725575e-09  -2.1926745e-02   1.8553817e-01   3.3684179e-02  -2.1122482e+07
   1.6752251e-09  -2.1870476e-02   1.8514247e-01   3.3759835e-02  -2.1064968e+07
   1.6778926e-09  -2.1814361e-02   1.8474865e-01   3.3835449e-02  -2.1007636e+07
   1.6805602e-09  -2.1758399e-02   1.8435672e-01   3.3911020e-02  -2.0950487e+07
   1.6832277e-09  -2.1702589e-02   1.8396665e-01   3.3986549e-02  -2.0893518e+07
   1.6858953e-09  -2.1646930e-02   1.8357843e-01   3.4062035e-02  -2.0836729e+07
   1.6885629e-09  -2.1591423e-02   1.8319206e-01   3.4137478e-02  -2.0780119e+07
   1.6912304e-09  -2.1536067e-02   1.8280752e-01   3.4212877e-02  -2.0723688e+07
   1.6938980e-09  -2.1480860e-02   1.8242480e-01   3.4288231e-02  -2.0667435e+07
   1.6965655e-09  -2.1425804e-02   1.8204389e-01   3.4363542e-02  -2.0611359e+07
   1.6992331e-09  -2.1370897e-02   1.8166477e-01   3.4438808e-02  -2.0555460e+07
   1.7019006e-09  -2.1316139e-02   1.8128745e-01   3.4514029e-02  -2.0499736e+07
   1.7045682e-09  -2.1261529e-02   1.8091190e-01   3.4589205e-02  -2.0444187e+07
   1.7072357e-09  -2.1207067e-02   1.8053812e-01   3.4664335e-02  -2.0388812e+07
   1.7099033e-09  -2.1152753e-02   1.8016609e-01   3.4739420e-02  -2.0333610e+07
   1.7125709e-09  -2.1098586e-02   1.7979581e-01   3.4814458e-02  -2.0278581e+07
   1.7152384e-09  -2.1044565e-02   1.7942727e-01   3.4889449e-02  -2.0223724e+07
   1.7179060e-09  -2.0990691e-02   1.7906045e-01   3.4964394e-02  -2.0169039e+07
   1.7205735e-09  -2.0936962e-02   1.7869534e-01   3.5039292e-02  -2.0114523e+07
   1.7232411e-09  -2.0883378e-02   1.7833193e-01   3.5114142e-02  -2.0060178e+07
   1.7259086e-09  -2.0829939e-02   1.7797022e-01   3.5188944e-02  -2.0006002e+07
   1.7285762e-09  -2.0776644e-02   1.7761019e-01   3.5263699e-02  -1.9951994e+07
   1.7312437e-09  -2.0723493e-02   1.7725184e-01   3.5338405e-02  -1.9898154e+07
   1.7339113e-09  -2.0670486e-02   1.7689514e-01   3.5413062e-02  -1.9844481e+07
   1.7365789e-09  -2.0617621e-02   1.7654010e-01   3.5487670e-02  -1.9790974e+07
   1.7392464e-09  -2.0564899e-02   1.7618671e-01   3.5562229e-02  -1.9737633e+07
   1.7419140e-09  -2.0512319e-02   1.7583495e-01   3.5636738e-02  -1.9684457e+07
   1.7445815e-09  -2.0459881e-02   1.7548481e-01   3.5711198e-02  -1.9631446e+07
   1.7472491e-09  -2.0407584e-02   1.7513629e-01   3.5785607e-02  -1.9578598e+07
   1.7499166e-09  -2.0355427e-02   1.7478937e-01   3.5859966e-02  -1.9525913e+07
   1.7525842e-09  -2.0303411e-02   1.7444404e-01   3.5934274e-02  -1.9473390e+07
   1.7552518e-09  -2.0251535e-02   1.7410031e-01   3.6008531e-02  -1.9421029e+07
   1.7579193e-09  -2.0199798e-02   1.7375814e-01   3.6082737e-02  -1.9368829e+07
   1.7605869e-09  -2.0148201e-02   1.7341755e-01   3.6156890e-02  -1.9316789e+07
   1.7632544e-09  -2.0096742e-02   1.7307852e-01   3.6230992e-02  -1.9264909e+07
   1.7659220e-09  -2.0045421e-02   1.7274103e-01   3.6305042e-02  -1.9213188e+07
   1.7685895e-09  -1.9994238e-02   1.7240508e-01   3.6379039e-02  -1.9161626e+07
   1.7712571e-09  -1.9943192e-02   1.7207067e-01   3.6452984e-02  -1.9110221e+07
   1.7739246e-09  -1.9892283e-02   1.7173778e-01   3.6526875e-02  -1.9058974e+07
   1.7765922e-09  -1.9841510e-02   1.7140640e-01   3.6600713e-02  -1.9007883e+07
   1.7792598e-09  -1.9790874e-02   1.7107652e-01   3.6674498e-02  -1.8956948e+07
   1.7819273e-09  -1.9740373e-02   1.7074814e-01   3.6748228e-02  -1.8906168e+07
   1.7845949e-09  -1.9690008e-02   1.7042125e-01   3.6821904e-02  -1.8855543e+07
   1.7872624e-09  -1.9639777e-02   1.7009584e-01   3.6895526e-02  -1.8805072e+07
   1.7899300e-09  -1.9589681e-02   1.6977189e-01   3.6969093e-02  -1.8754755e+07
   1.7925975e-09  -1.9539719e-02   1.6944941e-01   3.7042605e-02  -1.8704590e+07
   1.7952651e-09  -1.9489891e-02   1.6912838e-01   3.7116062e-02  -1.8654578e+07
   1.7979326e-09  -1.9440195e-02   1.6880880e-01   3.7189463e-02  -1.8604717e+07
   1.8006002e-09  -1.9390633e-02   1.6849065e-01   3.7262809e-02  -1.8555007e+07
   1.8032678e-09  -1.9341203e-02   1.6817393e-01   3.7336098e-02  -1.8505448e+07
   1.8059353e-09  -1.9291904e-02   1.6785863e-01   3.7409331e-02  -1.8456038e+07
   1.8086029e-09  -1.9242738e-02   1.6754474e-01   3.7482508e-02  -1.8406778e+07
   1.8112704e-09  -1.9193703e-02   1.6723225e-01   3.7555627e-02  -1.8357667e+07
   1.8139380e-09  -1.9144798e-02   1.6692116e-01   3.7628689e-02  -1.8308703e+07
   1.8166055e-09  -1.9096024e-02   1.6661146e-01   3.7701694e-02  -1.8259887e+07
   1.8192731e-09  -1.9047380e-02   1.6630314e-01   3.7774642e-02  -1.8211218e+07
   1.8219406e-09  -1.8998865e-02   1.6599619e-01   3.7847531e-02  -1.8162696e+07
   1.8246082e-09  -1.8950480e-02   1.6569060e-01   3.7920362e-02  -1.8114319e+07
   1.8272758e-09  -1.8902224e-02   1.6538637e-01   3.7993135e-02  -1.8066087e+07
   1.8299433e-09  -1.8854096e-02   1.6508349e-01   3.8065850e-02  -1.8018001e+07
   1.8326109e-09  -1.8806096e-02   1.6478195e-01   3.8138505e-02  -1.7970058e+07
   1.8352784e-09  -1.8758224e-02   1.6448175e-01   3.8211101e-02  -1.7922259e+07
   1.8379460e-09  -1.8710479e-02   1.6418287e-01   3.8283638e-02  -1.7874603e+07
   1.8406135e-09  -1.8662861e-02   1.6388531e-01   3.8356115e-02  -1.7827089e+07
   1.8432811e-09  -1.8615370e-02   1.6358906e-01   3.8428532e-02  -1.7779717e+07
   1.8459486e-09  -1.8568005e-02   1.6329411e-01   3.8500889e-02  -1.7732487e+07
   1.8486162e-09  -1.8520766e-02   1.6300046e-01   3.8573186e-02  -1.7685398e+07
   1.8512838e-09  -1.8473652e-02   1.6270810e-01   3.8645422e-02  -1.7638448e+07
   1.8539513e-09  -1.8426663e-02   1.6241703e-01   3.8717597e-02  -1.7591639e+07
   1.8566189e-09  -1.8379799e-02   1.6212722e-01   3.8789711e-02  -1.7544969e+07
   1.8592864e-09  -1.8333059e-02   1.6183869e-01   3.8861764e-02  -1.7498437e+07
   1.8619540e-09  -1.8286443e-02   1.6155141e-01   3.8933755e-02  -1.7452044e+07
   1.8646215e-09  -1.8239951e-02   1.6126539e-01   3.9005684e-02  -1.7405788e+07
   1.8672891e-09  -1.8193581e-02   1.6098062e-01   3.9077551e-02  -1.7359670e+07
   1.8699567e-09  -1.8147335e-02   1.6069708e-01   3.9149357e-02  -1.7313688e+07
   1.8726242e-09  -1.8101211e-02   1.6041478e-01   3.9221099e-02  -1.7267842e+07
   1.8752918e-09  -1.8055210e-02   1.6013371e-01   3.9292779e-02  -1.7222132e+07
   1.8779593e-09  -1.8009330e-02   1.5985385e-01   3.9364396e-02  -1.7176557e+07
   1.8806269e-09  -1.7963571e-02   1.5957521e-01   3.9435950e-02  -1.7131116e+07
   1.8832944e-09  -1.7917933e-02   1.5929777e-01   3.9507440e-02  -1.7085810e+07
   1.8859620e-09  -1.7872417e-02   1.5902153e-01   3.9578867e-02  -1.7040637e+07
   1.8886295e-09  -1.7827020e-02   1.5874649e-01   3.9650230e-02  -1.6995597e+07
   1.8912971e-09  -1.7781743e-02   1.5847263e-01   3.9721529e-02  -1.6950690e+07
   1.8939647e-09  -1.7736587e-02   1.5819995e-01   3.9792763e-02  -1.6905915e+07
   1.8966322e-09  -1.7691549e-02   1.5792845e-01   3.9863933e-02  -1.6861271e+07
   1.8992998e-09  -1.7646630e-02   1.5765811e-01   3.9935039e-02  -1.6816759e+07
   1.9019673e-09  -1.7601830e-02   1.5738893e-01   4.0006079e-02  -1.6772377e+07
   1.9046349e-09  -1.7557148e-02   1.5712090e-01   4.0077055e-02  -1.6728125e+07
   1.9073024e-09  -1.7512584e-02   1.5685403e-01   4.0147965e-02  -1.6684003e+07
   1.9099700e-09  -1.7468137e-02   1.5658829e-01   4.0218809e-02  -1.6640010e+07
   1.9126375e-09  -1.7423808e-02   1.5632369e-01   4.0289588e-02  -1.6596146e+07
   1.9153051e-09  -1.7379595e-02   1.5606022e-01   4.0360301e-02  -1.6552410e+07
   1.9179727e-09  -1.7335499e-02   1.5579788e-01   4.0430947e-02  -1.6508802e+07
   1.9206402e-09  -1.7291519e-02   1.5553665e-01   4.0501527e-02  -1.6465321e+07
   1.9233078e-09  -1.7247655e-02   1.5527653e-01   4.0572041e-02  -1.6421967e+07
   1.9259753e-09  -1.7203906e-02   1.5501752e-01   4.0642488e-02  -1.6378739e+07
   1.9286429e-09  -1.7160273e-02   1.5475960e-01   4.0712868e-02  -1.6335637e+07
   1.9313104e-09  -1.7116754e-02   1.5450278e-01   4.0783180e-02  -1.6292660e+07
   1.9339780e-09  -1.7073350e-02   1.5424705e-01   4.0853426e-02  -1.6249809e+07
   1.9366455e-09  -1.7030060e-02   1.5399239e-01   4.0923604e-02  -1.6207082e+07
   1.9393131e-09  -1.6986883e-02   1.5373882e-01   4.0993714e-02  -1.6164479e+07
   1.9419807e-09  -1.6943821e-02   1.5348631e-01   4.1063756e-02  -1.6122000e+07
   1.9446482e-09  -1.6900871e-02   1.5323487e-01   4.1133730e-02  -1.6079644e+07
   1.9473158e-09  -1.6858034e-02   1.5298449e-01   4.1203635e-02  -1.6037410e+07
   1.9499833e-09  -1.6815310e-02   1.5273515e-01   4.1273472e-02  -1.5995299e+07
   1.9526509e-09  -1.6772698e-02   1.5248687e-01   4.1343241e-02  -1.5953310e+07
   1.9553184e-09  -1.6730197e-02   1.5223963e-01   4.1412940e-02  -1.5911442e+07
   1.9579860e-09  -1.6687809e-02   1.5199342e-01   4.1482570e-02  -1.5869696e+07
   1.9606536e-09  -1.6645531e-02   1.5174825e-01   4.1552132e-02  -1.5828069e+07
   1.9633211e-09  -1.6603364e-02   1.5150410e-01   4.1621623e-02  -1.5786563e+07
   1.9659887e-09  -1.6561308e-02   1.5126097e-01   4.1691045e-02  -1.5745176e+07
   1.9686562e-09  -1.6519362e-02   1.5101885e-01   4.1760397e-02  -1.5703909e+07
   1.9713238e-09  -1.6477526e-02   1.5077775e-01   4.1829680e-02  -1.5662761e+07
   1.9739913e-09  -1.6435800e-02   1.5053765e-01   4.1898892e-02  -1.5621731e+07
   1.9766589e-09  -1.6394183e-02   1.5029854e-01   4.1968033e-02  -1.5580819e+07
   1.9793264e-09  -1.6352675e-02   1.5006043e-01   4.2037104e-02  -1.5540024e+07
   1.9819940e-09  -1.6311275e-02   1.4982331e-01   4.2106105e-02  -1.5499347e+07
   1.9846616e-09  -1.6269984e-02   1.4958717e-01   4.2175035e-02  -1.5458786e+07
   1.9873291e-09  -1.6228801e-02   1.4935201e-01   4.2243893e-02  -1.5418342e+07
   1.9899967e-09  -1.6187726e-02   1.4911782e-01   4.2312680e-02  -1.5378013e+07
   1.9926642e-09  -1.6146758e-02   1.4888460e-01   4.2381396e-02  -1.5337800e+07
   1.9953318e-09  -1.6105897e-02   1.4865234e-01   4.2450041e-02  -1.5297702e+07
   1.9979993e-09  -1.6065143e-02   1.4842103e-01   4.2518614e-02  -1.5257719e+07
   2.0006669e-09  -1.6024496e-02   1.4819068e-01   4.2587114e-02  -1.5217850e+07
   2.0033344e-09  -1.5983954e-02   1.4796128e-01   4.2655543e-02  -1.5178095e+07
   2.0060020e-09  -1.5943519e-02   1.4773282e-01   4.2723900e-02  -1.5138454e+07
   2.0086696e-09  -1.5903189e-02   1.4750530e-01   4.2792184e-02  -1.5098925e+07
   2.0113371e-09  -1.5862965e-02   1.4727871e-01   4.2860396e-02  -1.5059510e+07
   2.0140047e-09  -1.5822845e-02   1.4705305e-01   4.2928535e-02  -1.5020206e+07
   2.0166722e-09  -1.5782831e-02   1.4682832e-01   4.2996601e-02  -1.4981015e+07
   2.0193398e-09  -1.5742920e-02   1.4660450e-01   4.3064594e-02  -1.4941935e+07
   2.0220073e-09  -1.5703114e-02   1.4638159e-01   4.3132514e-02  -1.4902966e+07
   2.0246749e-09  -1.5663411e-02   1.4615960e-01   4.3200361e-02  -1.4864107e+07
   2.0273424e-09  -1.5623812e-02   1.4593851e-01   4.3268135e-02  -1.4825360e+07
   2.0300100e-09  -1.5584317e-02   1.4571831e-01   4.3335834e-02  -1.4786722e+07
   2.0326776e-09  -1.5544924e-02   1.4549902e-01   4.3403460e-02  -1.4748193e+07
   2.0353451e-09  -1.5505633e-02   1.4528061e-01   4.3471012e-02  -1.4709774e+07
   2.0380127e-09  -1.5466446e-02   1.4506309e-01   4.3538490e-02  -1.4671464e+07
   2.0406802e-09  -1.5427360e-02   1.4484645e-01   4.3605894e-02  -1.4633262e+07
   2.0433478e-09  -1.5388376e-02   1.4463069e-01   4.3673224e-02  -1.4595169e+07
   2.0460153e-09  -1.5349493e-02   1.4441580e-01   4.3740479e-02  -1.4557183e+07
   2.0486829e-09  -1.5310712e-02   1.4420178e-01   4.3807659e-02  -1.4519304e+07
   2.0513505e-09  -1.5272031e-02   1.4398863e-01   4.3874765e-02  -1.4481533e+07
   2.0540180e-09  -1.5233451e-02   1.4377633e-01   4.3941795e-02  -1.4443868e+07
   2.0566856e-09  -1.5194972e-02   1.4356489e-01   4.4008751e-02  -1.4406309e+07
   2.0593531e-09  -1.5156592e-02   1.4335430e-01   4.4075632e-02  -1.4368856e+07
   2.0620207e-09  -1.5118312e-02   1.4314455e-01   4.4142437e-02  -1.4331509e+07
   2.0646882e-09  -1.5080132e-02   1.4293565e-01   4.4209166e-02  -1.4294267e+07
   2.0673558e-09  -1.5042051e-02   1.4272758e-01   4.4275821e-02  -1.4257129e+07
   2.0700233e-09  -1.5004069e-02   1.4252035e-01   4.4342399e-02  -1.4220096e+07
   2.0726909e-09  -1.4966185e-02   1.4231395e-01   4.4408902e-02  -1.4183168e+07
   2.0753585e-09  -1.4928400e-02   1.4210837e-01   4.4475328e-02  -1.4146343e+07
   2.0780260e-09  -1.4890713e-02   1.4190361e-01   4.4541679e-02  -1.4109621e+07
   2.0806936e-09  -1.4853124e-02   1.4169967e-01   4.4607953e-02  -1.4073002e+07
   2.0833611e-09  -1.4815632e-02   1.4149655e-01   4.4674151e-02  -1.4036486e+07
   2.0860287e-09  -1.4778238e-02   1.4129423e-01   4.4740272e-02  -1.4000073e+07
   2.0886962e-09  -1.4740940e-02   1.4109272e-01   4.4806317e-02  -1.3963761e+07
   2.0913638e-09  -1.4703740e-02   1.4089200e-01   4.4872285e-02  -1.3927551e+07
   2.0940313e-09  -1.4666636e-02   1.4069209e-01   4.4938176e-02  -1.3891443e+07
   2.0966989e-09  -1.4629628e-02   1.4049297e-01   4.5003990e-02  -1.3855435e+07
   2.0993665e-09  -1.4592715e-02   1.4029463e-01   4.5069727e-02  -1.3819528e+07
   2.1020340e-09  -1.4555899e-02   1.4009709e-01   4.5135387e-02  -1.3783722e+07
   2.1047016e-09  -1.4519178e-02   1.3990032e-01   4.5200969e-02  -1.3748015e+07
   2.1073691e-09  -1.4482552e-02   1.3970433e-01   4.5266474e-02  -1.3712408e+07
   2.1100367e-09  -1.4446021e-02   1.3950911e-01   4.5331902e-02  -1.3676901e+07
   2.1127042e-09  -1.4409584e-02   1.3931466e-01   4.5397251e-02  -1.3641492e+07
   2.1153718e-09  -1.4373242e-02   1.3912098e-01   4.5462523e-02  -1.3606182e+07
   2.1180393e-09  -1.4336994e-02   1.3892806e-01   4.5527717e-02  -1.3570970e+07
   2.1207069e-09  -1.4300839e-02   1.3873590e-01   4.5592833e-02  -1.3535856e+07
   2.1233745e-09  -1.4264779e-02   1.3854450e-01   4.5657871e-02  -1.3500840e+07
   2.1260420e-09  -1.4228811e-02   1.3835384e-01   4.5722831e-02  -1.3465922e+07
   2.1287096e-09  -1.4192937e-02   1.3816393e-01   4.5787712e-02  -1.3431100e+07
   2.1313771e-09  -1.4157155e-02   1.3797477e-01   4.5852515e-02  -1.3396375e+07
   2.1340447e-09  -1.4121466e-02   1.3778634e-01   4.5917239e-02  -1.3361746e+07
   2.1367122e-09  -1.4085869e-02   1.3759865e-01   4.5981885e-02  -1.3327214e+07
   2.1393798e-09  -1.4050364e-02   1.3741169e-01   4.6046452e-02  -1.3292777e+07
   2.1420473e-09  -1.4014950e-02   1.3722547e-01   4.6110939e-02  -1.3258436e+07
   2.1447149e-09  -1.3979628e-02   1.3703996e-01   4.6175348e-02  -1.3224189e+07
   2.1473825e-09  -1.3944398e-02   1.3685518e-01   4.6239678e-02  -1.3190038e+07
   2.1500500e-09  -1.3909258e-02   1.3667112e-01   4.6303929e-02  -1.3155981e+07
   2.1527176e-09  -1.3874209e-02   1.3648778e-01   4.6368100e-02  -1.3122018e+07
   2.1553851e-09  -1.3839251e-02   1.3630514e-01   4.6432192e-02  -1.3088150e+07
   2.1580527e-09  -1.3804383e-02   1.3612321e-01   4.6496205e-02  -1.3054374e+07
   2.1607202e-09  -1.3769604e-02   1.3594199e-01   4.6560138e-02  -1.3020692e+07
   2.1633878e-09  -1.3734916e-02   1.3576147e-01   4.6623992e-02  -1.2987103e+07
   2.1660554e-09  -1.3700317e-02   1.3558164e-01   4.6687765e-02  -1.2953607e+07
   2.1687229e-09  -1.3665807e-02   1.3540252e-01   4.6751459e-02  -1.2920203e+07
   2.1713905e-09  -1.3631386e-02   1.3522408e-01   4.6815073e-02  -1.2886891e+07
   2.1740580e-09  -1.3597054e-02   1.3504633e-01   4.6878607e-02  -1.2853671e+07
   2.1767256e-09  -1.3562811e-02   1.3486926e-01   4.6942060e-02  -1.2820542e+07
   2.1793931e-09  -1.3528655e-02   1.3469288e-01   4.7005434e-02  -1.2787505e+07
   2.1820607e-09  -1.3494588e-02   1.3451717e-01   4.7068727e-02  -1.2754558e+07
   2.1847282e-09  -1.3460608e-02   1.3434214e-01   4.7131940e-02  -1.2721702e+07
   2.1873958e-09  -1.3426716e-02   1.3416778e-01   4.7195073e-02  -1.2688936e+07
   2.1900634e-09  -1.3392912e-02   1.3399409e-01   4.7258125e-02  -1.2656261e+07
   2.1927309e-09  -1.3359194e-02   1.3382106e-01   4.7321096e-02  -1.2623675e+07
   2.1953985e-09  -1.3325563e-02   1.3364869e-01   4.7383987e-02  -1.2591178e+07
   2.1980660e-09  -1.3292019e-02   1.3347699e-01   4.7446797e-02  -1.2558771e+07
   2.2007336e-09  -1.3258561e-02   1.3330594e-01   4.7509526e-02  -1.2526452e+07
   2.2034011e-09  -1.3225189e-02   1.3313554e-01   4.7572174e-02  -1.2494222e+07
   2.2060687e-09  -1.3191903e-02   1.3296579e-01   4.7634741e-02  -1.2462080e+07
   2.2087362e-09  -1.3158702e-02   1.3279669e-01   4.7697227e-02  -1.2430026e+07
   2.2114038e-09  -1.3125587e-02   1.3262823e-01   4.7759632e-02  -1.2398060e+07
   2.2140714e-09  -1.3092557e-02   1.3246041e-01   4.7821955e-02  -1.2366182e+07
   2.2167389e-09  -1.3059612e-02   1.3229323e-01   4.7884198e-02  -1.2334390e+07
   2.2194065e-09  -1.3026752e-02   1.3212668e-01   4.7946358e-02  -1.2302686e+07
   2.2220740e-09  -1.2993976e-02   1.3196077e-01   4.8008438e-02  -1.2271068e+07
   2.2247416e-09  -1.2961285e-02   1.3179548e-01   4.8070436e-02  -1.2239536e+07
   2.2274091e-09  -1.2928677e-02   1.3163082e-01   4.8132352e-02  -1.2208091e+07
   2.2300767e-09  -1.2896153e-02   1.3146678e-01   4.8194187e-02  -1.2176731e+07
   2.2327442e-09  -1.2863713e-02   1.3130336e-01   4.8255940e-02  -1.2145457e+07
   2.2354118e-09  -1.2831356e-02   1.3114055e-01   4.8317611e-02  -1.2114267e+07
   2.2380794e-09  -1.2799082e-02   1.3097836e-01   4.8379200e-02  -1.2083163e+07
   2.2407469e-09  -1.2766891e-02   1.3081678e-01   4.8440708e-02  -1.2052144e+07
   2.2434145e-09  -1.2734782e-02   1.3065581e-01   4.8502133e-02  -1.2021209e+07
   2.2460820e-09  -1.2702756e-02   1.3049544e-01   4.8563477e-02  -1.1990358e+07
   2.2487496e-09  -1.2670813e-02   1.3033568e-01   4.8624738e-02  -1.1959592e+07
   2.2514171e-09  -1.2638951e-02   1.3017651e-01   4.8685917e-02  -1.1928908e+07
   2.2540847e-09  -1.2607171e-02   1.3001795e-01   4.8747014e-02  -1.1898309e+07
   2.2567523e-09  -1.2575472e-02   1.2985997e-01   4.8808029e-02  -1.1867792e+07
   2.2594198e-09  -1.2543855e-02   1.2970259e-01   4.8868961e-02  -1.1837358e+07
   2.2620874e-09  -1.2512318e-02   1.2954580e-01   4.8929811e-02  -1.1807007e+07
   2.2647549e-09  -1.2480863e-02   1.2938959e-01   4.8990578e-02  -1.1776738e+07
   2.2674225e-09  -1.2449488e-02   1.2923396e-01   4.9051263e-02  -1.1746551e+07
   2.2700900e-09  -1.2418194e-02   1.2907892e-01   4.9111865e-02  -1.1716446e+07
   2.2727576e-09  -1.2386980e-02   1.2892445e-01   4.9172385e-02  -1.1686423e+07
   2.2754251e-09  -1.2355846e-02   1.2877056e-01   4.9232822e-02  -1.1656481e+07
   2.2780927e-09  -1.2324791e-02   1.2861724e-01   4.9293177e-02  -1.1626619e+07
   2.2807603e-09  -1.2293816e-02   1.2846449e-01   4.9353448e-02  -1.1596839e+07
   2.2834278e-09  -1.2262921e-02   1.2831230e-01   4.9413637e-02  -1.1567140e+07
   2.2860954e-09  -1.2232105e-02   1.2816068e-01   4.9473743e-02  -1.1537520e+07
   2.2887629e-09  -1.2201367e-02   1.2800963e-01   4.9533766e-02  -1.1507981e+07
   2.2914305e-09  -1.2170708e-02   1.2785913e-01   4.9593706e-02  -1.1478521e+07
   2.2940980e-09  -1.2140128e-02   1.2770919e-01   4.9653563e-02  -1.1449141e+07
   2.2967656e-09  -1.2109626e-02   1.2755980e-01   4.9713337e-02  -1.1419841e+07
   2.2994331e-09  -1.2079202e-02   1.2741097e-01   4.9773028e-02  -1.1390619e+07
   2.3021007e-09  -1.2048856e-02   1.2726268e-01   4.9832636e-02  -1.1361477e+07
   2.3047683e-09  -1.2018587e-02   1.2711494e-01   4.9892160e-02  -1.1332412e+07
   2.3074358e-09  -1.1988396e-02   1.2696775e-01   4.9951601e-02  -1.1303427e+07
   2.3101034e-09  -1.1958282e-02   1.2682109e-01   5.0010960e-02  -1.1274519e+07
   2.3127709e-09  -1.1928245e-02   1.2667498e-01   5.0070234e-02  -1.1245689e+07
   2.3154385e-09  -1.1898285e-02   1.2652940e-01   5.0129426e-02  -1.1216937e+07
   2.3181060e-09  -1.1868402e-02   1.2638436e-01   5.0188534e-02  -1.1188262e+07
   2.3207736e-09  -1.1838595e-02   1.2623985e-01   5.0247558e-02  -1.1159664e+07
   2.3234411e-09  -1.1808864e-02   1.2609587e-01   5.0306500e-02  -1.1131144e+07
   2.3261087e-09  -1.1779209e-02   1.2595242e-01   5.0365357e-02  -1.1102699e+07
   2.3287763e-09  -1.1749630e-02   1.2580949e-01   5.0424132e-02  -1.1074332e+07
   2.3314438e-09  -1.1720126e-02   1.2566708e-01   5.0482822e-02  -1.1046040e+07
   2.3341114e-09  -1.1690698e-02   1.2552519e-01   5.0541429e-02  -1.1017825e+07
   2.3367789e-09  -1.1661345e-02   1.2538383e-01   5.0599953e-02  -1.0989685e+07
   2.3394465e-09  -1.1632067e-02   1.2524297e-01   5.0658393e-02  -1.0961621e+07
   2.3421140e-09  -1.1602863e-02   1.2510263e-01   5.0716749e-02  -1.0933632e+07
   2.3447816e-09  -1.1573735e-02   1.2496280e-01   5.0775021e-02  -1.0905718e+07
   2.3474491e-09  -1.1544680e-02   1.2482348e-01   5.0833210e-02  -1.0877879e+07
   2.3501167e-09  -1.1515700e-02   1.2468467e-01   5.0891315e-02  -1.0850114e+07
   2.3527843e-09  -1.1486794e-02   1.2454636e-01   5.0949336e-02  -1.0822424e+07
   2.3554518e-09  -1.1457961e-02   1.2440855e-01   5.1007273e-02  -1.0794808e+07
   2.3581194e-09  -1.1429202e-02   1.2427124e-01   5.1065127e-02  -1.0767266e+07
   2.3607869e-09  -1.1400517e-02   1.2413443e-01   5.1122896e-02  -1.0739798e+07
   2.3634545e-09  -1.1371904e-02   1.2399811e-01   5.1180582e-02  -1.0712403e+07
   2.3661220e-09  -1.1343365e-02   1.2386229e-01   5.1238184e-02  -1.0685081e+07
   2.3687896e-09  -1.1314898e-02   1.2372696e-01   5.1295702e-02  -1.0657833e+07
   2.3714572e-09  -1.1286504e-02   1.2359211e-01   5.1353135e-02  -1.0630657e+07
   2.3741247e-09  -1.1258182e-02   1.2345775e-01   5.1410485e-02  -1.0603554e+07
   2.3767923e-09  -1.1229933e-02   1.2332388e-01   5.1467751e-02  -1.0576523e+07
   2.3794598e-09  -1.1201756e-02   1.2319049e-01   5.1524933e-02  -1.0549564e+07
   2.3821274e-09  -1.1173650e-02   1.2305758e-01   5.1582031e-02  -1.0522677e+07
   2.3847949e-09  -1.1145616e-02   1.2292514e-01   5.1639045e-02  -1.0495862e+07
   2.3874625e-09  -1.1117653e-02   1.2279318e-01   5.1695975e-02  -1.0469119e+07
   2.3901300e-09  -1.1089762e-02   1.2266170e-01   5.1752820e-02  -1.0442447e+07
   2.3927976e-09  -1.1061942e-02   1.2253069e-01   5.1809582e-02  -1.0415845e+07
   2.3954652e-09  -1.1034192e-02   1.2240014e-01   5.1866260e-02  -1.0389315e+07
   2.3981327e-09  -1.1006514e-02   1.2227007e-01   5.1922853e-02  -1.0362855e+07
   2.4008003e-09  -1.0978906e-02   1.2214046e-01   5.1979362e-02  -1.0336466e+07
   2.4034678e-09  -1.0951368e-02   1.2201131e-01   5.2035787e-02  -1.0310147e+07
   2.4061354e-09  -1.0923900e-02   1.2188262e-01   5.2092128e-02  -1.0283898e+07
   2.4088029e-09  -1.0896502e-02   1.2175439e-01   5.2148385e-02  -1.0257719e+07
   2.4114705e-09  -1.0869174e-02   1.2162663e-01   5.2204557e-02  -1.0231610e+07
   2.4141380e-09  -1.0841915e-02   1.2149931e-01   5.2260646e-02  -1.0205569e+07
   2.4168056e-09  -1.0814726e-02   1.2137245e-01   5.2316650e-02  -1.0179598e+07
   2.4194732e-09  -1.0787606e-02   1.2124604e-01   5.2372570e-02  -1.0153696e+07
   2.4221407e-09  -1.0760555e-02   1.2112008e-01   5.2428406e-02  -1.0127863e+07
   2.4248083e-09  -1.0733573e-02   1.2099457e-01   5.2484157e-02  -1.0102098e+07
   2.4274758e-09  -1.0706659e-02   1.2086950e-01   5.2539825e-02  -1.0076402e+07
   2.4301434e-09  -1.0679814e-02   1.2074488e-01   5.2595408e-02  -1.0050774e+07
   2.4328109e-09  -1.0653037e-02   1.2062069e-01   5.2650907e-02  -1.0025214e+07
   2.4354785e-09  -1.0626328e-02   1.2049695e-01   5.2706321e-02  -9.9997215e+06
   2.4381460e-09  -1.0599687e-02   1.2037365e-01   5.2761652e-02  -9.9742967e+06
   2.4408136e-09  -1.0573114e-02   1.2025078e-01   5.2816898e-02  -9.9489393e+06
   2.4434812e-09  -1.0546609e-02   1.2012834e-01   5.2872060e-02  -9.9236490e+06
   2.4461487e-09  -1.0520171e-02   1.2000634e-01   5.2927138e-02  -9.8984256e+06
   2.4488163e-09  -1.0493800e-02   1.1988477e-01   5.2982131e-02  -9.8732691e+06
   2.4514838e-09  -1.0467496e-02   1.1976363e-01   5.3037040e-02  -9.8481791e+06
   2.4541514e-09  -1.0441259e-02   1.1964291e-01   5.3091865e-02  -9.8231555e+06
   2.4568189e-09  -1.0415088e-02   1.1952262e-01   5.3146606e-02  -9.7981980e+06
   2.4594865e-09  -1.0388984e-02   1.1940275e-01   5.3201263e-02  -9.7733066e+06
   2.4621541e-09  -1.0362946e-02   1.1928330e-01   5.3255835e-02  -9.7484809e+06
   2.4648216e-09  -1.0336975e-02   1.1916427e-01   5.3310323e-02  -9.7237209e+06
   2.4674892e-09  -1.0311069e-02   1.1904566e-01   5.3364727e-02  -9.6990262e+06
   2.4701567e-09  -1.0285229e-02   1.1892747e-01   5.3419047e-02  -9.6743968e+06
   2.4728243e-09  -1.0259455e-02   1.1880968e-01   5.3473282e-02  -9.6498324e+06
   2.4754918e-09  -1.0233747e-02   1.1869232e-01   5.3527433e-02  -9.6253328e+06
   2.4781594e-09  -1.0208103e-02   1.1857536e-01   5.3581500e-02  -9.6008979e+06
   2.4808269e-09  -1.0182525e-02   1.1845881e-01   5.3635483e-02  -9.5765274e+06
   2.4834945e-09  -1.0157011e-02   1.1834266e-01   5.3689382e-02  -9.5522212e+06
   2.4861621e-09  -1.0131563e-02   1.1822693e-01   5.3743197e-02  -9.5279791e+06
   2.4888296e-09  -1.0106178e-02   1.1811159e-01   5.3796927e-02  -9.5038009e+06
   2.4914972e-09  -1.0080859e-02   1.1799666e-01   5.3850573e-02  -9.4796863e+06
   2.4941647e-09  -1.0055603e-02   1.1788213e-01   5.3904136e-02  -9.4556353e+06
   2.4968323e-09  -1.0030412e-02   1.1776800e-01   5.3957614e-02  -9.4316477e+06
   2.4994998e-09  -1.0005284e-02   1.1765426e-01   5.4011008e-02  -9.4077231e+06
   2.5021674e-09  -9.9802207e-03   1.1754092e-01   5.4064317e-02  -9.3838616e+06
   2.5048349e-09  -9.9552205e-03   1.1742797e-01   5.4117543e-02  -9.3600628e+06
   2.5075025e-09  -9.9302837e-03   1.1731541e-01   5.4170685e-02  -9.3363267e+06
   2.5101701e-09  -9.9054102e-03   1.1720325e-01   5.4223743e-02  -9.3126529e+06
   2.5128376e-09  -9.8805997e-03   1.1709147e-01   5.4276716e-02  -9.2890415e+06
   2.5155052e-09  -9.8558521e-03   1.1698008e-01   5.4329606e-02  -9.2654920e+06
   2.5181727e-09  -9.8311673e-03   1.1686908e-01   5.4382412e-02  -9.2420045e+06
   2.5208403e-09  -9.8065450e-03   1.1675845e-01   5.4435133e-02  -9.2185786e+06
   2.5235078e-09  -9.7819852e-03   1.1664821e-01   5.4487771e-02  -9.1952143e+06
   2.5261754e-09  -9.7574876e-03   1.1653835e-01   5.4540325e-02  -9.1719113e+06
   2.5288429e-09  -9.7330520e-03   1.1642887e-01   5.4592795e-02  -9.1486695e+06
   2.5315105e-09  -9.7086784e-03   1.1631977e-01   5.4645181e-02  -9.1254887e+06
   2.5341781e-09  -9.6843665e-03   1.1621104e-01   5.4697483e-02  -9.1023687e+06
   2.5368456e-09  -9.6601163e-03   1.1610269e-01   5.4749702e-02  -9.0793093e+06
   2.5395132e-09  -9.6359274e-03   1.1599471e-01   5.4801836e-02  -9.0563104e+06
   2.5421807e-09  -9.6117999e-03   1.1588710e-01   5.4853887e-02  -9.0333718e+06
   2.5448483e-09  -9.5877334e-03   1.1577986e-01   5.4905854e-02  -9.0104934e+06
   2.5475158e-09  -9.5637279e-03   1.1567299e-01   5.4957737e-02  -8.9876748e+06
   2.5501834e-09  -9.5397832e-03   1.1556648e-01   5.5009536e-02  -8.9649161e+06
   2.5528510e-09  -9.5158991e-03   1.1546034e-01   5.5061252e-02  -8.9422169e+06
   2.5555185e-09  -9.4920755e-03   1.1535456e-01   5.5112884e-02  -8.9195772e+06
   2.5581861e-09  -9.4683122e-03   1.1524915e-01   5.5164432e-02  -8.8969968e+06
   2.5608536e-09  -9.4446090e-03   1.1514409e-01   5.5215897e-02  -8.8744754e+06
   2.5635212e-09  -9.4209658e-03   1.1503940e-01   5.5267278e-02  -8.8520130e+06
   2.5661887e-09  -9.3973825e-03   1.1493506e-01   5.5318576e-02  -8.8296093e+06
   2.5688563e-09  -9.3738589e-03   1.1483107e-01   5.5369790e-02  -8.8072642e+06
   2.5715238e-09  -9.3503948e-03   1.1472745e-01   5.5420920e-02  -8.7849775e+06
   2.5741914e-09  -9.3269901e-03   1.1462417e-01   5.5471967e-02  -8.7627491e+06
   2.5768590e-09  -9.3036446e-03   1.1452125e-01   5.5522931e-02  -8.7405787e+06
   2.5795265e-09  -9.2803581e-03   1.1441867e-01   5.5573811e-02  -8.7184663e+06
   2.5821941e-09  -9.2571306e-03   1.1431645e-01   5.5624608e-02  -8.6964117e+06
   2.5848616e-09  -9.2339618e-03   1.1421457e-01   5.5675321e-02  -8.6744146e+06
   2.5875292e-09  -9.2108516e-03   1.1411304e-01   5.5725951e-02  -8.6524750e+06
   2.5901967e-09  -9.1877999e-03   1.1401185e-01   5.5776498e-02  -8.6305926e+06
   2.5928643e-09  -9.1648065e-03   1.1391101e-01   5.5826962e-02  -8.6087673e+06
   2.5955318e-09  -9.1418712e-03   1.1381050e-01   5.5877342e-02  -8.5869990e+06
   2.5981994e-09  -9.1189939e-03   1.1371034e-01   5.5927639e-02  -8.5652875e+06
   2.6008670e-09  -9.0961744e-03   1.1361052e-01   5.5977853e-02  -8.5436325e+06
   2.6035345e-09  -9.0734127e-03   1.1351103e-01   5.6027984e-02  -8.5220341e+06
   2.6062021e-09  -9.0507084e-03   1.1341188e-01   5.6078032e-02  -8.5004919e+06
   2.6088696e-09  -9.0280616e-03   1.1331306e-01   5.6127997e-02  -8.4790058e+06
   2.6115372e-09  -9.0054720e-03   1.1321458e-01   5.6177878e-02  -8.4575758e+06
   2.6142047e-09  -8.9829395e-03   1.1311643e-01   5.6227677e-02  -8.4362015e+06
   2.6168723e-09  -8.9604639e-03   1.1301861e-01   5.6277393e-02  -8.4148829e+06
   2.6195398e-09  -8.9380452e-03   1.1292112e-01   5.6327026e-02  -8.3936199e+06
   2.6222074e-09  -8.9156830e-03   1.1282396e-01   5.6376576e-02  -8.3724121e+06
   2.6248750e-09  -8.8933774e-03   1.1272713e-01   5.6426043e-02  -8.3512596e+06
   2.6275425e-09  -8.8711281e-03   1.1263062e-01   5.6475428e-02  -8.3301621e+06
   2.6302101e-09  -8.8489351e-03   1.1253443e-01   5.6524730e-02  -8.3091195e+06
   2.6328776e-09  -8.8267981e-03   1.1243857e-01   5.6573949e-02  -8.2881316e+06
   2.6355452e-09  -8.8047170e-03   1.1234303e-01   5.6623085e-02  -8.2671983e+06
   2.6382127e-09  -8.7826917e-03   1.1224780e-01   5.6672139e-02  -8.2463194e+06
   2.6408803e-09  -8.7607219e-03   1.1215290e-01   5.6721110e-02  -8.2254947e+06
   2.6435478e-09  -8.7388077e-03   1.1205832e-01   5.6769999e-02  -8.2047242e+06
   2.6462154e-09  -8.7169488e-03   1.1196405e-01   5.6818805e-02  -8.1840077e+06
   2.6488830e-09  -8.6951451e-03   1.1187009e-01   5.6867529e-02  -8.1633449e+06
   2.6515505e-09  -8.6733965e-03   1.1177645e-01   5.6916171e-02  -8.1427358e+06
   2.6542181e-09  -8.6517027e-03   1.1168313e-01   5.6964730e-02  -8.1221802e+06
   2.6568856e-09  -8.6300637e-03   1.1159011e-01   5.7013207e-02  -8.1016780e+06
   2.6595532e-09  -8.6084794e-03   1.1149740e-01   5.7061601e-02  -8.0812290e+06
   2.6622207e-09  -8.5869495e-03   1.1140501e-01   5.7109914e-02  -8.0608330e+06
   2.6648883e-09  -8.5654739e-03   1.1131292e-01   5.7158144e-02  -8.0404900e+06
   2.6675559e-09  -8.5440526e-03   1.1122113e-01   5.7206292e-02  -8.0201997e+06
   2.6702234e-09  -8.5226853e-03   1.1112965e-01   5.7254358e-02  -7.9999621e+06
   2.6728910e-09  -8.5013719e-03   1.1103848e-01   5.7302342e-02  -7.9797769e+06
   2.6755585e-09  -8.4801123e-03   1.1094761e-01   5.7350244e-02  -7.9596440e+06
   2.6782261e-09  -8.4589063e-03   1.1085704e-01   5.7398064e-02  -7.9395633e+06
   2.6808936e-09  -8.4377538e-03   1.1076677e-01   5.7445803e-02  -7.9195346e+06
   2.6835612e-09  -8.4166547e-03   1.1067680e-01   5.7493459e-02  -7.8995579e+06
   2.6862287e-09  -8.3956088e-03   1.1058712e-01   5.7541034e-02  -7.8796328e+06
   2.6888963e-09  -8.3746160e-03   1.1049775e-01   5.7588527e-02  -7.8597594e+06
   2.6915639e-09  -8.3536761e-03   1.1040867e-01   5.7635938e-02  -7.8399374e+06
   2.6942314e-09  -8.3327891e-03   1.1031988e-01   5.7683268e-02  -7.8201667e+06
   2.6968990e-09  -8.3119547e-03   1.1023139e-01   5.7730516e-02  -7.8004472e+06
   2.6995665e-09  -8.2911728e-03   1.1014319e-01   5.7777683e-02  -7.7807788e+06
   2.7022341e-09  -8.2704433e-03   1.1005528e-01   5.7824768e-02  -7.7611612e+06
   2.7049016e-09  -8.2497661e-03   1.0996766e-01   5.7871772e-02  -7.7415943e+06
   2.7075692e-09  -8.2291411e-03   1.0988033e-01   5.7918694e-02  -7.7220781e+06
   2.7102367e-09  -8.2085680e-03   1.0979328e-01   5.7965535e-02  -7.7026123e+06
   2.7129043e-09  -8.1880468e-03   1.0970653e-01   5.8012295e-02  -7.6831968e+06
   2.7155719e-09  -8.1675773e-03   1.0962005e-01   5.8058974e-02  -7.6638315e+06
   2.7182394e-09  -8.1471594e-03   1.0953387e-01   5.8105572e-02  -7.6445163e+06
   2.7209070e-09  -8.1267929e-03   1.0944796e-01   5.8152088e-02  -7.6252509e+06
   2.7235745e-09  -8.1064778e-03   1.0936234e-01   5.8198524e-02  -7.6060354e+06
   2.7262421e-09  -8.0862139e-03   1.0927700e-01   5.8244879e-02  -7.5868694e+06
   2.7289096e-09  -8.0660010e-03   1.0919193e-01   5.8291152e-02  -7.5677530e+06
   2.7315772e-09  -8.0458391e-03   1.0910715e-01   5.8337345e-02  -7.5486859e+06
   2.7342447e-09  -8.0257279e-03   1.0902264e-01   5.8383457e-02  -7.5296680e+06
   2.7369123e-09  -8.0056674e-03   1.0893841e-01   5.8429489e-02  -7.5106992e+06
   2.7395799e-09  -7.9856575e-03   1.0885446e-01   5.8475439e-02  -7.4917794e+06
   2.7422474e-09  -7.9656980e-03   1.0877078e-01   5.8521310e-02  -7.4729083e+06
   2.7449150e-09  -7.9457887e-03   1.0868737e-01   5.8567099e-02  -7.4540860e+06
   2.7475825e-09  -7.9259296e-03   1.0860424e-01   5.8612808e-02  -7.4353122e+06
   2.7502501e-09  -7.9061205e-03   1.0852138e-01   5.8658437e-02  -7.4165868e+06
   2.7529176e-09  -7.8863613e-03   1.0843878e-01   5.8703985e-02  -7.3979097e+06
   2.7555852e-09  -7.8666518e-03   1.0835646e-01   5.8749453e-02  -7.3792807e+06
   2.7582528e-09  -7.8469920e-03   1.0827440e-01   5.8794841e-02  -7.3606997e+06
   2.7609203e-09  -7.8273816e-03   1.0819261e-01   5.8840149e-02  -7.3421666e+06
   2.7635879e-09  -7.8078207e-03   1.0811109e-01   5.8885376e-02  -7.3236813e+06
   2.7662554e-09  -7.7883090e-03   1.0802983e-01   5.8930523e-02  -7.3052436e+06
   2.7689230e-09  -7.7688464e-03   1.0794884e-01   5.8975591e-02  -7.2868533e+06
   2.7715905e-09  -7.7494328e-03   1.0786811e-01   5.9020578e-02  -7.2685105e+06
   2.7742581e-09  -7.7300681e-03   1.0778764e-01   5.9065486e-02  -7.2502148e+06
   2.7769256e-09  -7.7107521e-03   1.0770743e-01   5.9110314e-02  -7.2319663e+06
   2.7795932e-09  -7.6914847e-03   1.0762748e-01   5.9155062e-02  -7.2137647e+06
   2.7822608e-09  -7.6722658e-03   1.0754779e-01   5.9199730e-02  -7.1956100e+06
   2.7849283e-09  -7.6530953e-03   1.0746836e-01   5.9244319e-02  -7.1775019e+06
   2.7875959e-09  -7.6339731e-03   1.0738918e-01   5.9288828e-02  -7.1594405e+06
   2.7902634e-09  -7.6148989e-03   1.0731026e-01   5.9333258e-02  -7.1414255e+06
   2.7929310e-09  -7.5958728e-03   1.0723160e-01   5.9377609e-02  -7.1234568e+06
   2.7955985e-09  -7.5768945e-03   1.0715319e-01   5.9421880e-02  -7.1055344e+06
   2.7982661e-09  -7.5579639e-03   1.0707503e-01   5.9466071e-02  -7.0876580e+06
   2.8009336e-09  -7.5390810e-03   1.0699713e-01   5.9510184e-02  -7.0698276e+06
   2.8036012e-09  -7.5202456e-03   1.0691947e-01   5.9554217e-02  -7.0520429e+06
   2.8062688e-09  -7.5014576e-03   1.0684207e-01   5.9598172e-02  -7.0343040e+06
   2.8089363e-09  -7.4827168e-03   1.0676491e-01   5.9642047e-02  -7.0166107e+06
   2.8116039e-09  -7.4640232e-03   1.0668801e-01   5.9685843e-02  -6.9989628e+06
   2.8142714e-09  -7.4453766e-03   1.0661135e-01   5.9729561e-02  -6.9813603e+06
   2.8169390e-09  -7.4267768e-03   1.0653493e-01   5.9773200e-02  -6.9638029e+06
   2.8196065e-09  -7.4082239e-03   1.0645877e-01   5.9816760e-02  -6.9462907e+06
   2.8222741e-09  -7.3897176e-03   1.0638284e-01   5.9860241e-02  -6.9288234e+06
   2.8249416e-09  -7.3712578e-03   1.0630716e-01   5.9903644e-02  -6.9114009e+06
   2.8276092e-09  -7.3528445e-03   1.0623173e-01   5.9946968e-02  -6.8940232e+06
   2.8302768e-09  -7.3344774e-03   1.0615653e-01   5.9990214e-02  -6.8766900e+06
   2.8329443e-09  -7.3161566e-03   1.0608158e-01   6.0033381e-02  -6.8594013e+06
   2.8356119e-09  -7.2978818e-03   1.0600686e-01   6.0076470e-02  -6.8421570e+06
   2.8382794e-09  -7.2796529e-03   1.0593239e-01   6.0119481e-02  -6.8249569e+06
   2.8409470e-09  -7.2614699e-03   1.0585815e-01   6.0162414e-02  -6.8078009e+06
   2.8436145e-09  -7.2433325e-03   1.0578415e-01   6.0205268e-02  -6.7906889e+06
   2.8462821e-09  -7.2252408e-03   1.0571038e-01   6.0248045e-02  -6.7736208e+06
   2.8489496e-09  -7.2071945e-03   1.0563686e-01   6.0290744e-02  -6.7565964e+06
   2.8516172e-09  -7.1891936e-03   1.0556356e-01   6.0333364e-02  -6.7396157e+06
   2.8542848e-09  -7.1712379e-03   1.0549050e-01   6.0375907e-02  -6.7226784e+06
   2.8569523e-09  -7.1533273e-03   1.0541767e-01   6.0418372e-02  -6.7057846e+06
   2.8596199e-09  -7.1354618e-03   1.0534508e-01   6.0460760e-02  -6.6889341e+06
   2.8622874e-09  -7.1176411e-03   1.0527271e-01   6.0503070e-02  -6.6721267e+06
   2.8649550e-09  -7.0998652e-03   1.0520058e-01   6.0545302e-02  -6.6553624e+06
   2.8676225e-09  -7.0821340e-03   1.0512867e-01   6.0587457e-02  -6.6386410e+06
   2.8702901e-09  -7.0644473e-03   1.0505699e-01   6.0629535e-02  -6.6219624e+06
   2.8729577e-09  -7.0468051e-03   1.0498554e-01   6.0671536e-02  -6.6053265e+06
   2.8756252e-09  -7.0292071e-03   1.0491432e-01   6.0713459e-02  -6.5887332e+06
   2.8782928e-09  -7.0116534e-03   1.0484332e-01   6.0755305e-02  -6.5721824e+06
   2.8809603e-09  -6.9941438e-03   1.0477255e-01   6.0797074e-02  -6.5556739e+06
   2.8836279e-09  -6.9766782e-03   1.0470200e-01   6.0838766e-02  -6.5392077e+06
   2.8862954e-09  -6.9592564e-03   1.0463168e-01   6.0880381e-02  -6.5227836e+06
   2.8889630e-09  -6.9418784e-03   1.0456158e-01   6.0921919e-02  -6.5064015e+06
   2.8916305e-09  -6.9245440e-03   1.0449170e-01   6.0963381e-02  -6.4900614e+06
   2.8942981e-09  -6.9072532e-03   1.0442204e-01   6.1004766e-02  -6.4737630e+06
   2.8969657e-09  -6.8900057e-03   1.0435260e-01   6.1046074e-02  -6.4575063e+06
   2.8996332e-09  -6.8728016e-03   1.0428338e-01   6.1087306e-02  -6.4412911e+06
   2.9023008e-09  -6.8556407e-03   1.0421438e-01   6.1128461e-02  -6.4251174e+06
   2.9049683e-09  -6.8385229e-03   1.0414559e-01   6.1169540e-02  -6.4089850e+06
   2.9076359e-09  -6.8214481e-03   1.0407703e-01   6.1210543e-02  -6.3928939e+06
   2.9103034e-09  -6.8044161e-03   1.0400868e-01   6.1251469e-02  -6.3768439e+06
   2.9129710e-09  -6.7874269e-03   1.0394054e-01   6.1292319e-02  -6.3608349e+06
   2.9156385e-09  -6.7704803e-03   1.0387262e-01   6.1333094e-02  -6.3448668e+06
   2.9183061e-09  -6.7535763e-03   1.0380491e-01   6.1373792e-02  -6.3289395e+06
   2.9209737e-09  -6.7367147e-03   1.0373742e-01   6.1414414e-02  -6.3130528e+06
   2.9236412e-09  -6.7198955e-03   1.0367013e-01   6.1454961e-02  -6.2972068e+06
   2.9263088e-09  -6.7031184e-03   1.0360306e-01   6.1495432e-02  -6.2814012e+06
   2.9289763e-09  -6.6863835e-03   1.0353620e-01   6.1535827e-02  -6.2656359e+06
   2.9316439e-09  -6.6696905e-03   1.0346955e-01   6.1576147e-02  -6.2499109e+06
   2.9343114e-09  -6.6530395e-03   1.0340311e-01   6.1616391e-02  -6.2342261e+06
   2.9369790e-09  -6.6364302e-03   1.0333687e-01   6.1656560e-02  -6.2185812e+06
   2.9396465e-09  -6.6198626e-03   1.0327085e-01   6.1696653e-02  -6.2029763e+06
   2.9423141e-09  -6.6033366e-03   1.0320503e-01   6.1736672e-02  -6.1874112e+06
   2.9449817e-09  -6.5868521e-03   1.0313941e-01   6.1776615e-02  -6.1718858e+06
   2.9476492e-09  -6.5704089e-03   1.0307400e-01   6.1816483e-02  -6.1564001e+06
   2.9503168e-09  -6.5540070e-03   1.0300880e-01   6.1856276e-02  -6.1409538e+06
   2.9529843e-09  -6.5376462e-03   1.0294380e-01   6.1895994e-02  -6.1255469e+06
   2.9556519e-09  -6.5213265e-03   1.0287900e-01   6.1935637e-02  -6.1101793e+06
   2.9583194e-09  -6.5050477e-03   1.0281441e-01   6.1975205e-02  -6.0948509e+06
   2.9609870e-09  -6.4888098e-03   1.0275001e-01   6.2014699e-02  -6.0795615e+06
   2.9636546e-09  -6.4726126e-03   1.0268582e-01   6.2054118e-02  -6.0643112e+06
   2.9663221e-09  -6.4564560e-03   1.0262183e-01   6.2093463e-02  -6.0490997e+06
   2.9689897e-09  -6.4403400e-03   1.0255803e-01   6.2132734e-02  -6.0339269e+06
   2.9716572e-09  -6.4242643e-03   1.0249444e-01   6.2171930e-02  -6.0187929e+06
   2.9743248e-09  -6.4082290e-03   1.0243104e-01   6.2211051e-02  -6.0036974e+06
   2.9769923e-09  -6.3922339e-03   1.0236784e-01   6.2250099e-02  -5.9886403e+06
   2.9796599e-09  -6.3762789e-03   1.0230484e-01   6.2289072e-02  -5.9736216e+06
   2.9823274e-09  -6.3603640e-03   1.0224203e-01   6.2327972e-02  -5.9586412e+06
   2.9849950e-09  -6.3444889e-03   1.0217941e-01   6.2366797e-02  -5.9436989e+06
   2.9876626e-09  -6.3286537e-03   1.0211700e-01   6.2405549e-02  -5.9287947e+06
   2.9903301e-09  -6.3128581e-03   1.0205477e-01   6.2444227e-02  -5.9139284e+06
   2.9929977e-09  -6.2971022e-03   1.0199274e-01   6.2482832e-02  -5.8990999e+06
   2.9956652e-09  -6.2813858e-03   1.0193090e-01   6.2521362e-02  -5.8843092e+06
   2.9983328e-09  -6.2657087e-03   1.0186925e-01   6.2559820e-02  -5.8695562e+06
   3.0010003e-09  -6.2500710e-03   1.0180779e-01   6.2598204e-02  -5.8548407e+06
   3.0036679e-09  -6.2344725e-03   1.0174652e-01   6.2636514e-02  -5.8401626e+06
   3.0063354e-09  -6.2189131e-03   1.0168544e-01   6.2674752e-02  -5.8255219e+06
   3.0090030e-09  -6.2033927e-03   1.0162456e-01   6.2712916e-02  -5.8109185e+06
   3.0116706e-09  -6.1879112e-03   1.0156385e-01   6.2751007e-02  -5.7963522e+06
   3.0143381e-09  -6.1724685e-03   1.0150334e-01   6.2789025e-02  -5.7818229e+06
   3.0170057e-09  -6.1570645e-03   1.0144301e-01   6.2826970e-02  -5.7673306e+06
   3.0196732e-09  -6.1416991e-03   1.0138287e-01   6.2864843e-02  -5.7528752e+06
   3.0223408e-09  -6.1263722e-03   1.0132292e-01   6.2902643e-02  -5.7384565e+06
   3.0250083e-09  -6.1110838e-03   1.0126314e-01   6.2940370e-02  -5.7240745e+06
   3.0276759e-09  -6.0958336e-03   1.0120356e-01   6.2978025e-02  -5.7097290e+06
   3.0303434e-09  -6.0806217e-03   1.0114415e-01   6.3015607e-02  -5.6954201e+06
   3.0330110e-09  -6.0654479e-03   1.0108493e-01   6.3053117e-02  -5.6811474e+06
   3.0356786e-09  -6.0503122e-03   1.0102589e-01   6.3090554e-02  -5.6669111e+06
   3.0383461e-09  -6.0352143e-03   1.0096704e-01   6.3127920e-02  -5.6527109e+06
   3.0410137e-09  -6.0201543e-03   1.0090836e-01   6.3165213e-02  -5.6385468e+06
   3.0436812e-09  -6.0051320e-03   1.0084986e-01   6.3202434e-02  -5.6244188e+06
   3.0463488e-09  -5.9901474e-03   1.0079155e-01   6.3239584e-02  -5.6103266e+06
   3.0490163e-09  -5.9752003e-03   1.0073341e-01   6.3276661e-02  -5.5962702e+06
   3.0516839e-09  -5.9602906e-03   1.0067545e-01   6.3313667e-02  -5.5822495e+06
   3.0543515e-09  -5.9454184e-03   1.0061767e-01   6.3350601e-02  -5.5682644e+06
   3.0570190e-09  -5.9305833e-03   1.0056006e-01   6.3387464e-02  -5.5543148e+06
   3.0596866e-09  -5.9157855e-03   1.0050263e-01   6.3424255e-02  -5.5404006e+06
   3.0623541e-09  -5.9010247e-03   1.0044538e-01   6.3460975e-02  -5.5265218e+06
   3.0650217e-09  -5.8863008e-03   1.0038830e-01   6.3497623e-02  -5.5126782e+06
   3.0676892e-09  -5.8716139e-03   1.0033140e-01   6.3534200e-02  -5.4988698e+06
   3.0703568e-09  -5.8569637e-03   1.0027467e-01   6.3570706e-02  -5.4850964e+06
   3.0730243e-09  -5.8423503e-03   1.0021812e-01   6.3607142e-02  -5.4713579e+06
   3.0756919e-09  -5.8277734e-03   1.0016173e-01   6.3643506e-02  -5.4576544e+06
   3.0783595e-09  -5.8132331e-03   1.0010552e-01   6.3679799e-02  -5.4439856e+06
   3.0810270e-09  -5.7987291e-03   1.0004948e-01   6.3716022e-02  -5.4303515e+06
   3.0836946e-09  -5.7842615e-03   9.9993612e-02   6.3752173e-02  -5.4167519e+06
   3.0863621e-09  -5.7698301e-03   9.9937913e-02   6.3788255e-02  -5.4031869e+06
   3.0890297e-09  -5.7554349e-03   9.9882384e-02   6.3824266e-02  -5.3896563e+06
   3.0916972e-09  -5.7410757e-03   9.9827025e-02   6.3860206e-02  -5.3761600e+06
   3.0943648e-09  -5.7267525e-03   9.9771833e-02   6.3896076e-02  -5.3626979e+06
   3.0970323e-09  -5.7124651e-03   9.9716809e-02   6.3931876e-02  -5.3492700e+06
   3.0996999e-09  -5.6982135e-03   9.9661953e-02   6.3967606e-02  -5.3358761e+06
   3.1023675e-09  -5.6839976e-03   9.9607263e-02   6.4003266e-02  -5.3225162e+06
   3.1050350e-09  -5.6698173e-03   9.9552740e-02   6.4038856e-02  -5.3091901e+06
   3.1077026e-09  -5.6556725e-03   9.9498382e-02   6.4074376e-02  -5.2958979e+06
   3.1103701e-09  -5.6415631e-03   9.9444189e-02   6.4109826e-02  -5.2826393e+06
   3.1130377e-09  -5.6274890e-03   9.9390160e-02   6.4145206e-02  -5.2694143e+06
   3.1157052e-09  -5.6134501e-03   9.9336295e-02   6.4180517e-02  -5.2562229e+06
   3.1183728e-09  -5.5994464e-03   9.9282594e-02   6.4215759e-02  -5.2430648e+06
   3.1210403e-09  -5.5854778e-03   9.9229055e-02   6.4250931e-02  -5.2299401e+06
   3.1237079e-09  -5.5715441e-03   9.9175678e-02   6.4286034e-02  -5.2168487e+06
   3.1263755e-09  -5.5576453e-03   9.9122463e-02   6.4321068e-02  -5.2037904e+06
   3.1290430e-09  -5.5437813e-03   9.9069408e-02   6.4356032e-02  -5.1907653e+06
   3.1317106e-09  -5.5299520e-03   9.9016514e-02   6.4390928e-02  -5.1777731e+06
   3.1343781e-09  -5.5161573e-03   9.8963780e-02   6.4425754e-02  -5.1648138e+06
   3.1370457e-09  -5.5023971e-03   9.8911205e-02   6.4460512e-02  -5.1518873e+06
   3.1397132e-09  -5.4886714e-03   9.8858789e-02   6.4495201e-02  -5.1389936e+06
   3.1423808e-09  -5.4749800e-03   9.8806532e-02   6.4529821e-02  -5.1261325e+06
   3.1450483e-09  -5.4613229e-03   9.8754431e-02   6.4564373e-02  -5.1133040e+06
   3.1477159e-09  -5.4476999e-03   9.8702488e-02   6.4598857e-02  -5.1005079e+06
   3.1503835e-09  -5.4341111e-03   9.8650702e-02   6.4633272e-02  -5.0877443e+06
   3.1530510e-09  -5.4205562e-03   9.8599071e-02   6.4667618e-02  -5.0750129e+06
   3.1557186e-09  -5.4070353e-03   9.8547596e-02   6.4701897e-02  -5.0623138e+06
   3.1583861e-09  -5.3935482e-03   9.8496276e-02   6.4736107e-02  -5.0496468e+06
   3.1610537e-09  -5.3800948e-03   9.8445110e-02   6.4770250e-02  -5.0370119e+06
   3.1637212e-09  -5.3666752e-03   9.8394098e-02   6.4804324e-02  -5.0244090e+06
   3.1663888e-09  -5.3532890e-03   9.8343240e-02   6.4838331e-02  -5.0118379e+06
   3.1690564e-09  -5.3399364e-03   9.8292534e-02   6.4872270e-02  -4.9992987e+06
   3.1717239e-09  -5.3266172e-03   9.8241981e-02   6.4906141e-02  -4.9867911e+06
   3.1743915e-09  -5.3133313e-03   9.8191579e-02   6.4939945e-02  -4.9743153e+06
   3.1770590e-09  -5.3000787e-03   9.8141329e-02   6.4973682e-02  -4.9618709e+06
   3.1797266e-09  -5.2868592e-03   9.8091229e-02   6.5007351e-02  -4.9494581e+06
   3.1823941e-09  -5.2736727e-03   9.8041280e-02   6.5040953e-02  -4.9370766e+06
   3.1850617e-09  -5.2605193e-03   9.7991480e-02   6.5074487e-02  -4.9247265e+06
   3.1877292e-09  -5.2473988e-03   9.7941829e-02   6.5107955e-02  -4.9124075e+06
   3.1903968e-09  -5.2343110e-03   9.7892327e-02   6.5141356e-02  -4.9001198e+06
   3.1930644e-09  -5.2212561e-03   9.7842974e-02   6.5174689e-02  -4.8878631e+06
   3.1957319e-09  -5.2082337e-03   9.7793767e-02   6.5207956e-02  -4.8756373e+06
   3.1983995e-09  -5.1952440e-03   9.7744708e-02   6.5241157e-02  -4.8634425e+06
   3.2010670e-09  -5.1822867e-03   9.7695796e-02   6.5274290e-02  -4.8512785e+06
   3.2037346e-09  -5.1693619e-03   9.7647030e-02   6.5307358e-02  -4.8391453e+06
   3.2064021e-09  -5.1564693e-03   9.7598409e-02   6.5340359e-02  -4.8270427e+06
   3.2090697e-09  -5.1436090e-03   9.7549934e-02   6.5373293e-02  -4.8149707e+06
   3.2117372e-09  -5.1307809e-03   9.7501603e-02   6.5406162e-02  -4.8029293e+06
   3.2144048e-09  -5.1179848e-03   9.7453416e-02   6.5438964e-02  -4.7909182e+06
   3.2170724e-09  -5.1052208e-03   9.7405374e-02   6.5471700e-02  -4.7789375e+06
   3.2197399e-09  -5.0924887e-03   9.7357474e-02   6.5504370e-02  -4.7669870e+06
   3.2224075e-09  -5.0797884e-03   9.7309717e-02   6.5536975e-02  -4.7550668e+06
   3.2250750e-09  -5.0671198e-03   9.7262102e-02   6.5569514e-02  -4.7431766e+06
   3.2277426e-09  -5.0544830e-03   9.7214629e-02   6.5601987e-02  -4.7313165e+06
   3.2304101e-09  -5.0418777e-03   9.7167297e-02   6.5634394e-02  -4.7194864e+06
   3.2330777e-09  -5.0293040e-03   9.7120106e-02   6.5666736e-02  -4.7076861e+06
   3.2357452e-09  -5.0167617e-03   9.7073055e-02   6.5699013e-02  -4.6959156e+06
   3.2384128e-09  -5.0042507e-03   9.7026144e-02   6.5731225e-02  -4.6841749e+06
   3.2410804e-09  -4.9917711e-03   9.6979372e-02   6.5763371e-02  -4.6724638e+06
   3.2437479e-09  -4.9793226e-03   9.6932739e-02   6.5795452e-02  -4.6607823e+06
   3.2464155e-09  -4.9669053e-03   9.6886245e-02   6.5827468e-02  -4.6491302e+06
   3.2490830e-09  -4.9545190e-03   9.6839888e-02   6.5859420e-02  -4.6375076e+06
   3.2517506e-09  -4.9421636e-03   9.6793669e-02   6.5891306e-02  -4.6259143e+06
   3.2544181e-09  -4.9298392e-03   9.6747587e-02   6.5923128e-02  -4.6143503e+06
   3.2570857e-09  -4.9175455e-03   9.6701641e-02   6.5954886e-02  -4.6028154e+06
   3.2597533e-09  -4.9052826e-03   9.6655832e-02   6.5986579e-02  -4.5913097e+06
   3.2624208e-09  -4.8930504e-03   9.6610158e-02   6.6018207e-02  -4.5798330e+06
   3.2650884e-09  -4.8808487e-03   9.6564619e-02   6.6049771e-02  -4.5683853e+06
   3.2677559e-09  -4.8686775e-03   9.6519215e-02   6.6081271e-02  -4.5569664e+06
   3.2704235e-09  -4.8565368e-03   9.6473946e-02   6.6112707e-02  -4.5455764e+06
   3.2730910e-09  -4.8444263e-03   9.6428810e-02   6.6144079e-02  -4.5342151e+06
   3.2757586e-09  -4.8323462e-03   9.6383807e-02   6.6175387e-02  -4.5228825e+06
   3.2784261e-09  -4.8202962e-03   9.6338938e-02   6.6206631e-02  -4.5115784e+06
   3.2810937e-09  -4.8082764e-03   9.6294200e-02   6.6237811e-02  -4.5003029e+06
   3.2837613e-09  -4.7962866e-03   9.6249595e-02   6.6268928e-02  -4.4890558e+06
   3.2864288e-09  -4.7843268e-03   9.6205122e-02   6.6299981e-02  -4.4778371e+06
   3.2890964e-09  -4.7723968e-03   9.6160779e-02   6.6330971e-02  -4.4666467e+06
   3.2917639e-09  -4.7604967e-03   9.6116567e-02   6.6361897e-02  -4.4554845e+06
   3.2944315e-09  -4.7486263e-03   9.6072486e-02   6.6392760e-02  -4.4443504e+06
   3.2970990e-09  -4.7367856e-03   9.6028534e-02   6.6423560e-02  -4.4332444e+06
   3.2997666e-09  -4.7249744e-03   9.5984712e-02   6.6454297e-02  -4.4221665e+06
   3.3024341e-09  -4.7131928e-03   9.5941019e-02   6.6484971e-02  -4.4111164e+06
   3.3051017e-09  -4.7014406e-03   9.5897454e-02   6.6515583e-02  -4.4000942e+06
   3.3077693e-09  -4.6897178e-03   9.5854017e-02   6.6546131e-02  -4.3890998e+06
   3.3104368e-09  -4.6780243e-03   9.5810708e-02   6.6576617e-02  -4.3781331e+06
   3.3131044e-09  -4.6663600e-03   9.5767526e-02   6.6607040e-02  -4.3671941e+06
   3.3157719e-09  -4.6547248e-03   9.5724471e-02   6.6637400e-02  -4.3562826e+06
   3.3184395e-09  -4.6431187e-03   9.5681543e-02   6.6667698e-02  -4.3453986e+06
   3.3211070e-09  -4.6315416e-03   9.5638740e-02   6.6697934e-02  -4.3345421e+06
   3.3237746e-09  -4.6199934e-03   9.5596063e-02   6.6728108e-02  -4.3237129e+06
   3.3264421e-09  -4.6084741e-03   9.5553511e-02   6.6758220e-02  -4.3129110e+06
   3.3291097e-09  -4.5969835e-03   9.5511084e-02   6.6788269e-02  -4.3021363e+06
   3.3317773e-09  -4.5855217e-03   9.5468781e-02   6.6818257e-02  -4.2913888e+06
   3.3344448e-09  -4.5740885e-03   9.5426602e-02   6.6848183e-02  -4.2806683e+06
   3.3371124e-09  -4.5626838e-03   9.5384547e-02   6.6878047e-02  -4.2699749e+06
   3.3397799e-09  -4.5513077e-03   9.5342614e-02   6.6907850e-02  -4.2593084e+06
   3.3424475e-09  -4.5399599e-03   9.5300805e-02   6.6937591e-02  -4.2486687e+06
   3.3451150e-09  -4.5286405e-03   9.5259117e-02   6.6967271e-02  -4.2380559e+06
   3.3477826e-09  -4.5173494e-03   9.5217552e-02   6.6996889e-02  -4.2274698e+06
   3.3504502e-09  -4.5060865e-03   9.5176108e-02   6.7026446e-02  -4.2169103e+06
   3.3531177e-09  -4.4948517e-03   9.5134785e-02   6.7055942e-02  -4.2063775e+06
   3.3557853e-09  -4.4836450e-03   9.5093583e-02   6.7085377e-02  -4.1958712e+06
   3.3584528e-09  -4.4724663e-03   9.5052500e-02   6.7114751e-02  -4.1853913e+06
   3.3611204e-09  -4.4613154e-03   9.5011538e-02   6.7144064e-02  -4.1749378e+06
   3.3637879e-09  -4.4501925e-03   9.4970696e-02   6.7173317e-02  -4.1645106e+06
   3.3664555e-09  -4.4390973e-03   9.4929972e-02   6.7202508e-02  -4.1541097e+06
   3.3691230e-09  -4.4280298e-03   9.4889367e-02   6.7231640e-02  -4.1437350e+06
   3.3717906e-09  -4.4169900e-03   9.4848881e-02   6.7260710e-02  -4.1333864e+06
   3.3744582e-09  -4.4059777e-03   9.4808512e-02   6.7289721e-02  -4.1230638e+06
   3.3771257e-09  -4.3949930e-03   9.4768261e-02   6.7318671e-02  -4.1127673e+06
   3.3797933e-09  -4.3840356e-03   9.4728127e-02   6.7347561e-02  -4.1024966e+06
   3.3824608e-09  -4.3731057e-03   9.4688109e-02   6.7376391e-02  -4.0922518e+06
   3.3851284e-09  -4.3622030e-03   9.4648209e-02   6.7405161e-02  -4.0820328e+06
   3.3877959e-09  -4.3513276e-03   9.4608424e-02   6.7433871e-02  -4.0718395e+06
   3.3904635e-09  -4.3404793e-03   9.4568754e-02   6.7462521e-02  -4.0616719e+06
   3.3931310e-09  -4.3296581e-03   9.4529200e-02   6.7491111e-02  -4.0515298e+06
   3.3957986e-09  -4.3188639e-03   9.4489761e-02   6.7519642e-02  -4.0414133e+06
   3.3984662e-09  -4.3080967e-03   9.4450437e-02   6.7548114e-02  -4.0313222e+06
   3.4011337e-09  -4.2973563e-03   9.4411226e-02   6.7576526e-02  -4.0212565e+06
   3.4038013e-09  -4.2866428e-03   9.4372129e-02   6.7604878e-02  -4.0112161e+06
   3.4064688e-09  -4.2759560e-03   9.4333146e-02   6.7633172e-02  -4.0012010e+06
   3.4091364e-09  -4.2652959e-03   9.4294275e-02   6.7661406e-02  -3.9912111e+06
   3.4118039e-09  -4.2546625e-03   9.4255517e-02   6.7689582e-02  -3.9812463e+06
   3.4144715e-09  -4.2440555e-03   9.4216872e-02   6.7717698e-02  -3.9713066e+06
   3.4171390e-09  -4.2334751e-03   9.4178338e-02   6.7745756e-02  -3.9613918e+06
   3.4198066e-09  -4.2229210e-03   9.4139916e-02   6.7773755e-02  -3.9515021e+06
   3.4224742e-09  -4.2123934e-03   9.4101605e-02   6.7801695e-02  -3.9416372e+06
   3.4251417e-09  -4.2018920e-03   9.4063405e-02   6.7829576e-02  -3.9317971e+06
   3.4278093e-09  -4.1914168e-03   9.4025315e-02   6.7857400e-02  -3.9219817e+06
   3.4304768e-09  -4.1809677e-03   9.3987336e-02   6.7885165e-02  -3.9121910e+06
   3.4331444e-09  -4.1705448e-03   9.3949466e-02   6.7912871e-02  -3.9024250e+06
   3.4358119e-09  -4.1601478e-03   9.3911705e-02   6.7940520e-02  -3.8926835e+06
   3.4384795e-09  -4.1497769e-03   9.3874054e-02   6.7968110e-02  -3.8829665e+06
   3.4411470e-09  -4.1394318e-03   9.3836511e-02   6.7995643e-02  -3.8732739e+06
   3.4438146e-09  -4.1291125e-03   9.3799077e-02   6.8023117e-02  -3.8636057e+06
   3.4464822e-09  -4.1188190e-03   9.3761750e-02   6.8050534e-02  -3.8539618e+06
   3.4491497e-09  -4.1085512e-03   9.3724531e-02   6.8077893e-02  -3.8443422e+06
   3.4518173e-09  -4.0983090e-03   9.3687420e-02   6.8105195e-02  -3.8347467e+06
   3.4544848e-09  -4.0880923e-03   9.3650415e-02   6.8132439e-02  -3.8251753e+06
   3.4571524e-09  -4.0779012e-03   9.3613517e-02   6.8159626e-02  -3.8156280e+06
   3.4598199e-09  -4.0677355e-03   9.3576725e-02   6.8186755e-02  -3.8061047e+06
   3.4624875e-09  -4.0575952e-03   9.3540039e-02   6.8213828e-02  -3.7966054e+06
   3.4651551e-09  -4.0474802e-03   9.3503459e-02   6.8240843e-02  -3.7871299e+06
   3.4678226e-09  -4.0373904e-03   9.3466983e-02   6.8267801e-02  -3.7776782e+06
   3.4704902e-09  -4.0273259e-03   9.3430613e-02   6.8294702e-02  -3.7682503e+06
   3.4731577e-09  -4.0172864e-03   9.3394347e-02   6.8321546e-02  -3.7588460e+06
   3.4758253e-09  -4.0072720e-03   9.3358186e-02   6.8348334e-02  -3.7494654e+06
   3.4784928e-09  -3.9972826e-03   9.3322128e-02   6.8375065e-02  -3.7401084e+06
   3.4811604e-09  -3.9873181e-03   9.3286174e-02   6.8401740e-02  -3.7307749e+06
   3.4838279e-09  -3.9773784e-03   9.3250323e-02   6.8428358e-02  -3.7214648e+06
   3.4864955e-09  -3.9674636e-03   9.3214575e-02   6.8454919e-02  -3.7121781e+06
   3.4891631e-09  -3.9575735e-03   9.3178929e-02   6.8481425e-02  -3.7029148e+06
   3.4918306e-09  -3.9477081e-03   9.3143386e-02   6.8507874e-02  -3.6936747e+06
   3.4944982e-09  -3.9378674e-03   9.3107944e-02   6.8534267e-02  -3.6844578e+06
   3.4971657e-09  -3.9280511e-03   9.3072605e-02   6.8560605e-02  -3.6752641e+06
   3.4998333e-09  -3.9182594e-03   9.3037366e-02   6.8586886e-02  -3.6660935e+06
   3.5025008e-09  -3.9084921e-03   9.3002228e-02   6.8613112e-02  -3.6569459e+06
   3.5051684e-09  -3.8987492e-03   9.2967191e-02   6.8639282e-02  -3.6478212e+06
   3.5078359e-09  -3.8890306e-03   9.2932254e-02   6.8665396e-02  -3.6387195e+06
   3.5105035e-09  -3.8793362e-03   9.2897417e-02   6.8691455e-02  -3.6296407e+06
   3.5131711e-09  -3.8696660e-03   9.2862680e-02   6.8717459e-02  -3.6205847e+06
   3.5158386e-09  -3.8600199e-03   9.2828042e-02   6.8743407e-02  -3.6115514e+06
   3.5185062e-09  -3.8503980e-03   9.2793503e-02   6.8769300e-02  -3.6025407e+06
   3.5211737e-09  -3.8408000e-03   9.2759062e-02   6.8795138e-02  -3.5935527e+06
   3.5238413e-09  -3.8312259e-03   9.2724720e-02   6.8820921e-02  -3.5845873e+06
   3.5265088e-09  -3.8216758e-03   9.2690476e-02   6.8846649e-02  -3.5756444e+06
   3.5291764e-09  -3.8121495e-03   9.2656330e-02   6.8872322e-02  -3.5667239e+06
   3.5318439e-09  -3.8026469e-03   9.2622281e-02   6.8897941e-02  -3.5578259e+06
   3.5345115e-09  -3.7931680e-03   9.2588330e-02   6.8923505e-02  -3.5489501e+06
   3.5371791e-09  -3.7837128e-03   9.2554475e-02   6.8949014e-02  -3.5400967e+06
   3.5398466e-09  -3.7742812e-03   9.2520716e-02   6.8974469e-02  -3.5312655e+06
   3.5425142e-09  -3.7648731e-03   9.2487054e-02   6.8999869e-02  -3.5224564e+06
   3.5451817e-09  -3.7554885e-03   9.2453488e-02   6.9025216e-02  -3.5136695e+06
   3.5478493e-09  -3.7461273e-03   9.2420017e-02   6.9050508e-02  -3.5049046e+06
   3.5505168e-09  -3.7367894e-03   9.2386642e-02   6.9075746e-02  -3.4961617e+06
   3.5531844e-09  -3.7274749e-03   9.2353362e-02   6.9100930e-02  -3.4874407e+06
   3.5558520e-09  -3.7181835e-03   9.2320176e-02   6.9126060e-02  -3.4787417e+06
   3.5585195e-09  -3.7089154e-03   9.2287084e-02   6.9151136e-02  -3.4700645e+06
   3.5611871e-09  -3.6996703e-03   9.2254087e-02   6.9176159e-02  -3.4614090e+06
   3.5638546e-09  -3.6904484e-03   9.2221184e-02   6.9201128e-02  -3.4527753e+06
   3.5665222e-09  -3.6812494e-03   9.2188374e-02   6.9226044e-02  -3.4441632e+06
   3.5691897e-09  -3.6720734e-03   9.2155657e-02   6.9250906e-02  -3.4355728e+06
   3.5718573e-09  -3.6629202e-03   9.2123033e-02   6.9275715e-02  -3.4270039e+06
   3.5745248e-09  -3.6537899e-03   9.2090502e-02   6.9300470e-02  -3.4184565e+06
   3.5771924e-09  -3.6446823e-03   9.2058063e-02   6.9325173e-02  -3.4099305e+06
   3.5798600e-09  -3.6355975e-03   9.2025716e-02   6.9349822e-02  -3.4014260e+06
   3.5825275e-09  -3.6265353e-03   9.1993460e-02   6.9374419e-02  -3.3929427e+06
   3.5851951e-09  -3.6174958e-03   9.1961297e-02   6.9398962e-02  -3.3844808e+06
   3.5878626e-09  -3.6084787e-03   9.1929224e-02   6.9423453e-02  -3.3760401e+06
   3.5905302e-09  -3.5994842e-03   9.1897242e-02   6.9447892e-02  -3.3676205e+06
   3.5931977e-09  -3.5905121e-03   9.1865351e-02   6.9472277e-02  -3.3592221e+06
   3.5958653e-09  -3.5815624e-03   9.1833550e-02   6.9496611e-02  -3.3508448e+06
   3.5985328e-09  -3.5726350e-03   9.1801839e-02   6.9520891e-02  -3.3424884e+06
   3.6012004e-09  -3.5637298e-03   9.1770218e-02   6.9545120e-02  -3.3341531e+06
   3.6038680e-09  -3.5548469e-03   9.1738687e-02   6.9569296e-02  -3.3258386e+06
   3.6065355e-09  -3.5459861e-03   9.1707244e-02   6.9593420e-02  -3.3175450e+06
   3.6092031e-09  -3.5371474e-03   9.1675891e-02   6.9617493e-02  -3.3092722e+06
   3.6118706e-09  -3.5283307e-03   9.1644626e-02   6.9641513e-02  -3.3010201e+06
   3.6145382e-09  -3.5195361e-03   9.1613449e-02   6.9665481e-02  -3.2927887e+06
   3.6172057e-09  -3.5107633e-03   9.1582360e-02   6.9689398e-02  -3.2845780e+06
   3.6198733e-09  -3.5020124e-03   9.1551360e-02   6.9713263e-02  -3.2763878e+06
   3.6225408e-09  -3.4932834e-03   9.1520446e-02   6.9737077e-02  -3.2682182e+06
   3.6252084e-09  -3.4845761e-03   9.1489620e-02   6.9760839e-02  -3.2600691e+06
   3.6278760e-09  -3.4758906e-03   9.1458881e-02   6.9784549e-02  -3.2519404e+06
   3.6305435e-09  -3.4672266e-03   9.1428229e-02   6.9808209e-02  -3.2438321e+06
   3.6332111e-09  -3.4585843e-03   9.1397663e-02   6.9831817e-02  -3.2357441e+06
   3.6358786e-09  -3.4499636e-03   9.1367183e-02   6.9855374e-02  -3.2276764e+06
   3.6385462e-09  -3.4413643e-03   9.1336789e-02   6.9878880e-02  -3.2196290e+06
   3.6412137e-09  -3.4327865e-03   9.1306481e-02   6.9902336e-02  -3.2116017e+06
   3.6438813e-09  -3.4242300e-03   9.1276258e-02   6.9925740e-02  -3.2035945e+06
   3.6465488e-09  -3.4156949e-03   9.1246120e-02   6.9949094e-02  -3.1956074e+06
   3.6492164e-09  -3.4071811e-03   9.1216067e-02   6.9972397e-02  -3.1876403e+06
   3.6518840e-09  -3.3986885e-03   9.1186099e-02   6.9995649e-02  -3.1796932e+06
   3.6545515e-09  -3.3902171e-03   9.1156214e-02   7.0018852e-02  -3.1717661e+06
   3.6572191e-09  -3.3817668e-03   9.1126414e-02   7.0042003e-02  -3.1638588e+06
   3.6598866e-09  -3.3733375e-03   9.1096698e-02   7.0065105e-02  -3.1559713e+06
   3.6625542e-09  -3.3649293e-03   9.1067065e-02   7.0088156e-02  -3.1481035e+06
   3.6652217e-09  -3.3565420e-03   9.1037515e-02   7.0111157e-02  -3.1402555e+06
   3.6678893e-09  -3.3481757e-03   9.1008049e-02   7.0134109e-02  -3.1324272e+06
   3.6705569e-09  -3.3398302e-03   9.0978665e-02   7.0157010e-02  -3.1246185e+06
   3.6732244e-09  -3.3315055e-03   9.0949364e-02   7.0179861e-02  -3.1168294e+06
   3.6758920e-09  -3.3232015e-03   9.0920144e-02   7.0202663e-02  -3.1090597e+06
   3.6785595e-09  -3.3149183e-03   9.0891007e-02   7.0225415e-02  -3.1013096e+06
   3.6812271e-09  -3.3066557e-03   9.0861952e-02   7.0248118e-02  -3.0935789e+06
   3.6838946e-09  -3.2984137e-03   9.0832978e-02   7.0270771e-02  -3.0858675e+06
   3.6865622e-09  -3.2901922e-03   9.0804085e-02   7.0293375e-02  -3.0781755e+06
   3.6892297e-09  -3.2819912e-03   9.0775273e-02   7.0315930e-02  -3.0705027e+06
   3.6918973e-09  -3.2738107e-03   9.0746542e-02   7.0338435e-02  -3.0628492e+06
   3.6945649e-09  -3.2656506e-03   9.0717891e-02   7.0360891e-02  -3.0552148e+06
   3.6972324e-09  -3.2575108e-03   9.0689321e-02   7.0383299e-02  -3.0475996e+06
   3.6999000e-09  -3.2493913e-03   9.0660830e-02   7.0405657e-02  -3.0400034e+06
   3.7025675e-09  -3.2412920e-03   9.0632420e-02   7.0427967e-02  -3.0324263e+06
   3.7052351e-09  -3.2332129e-03   9.0604088e-02   7.0450228e-02  -3.0248682e+06
   3.7079026e-09  -3.2251540e-03   9.0575836e-02   7.0472440e-02  -3.0173290e+06
   3.7105702e-09  -3.2171151e-03   9.0547663e-02   7.0494604e-02  -3.0098087e+06
   3.7132377e-09  -3.2090963e-03   9.0519569e-02   7.0516719e-02  -3.0023072e+06
   3.7159053e-09  -3.2010975e-03   9.0491553e-02   7.0538786e-02  -2.9948245e+06
   3.7185729e-09  -3.1931186e-03   9.0463616e-02   7.0560805e-02  -2.9873606e+06
   3.7212404e-09  -3.1851596e-03   9.0435756e-02   7.0582775e-02  -2.9799154e+06
   3.7239080e-09  -3.1772204e-03   9.0407974e-02   7.0604697e-02  -2.9724888e+06
   3.7265755e-09  -3.1693010e-03   9.0380270e-02   7.0626572e-02  -2.9650808e+06
   3.7292431e-09  -3.1614013e-03   9.0352643e-02   7.0648398e-02  -2.9576914e+06
   3.7319106e-09  -3.1535214e-03   9.0325094e-02   7.0670177e-02  -2.9503204e+06
   3.7345782e-09  -3.1456610e-03   9.0297621e-02   7.0691908e-02  -2.9429680e+06
   3.7372457e-09  -3.1378203e-03   9.0270224e-02   7.0713591e-02  -2.9356339e+06
   3.7399133e-09  -3.1299991e-03   9.0242904e-02   7.0735226e-02  -2.9283183e+06
   3.7425809e-09  -3.1221974e-03   9.0215660e-02   7.0756815e-02  -2.9210209e+06
   3.7452484e-09  -3.1144151e-03   9.0188492e-02   7.0778355e-02  -2.9137418e+06
   3.7479160e-09  -3.1066522e-03   9.0161400e-02   7.0799849e-02  -2.9064810e+06
   3.7505835e-09  -3.0989087e-03   9.0134383e-02   7.0821295e-02  -2.8992383e+06
   3.7532511e-09  -3.0911844e-03   9.0107441e-02   7.0842694e-02  -2.8920138e+06
   3.7559186e-09  -3.0834795e-03   9.0080575e-02   7.0864047e-02  -2.8848074e+06
   3.7585862e-09  -3.0757937e-03   9.0053783e-02   7.0885352e-02  -2.8776190e+06
   3.7612538e-09  -3.0681270e-03   9.0027065e-02   7.0906610e-02  -2.8704486e+06
   3.7639213e-09  -3.0604795e-03   9.0000422e-02   7.0927822e-02  -2.8632961e+06
   3.7665889e-09  -3.0528510e-03   8.9973853e-02   7.0948987e-02  -2.8561616e+06
   3.7692564e-09  -3.0452415e-03   8.9947357e-02   7.0970105e-02  -2.8490450e+06
   3.7719240e-09  -3.0376510e-03   8.9920936e-02   7.0991177e-02  -2.8419461e+06
   3.7745915e-09  -3.0300794e-03   8.9894587e-02   7.1012202e-02  -2.8348651e+06
   3.7772591e-09  -3.0225267e-03   8.9868312e-02   7.1033182e-02  -2.8278017e+06
   3.7799266e-09  -3.0149928e-03   8.9842110e-02   7.1054114e-02  -2.8207561e+06
   3.7825942e-09  -3.0074776e-03   8.9815981e-02   7.1075001e-02  -2.8137280e+06
   3.7852618e-09  -2.9999812e-03   8.9789924e-02   7.1095842e-02  -2.8067176e+06
   3.7879293e-09  -2.9925035e-03   8.9763939e-02   7.1116636e-02  -2.7997248e+06
   3.7905969e-09  -2.9850443e-03   8.9738026e-02   7.1137385e-02  -2.7927494e+06
   3.7932644e-09  -2.9776038e-03   8.9712186e-02   7.1158088e-02  -2.7857915e+06
   3.7959320e-09  -2.9701818e-03   8.9686416e-02   7.1178746e-02  -2.7788510e+06
   3.7985995e-09  -2.9627783e-03   8.9660719e-02   7.1199357e-02  -2.7719279e+06
   3.8012671e-09  -2.9553933e-03   8.9635092e-02   7.1219923e-02  -2.7650221e+06
   3.8039346e-09  -2.9480266e-03   8.9609537e-02   7.1240444e-02  -2.7581336e+06
   3.8066022e-09  -2.9406783e-03   8.9584052e-02   7.1260919e-02  -2.7512624e+06
   3.8092698e-09  -2.9333483e-03   8.9558637e-02   7.1281349e-02  -2.7444083e+06
   3.8119373e-09  -2.9260366e-03   8.9533293e-02   7.1301734e-02  -2.7375714e+06
   3.8146049e-09  -2.9187430e-03   8.9508020e-02   7.1322074e-02  -2.7307517e+06
   3.8172724e-09  -2.9114677e-03   8.9482816e-02   7.1342369e-02  -2.7239490e+06
   3.8199400e-09  -2.9042105e-03   8.9457681e-02   7.1362618e-02  -2.7171633e+06
   3.8226075e-09  -2.8969713e-03   8.9432617e-02   7.1382823e-02  -2.7103946e+06
   3.8252751e-09  -2.8897502e-03   8.9407621e-02   7.1402984e-02  -2.7036428e+06
   3.8279426e-09  -2.8825471e-03   8.9382695e-02   7.1423099e-02  -2.6969080e+06
   3.8306102e-09  -2.8753619e-03   8.9357837e-02   7.1443170e-02  -2.6901899e+06
   3.8332778e-09  -2.8681946e-03   8.9333048e-02   7.1463196e-02  -2.6834888e+06
   3.8359453e-09  -2.8610451e-03   8.9308328e-02   7.1483178e-02  -2.6768043e+06
   3.8386129e-09  -2.8539135e-03   8.9283675e-02   7.1503116e-02  -2.6701366e+06
   3.8412804e-09  -2.8467997e-03   8.9259091e-02   7.1523009e-02  -2.6634856e+06
   3.8439480e-09  -2.8397035e-03   8.9234575e-02   7.1542859e-02  -2.6568513e+06
   3.8466155e-09  -2.8326250e-03   8.9210126e-02   7.1562664e-02  -2.6502335e+06
   3.8492831e-09  -2.8255642e-03   8.9185744e-02   7.1582425e-02  -2.6436323e+06
   3.8519507e-09  -2.8185210e-03   8.9161430e-02   7.1602142e-02  -2.6370476e+06
   3.8546182e-09  -2.8114953e-03   8.9137183e-02   7.1621816e-02  -2.6304794e+06
   3.8572858e-09  -2.8044870e-03   8.9113003e-02   7.1641445e-02  -2.6239276e+06
   3.8599533e-09  -2.7974963e-03   8.9088889e-02   7.1661031e-02  -2.6173923e+06
   3.8626209e-09  -2.7905230e-03   8.9064842e-02   7.1680574e-02  -2.6108732e+06
   3.8652884e-09  -2.7835670e-03   8.9040861e-02   7.1700073e-02  -2.6043705e+06
   3.8679560e-09  -2.7766283e-03   8.9016946e-02   7.1719528e-02  -2.5978841e+06
   3.8706235e-09  -2.7697070e-03   8.8993096e-02   7.1738941e-02  -2.5914139e+06
   3.8732911e-09  -2.7628028e-03   8.8969313e-02   7.1758310e-02  -2.5849598e+06
   3.8759587e-09  -2.7559159e-03   8.8945594e-02   7.1777636e-02  -2.5785220e+06
   3.8786262e-09  -2.7490461e-03   8.8921941e-02   7.1796918e-02  -2.5721002e+06
   3.8812938e-09  -2.7421935e-03   8.8898353e-02   7.1816158e-02  -2.5656945e+06
   3.8839613e-09  -2.7353578e-03   8.8874830e-02   7.1835355e-02  -2.5593048e+06
   3.8866289e-09  -2.7285393e-03   8.8851372e-02   7.1854509e-02  -2.5529311e+06
   3.8892964e-09  -2.7217377e-03   8.8827978e-02   7.1873621e-02  -2.5465734e+06
   3.8919640e-09  -2.7149530e-03   8.8804648e-02   7.1892690e-02  -2.5402315e+06
   3.8946315e-09  -2.7081852e-03   8.8781382e-02   7.1911716e-02  -2.5339055e+06
   3.8972991e-09  -2.7014343e-03   8.8758180e-02   7.1930700e-02  -2.5275954e+06
   3.8999667e-09  -2.6947002e-03   8.8735042e-02   7.1949641e-02  -2.5213010e+06
