   0.0000000e+00  -2.0714250e-01   6.1885919e+00   6.1841164e-07  -5.1692160e+08
   2.6675559e-12  -2.0576906e-01   6.1777129e+00   6.8695523e-07  -5.1309685e+08
   5.3351117e-12  -2.0440584e-01   6.1663653e+00   7.6242939e-07  -5.0926966e+08
   8.0026676e-12  -2.0305284e-01   6.1545363e+00   8.4545390e-07  -5.0544018e+08
   1.0670223e-11  -2.0171006e-01   6.1422130e+00   9.3669466e-07  -5.0160858e+08
   1.3337779e-11  -2.0037752e-01   6.1293830e+00   1.0368661e-06  -4.9777502e+08
   1.6005335e-11  -1.9905522e-01   6.1160339e+00   1.1467336e-06  -4.9393973e+08
   1.8672891e-11  -1.9774316e-01   6.1021536e+00   1.2671161e-06  -4.9010290e+08
   2.1340447e-11  -1.9644135e-01   6.0877304e+00   1.3988883e-06  -4.8626478e+08
   2.4008003e-11  -1.9514979e-01   6.0727529e+00   1.5429831e-06  -4.8242563e+08
   2.6675559e-11  -1.9386848e-01   6.0572099e+00   1.7003946e-06  -4.7858573e+08
   2.9343114e-11  -1.9259742e-01   6.0410909e+00   1.8721794e-06  -4.7474536e+08
   3.2010670e-11  -1.9133661e-01   6.0243857e+00   2.0594599e-06  -4.7090487e+08
   3.4678226e-11  -1.9008606e-01   6.0070847e+00   2.2634260e-06  -4.6706457e+08
   3.7345782e-11  -1.8884576e-01   5.9891790e+00   2.4853371e-06  -4.6322485e+08
   4.0013338e-11  -1.8761572e-01   5.9706599e+00   2.7265246e-06  -4.5938608e+08
   4.2680894e-11  -1.8639592e-01   5.9515199e+00   2.9883932e-06  -4.5554867e+08
   4.5348449e-11  -1.8518636e-01   5.9317517e+00   3.2724230e-06  -4.5171305e+08
   4.8016005e-11  -1.8398704e-01   5.9113492e+00   3.5801707e-06  -4.4787968e+08
   5.0683561e-11  -1.8279795e-01   5.8903067e+00   3.9132712e-06  -4.4404903e+08
   5.3351117e-11  -1.8161908e-01   5.8686195e+00   4.2734383e-06  -4.4022159e+08
   5.6018673e-11  -1.8045042e-01   5.8462838e+00   4.6624662e-06  -4.3639789e+08
   5.8686229e-11  -1.7929197e-01   5.8232967e+00   5.0822294e-06  -4.3257846e+08
   6.1353785e-11  -1.7814371e-01   5.7996560e+00   5.5346834e-06  -4.2876387e+08
   6.4021340e-11  -1.7700562e-01   5.7753609e+00   6.0218646e-06  -4.2495470e+08
   6.6688896e-11  -1.7587769e-01   5.7504112e+00   6.5458901e-06  -4.2115156e+08
   6.9356452e-11  -1.7475991e-01   5.7248078e+00   7.1089573e-06  -4.1735505e+08
   7.2024008e-11  -1.7365225e-01   5.6985526e+00   7.7133424e-06  -4.1356583e+08
   7.4691564e-11  -1.7255469e-01   5.6716488e+00   8.3613998e-06  -4.0978455e+08
   7.7359120e-11  -1.7146721e-01   5.6441004e+00   9.0555602e-06  -4.0601188e+08
   8.0026676e-11  -1.7038979e-01   5.6159125e+00   9.7983285e-06  -4.0224853e+08
   8.2694231e-11  -1.6932240e-01   5.5870912e+00   1.0592282e-05  -3.9849518e+08
   8.5361787e-11  -1.6826501e-01   5.5576439e+00   1.1440067e-05  -3.9475256e+08
   8.8029343e-11  -1.6721760e-01   5.5275788e+00   1.2344397e-05  -3.9102140e+08
   9.0696899e-11  -1.6618012e-01   5.4969054e+00   1.3308048e-05  -3.8730243e+08
   9.3364455e-11  -1.6515255e-01   5.4656339e+00   1.4333855e-05  -3.8359641e+08
   9.6032011e-11  -1.6413485e-01   5.4337757e+00   1.5424710e-05  -3.7990410e+08
   9.8699567e-11  -1.6312699e-01   5.4013434e+00   1.6583556e-05  -3.7622625e+08
   1.0136712e-10  -1.6212891e-01   5.3683501e+00   1.7813382e-05  -3.7256362e+08
   1.0403468e-10  -1.6114058e-01   5.3348101e+00   1.9117220e-05  -3.6891700e+08
   1.0670223e-10  -1.6016196e-01   5.3007387e+00   2.0498138e-05  -3.6528715e+08
   1.0936979e-10  -1.5919299e-01   5.2661518e+00   2.1959236e-05  -3.6167483e+08
   1.1203735e-10  -1.5823364e-01   5.2310663e+00   2.3503641e-05  -3.5808081e+08
   1.1470490e-10  -1.5728384e-01   5.1954996e+00   2.5134502e-05  -3.5450585e+08
   1.1737246e-10  -1.5634355e-01   5.1594701e+00   2.6854981e-05  -3.5095071e+08
   1.2004001e-10  -1.5541272e-01   5.1229967e+00   2.8668250e-05  -3.4741613e+08
   1.2270757e-10  -1.5449127e-01   5.0860990e+00   3.0577486e-05  -3.4390284e+08
   1.2537513e-10  -1.5357917e-01   5.0487970e+00   3.2585863e-05  -3.4041158e+08
   1.2804268e-10  -1.5267634e-01   5.0111114e+00   3.4696546e-05  -3.3694305e+08
   1.3071024e-10  -1.5178272e-01   4.9730631e+00   3.6912688e-05  -3.3349795e+08
   1.3337779e-10  -1.5089825e-01   4.9346736e+00   3.9237421e-05  -3.3007696e+08
   1.3604535e-10  -1.5002287e-01   4.8959646e+00   4.1673853e-05  -3.2668073e+08
   1.3871290e-10  -1.4915650e-01   4.8569580e+00   4.4225061e-05  -3.2330993e+08
   1.4138046e-10  -1.4829907e-01   4.8176759e+00   4.6894086e-05  -3.1996516e+08
   1.4404802e-10  -1.4745052e-01   4.7781407e+00   4.9683927e-05  -3.1664702e+08
   1.4671557e-10  -1.4661077e-01   4.7383748e+00   5.2597537e-05  -3.1335610e+08
   1.4938313e-10  -1.4577975e-01   4.6984005e+00   5.5637820e-05  -3.1009294e+08
   1.5205068e-10  -1.4495738e-01   4.6582401e+00   5.8807622e-05  -3.0685808e+08
   1.5471824e-10  -1.4414359e-01   4.6179160e+00   6.2109730e-05  -3.0365202e+08
   1.5738580e-10  -1.4333830e-01   4.5774503e+00   6.5546868e-05  -3.0047523e+08
   1.6005335e-10  -1.4254142e-01   4.5368649e+00   6.9121693e-05  -2.9732816e+08
   1.6272091e-10  -1.4175288e-01   4.4961815e+00   7.2836788e-05  -2.9421123e+08
   1.6538846e-10  -1.4097260e-01   4.4554215e+00   7.6694666e-05  -2.9112483e+08
   1.6805602e-10  -1.4020049e-01   4.4146061e+00   8.0697762e-05  -2.8806933e+08
   1.7072357e-10  -1.3943647e-01   4.3737559e+00   8.4848430e-05  -2.8504506e+08
   1.7339113e-10  -1.3868046e-01   4.3328913e+00   8.9148944e-05  -2.8205233e+08
   1.7605869e-10  -1.3793237e-01   4.2920323e+00   9.3601494e-05  -2.7909140e+08
   1.7872624e-10  -1.3719212e-01   4.2511981e+00   9.8208187e-05  -2.7616254e+08
   1.8139380e-10  -1.3645962e-01   4.2104079e+00   1.0297104e-04  -2.7326596e+08
   1.8406135e-10  -1.3573479e-01   4.1696800e+00   1.0789199e-04  -2.7040184e+08
   1.8672891e-10  -1.3501753e-01   4.1290323e+00   1.1297288e-04  -2.6757035e+08
   1.8939647e-10  -1.3430777e-01   4.0884822e+00   1.1821545e-04  -2.6477162e+08
   1.9206402e-10  -1.3360541e-01   4.0480463e+00   1.2362140e-04  -2.6200576e+08
   1.9473158e-10  -1.3291036e-01   4.0077410e+00   1.2919228e-04  -2.5927285e+08
   1.9739913e-10  -1.3222255e-01   3.9675817e+00   1.3492959e-04  -2.5657293e+08
   2.0006669e-10  -1.3154188e-01   3.9275835e+00   1.4083474e-04  -2.5390604e+08
   2.0273424e-10  -1.3086826e-01   3.8877606e+00   1.4690904e-04  -2.5127218e+08
   2.0540180e-10  -1.3020162e-01   3.8481268e+00   1.5315372e-04  -2.4867132e+08
   2.0806936e-10  -1.2954185e-01   3.8086952e+00   1.5956993e-04  -2.4610341e+08
   2.1073691e-10  -1.2888887e-01   3.7694783e+00   1.6615874e-04  -2.4356839e+08
   2.1340447e-10  -1.2824260e-01   3.7304880e+00   1.7292112e-04  -2.4106617e+08
   2.1607202e-10  -1.2760295e-01   3.6917355e+00   1.7985798e-04  -2.3859662e+08
   2.1873958e-10  -1.2696984e-01   3.6532314e+00   1.8697014e-04  -2.3615963e+08
   2.2140714e-10  -1.2634317e-01   3.6149859e+00   1.9425835e-04  -2.3375504e+08
   2.2407469e-10  -1.2572287e-01   3.5770082e+00   2.0172328e-04  -2.3138267e+08
   2.2674225e-10  -1.2510884e-01   3.5393074e+00   2.0936552e-04  -2.2904234e+08
   2.2940980e-10  -1.2450101e-01   3.5018917e+00   2.1718562e-04  -2.2673384e+08
   2.3207736e-10  -1.2389929e-01   3.4647687e+00   2.2518403e-04  -2.2445696e+08
   2.3474491e-10  -1.2330359e-01   3.4279457e+00   2.3336115e-04  -2.2221145e+08
   2.3741247e-10  -1.2271385e-01   3.3914293e+00   2.4171731e-04  -2.1999708e+08
   2.4008003e-10  -1.2212996e-01   3.3552257e+00   2.5025279e-04  -2.1781357e+08
   2.4274758e-10  -1.2155186e-01   3.3193403e+00   2.5896779e-04  -2.1566066e+08
   2.4541514e-10  -1.2097946e-01   3.2837783e+00   2.6786247e-04  -2.1353806e+08
   2.4808269e-10  -1.2041268e-01   3.2485444e+00   2.7693694e-04  -2.1144547e+08
   2.5075025e-10  -1.1985145e-01   3.2136427e+00   2.8619124e-04  -2.0938260e+08
   2.5341781e-10  -1.1929568e-01   3.1790769e+00   2.9562538e-04  -2.0734911e+08
   2.5608536e-10  -1.1874531e-01   3.1448503e+00   3.0523931e-04  -2.0534471e+08
   2.5875292e-10  -1.1820024e-01   3.1109658e+00   3.1503294e-04  -2.0336905e+08
   2.6142047e-10  -1.1766042e-01   3.0774259e+00   3.2500613e-04  -2.0142180e+08
   2.6408803e-10  -1.1712576e-01   3.0442326e+00   3.3515872e-04  -1.9950262e+08
   2.6675559e-10  -1.1659618e-01   3.0113878e+00   3.4549048e-04  -1.9761116e+08
   2.6942314e-10  -1.1607163e-01   2.9788927e+00   3.5600118e-04  -1.9574708e+08
   2.7209070e-10  -1.1555202e-01   2.9467484e+00   3.6669052e-04  -1.9391003e+08
   2.7475825e-10  -1.1503728e-01   2.9149557e+00   3.7755820e-04  -1.9209963e+08
   2.7742581e-10  -1.1452735e-01   2.8835149e+00   3.8860387e-04  -1.9031555e+08
   2.8009336e-10  -1.1402216e-01   2.8524263e+00   3.9982715e-04  -1.8855740e+08
   2.8276092e-10  -1.1352163e-01   2.8216897e+00   4.1122766e-04  -1.8682484e+08
   2.8542848e-10  -1.1302570e-01   2.7913047e+00   4.2280495e-04  -1.8511749e+08
   2.8809603e-10  -1.1253430e-01   2.7612707e+00   4.3455860e-04  -1.8343500e+08
   2.9076359e-10  -1.1204738e-01   2.7315868e+00   4.4648813e-04  -1.8177699e+08
   2.9343114e-10  -1.1156485e-01   2.7022519e+00   4.5859305e-04  -1.8014311e+08
   2.9609870e-10  -1.1108667e-01   2.6732647e+00   4.7087286e-04  -1.7853299e+08
   2.9876626e-10  -1.1061276e-01   2.6446238e+00   4.8332703e-04  -1.7694627e+08
   3.0143381e-10  -1.1014307e-01   2.6163275e+00   4.9595504e-04  -1.7538259e+08
   3.0410137e-10  -1.0967754e-01   2.5883739e+00   5.0875632e-04  -1.7384159e+08
   3.0676892e-10  -1.0921610e-01   2.5607612e+00   5.2173032e-04  -1.7232290e+08
   3.0943648e-10  -1.0875870e-01   2.5334871e+00   5.3487645e-04  -1.7082618e+08
   3.1210403e-10  -1.0830527e-01   2.5065494e+00   5.4819415e-04  -1.6935108e+08
   3.1477159e-10  -1.0785577e-01   2.4799457e+00   5.6168280e-04  -1.6789724e+08
   3.1743915e-10  -1.0741013e-01   2.4536735e+00   5.7534181e-04  -1.6646432e+08
   3.2010670e-10  -1.0696830e-01   2.4277302e+00   5.8917058e-04  -1.6505198e+08
   3.2277426e-10  -1.0653023e-01   2.4021130e+00   6.0316847e-04  -1.6365986e+08
   3.2544181e-10  -1.0609585e-01   2.3768191e+00   6.1733489e-04  -1.6228765e+08
   3.2810937e-10  -1.0566513e-01   2.3518458e+00   6.3166919e-04  -1.6093501e+08
   3.3077693e-10  -1.0523800e-01   2.3271899e+00   6.4617075e-04  -1.5960160e+08
   3.3344448e-10  -1.0481442e-01   2.3028485e+00   6.6083894e-04  -1.5828710e+08
   3.3611204e-10  -1.0439434e-01   2.2788184e+00   6.7567313e-04  -1.5699119e+08
   3.3877959e-10  -1.0397770e-01   2.2550966e+00   6.9067268e-04  -1.5571356e+08
   3.4144715e-10  -1.0356445e-01   2.2316798e+00   7.0583696e-04  -1.5445389e+08
   3.4411470e-10  -1.0315456e-01   2.2085648e+00   7.2116532e-04  -1.5321187e+08
   3.4678226e-10  -1.0274797e-01   2.1857484e+00   7.3665714e-04  -1.5198720e+08
   3.4944982e-10  -1.0234464e-01   2.1632271e+00   7.5231178e-04  -1.5077958e+08
   3.5211737e-10  -1.0194452e-01   2.1409978e+00   7.6812860e-04  -1.4958871e+08
   3.5478493e-10  -1.0154756e-01   2.1190570e+00   7.8410698e-04  -1.4841431e+08
   3.5745248e-10  -1.0115373e-01   2.0974013e+00   8.0024627e-04  -1.4725609e+08
   3.6012004e-10  -1.0076298e-01   2.0760275e+00   8.1654586e-04  -1.4611376e+08
   3.6278760e-10  -1.0037526e-01   2.0549320e+00   8.3300511e-04  -1.4498705e+08
   3.6545515e-10  -9.9990543e-02   2.0341115e+00   8.4962341e-04  -1.4387568e+08
   3.6812271e-10  -9.9608777e-02   2.0135627e+00   8.6640014e-04  -1.4277940e+08
   3.7079026e-10  -9.9229925e-02   1.9932820e+00   8.8333467e-04  -1.4169792e+08
   3.7345782e-10  -9.8853948e-02   1.9732662e+00   9.0042640e-04  -1.4063100e+08
   3.7612538e-10  -9.8480807e-02   1.9535117e+00   9.1767472e-04  -1.3957838e+08
   3.7879293e-10  -9.8110463e-02   1.9340154e+00   9.3507902e-04  -1.3853981e+08
   3.8146049e-10  -9.7742879e-02   1.9147737e+00   9.5263871e-04  -1.3751504e+08
   3.8412804e-10  -9.7378018e-02   1.8957833e+00   9.7035318e-04  -1.3650383e+08
   3.8679560e-10  -9.7015844e-02   1.8770410e+00   9.8822184e-04  -1.3550594e+08
   3.8946315e-10  -9.6656320e-02   1.8585433e+00   1.0062441e-03  -1.3452114e+08
   3.9213071e-10  -9.6299413e-02   1.8402870e+00   1.0244194e-03  -1.3354920e+08
   3.9479827e-10  -9.5945087e-02   1.8222688e+00   1.0427472e-03  -1.3258990e+08
   3.9746582e-10  -9.5593309e-02   1.8044856e+00   1.0612268e-03  -1.3164302e+08
   4.0013338e-10  -9.5244046e-02   1.7869339e+00   1.0798577e-03  -1.3070833e+08
   4.0280093e-10  -9.4897264e-02   1.7696107e+00   1.0986394e-03  -1.2978562e+08
   4.0546849e-10  -9.4552932e-02   1.7525128e+00   1.1175713e-03  -1.2887470e+08
   4.0813605e-10  -9.4211018e-02   1.7356371e+00   1.1366527e-03  -1.2797534e+08
   4.1080360e-10  -9.3871491e-02   1.7189803e+00   1.1558833e-03  -1.2708736e+08
   4.1347116e-10  -9.3534321e-02   1.7025395e+00   1.1752624e-03  -1.2621055e+08
   4.1613871e-10  -9.3199477e-02   1.6863117e+00   1.1947896e-03  -1.2534473e+08
   4.1880627e-10  -9.2866931e-02   1.6702936e+00   1.2144641e-03  -1.2448969e+08
   4.2147382e-10  -9.2536653e-02   1.6544825e+00   1.2342857e-03  -1.2364526e+08
   4.2414138e-10  -9.2208616e-02   1.6388753e+00   1.2542536e-03  -1.2281125e+08
   4.2680894e-10  -9.1882790e-02   1.6234692e+00   1.2743674e-03  -1.2198749e+08
   4.2947649e-10  -9.1559149e-02   1.6082612e+00   1.2946266e-03  -1.2117380e+08
   4.3214405e-10  -9.1237665e-02   1.5932484e+00   1.3150307e-03  -1.2037000e+08
   4.3481160e-10  -9.0918313e-02   1.5784282e+00   1.3355791e-03  -1.1957593e+08
   4.3747916e-10  -9.0601066e-02   1.5637976e+00   1.3562714e-03  -1.1879143e+08
   4.4014672e-10  -9.0285898e-02   1.5493539e+00   1.3771070e-03  -1.1801632e+08
   4.4281427e-10  -8.9972784e-02   1.5350945e+00   1.3980856e-03  -1.1725046e+08
   4.4548183e-10  -8.9661700e-02   1.5210166e+00   1.4192065e-03  -1.1649369e+08
   4.4814938e-10  -8.9352621e-02   1.5071177e+00   1.4404693e-03  -1.1574584e+08
   4.5081694e-10  -8.9045524e-02   1.4933950e+00   1.4618735e-03  -1.1500678e+08
   4.5348449e-10  -8.8740384e-02   1.4798460e+00   1.4834187e-03  -1.1427636e+08
   4.5615205e-10  -8.8437179e-02   1.4664683e+00   1.5051043e-03  -1.1355443e+08
   4.5881961e-10  -8.8135886e-02   1.4532592e+00   1.5269299e-03  -1.1284085e+08
   4.6148716e-10  -8.7836482e-02   1.4402163e+00   1.5488951e-03  -1.1213549e+08
   4.6415472e-10  -8.7538947e-02   1.4273373e+00   1.5709993e-03  -1.1143820e+08
   4.6682227e-10  -8.7243257e-02   1.4146196e+00   1.5932422e-03  -1.1074886e+08
   4.6948983e-10  -8.6949392e-02   1.4020610e+00   1.6156232e-03  -1.1006733e+08
   4.7215739e-10  -8.6657331e-02   1.3896590e+00   1.6381420e-03  -1.0939349e+08
   4.7482494e-10  -8.6367054e-02   1.3774114e+00   1.6607980e-03  -1.0872721e+08
   4.7749250e-10  -8.6078540e-02   1.3653160e+00   1.6835909e-03  -1.0806837e+08
   4.8016005e-10  -8.5791769e-02   1.3533705e+00   1.7065201e-03  -1.0741684e+08
   4.8282761e-10  -8.5506722e-02   1.3415728e+00   1.7295853e-03  -1.0677252e+08
   4.8549517e-10  -8.5223380e-02   1.3299205e+00   1.7527861e-03  -1.0613528e+08
   4.8816272e-10  -8.4941724e-02   1.3184117e+00   1.7761219e-03  -1.0550501e+08
   4.9083028e-10  -8.4661734e-02   1.3070442e+00   1.7995924e-03  -1.0488160e+08
   4.9349783e-10  -8.4383394e-02   1.2958160e+00   1.8231971e-03  -1.0426494e+08
   4.9616539e-10  -8.4106684e-02   1.2847250e+00   1.8469356e-03  -1.0365492e+08
   4.9883294e-10  -8.3831588e-02   1.2737692e+00   1.8708075e-03  -1.0305144e+08
   5.0150050e-10  -8.3558088e-02   1.2629466e+00   1.8948125e-03  -1.0245440e+08
   5.0416806e-10  -8.3286166e-02   1.2522554e+00   1.9189499e-03  -1.0186369e+08
   5.0683561e-10  -8.3015806e-02   1.2416935e+00   1.9432196e-03  -1.0127922e+08
   5.0950317e-10  -8.2746991e-02   1.2312591e+00   1.9676210e-03  -1.0070089e+08
   5.1217072e-10  -8.2479705e-02   1.2209504e+00   1.9921537e-03  -1.0012860e+08
   5.1483828e-10  -8.2213932e-02   1.2107655e+00   2.0168174e-03  -9.9562259e+07
   5.1750584e-10  -8.1949656e-02   1.2007026e+00   2.0416116e-03  -9.9001779e+07
   5.2017339e-10  -8.1686862e-02   1.1907600e+00   2.0665360e-03  -9.8447069e+07
   5.2284095e-10  -8.1425533e-02   1.1809359e+00   2.0915901e-03  -9.7898039e+07
   5.2550850e-10  -8.1165655e-02   1.1712286e+00   2.1167736e-03  -9.7354604e+07
   5.2817606e-10  -8.0907214e-02   1.1616364e+00   2.1420860e-03  -9.6816680e+07
   5.3084361e-10  -8.0650194e-02   1.1521577e+00   2.1675269e-03  -9.6284183e+07
   5.3351117e-10  -8.0394581e-02   1.1427908e+00   2.1930961e-03  -9.5757031e+07
   5.3617873e-10  -8.0140362e-02   1.1335341e+00   2.2187930e-03  -9.5235145e+07
   5.3884628e-10  -7.9887521e-02   1.1243860e+00   2.2446173e-03  -9.4718446e+07
   5.4151384e-10  -7.9636045e-02   1.1153450e+00   2.2705687e-03  -9.4206857e+07
   5.4418139e-10  -7.9385922e-02   1.1064096e+00   2.2966467e-03  -9.3700303e+07
   5.4684895e-10  -7.9137136e-02   1.0975782e+00   2.3228509e-03  -9.3198710e+07
   5.4951651e-10  -7.8889676e-02   1.0888493e+00   2.3491810e-03  -9.2702004e+07
   5.5218406e-10  -7.8643528e-02   1.0802215e+00   2.3756366e-03  -9.2210115e+07
   5.5485162e-10  -7.8398680e-02   1.0716933e+00   2.4022173e-03  -9.1722973e+07
   5.5751917e-10  -7.8155119e-02   1.0632634e+00   2.4289228e-03  -9.1240508e+07
   5.6018673e-10  -7.7912832e-02   1.0549303e+00   2.4557526e-03  -9.0762653e+07
   5.6285428e-10  -7.7671807e-02   1.0466927e+00   2.4827065e-03  -9.0289343e+07
   5.6552184e-10  -7.7432034e-02   1.0385492e+00   2.5097839e-03  -8.9820511e+07
   5.6818940e-10  -7.7193498e-02   1.0304985e+00   2.5369847e-03  -8.9356095e+07
   5.7085695e-10  -7.6956190e-02   1.0225392e+00   2.5643083e-03  -8.8896031e+07
   5.7352451e-10  -7.6720097e-02   1.0146702e+00   2.5917544e-03  -8.8440258e+07
   5.7619206e-10  -7.6485208e-02   1.0068901e+00   2.6193227e-03  -8.7988716e+07
   5.7885962e-10  -7.6251512e-02   9.9919769e-01   2.6470128e-03  -8.7541346e+07
   5.8152718e-10  -7.6018998e-02   9.9159175e-01   2.6748243e-03  -8.7098088e+07
   5.8419473e-10  -7.5787655e-02   9.8407107e-01   2.7027569e-03  -8.6658887e+07
   5.8686229e-10  -7.5557472e-02   9.7663446e-01   2.7308102e-03  -8.6223685e+07
   5.8952984e-10  -7.5328439e-02   9.6928076e-01   2.7589839e-03  -8.5792428e+07
   5.9219740e-10  -7.5100546e-02   9.6200881e-01   2.7872775e-03  -8.5365062e+07
   5.9486495e-10  -7.4873781e-02   9.5481748e-01   2.8156908e-03  -8.4941533e+07
   5.9753251e-10  -7.4648136e-02   9.4770567e-01   2.8442233e-03  -8.4521789e+07
   6.0020007e-10  -7.4423599e-02   9.4067228e-01   2.8728747e-03  -8.4105779e+07
   6.0286762e-10  -7.4200162e-02   9.3371622e-01   2.9016447e-03  -8.3693452e+07
   6.0553518e-10  -7.3977815e-02   9.2683644e-01   2.9305329e-03  -8.3284759e+07
   6.0820273e-10  -7.3756547e-02   9.2003189e-01   2.9595389e-03  -8.2879651e+07
   6.1087029e-10  -7.3536349e-02   9.1330155e-01   2.9886624e-03  -8.2478081e+07
   6.1353785e-10  -7.3317213e-02   9.0664440e-01   3.0179031e-03  -8.2080001e+07
   6.1620540e-10  -7.3099129e-02   9.0005945e-01   3.0472605e-03  -8.1685365e+07
   6.1887296e-10  -7.2882088e-02   8.9354571e-01   3.0767344e-03  -8.1294128e+07
   6.2154051e-10  -7.2666080e-02   8.8710223e-01   3.1063244e-03  -8.0906245e+07
   6.2420807e-10  -7.2451098e-02   8.8072805e-01   3.1360301e-03  -8.0521673e+07
   6.2687563e-10  -7.2237132e-02   8.7442224e-01   3.1658512e-03  -8.0140367e+07
   6.2954318e-10  -7.2024174e-02   8.6818388e-01   3.1957873e-03  -7.9762287e+07
   6.3221074e-10  -7.1812216e-02   8.6201206e-01   3.2258381e-03  -7.9387390e+07
   6.3487829e-10  -7.1601248e-02   8.5590589e-01   3.2560032e-03  -7.9015635e+07
   6.3754585e-10  -7.1391263e-02   8.4986449e-01   3.2862823e-03  -7.8646983e+07
   6.4021340e-10  -7.1182252e-02   8.4388700e-01   3.3166751e-03  -7.8281393e+07
   6.4288096e-10  -7.0974208e-02   8.3797257e-01   3.3471811e-03  -7.7918827e+07
   6.4554852e-10  -7.0767123e-02   8.3212036e-01   3.3778002e-03  -7.7559246e+07
   6.4821607e-10  -7.0560988e-02   8.2632955e-01   3.4085318e-03  -7.7202613e+07
   6.5088363e-10  -7.0355796e-02   8.2059932e-01   3.4393757e-03  -7.6848891e+07
   6.5355118e-10  -7.0151539e-02   8.1492887e-01   3.4703315e-03  -7.6498043e+07
   6.5621874e-10  -6.9948210e-02   8.0931743e-01   3.5013988e-03  -7.6150034e+07
   6.5888630e-10  -6.9745801e-02   8.0376420e-01   3.5325774e-03  -7.5804828e+07
   6.6155385e-10  -6.9544305e-02   7.9826844e-01   3.5638669e-03  -7.5462391e+07
   6.6422141e-10  -6.9343715e-02   7.9282939e-01   3.5952670e-03  -7.5122690e+07
   6.6688896e-10  -6.9144023e-02   7.8744631e-01   3.6267772e-03  -7.4785689e+07
   6.6955652e-10  -6.8945223e-02   7.8211846e-01   3.6583973e-03  -7.4451357e+07
   6.7222407e-10  -6.8747306e-02   7.7684515e-01   3.6901269e-03  -7.4119660e+07
   6.7489163e-10  -6.8550267e-02   7.7162565e-01   3.7219657e-03  -7.3790568e+07
   6.7755919e-10  -6.8354099e-02   7.6645927e-01   3.7539133e-03  -7.3464048e+07
   6.8022674e-10  -6.8158794e-02   7.6134533e-01   3.7859695e-03  -7.3140070e+07
   6.8289430e-10  -6.7964347e-02   7.5628316e-01   3.8181338e-03  -7.2818603e+07
   6.8556185e-10  -6.7770750e-02   7.5127208e-01   3.8504059e-03  -7.2499618e+07
   6.8822941e-10  -6.7577997e-02   7.4631145e-01   3.8827855e-03  -7.2183084e+07
   6.9089697e-10  -6.7386081e-02   7.4140062e-01   3.9152722e-03  -7.1868974e+07
   6.9356452e-10  -6.7194997e-02   7.3653895e-01   3.9478657e-03  -7.1557258e+07
   6.9623208e-10  -6.7004737e-02   7.3172582e-01   3.9805657e-03  -7.1247908e+07
   6.9889963e-10  -6.6815296e-02   7.2696062e-01   4.0133719e-03  -7.0940896e+07
   7.0156719e-10  -6.6626667e-02   7.2224273e-01   4.0462838e-03  -7.0636197e+07
   7.0423474e-10  -6.6438845e-02   7.1757157e-01   4.0793011e-03  -7.0333781e+07
   7.0690230e-10  -6.6251824e-02   7.1294654e-01   4.1124236e-03  -7.0033624e+07
   7.0956986e-10  -6.6065596e-02   7.0836706e-01   4.1456509e-03  -6.9735699e+07
   7.1223741e-10  -6.5880158e-02   7.0383256e-01   4.1789826e-03  -6.9439981e+07
   7.1490497e-10  -6.5695502e-02   6.9934248e-01   4.2124184e-03  -6.9146444e+07
   7.1757252e-10  -6.5511623e-02   6.9489626e-01   4.2459580e-03  -6.8855064e+07
   7.2024008e-10  -6.5328516e-02   6.9049337e-01   4.2796010e-03  -6.8565816e+07
   7.2290764e-10  -6.5146175e-02   6.8613325e-01   4.3133471e-03  -6.8278676e+07
   7.2557519e-10  -6.4964593e-02   6.8181538e-01   4.3471959e-03  -6.7993621e+07
   7.2824275e-10  -6.4783767e-02   6.7753924e-01   4.3811472e-03  -6.7710626e+07
   7.3091030e-10  -6.4603690e-02   6.7330432e-01   4.4152006e-03  -6.7429669e+07
   7.3357786e-10  -6.4424357e-02   6.6911010e-01   4.4493557e-03  -6.7150728e+07
   7.3624542e-10  -6.4245762e-02   6.6495608e-01   4.4836123e-03  -6.6873780e+07
   7.3891297e-10  -6.4067901e-02   6.6084178e-01   4.5179700e-03  -6.6598802e+07
   7.4158053e-10  -6.3890768e-02   6.5676671e-01   4.5524284e-03  -6.6325774e+07
   7.4424808e-10  -6.3714359e-02   6.5273039e-01   4.5869872e-03  -6.6054674e+07
   7.4691564e-10  -6.3538667e-02   6.4873235e-01   4.6216461e-03  -6.5785481e+07
   7.4958319e-10  -6.3363689e-02   6.4477213e-01   4.6564047e-03  -6.5518174e+07
   7.5225075e-10  -6.3189419e-02   6.4084926e-01   4.6912628e-03  -6.5252732e+07
   7.5491831e-10  -6.3015852e-02   6.3696330e-01   4.7262200e-03  -6.4989137e+07
   7.5758586e-10  -6.2842983e-02   6.3311381e-01   4.7612759e-03  -6.4727366e+07
   7.6025342e-10  -6.2670808e-02   6.2930033e-01   4.7964302e-03  -6.4467402e+07
   7.6292097e-10  -6.2499321e-02   6.2552245e-01   4.8316826e-03  -6.4209225e+07
   7.6558853e-10  -6.2328519e-02   6.2177974e-01   4.8670328e-03  -6.3952815e+07
   7.6825609e-10  -6.2158396e-02   6.1807177e-01   4.9024804e-03  -6.3698155e+07
   7.7092364e-10  -6.1988948e-02   6.1439813e-01   4.9380250e-03  -6.3445225e+07
   7.7359120e-10  -6.1820170e-02   6.1075843e-01   4.9736665e-03  -6.3194007e+07
   7.7625875e-10  -6.1652058e-02   6.0715224e-01   5.0094043e-03  -6.2944484e+07
   7.7892631e-10  -6.1484607e-02   6.0357919e-01   5.0452383e-03  -6.2696637e+07
   7.8159386e-10  -6.1317814e-02   6.0003887e-01   5.0811680e-03  -6.2450450e+07
   7.8426142e-10  -6.1151672e-02   5.9653090e-01   5.1171931e-03  -6.2205904e+07
   7.8692898e-10  -6.0986179e-02   5.9305491e-01   5.1533133e-03  -6.1962984e+07
   7.8959653e-10  -6.0821330e-02   5.8961051e-01   5.1895283e-03  -6.1721671e+07
   7.9226409e-10  -6.0657121e-02   5.8619734e-01   5.2258377e-03  -6.1481951e+07
   7.9493164e-10  -6.0493547e-02   5.8281504e-01   5.2622412e-03  -6.1243806e+07
   7.9759920e-10  -6.0330604e-02   5.7946324e-01   5.2987385e-03  -6.1007220e+07
   8.0026676e-10  -6.0168289e-02   5.7614160e-01   5.3353292e-03  -6.0772177e+07
   8.0293431e-10  -6.0006597e-02   5.7284976e-01   5.3720130e-03  -6.0538663e+07
   8.0560187e-10  -5.9845524e-02   5.6958738e-01   5.4087896e-03  -6.0306661e+07
   8.0826942e-10  -5.9685066e-02   5.6635412e-01   5.4456587e-03  -6.0076156e+07
   8.1093698e-10  -5.9525219e-02   5.6314965e-01   5.4826198e-03  -5.9847133e+07
   8.1360453e-10  -5.9365980e-02   5.5997364e-01   5.5196728e-03  -5.9619578e+07
   8.1627209e-10  -5.9207344e-02   5.5682575e-01   5.5568172e-03  -5.9393475e+07
   8.1893965e-10  -5.9049308e-02   5.5370567e-01   5.5940527e-03  -5.9168811e+07
   8.2160720e-10  -5.8891868e-02   5.5061309e-01   5.6313790e-03  -5.8945571e+07
   8.2427476e-10  -5.8735020e-02   5.4754769e-01   5.6687957e-03  -5.8723741e+07
   8.2694231e-10  -5.8578760e-02   5.4450917e-01   5.7063026e-03  -5.8503308e+07
   8.2960987e-10  -5.8423085e-02   5.4149721e-01   5.7438993e-03  -5.8284257e+07
   8.3227743e-10  -5.8267991e-02   5.3851152e-01   5.7815854e-03  -5.8066575e+07
   8.3494498e-10  -5.8113474e-02   5.3555181e-01   5.8193607e-03  -5.7850249e+07
   8.3761254e-10  -5.7959532e-02   5.3261778e-01   5.8572248e-03  -5.7635265e+07
   8.4028009e-10  -5.7806159e-02   5.2970915e-01   5.8951774e-03  -5.7421612e+07
   8.4294765e-10  -5.7653354e-02   5.2682563e-01   5.9332181e-03  -5.7209275e+07
   8.4561521e-10  -5.7501111e-02   5.2396694e-01   5.9713466e-03  -5.6998242e+07
   8.4828276e-10  -5.7349429e-02   5.2113281e-01   6.0095627e-03  -5.6788502e+07
   8.5095032e-10  -5.7198303e-02   5.1832296e-01   6.0478658e-03  -5.6580041e+07
   8.5361787e-10  -5.7047730e-02   5.1553713e-01   6.0862559e-03  -5.6372847e+07
   8.5628543e-10  -5.6897707e-02   5.1277504e-01   6.1247324e-03  -5.6166908e+07
   8.5895298e-10  -5.6748231e-02   5.1003645e-01   6.1632950e-03  -5.5962213e+07
   8.6162054e-10  -5.6599298e-02   5.0732109e-01   6.2019435e-03  -5.5758750e+07
   8.6428810e-10  -5.6450905e-02   5.0462870e-01   6.2406776e-03  -5.5556507e+07
   8.6695565e-10  -5.6303048e-02   5.0195904e-01   6.2794968e-03  -5.5355473e+07
   8.6962321e-10  -5.6155725e-02   4.9931185e-01   6.3184008e-03  -5.5155637e+07
   8.7229076e-10  -5.6008932e-02   4.9668690e-01   6.3573894e-03  -5.4956987e+07
   8.7495832e-10  -5.5862667e-02   4.9408393e-01   6.3964622e-03  -5.4759513e+07
   8.7762588e-10  -5.5716926e-02   4.9150272e-01   6.4356188e-03  -5.4563203e+07
   8.8029343e-10  -5.5571705e-02   4.8894303e-01   6.4748589e-03  -5.4368048e+07
   8.8296099e-10  -5.5427003e-02   4.8640462e-01   6.5141823e-03  -5.4174035e+07
   8.8562854e-10  -5.5282816e-02   4.8388727e-01   6.5535885e-03  -5.3981156e+07
   8.8829610e-10  -5.5139141e-02   4.8139074e-01   6.5930773e-03  -5.3789399e+07
   8.9096365e-10  -5.4995975e-02   4.7891483e-01   6.6326483e-03  -5.3598755e+07
   8.9363121e-10  -5.4853315e-02   4.7645930e-01   6.6723012e-03  -5.3409214e+07
   8.9629877e-10  -5.4711158e-02   4.7402394e-01   6.7120357e-03  -5.3220764e+07
   8.9896632e-10  -5.4569501e-02   4.7160853e-01   6.7518513e-03  -5.3033398e+07
   9.0163388e-10  -5.4428342e-02   4.6921287e-01   6.7917479e-03  -5.2847104e+07
   9.0430143e-10  -5.4287678e-02   4.6683674e-01   6.8317251e-03  -5.2661874e+07
   9.0696899e-10  -5.4147505e-02   4.6447994e-01   6.8717824e-03  -5.2477697e+07
   9.0963655e-10  -5.4007822e-02   4.6214226e-01   6.9119198e-03  -5.2294565e+07
   9.1230410e-10  -5.3868624e-02   4.5982351e-01   6.9521367e-03  -5.2112469e+07
   9.1497166e-10  -5.3729910e-02   4.5752348e-01   6.9924328e-03  -5.1931398e+07
   9.1763921e-10  -5.3591678e-02   4.5524197e-01   7.0328079e-03  -5.1751345e+07
   9.2030677e-10  -5.3453923e-02   4.5297880e-01   7.0732616e-03  -5.1572300e+07
   9.2297432e-10  -5.3316643e-02   4.5073378e-01   7.1137935e-03  -5.1394255e+07
   9.2564188e-10  -5.3179837e-02   4.4850671e-01   7.1544035e-03  -5.1217200e+07
   9.2830944e-10  -5.3043500e-02   4.4629741e-01   7.1950910e-03  -5.1041127e+07
   9.3097699e-10  -5.2907632e-02   4.4410569e-01   7.2358558e-03  -5.0866028e+07
   9.3364455e-10  -5.2772228e-02   4.4193138e-01   7.2766976e-03  -5.0691894e+07
   9.3631210e-10  -5.2637287e-02   4.3977429e-01   7.3176160e-03  -5.0518717e+07
   9.3897966e-10  -5.2502806e-02   4.3763425e-01   7.3586107e-03  -5.0346489e+07
   9.4164722e-10  -5.2368782e-02   4.3551107e-01   7.3996814e-03  -5.0175202e+07
   9.4431477e-10  -5.2235213e-02   4.3340460e-01   7.4408277e-03  -5.0004847e+07
   9.4698233e-10  -5.2102097e-02   4.3131466e-01   7.4820494e-03  -4.9835416e+07
   9.4964988e-10  -5.1969431e-02   4.2924108e-01   7.5233460e-03  -4.9666903e+07
   9.5231744e-10  -5.1837212e-02   4.2718369e-01   7.5647174e-03  -4.9499298e+07
   9.5498499e-10  -5.1705439e-02   4.2514233e-01   7.6061630e-03  -4.9332595e+07
   9.5765255e-10  -5.1574108e-02   4.2311683e-01   7.6476827e-03  -4.9166786e+07
   9.6032011e-10  -5.1443218e-02   4.2110705e-01   7.6892761e-03  -4.9001863e+07
   9.6298766e-10  -5.1312767e-02   4.1911281e-01   7.7309428e-03  -4.8837820e+07
   9.6565522e-10  -5.1182750e-02   4.1713397e-01   7.7726826e-03  -4.8674648e+07
   9.6832277e-10  -5.1053168e-02   4.1517036e-01   7.8144950e-03  -4.8512340e+07
   9.7099033e-10  -5.0924017e-02   4.1322184e-01   7.8563799e-03  -4.8350889e+07
   9.7365789e-10  -5.0795294e-02   4.1128826e-01   7.8983367e-03  -4.8190289e+07
   9.7632544e-10  -5.0666999e-02   4.0936946e-01   7.9403654e-03  -4.8030532e+07
   9.7899300e-10  -5.0539127e-02   4.0746530e-01   7.9824654e-03  -4.7871612e+07
   9.8166055e-10  -5.0411678e-02   4.0557564e-01   8.0246364e-03  -4.7713521e+07
   9.8432811e-10  -5.0284650e-02   4.0370032e-01   8.0668783e-03  -4.7556252e+07
   9.8699567e-10  -5.0158039e-02   4.0183922e-01   8.1091905e-03  -4.7399800e+07
   9.8966322e-10  -5.0031843e-02   3.9999218e-01   8.1515728e-03  -4.7244157e+07
   9.9233078e-10  -4.9906062e-02   3.9815908e-01   8.1940249e-03  -4.7089317e+07
   9.9499833e-10  -4.9780691e-02   3.9633976e-01   8.2365465e-03  -4.6935274e+07
   9.9766589e-10  -4.9655731e-02   3.9453411e-01   8.2791371e-03  -4.6782020e+07
   1.0003334e-09  -4.9531177e-02   3.9274198e-01   8.3217966e-03  -4.6629550e+07
   1.0030010e-09  -4.9407029e-02   3.9096325e-01   8.3645245e-03  -4.6477858e+07
   1.0056686e-09  -4.9283283e-02   3.8919778e-01   8.4073205e-03  -4.6326937e+07
   1.0083361e-09  -4.9159939e-02   3.8744544e-01   8.4501843e-03  -4.6176781e+07
   1.0110037e-09  -4.9036994e-02   3.8570611e-01   8.4931157e-03  -4.6027384e+07
   1.0136712e-09  -4.8914446e-02   3.8397966e-01   8.5361141e-03  -4.5878741e+07
   1.0163388e-09  -4.8792293e-02   3.8226597e-01   8.5791795e-03  -4.5730844e+07
   1.0190063e-09  -4.8670533e-02   3.8056492e-01   8.6223113e-03  -4.5583689e+07
   1.0216739e-09  -4.8549164e-02   3.7887638e-01   8.6655093e-03  -4.5437269e+07
   1.0243414e-09  -4.8428185e-02   3.7720023e-01   8.7087732e-03  -4.5291579e+07
   1.0270090e-09  -4.8307593e-02   3.7553635e-01   8.7521026e-03  -4.5146614e+07
   1.0296766e-09  -4.8187385e-02   3.7388464e-01   8.7954972e-03  -4.5002366e+07
   1.0323441e-09  -4.8067562e-02   3.7224497e-01   8.8389567e-03  -4.4858832e+07
   1.0350117e-09  -4.7948120e-02   3.7061722e-01   8.8824808e-03  -4.4716005e+07
   1.0376792e-09  -4.7829057e-02   3.6900129e-01   8.9260691e-03  -4.4573880e+07
   1.0403468e-09  -4.7710373e-02   3.6739707e-01   8.9697213e-03  -4.4432452e+07
   1.0430143e-09  -4.7592064e-02   3.6580443e-01   9.0134371e-03  -4.4291715e+07
   1.0456819e-09  -4.7474129e-02   3.6422328e-01   9.0572162e-03  -4.4151664e+07
   1.0483494e-09  -4.7356567e-02   3.6265351e-01   9.1010582e-03  -4.4012294e+07
   1.0510170e-09  -4.7239376e-02   3.6109500e-01   9.1449628e-03  -4.3873600e+07
   1.0536846e-09  -4.7122552e-02   3.5954766e-01   9.1889297e-03  -4.3735576e+07
   1.0563521e-09  -4.7006096e-02   3.5801138e-01   9.2329586e-03  -4.3598217e+07
   1.0590197e-09  -4.6890005e-02   3.5648605e-01   9.2770491e-03  -4.3461519e+07
   1.0616872e-09  -4.6774278e-02   3.5497158e-01   9.3212010e-03  -4.3325477e+07
   1.0643548e-09  -4.6658912e-02   3.5346786e-01   9.3654139e-03  -4.3190085e+07
   1.0670223e-09  -4.6543906e-02   3.5197480e-01   9.4096874e-03  -4.3055339e+07
   1.0696899e-09  -4.6429259e-02   3.5049229e-01   9.4540213e-03  -4.2921234e+07
   1.0723575e-09  -4.6314968e-02   3.4902025e-01   9.4984153e-03  -4.2787766e+07
   1.0750250e-09  -4.6201031e-02   3.4755856e-01   9.5428689e-03  -4.2654928e+07
   1.0776926e-09  -4.6087449e-02   3.4610714e-01   9.5873820e-03  -4.2522718e+07
   1.0803601e-09  -4.5974217e-02   3.4466590e-01   9.6319541e-03  -4.2391130e+07
   1.0830277e-09  -4.5861335e-02   3.4323473e-01   9.6765849e-03  -4.2260159e+07
   1.0856952e-09  -4.5748802e-02   3.4181355e-01   9.7212742e-03  -4.2129802e+07
   1.0883628e-09  -4.5636615e-02   3.4040227e-01   9.7660216e-03  -4.2000054e+07
   1.0910303e-09  -4.5524774e-02   3.3900080e-01   9.8108268e-03  -4.1870910e+07
   1.0936979e-09  -4.5413275e-02   3.3760905e-01   9.8556894e-03  -4.1742365e+07
   1.0963655e-09  -4.5302119e-02   3.3622693e-01   9.9006092e-03  -4.1614417e+07
   1.0990330e-09  -4.5191303e-02   3.3485435e-01   9.9455858e-03  -4.1487059e+07
   1.1017006e-09  -4.5080825e-02   3.3349122e-01   9.9906189e-03  -4.1360289e+07
   1.1043681e-09  -4.4970685e-02   3.3213748e-01   1.0035708e-02  -4.1234101e+07
   1.1070357e-09  -4.4860880e-02   3.3079302e-01   1.0080853e-02  -4.1108492e+07
   1.1097032e-09  -4.4751409e-02   3.2945776e-01   1.0126054e-02  -4.0983457e+07
   1.1123708e-09  -4.4642271e-02   3.2813163e-01   1.0171310e-02  -4.0858993e+07
   1.1150383e-09  -4.4533463e-02   3.2681454e-01   1.0216621e-02  -4.0735096e+07
   1.1177059e-09  -4.4424985e-02   3.2550641e-01   1.0261986e-02  -4.0611760e+07
   1.1203735e-09  -4.4316836e-02   3.2420716e-01   1.0307406e-02  -4.0488983e+07
   1.1230410e-09  -4.4209012e-02   3.2291672e-01   1.0352879e-02  -4.0366761e+07
   1.1257086e-09  -4.4101514e-02   3.2163500e-01   1.0398407e-02  -4.0245089e+07
   1.1283761e-09  -4.3994339e-02   3.2036193e-01   1.0443987e-02  -4.0123964e+07
   1.1310437e-09  -4.3887487e-02   3.1909743e-01   1.0489621e-02  -4.0003382e+07
   1.1337112e-09  -4.3780955e-02   3.1784143e-01   1.0535307e-02  -3.9883339e+07
   1.1363788e-09  -4.3674742e-02   3.1659385e-01   1.0581045e-02  -3.9763831e+07
   1.1390463e-09  -4.3568848e-02   3.1535462e-01   1.0626836e-02  -3.9644855e+07
   1.1417139e-09  -4.3463269e-02   3.1412367e-01   1.0672678e-02  -3.9526407e+07
   1.1443815e-09  -4.3358006e-02   3.1290091e-01   1.0718572e-02  -3.9408483e+07
   1.1470490e-09  -4.3253057e-02   3.1168629e-01   1.0764517e-02  -3.9291080e+07
   1.1497166e-09  -4.3148419e-02   3.1047974e-01   1.0810512e-02  -3.9174194e+07
   1.1523841e-09  -4.3044093e-02   3.0928117e-01   1.0856558e-02  -3.9057822e+07
   1.1550517e-09  -4.2940076e-02   3.0809052e-01   1.0902654e-02  -3.8941960e+07
   1.1577192e-09  -4.2836367e-02   3.0690773e-01   1.0948800e-02  -3.8826604e+07
   1.1603868e-09  -4.2732966e-02   3.0573273e-01   1.0994996e-02  -3.8711752e+07
   1.1630544e-09  -4.2629869e-02   3.0456544e-01   1.1041241e-02  -3.8597400e+07
   1.1657219e-09  -4.2527077e-02   3.0340581e-01   1.1087534e-02  -3.8483544e+07
   1.1683895e-09  -4.2424588e-02   3.0225377e-01   1.1133876e-02  -3.8370181e+07
   1.1710570e-09  -4.2322400e-02   3.0110925e-01   1.1180267e-02  -3.8257308e+07
   1.1737246e-09  -4.2220513e-02   2.9997218e-01   1.1226705e-02  -3.8144922e+07
   1.1763921e-09  -4.2118924e-02   2.9884252e-01   1.1273191e-02  -3.8033019e+07
   1.1790597e-09  -4.2017633e-02   2.9772018e-01   1.1319724e-02  -3.7921596e+07
   1.1817272e-09  -4.1916639e-02   2.9660512e-01   1.1366304e-02  -3.7810649e+07
   1.1843948e-09  -4.1815940e-02   2.9549726e-01   1.1412931e-02  -3.7700177e+07
   1.1870624e-09  -4.1715534e-02   2.9439655e-01   1.1459604e-02  -3.7590175e+07
   1.1897299e-09  -4.1615422e-02   2.9330293e-01   1.1506324e-02  -3.7480640e+07
   1.1923975e-09  -4.1515600e-02   2.9221634e-01   1.1553089e-02  -3.7371570e+07
   1.1950650e-09  -4.1416069e-02   2.9113671e-01   1.1599899e-02  -3.7262961e+07
   1.1977326e-09  -4.1316827e-02   2.9006400e-01   1.1646755e-02  -3.7154811e+07
   1.2004001e-09  -4.1217872e-02   2.8899814e-01   1.1693655e-02  -3.7047116e+07
   1.2030677e-09  -4.1119204e-02   2.8793908e-01   1.1740600e-02  -3.6939873e+07
   1.2057352e-09  -4.1020821e-02   2.8688675e-01   1.1787589e-02  -3.6833080e+07
   1.2084028e-09  -4.0922723e-02   2.8584111e-01   1.1834622e-02  -3.6726733e+07
   1.2110704e-09  -4.0824907e-02   2.8480209e-01   1.1881699e-02  -3.6620830e+07
   1.2137379e-09  -4.0727373e-02   2.8376965e-01   1.1928818e-02  -3.6515368e+07
   1.2164055e-09  -4.0630120e-02   2.8274372e-01   1.1975981e-02  -3.6410344e+07
   1.2190730e-09  -4.0533146e-02   2.8172426e-01   1.2023186e-02  -3.6305754e+07
   1.2217406e-09  -4.0436451e-02   2.8071121e-01   1.2070434e-02  -3.6201598e+07
   1.2244081e-09  -4.0340032e-02   2.7970452e-01   1.2117724e-02  -3.6097870e+07
   1.2270757e-09  -4.0243890e-02   2.7870414e-01   1.2165055e-02  -3.5994570e+07
   1.2297432e-09  -4.0148022e-02   2.7771001e-01   1.2212428e-02  -3.5891694e+07
   1.2324108e-09  -4.0052428e-02   2.7672208e-01   1.2259842e-02  -3.5789239e+07
   1.2350784e-09  -3.9957107e-02   2.7574031e-01   1.2307296e-02  -3.5687203e+07
   1.2377459e-09  -3.9862057e-02   2.7476464e-01   1.2354792e-02  -3.5585583e+07
   1.2404135e-09  -3.9767277e-02   2.7379502e-01   1.2402327e-02  -3.5484377e+07
   1.2430810e-09  -3.9672767e-02   2.7283141e-01   1.2449902e-02  -3.5383582e+07
   1.2457486e-09  -3.9578525e-02   2.7187376e-01   1.2497517e-02  -3.5283195e+07
   1.2484161e-09  -3.9484550e-02   2.7092201e-01   1.2545171e-02  -3.5183214e+07
   1.2510837e-09  -3.9390842e-02   2.6997612e-01   1.2592864e-02  -3.5083636e+07
   1.2537513e-09  -3.9297398e-02   2.6903605e-01   1.2640595e-02  -3.4984459e+07
   1.2564188e-09  -3.9204218e-02   2.6810174e-01   1.2688365e-02  -3.4885681e+07
   1.2590864e-09  -3.9111301e-02   2.6717315e-01   1.2736173e-02  -3.4787298e+07
   1.2617539e-09  -3.9018646e-02   2.6625023e-01   1.2784019e-02  -3.4689309e+07
   1.2644215e-09  -3.8926251e-02   2.6533295e-01   1.2831902e-02  -3.4591711e+07
   1.2670890e-09  -3.8834116e-02   2.6442125e-01   1.2879822e-02  -3.4494501e+07
   1.2697566e-09  -3.8742240e-02   2.6351508e-01   1.2927779e-02  -3.4397678e+07
   1.2724241e-09  -3.8650621e-02   2.6261442e-01   1.2975772e-02  -3.4301239e+07
   1.2750917e-09  -3.8559260e-02   2.6171920e-01   1.3023802e-02  -3.4205181e+07
   1.2777593e-09  -3.8468153e-02   2.6082940e-01   1.3071868e-02  -3.4109502e+07
   1.2804268e-09  -3.8377302e-02   2.5994496e-01   1.3119969e-02  -3.4014200e+07
   1.2830944e-09  -3.8286704e-02   2.5906584e-01   1.3168105e-02  -3.3919273e+07
   1.2857619e-09  -3.8196358e-02   2.5819201e-01   1.3216277e-02  -3.3824718e+07
   1.2884295e-09  -3.8106264e-02   2.5732342e-01   1.3264483e-02  -3.3730534e+07
   1.2910970e-09  -3.8016421e-02   2.5646003e-01   1.3312724e-02  -3.3636717e+07
   1.2937646e-09  -3.7926828e-02   2.5560179e-01   1.3360999e-02  -3.3543266e+07
   1.2964321e-09  -3.7837483e-02   2.5474868e-01   1.3409307e-02  -3.3450179e+07
   1.2990997e-09  -3.7748386e-02   2.5390064e-01   1.3457649e-02  -3.3357453e+07
   1.3017673e-09  -3.7659536e-02   2.5305764e-01   1.3506025e-02  -3.3265087e+07
   1.3044348e-09  -3.7570931e-02   2.5221965e-01   1.3554433e-02  -3.3173077e+07
   1.3071024e-09  -3.7482572e-02   2.5138661e-01   1.3602874e-02  -3.3081423e+07
   1.3097699e-09  -3.7394456e-02   2.5055850e-01   1.3651347e-02  -3.2990121e+07
   1.3124375e-09  -3.7306583e-02   2.4973527e-01   1.3699852e-02  -3.2899170e+07
   1.3151050e-09  -3.7218953e-02   2.4891689e-01   1.3748389e-02  -3.2808568e+07
   1.3177726e-09  -3.7131563e-02   2.4810332e-01   1.3796957e-02  -3.2718313e+07
   1.3204401e-09  -3.7044414e-02   2.4729452e-01   1.3845556e-02  -3.2628402e+07
   1.3231077e-09  -3.6957504e-02   2.4649046e-01   1.3894186e-02  -3.2538834e+07
   1.3257753e-09  -3.6870832e-02   2.4569109e-01   1.3942847e-02  -3.2449607e+07
   1.3284428e-09  -3.6784398e-02   2.4489640e-01   1.3991538e-02  -3.2360718e+07
   1.3311104e-09  -3.6698201e-02   2.4410633e-01   1.4040259e-02  -3.2272166e+07
   1.3337779e-09  -3.6612239e-02   2.4332085e-01   1.4089010e-02  -3.2183949e+07
   1.3364455e-09  -3.6526512e-02   2.4253993e-01   1.4137790e-02  -3.2096065e+07
   1.3391130e-09  -3.6441019e-02   2.4176354e-01   1.4186599e-02  -3.2008512e+07
   1.3417806e-09  -3.6355758e-02   2.4099164e-01   1.4235436e-02  -3.1921288e+07
   1.3444481e-09  -3.6270730e-02   2.4022419e-01   1.4284303e-02  -3.1834391e+07
   1.3471157e-09  -3.6185934e-02   2.3946117e-01   1.4333197e-02  -3.1747820e+07
   1.3497833e-09  -3.6101367e-02   2.3870253e-01   1.4382120e-02  -3.1661572e+07
   1.3524508e-09  -3.6017031e-02   2.3794825e-01   1.4431070e-02  -3.1575645e+07
   1.3551184e-09  -3.5932923e-02   2.3719829e-01   1.4480047e-02  -3.1490039e+07
   1.3577859e-09  -3.5849042e-02   2.3645262e-01   1.4529051e-02  -3.1404750e+07
   1.3604535e-09  -3.5765389e-02   2.3571122e-01   1.4578082e-02  -3.1319778e+07
   1.3631210e-09  -3.5681962e-02   2.3497404e-01   1.4627140e-02  -3.1235120e+07
   1.3657886e-09  -3.5598761e-02   2.3424105e-01   1.4676223e-02  -3.1150774e+07
   1.3684562e-09  -3.5515784e-02   2.3351223e-01   1.4725333e-02  -3.1066740e+07
   1.3711237e-09  -3.5433030e-02   2.3278754e-01   1.4774468e-02  -3.0983015e+07
   1.3737913e-09  -3.5350500e-02   2.3206696e-01   1.4823628e-02  -3.0899597e+07
   1.3764588e-09  -3.5268191e-02   2.3135045e-01   1.4872814e-02  -3.0816485e+07
   1.3791264e-09  -3.5186104e-02   2.3063798e-01   1.4922024e-02  -3.0733677e+07
   1.3817939e-09  -3.5104237e-02   2.2992952e-01   1.4971259e-02  -3.0651171e+07
   1.3844615e-09  -3.5022590e-02   2.2922504e-01   1.5020517e-02  -3.0568966e+07
   1.3871290e-09  -3.4941161e-02   2.2852452e-01   1.5069800e-02  -3.0487060e+07
   1.3897966e-09  -3.4859951e-02   2.2782793e-01   1.5119106e-02  -3.0405452e+07
   1.3924642e-09  -3.4778957e-02   2.2713523e-01   1.5168436e-02  -3.0324139e+07
   1.3951317e-09  -3.4698181e-02   2.2644639e-01   1.5217788e-02  -3.0243120e+07
   1.3977993e-09  -3.4617620e-02   2.2576140e-01   1.5267163e-02  -3.0162394e+07
   1.4004668e-09  -3.4537273e-02   2.2508022e-01   1.5316561e-02  -3.0081959e+07
   1.4031344e-09  -3.4457141e-02   2.2440282e-01   1.5365981e-02  -3.0001813e+07
   1.4058019e-09  -3.4377223e-02   2.2372918e-01   1.5415422e-02  -2.9921955e+07
   1.4084695e-09  -3.4297516e-02   2.2305927e-01   1.5464886e-02  -2.9842383e+07
   1.4111370e-09  -3.4218022e-02   2.2239306e-01   1.5514370e-02  -2.9763096e+07
   1.4138046e-09  -3.4138739e-02   2.2173052e-01   1.5563876e-02  -2.9684092e+07
   1.4164722e-09  -3.4059666e-02   2.2107164e-01   1.5613403e-02  -2.9605369e+07
   1.4191397e-09  -3.3980802e-02   2.2041638e-01   1.5662949e-02  -2.9526927e+07
   1.4218073e-09  -3.3902148e-02   2.1976471e-01   1.5712517e-02  -2.9448763e+07
   1.4244748e-09  -3.3823701e-02   2.1911661e-01   1.5762104e-02  -2.9370876e+07
   1.4271424e-09  -3.3745462e-02   2.1847206e-01   1.5811710e-02  -2.9293265e+07
   1.4298099e-09  -3.3667430e-02   2.1783103e-01   1.5861336e-02  -2.9215928e+07
   1.4324775e-09  -3.3589603e-02   2.1719350e-01   1.5910981e-02  -2.9138864e+07
   1.4351450e-09  -3.3511981e-02   2.1655943e-01   1.5960645e-02  -2.9062071e+07
   1.4378126e-09  -3.3434564e-02   2.1592881e-01   1.6010328e-02  -2.8985548e+07
   1.4404802e-09  -3.3357351e-02   2.1530161e-01   1.6060029e-02  -2.8909294e+07
   1.4431477e-09  -3.3280341e-02   2.1467781e-01   1.6109747e-02  -2.8833306e+07
   1.4458153e-09  -3.3203533e-02   2.1405738e-01   1.6159484e-02  -2.8757584e+07
   1.4484828e-09  -3.3126926e-02   2.1344030e-01   1.6209238e-02  -2.8682126e+07
   1.4511504e-09  -3.3050520e-02   2.1282655e-01   1.6259009e-02  -2.8606931e+07
   1.4538179e-09  -3.2974315e-02   2.1221609e-01   1.6308797e-02  -2.8531998e+07
   1.4564855e-09  -3.2898309e-02   2.1160892e-01   1.6358601e-02  -2.8457324e+07
   1.4591531e-09  -3.2822502e-02   2.1100500e-01   1.6408422e-02  -2.8382909e+07
   1.4618206e-09  -3.2746893e-02   2.1040431e-01   1.6458259e-02  -2.8308752e+07
   1.4644882e-09  -3.2671481e-02   2.0980684e-01   1.6508112e-02  -2.8234851e+07
   1.4671557e-09  -3.2596267e-02   2.0921255e-01   1.6557980e-02  -2.8161205e+07
   1.4698233e-09  -3.2521248e-02   2.0862143e-01   1.6607864e-02  -2.8087812e+07
   1.4724908e-09  -3.2446424e-02   2.0803345e-01   1.6657762e-02  -2.8014671e+07
   1.4751584e-09  -3.2371796e-02   2.0744859e-01   1.6707676e-02  -2.7941781e+07
   1.4778259e-09  -3.2297361e-02   2.0686683e-01   1.6757603e-02  -2.7869140e+07
   1.4804935e-09  -3.2223120e-02   2.0628816e-01   1.6807545e-02  -2.7796748e+07
   1.4831611e-09  -3.2149072e-02   2.0571254e-01   1.6857501e-02  -2.7724603e+07
   1.4858286e-09  -3.2075215e-02   2.0513995e-01   1.6907471e-02  -2.7652704e+07
   1.4884962e-09  -3.2001550e-02   2.0457038e-01   1.6957454e-02  -2.7581049e+07
   1.4911637e-09  -3.1928076e-02   2.0400381e-01   1.7007450e-02  -2.7509638e+07
   1.4938313e-09  -3.1854792e-02   2.0344021e-01   1.7057459e-02  -2.7438468e+07
   1.4964988e-09  -3.1781697e-02   2.0287957e-01   1.7107480e-02  -2.7367540e+07
   1.4991664e-09  -3.1708792e-02   2.0232186e-01   1.7157514e-02  -2.7296851e+07
   1.5018339e-09  -3.1636074e-02   2.0176706e-01   1.7207560e-02  -2.7226401e+07
   1.5045015e-09  -3.1563544e-02   2.0121516e-01   1.7257618e-02  -2.7156187e+07
   1.5071691e-09  -3.1491201e-02   2.0066613e-01   1.7307687e-02  -2.7086210e+07
   1.5098366e-09  -3.1419045e-02   2.0011995e-01   1.7357767e-02  -2.7016468e+07
   1.5125042e-09  -3.1347074e-02   1.9957661e-01   1.7407859e-02  -2.6946959e+07
   1.5151717e-09  -3.1275288e-02   1.9903609e-01   1.7457961e-02  -2.6877683e+07
   1.5178393e-09  -3.1203686e-02   1.9849836e-01   1.7508074e-02  -2.6808639e+07
   1.5205068e-09  -3.1132269e-02   1.9796341e-01   1.7558197e-02  -2.6739825e+07
   1.5231744e-09  -3.1061034e-02   1.9743122e-01   1.7608330e-02  -2.6671239e+07
   1.5258419e-09  -3.0989982e-02   1.9690178e-01   1.7658472e-02  -2.6602882e+07
   1.5285095e-09  -3.0919112e-02   1.9637505e-01   1.7708624e-02  -2.6534752e+07
   1.5311771e-09  -3.0848424e-02   1.9585103e-01   1.7758786e-02  -2.6466847e+07
   1.5338446e-09  -3.0777916e-02   1.9532970e-01   1.7808956e-02  -2.6399167e+07
   1.5365122e-09  -3.0707589e-02   1.9481103e-01   1.7859135e-02  -2.6331711e+07
   1.5391797e-09  -3.0637441e-02   1.9429501e-01   1.7909322e-02  -2.6264477e+07
   1.5418473e-09  -3.0567473e-02   1.9378163e-01   1.7959518e-02  -2.6197465e+07
   1.5445148e-09  -3.0497682e-02   1.9327086e-01   1.8009721e-02  -2.6130673e+07
   1.5471824e-09  -3.0428070e-02   1.9276269e-01   1.8059933e-02  -2.6064100e+07
   1.5498499e-09  -3.0358634e-02   1.9225710e-01   1.8110151e-02  -2.5997745e+07
   1.5525175e-09  -3.0289376e-02   1.9175407e-01   1.8160377e-02  -2.5931608e+07
   1.5551851e-09  -3.0220293e-02   1.9125359e-01   1.8210610e-02  -2.5865687e+07
   1.5578526e-09  -3.0151387e-02   1.9075564e-01   1.8260849e-02  -2.5799980e+07
   1.5605202e-09  -3.0082655e-02   1.9026021e-01   1.8311095e-02  -2.5734488e+07
   1.5631877e-09  -3.0014097e-02   1.8976726e-01   1.8361346e-02  -2.5669209e+07
   1.5658553e-09  -2.9945713e-02   1.8927680e-01   1.8411604e-02  -2.5604142e+07
   1.5685228e-09  -2.9877503e-02   1.8878881e-01   1.8461867e-02  -2.5539285e+07
   1.5711904e-09  -2.9809465e-02   1.8830326e-01   1.8512136e-02  -2.5474639e+07
   1.5738580e-09  -2.9741599e-02   1.8782014e-01   1.8562410e-02  -2.5410202e+07
   1.5765255e-09  -2.9673905e-02   1.8733944e-01   1.8612689e-02  -2.5345973e+07
   1.5791931e-09  -2.9606382e-02   1.8686114e-01   1.8662973e-02  -2.5281951e+07
   1.5818606e-09  -2.9539030e-02   1.8638523e-01   1.8713260e-02  -2.5218134e+07
   1.5845282e-09  -2.9471847e-02   1.8591168e-01   1.8763553e-02  -2.5154523e+07
   1.5871957e-09  -2.9404834e-02   1.8544049e-01   1.8813849e-02  -2.5091116e+07
   1.5898633e-09  -2.9337989e-02   1.8497163e-01   1.8864148e-02  -2.5027913e+07
   1.5925308e-09  -2.9271313e-02   1.8450510e-01   1.8914451e-02  -2.4964911e+07
   1.5951984e-09  -2.9204805e-02   1.8404088e-01   1.8964758e-02  -2.4902111e+07
   1.5978660e-09  -2.9138464e-02   1.8357895e-01   1.9015067e-02  -2.4839511e+07
   1.6005335e-09  -2.9072289e-02   1.8311930e-01   1.9065379e-02  -2.4777110e+07
   1.6032011e-09  -2.9006281e-02   1.8266191e-01   1.9115693e-02  -2.4714908e+07
   1.6058686e-09  -2.8940438e-02   1.8220678e-01   1.9166010e-02  -2.4652904e+07
   1.6085362e-09  -2.8874761e-02   1.8175388e-01   1.9216328e-02  -2.4591096e+07
   1.6112037e-09  -2.8809248e-02   1.8130320e-01   1.9266649e-02  -2.4529484e+07
   1.6138713e-09  -2.8743899e-02   1.8085472e-01   1.9316970e-02  -2.4468067e+07
   1.6165388e-09  -2.8678714e-02   1.8040844e-01   1.9367294e-02  -2.4406843e+07
   1.6192064e-09  -2.8613691e-02   1.7996434e-01   1.9417618e-02  -2.4345813e+07
   1.6218740e-09  -2.8548831e-02   1.7952240e-01   1.9467942e-02  -2.4284975e+07
   1.6245415e-09  -2.8484134e-02   1.7908262e-01   1.9518268e-02  -2.4224328e+07
   1.6272091e-09  -2.8419597e-02   1.7864497e-01   1.9568594e-02  -2.4163872e+07
   1.6298766e-09  -2.8355222e-02   1.7820944e-01   1.9618919e-02  -2.4103605e+07
   1.6325442e-09  -2.8291007e-02   1.7777603e-01   1.9669245e-02  -2.4043527e+07
   1.6352117e-09  -2.8226953e-02   1.7734471e-01   1.9719570e-02  -2.3983637e+07
   1.6378793e-09  -2.8163057e-02   1.7691548e-01   1.9769895e-02  -2.3923934e+07
   1.6405468e-09  -2.8099321e-02   1.7648832e-01   1.9820218e-02  -2.3864417e+07
   1.6432144e-09  -2.8035743e-02   1.7606322e-01   1.9870541e-02  -2.3805086e+07
   1.6458820e-09  -2.7972323e-02   1.7564016e-01   1.9920862e-02  -2.3745939e+07
   1.6485495e-09  -2.7909061e-02   1.7521913e-01   1.9971182e-02  -2.3686975e+07
   1.6512171e-09  -2.7845956e-02   1.7480012e-01   2.0021500e-02  -2.3628194e+07
   1.6538846e-09  -2.7783007e-02   1.7438312e-01   2.0071816e-02  -2.3569596e+07
   1.6565522e-09  -2.7720214e-02   1.7396812e-01   2.0122129e-02  -2.3511179e+07
   1.6592197e-09  -2.7657577e-02   1.7355510e-01   2.0172440e-02  -2.3452942e+07
   1.6618873e-09  -2.7595095e-02   1.7314404e-01   2.0222749e-02  -2.3394884e+07
   1.6645549e-09  -2.7532767e-02   1.7273495e-01   2.0273054e-02  -2.3337006e+07
   1.6672224e-09  -2.7470594e-02   1.7232780e-01   2.0323356e-02  -2.3279305e+07
   1.6698900e-09  -2.7408574e-02   1.7192258e-01   2.0373655e-02  -2.3221782e+07
   1.6725575e-09  -2.7346708e-02   1.7151929e-01   2.0423950e-02  -2.3164435e+07
   1.6752251e-09  -2.7284994e-02   1.7111790e-01   2.0474242e-02  -2.3107264e+07
   1.6778926e-09  -2.7223433e-02   1.7071841e-01   2.0524529e-02  -2.3050268e+07
   1.6805602e-09  -2.7162023e-02   1.7032081e-01   2.0574812e-02  -2.2993446e+07
   1.6832277e-09  -2.7100765e-02   1.6992509e-01   2.0625090e-02  -2.2936798e+07
   1.6858953e-09  -2.7039657e-02   1.6953122e-01   2.0675364e-02  -2.2880322e+07
   1.6885629e-09  -2.6978700e-02   1.6913921e-01   2.0725633e-02  -2.2824018e+07
   1.6912304e-09  -2.6917893e-02   1.6874904e-01   2.0775896e-02  -2.2767885e+07
   1.6938980e-09  -2.6857235e-02   1.6836070e-01   2.0826154e-02  -2.2711922e+07
   1.6965655e-09  -2.6796726e-02   1.6797418e-01   2.0876407e-02  -2.2656130e+07
   1.6992331e-09  -2.6736366e-02   1.6758946e-01   2.0926653e-02  -2.2600506e+07
   1.7019006e-09  -2.6676154e-02   1.6720654e-01   2.0976894e-02  -2.2545050e+07
   1.7045682e-09  -2.6616090e-02   1.6682540e-01   2.1027128e-02  -2.2489762e+07
   1.7072357e-09  -2.6556173e-02   1.6644604e-01   2.1077356e-02  -2.2434640e+07
   1.7099033e-09  -2.6496403e-02   1.6606845e-01   2.1127576e-02  -2.2379685e+07
   1.7125709e-09  -2.6436779e-02   1.6569260e-01   2.1177790e-02  -2.2324895e+07
   1.7152384e-09  -2.6377301e-02   1.6531850e-01   2.1227997e-02  -2.2270269e+07
   1.7179060e-09  -2.6317969e-02   1.6494613e-01   2.1278197e-02  -2.2215808e+07
   1.7205735e-09  -2.6258781e-02   1.6457548e-01   2.1328388e-02  -2.2161509e+07
   1.7232411e-09  -2.6199739e-02   1.6420654e-01   2.1378572e-02  -2.2107374e+07
   1.7259086e-09  -2.6140840e-02   1.6383931e-01   2.1428748e-02  -2.2053400e+07
   1.7285762e-09  -2.6082085e-02   1.6347376e-01   2.1478916e-02  -2.1999587e+07
   1.7312437e-09  -2.6023474e-02   1.6310990e-01   2.1529075e-02  -2.1945935e+07
   1.7339113e-09  -2.5965005e-02   1.6274771e-01   2.1579226e-02  -2.1892442e+07
   1.7365789e-09  -2.5906679e-02   1.6238717e-01   2.1629368e-02  -2.1839109e+07
   1.7392464e-09  -2.5848495e-02   1.6202829e-01   2.1679500e-02  -2.1785934e+07
   1.7419140e-09  -2.5790452e-02   1.6167105e-01   2.1729624e-02  -2.1732917e+07
   1.7445815e-09  -2.5732551e-02   1.6131544e-01   2.1779737e-02  -2.1680057e+07
   1.7472491e-09  -2.5674790e-02   1.6096145e-01   2.1829841e-02  -2.1627354e+07
   1.7499166e-09  -2.5617170e-02   1.6060907e-01   2.1879936e-02  -2.1574806e+07
   1.7525842e-09  -2.5559690e-02   1.6025830e-01   2.1930020e-02  -2.1522414e+07
   1.7552518e-09  -2.5502349e-02   1.5990912e-01   2.1980093e-02  -2.1470176e+07
   1.7579193e-09  -2.5445148e-02   1.5956152e-01   2.2030156e-02  -2.1418092e+07
   1.7605869e-09  -2.5388085e-02   1.5921550e-01   2.2080209e-02  -2.1366161e+07
   1.7632544e-09  -2.5331160e-02   1.5887104e-01   2.2130250e-02  -2.1314383e+07
   1.7659220e-09  -2.5274374e-02   1.5852814e-01   2.2180280e-02  -2.1262757e+07
   1.7685895e-09  -2.5217724e-02   1.5818679e-01   2.2230299e-02  -2.1211282e+07
   1.7712571e-09  -2.5161212e-02   1.5784697e-01   2.2280306e-02  -2.1159958e+07
   1.7739246e-09  -2.5104837e-02   1.5750868e-01   2.2330302e-02  -2.1108784e+07
   1.7765922e-09  -2.5048598e-02   1.5717192e-01   2.2380285e-02  -2.1057760e+07
   1.7792598e-09  -2.4992495e-02   1.5683666e-01   2.2430257e-02  -2.1006885e+07
   1.7819273e-09  -2.4936527e-02   1.5650290e-01   2.2480216e-02  -2.0956157e+07
   1.7845949e-09  -2.4880695e-02   1.5617064e-01   2.2530162e-02  -2.0905578e+07
   1.7872624e-09  -2.4824997e-02   1.5583987e-01   2.2580095e-02  -2.0855146e+07
   1.7899300e-09  -2.4769433e-02   1.5551057e-01   2.2630016e-02  -2.0804860e+07
   1.7925975e-09  -2.4714004e-02   1.5518274e-01   2.2679923e-02  -2.0754720e+07
   1.7952651e-09  -2.4658708e-02   1.5485636e-01   2.2729817e-02  -2.0704726e+07
   1.7979326e-09  -2.4603545e-02   1.5453144e-01   2.2779698e-02  -2.0654876e+07
   1.8006002e-09  -2.4548515e-02   1.5420796e-01   2.2829565e-02  -2.0605170e+07
   1.8032678e-09  -2.4493617e-02   1.5388592e-01   2.2879417e-02  -2.0555608e+07
   1.8059353e-09  -2.4438851e-02   1.5356530e-01   2.2929256e-02  -2.0506189e+07
   1.8086029e-09  -2.4384217e-02   1.5324610e-01   2.2979080e-02  -2.0456912e+07
   1.8112704e-09  -2.4329714e-02   1.5292831e-01   2.3028890e-02  -2.0407778e+07
   1.8139380e-09  -2.4275342e-02   1.5261192e-01   2.3078684e-02  -2.0358784e+07
   1.8166055e-09  -2.4221101e-02   1.5229692e-01   2.3128464e-02  -2.0309931e+07
   1.8192731e-09  -2.4166989e-02   1.5198331e-01   2.3178229e-02  -2.0261219e+07
   1.8219406e-09  -2.4113008e-02   1.5167108e-01   2.3227979e-02  -2.0212646e+07
   1.8246082e-09  -2.4059155e-02   1.5136022e-01   2.3277713e-02  -2.0164212e+07
   1.8272758e-09  -2.4005432e-02   1.5105072e-01   2.3327431e-02  -2.0115916e+07
   1.8299433e-09  -2.3951838e-02   1.5074257e-01   2.3377133e-02  -2.0067759e+07
   1.8326109e-09  -2.3898371e-02   1.5043577e-01   2.3426820e-02  -2.0019739e+07
   1.8352784e-09  -2.3845033e-02   1.5013031e-01   2.3476490e-02  -1.9971855e+07
   1.8379460e-09  -2.3791822e-02   1.4982619e-01   2.3526143e-02  -1.9924108e+07
   1.8406135e-09  -2.3738738e-02   1.4952338e-01   2.3575780e-02  -1.9876497e+07
   1.8432811e-09  -2.3685781e-02   1.4922189e-01   2.3625400e-02  -1.9829022e+07
   1.8459486e-09  -2.3632951e-02   1.4892172e-01   2.3675004e-02  -1.9781681e+07
   1.8486162e-09  -2.3580246e-02   1.4862284e-01   2.3724589e-02  -1.9734474e+07
   1.8512838e-09  -2.3527668e-02   1.4832526e-01   2.3774158e-02  -1.9687401e+07
   1.8539513e-09  -2.3475214e-02   1.4802897e-01   2.3823709e-02  -1.9640461e+07
   1.8566189e-09  -2.3422886e-02   1.4773395e-01   2.3873242e-02  -1.9593653e+07
   1.8592864e-09  -2.3370683e-02   1.4744021e-01   2.3922757e-02  -1.9546978e+07
   1.8619540e-09  -2.3318603e-02   1.4714774e-01   2.3972255e-02  -1.9500435e+07
   1.8646215e-09  -2.3266648e-02   1.4685653e-01   2.4021733e-02  -1.9454022e+07
   1.8672891e-09  -2.3214816e-02   1.4656656e-01   2.4071194e-02  -1.9407740e+07
   1.8699567e-09  -2.3163108e-02   1.4627784e-01   2.4120635e-02  -1.9361589e+07
   1.8726242e-09  -2.3111523e-02   1.4599036e-01   2.4170058e-02  -1.9315567e+07
   1.8752918e-09  -2.3060060e-02   1.4570411e-01   2.4219462e-02  -1.9269674e+07
   1.8779593e-09  -2.3008719e-02   1.4541909e-01   2.4268847e-02  -1.9223909e+07
   1.8806269e-09  -2.2957500e-02   1.4513528e-01   2.4318212e-02  -1.9178273e+07
   1.8832944e-09  -2.2906403e-02   1.4485269e-01   2.4367558e-02  -1.9132765e+07
   1.8859620e-09  -2.2855427e-02   1.4457130e-01   2.4416884e-02  -1.9087383e+07
   1.8886295e-09  -2.2804572e-02   1.4429110e-01   2.4466190e-02  -1.9042128e+07
   1.8912971e-09  -2.2753838e-02   1.4401210e-01   2.4515476e-02  -1.8997000e+07
   1.8939647e-09  -2.2703223e-02   1.4373428e-01   2.4564742e-02  -1.8951997e+07
   1.8966322e-09  -2.2652729e-02   1.4345764e-01   2.4613988e-02  -1.8907120e+07
   1.8992998e-09  -2.2602354e-02   1.4318217e-01   2.4663212e-02  -1.8862367e+07
   1.9019673e-09  -2.2552098e-02   1.4290787e-01   2.4712416e-02  -1.8817738e+07
   1.9046349e-09  -2.2501962e-02   1.4263472e-01   2.4761600e-02  -1.8773234e+07
   1.9073024e-09  -2.2451943e-02   1.4236273e-01   2.4810762e-02  -1.8728852e+07
   1.9099700e-09  -2.2402043e-02   1.4209189e-01   2.4859902e-02  -1.8684594e+07
   1.9126375e-09  -2.2352261e-02   1.4182218e-01   2.4909022e-02  -1.8640458e+07
   1.9153051e-09  -2.2302596e-02   1.4155361e-01   2.4958119e-02  -1.8596444e+07
   1.9179727e-09  -2.2253049e-02   1.4128617e-01   2.5007195e-02  -1.8552551e+07
   1.9206402e-09  -2.2203619e-02   1.4101984e-01   2.5056249e-02  -1.8508780e+07
   1.9233078e-09  -2.2154305e-02   1.4075464e-01   2.5105281e-02  -1.8465129e+07
   1.9259753e-09  -2.2105107e-02   1.4049054e-01   2.5154291e-02  -1.8421599e+07
   1.9286429e-09  -2.2056025e-02   1.4022754e-01   2.5203278e-02  -1.8378188e+07
   1.9313104e-09  -2.2007059e-02   1.3996565e-01   2.5252242e-02  -1.8334896e+07
   1.9339780e-09  -2.1958209e-02   1.3970484e-01   2.5301184e-02  -1.8291723e+07
   1.9366455e-09  -2.1909473e-02   1.3944512e-01   2.5350103e-02  -1.8248669e+07
   1.9393131e-09  -2.1860852e-02   1.3918649e-01   2.5398998e-02  -1.8205733e+07
   1.9419807e-09  -2.1812345e-02   1.3892892e-01   2.5447871e-02  -1.8162914e+07
   1.9446482e-09  -2.1763953e-02   1.3867242e-01   2.5496720e-02  -1.8120212e+07
   1.9473158e-09  -2.1715674e-02   1.3841699e-01   2.5545545e-02  -1.8077627e+07
   1.9499833e-09  -2.1667509e-02   1.3816262e-01   2.5594347e-02  -1.8035158e+07
   1.9526509e-09  -2.1619456e-02   1.3790929e-01   2.5643124e-02  -1.7992805e+07
   1.9553184e-09  -2.1571517e-02   1.3765701e-01   2.5691878e-02  -1.7950568e+07
   1.9579860e-09  -2.1523690e-02   1.3740577e-01   2.5740607e-02  -1.7908445e+07
   1.9606536e-09  -2.1475975e-02   1.3715557e-01   2.5789312e-02  -1.7866437e+07
   1.9633211e-09  -2.1428372e-02   1.3690640e-01   2.5837993e-02  -1.7824543e+07
   1.9659887e-09  -2.1380881e-02   1.3665825e-01   2.5886649e-02  -1.7782763e+07
   1.9686562e-09  -2.1333501e-02   1.3641111e-01   2.5935279e-02  -1.7741096e+07
   1.9713238e-09  -2.1286232e-02   1.3616499e-01   2.5983885e-02  -1.7699542e+07
   1.9739913e-09  -2.1239074e-02   1.3591988e-01   2.6032466e-02  -1.7658100e+07
   1.9766589e-09  -2.1192026e-02   1.3567577e-01   2.6081021e-02  -1.7616771e+07
   1.9793264e-09  -2.1145088e-02   1.3543266e-01   2.6129551e-02  -1.7575553e+07
   1.9819940e-09  -2.1098260e-02   1.3519054e-01   2.6178055e-02  -1.7534447e+07
   1.9846616e-09  -2.1051542e-02   1.3494941e-01   2.6226534e-02  -1.7493451e+07
   1.9873291e-09  -2.1004932e-02   1.3470926e-01   2.6274986e-02  -1.7452566e+07
   1.9899967e-09  -2.0958432e-02   1.3447008e-01   2.6323413e-02  -1.7411791e+07
   1.9926642e-09  -2.0912040e-02   1.3423188e-01   2.6371813e-02  -1.7371126e+07
   1.9953318e-09  -2.0865757e-02   1.3399464e-01   2.6420187e-02  -1.7330570e+07
   1.9979993e-09  -2.0819581e-02   1.3375837e-01   2.6468534e-02  -1.7290123e+07
   2.0006669e-09  -2.0773514e-02   1.3352305e-01   2.6516855e-02  -1.7249785e+07
   2.0033344e-09  -2.0727553e-02   1.3328868e-01   2.6565149e-02  -1.7209555e+07
   2.0060020e-09  -2.0681700e-02   1.3305526e-01   2.6613415e-02  -1.7169432e+07
   2.0086696e-09  -2.0635954e-02   1.3282278e-01   2.6661655e-02  -1.7129417e+07
   2.0113371e-09  -2.0590315e-02   1.3259123e-01   2.6709867e-02  -1.7089509e+07
   2.0140047e-09  -2.0544781e-02   1.3236062e-01   2.6758052e-02  -1.7049707e+07
   2.0166722e-09  -2.0499354e-02   1.3213093e-01   2.6806210e-02  -1.7010012e+07
   2.0193398e-09  -2.0454032e-02   1.3190217e-01   2.6854339e-02  -1.6970423e+07
   2.0220073e-09  -2.0408816e-02   1.3167432e-01   2.6902441e-02  -1.6930939e+07
   2.0246749e-09  -2.0363706e-02   1.3144739e-01   2.6950515e-02  -1.6891560e+07
   2.0273424e-09  -2.0318700e-02   1.3122136e-01   2.6998561e-02  -1.6852286e+07
   2.0300100e-09  -2.0273798e-02   1.3099624e-01   2.7046578e-02  -1.6813116e+07
   2.0326776e-09  -2.0229001e-02   1.3077202e-01   2.7094567e-02  -1.6774051e+07
   2.0353451e-09  -2.0184308e-02   1.3054869e-01   2.7142527e-02  -1.6735089e+07
   2.0380127e-09  -2.0139719e-02   1.3032625e-01   2.7190459e-02  -1.6696231e+07
   2.0406802e-09  -2.0095233e-02   1.3010469e-01   2.7238362e-02  -1.6657475e+07
   2.0433478e-09  -2.0050851e-02   1.2988401e-01   2.7286236e-02  -1.6618822e+07
   2.0460153e-09  -2.0006572e-02   1.2966422e-01   2.7334081e-02  -1.6580271e+07
   2.0486829e-09  -1.9962395e-02   1.2944529e-01   2.7381896e-02  -1.6541823e+07
   2.0513505e-09  -1.9918321e-02   1.2922723e-01   2.7429682e-02  -1.6503475e+07
   2.0540180e-09  -1.9874348e-02   1.2901003e-01   2.7477439e-02  -1.6465229e+07
   2.0566856e-09  -1.9830478e-02   1.2879369e-01   2.7525166e-02  -1.6427084e+07
   2.0593531e-09  -1.9786709e-02   1.2857820e-01   2.7572863e-02  -1.6389039e+07
   2.0620207e-09  -1.9743042e-02   1.2836357e-01   2.7620530e-02  -1.6351095e+07
   2.0646882e-09  -1.9699476e-02   1.2814978e-01   2.7668167e-02  -1.6313250e+07
   2.0673558e-09  -1.9656010e-02   1.2793683e-01   2.7715774e-02  -1.6275504e+07
   2.0700233e-09  -1.9612646e-02   1.2772471e-01   2.7763351e-02  -1.6237858e+07
   2.0726909e-09  -1.9569381e-02   1.2751343e-01   2.7810897e-02  -1.6200311e+07
   2.0753585e-09  -1.9526216e-02   1.2730298e-01   2.7858412e-02  -1.6162862e+07
   2.0780260e-09  -1.9483152e-02   1.2709335e-01   2.7905897e-02  -1.6125511e+07
   2.0806936e-09  -1.9440186e-02   1.2688455e-01   2.7953351e-02  -1.6088258e+07
   2.0833611e-09  -1.9397320e-02   1.2667655e-01   2.8000774e-02  -1.6051102e+07
   2.0860287e-09  -1.9354553e-02   1.2646938e-01   2.8048166e-02  -1.6014044e+07
   2.0886962e-09  -1.9311885e-02   1.2626300e-01   2.8095526e-02  -1.5977082e+07
   2.0913638e-09  -1.9269315e-02   1.2605744e-01   2.8142855e-02  -1.5940217e+07
   2.0940313e-09  -1.9226843e-02   1.2585267e-01   2.8190153e-02  -1.5903448e+07
   2.0966989e-09  -1.9184469e-02   1.2564870e-01   2.8237419e-02  -1.5866775e+07
   2.0993665e-09  -1.9142193e-02   1.2544552e-01   2.8284653e-02  -1.5830197e+07
   2.1020340e-09  -1.9100015e-02   1.2524312e-01   2.8331856e-02  -1.5793714e+07
   2.1047016e-09  -1.9057933e-02   1.2504152e-01   2.8379026e-02  -1.5757326e+07
   2.1073691e-09  -1.9015949e-02   1.2484069e-01   2.8426165e-02  -1.5721033e+07
   2.1100367e-09  -1.8974061e-02   1.2464064e-01   2.8473271e-02  -1.5684834e+07
   2.1127042e-09  -1.8932270e-02   1.2444136e-01   2.8520344e-02  -1.5648729e+07
   2.1153718e-09  -1.8890574e-02   1.2424285e-01   2.8567385e-02  -1.5612717e+07
   2.1180393e-09  -1.8848975e-02   1.2404510e-01   2.8614394e-02  -1.5576799e+07
   2.1207069e-09  -1.8807472e-02   1.2384812e-01   2.8661370e-02  -1.5540974e+07
   2.1233745e-09  -1.8766063e-02   1.2365189e-01   2.8708313e-02  -1.5505241e+07
   2.1260420e-09  -1.8724751e-02   1.2345642e-01   2.8755223e-02  -1.5469601e+07
   2.1287096e-09  -1.8683533e-02   1.2326169e-01   2.8802099e-02  -1.5434053e+07
   2.1313771e-09  -1.8642409e-02   1.2306772e-01   2.8848943e-02  -1.5398596e+07
   2.1340447e-09  -1.8601380e-02   1.2287448e-01   2.8895753e-02  -1.5363231e+07
   2.1367122e-09  -1.8560446e-02   1.2268199e-01   2.8942530e-02  -1.5327957e+07
   2.1393798e-09  -1.8519605e-02   1.2249023e-01   2.8989274e-02  -1.5292774e+07
   2.1420473e-09  -1.8478858e-02   1.2229920e-01   2.9035983e-02  -1.5257682e+07
   2.1447149e-09  -1.8438205e-02   1.2210890e-01   2.9082659e-02  -1.5222679e+07
   2.1473825e-09  -1.8397645e-02   1.2191933e-01   2.9129301e-02  -1.5187767e+07
   2.1500500e-09  -1.8357177e-02   1.2173047e-01   2.9175909e-02  -1.5152944e+07
   2.1527176e-09  -1.8316803e-02   1.2154234e-01   2.9222482e-02  -1.5118211e+07
   2.1553851e-09  -1.8276521e-02   1.2135491e-01   2.9269022e-02  -1.5083567e+07
   2.1580527e-09  -1.8236331e-02   1.2116820e-01   2.9315527e-02  -1.5049011e+07
   2.1607202e-09  -1.8196234e-02   1.2098220e-01   2.9361997e-02  -1.5014544e+07
   2.1633878e-09  -1.8156228e-02   1.2079690e-01   2.9408433e-02  -1.4980165e+07
   2.1660554e-09  -1.8116314e-02   1.2061230e-01   2.9454835e-02  -1.4945875e+07
   2.1687229e-09  -1.8076491e-02   1.2042840e-01   2.9501201e-02  -1.4911671e+07
   2.1713905e-09  -1.8036760e-02   1.2024519e-01   2.9547533e-02  -1.4877555e+07
   2.1740580e-09  -1.7997119e-02   1.2006267e-01   2.9593829e-02  -1.4843526e+07
   2.1767256e-09  -1.7957569e-02   1.1988084e-01   2.9640090e-02  -1.4809584e+07
   2.1793931e-09  -1.7918109e-02   1.1969970e-01   2.9686316e-02  -1.4775729e+07
   2.1820607e-09  -1.7878739e-02   1.1951923e-01   2.9732507e-02  -1.4741959e+07
   2.1847282e-09  -1.7839460e-02   1.1933944e-01   2.9778662e-02  -1.4708276e+07
   2.1873958e-09  -1.7800270e-02   1.1916033e-01   2.9824782e-02  -1.4674678e+07
   2.1900634e-09  -1.7761170e-02   1.1898188e-01   2.9870866e-02  -1.4641166e+07
   2.1927309e-09  -1.7722159e-02   1.1880411e-01   2.9916914e-02  -1.4607738e+07
   2.1953985e-09  -1.7683237e-02   1.1862700e-01   2.9962926e-02  -1.4574396e+07
   2.1980660e-09  -1.7644404e-02   1.1845055e-01   3.0008903e-02  -1.4541138e+07
   2.2007336e-09  -1.7605659e-02   1.1827476e-01   3.0054843e-02  -1.4507964e+07
   2.2034011e-09  -1.7567003e-02   1.1809962e-01   3.0100747e-02  -1.4474875e+07
   2.2060687e-09  -1.7528435e-02   1.1792513e-01   3.0146615e-02  -1.4441869e+07
   2.2087362e-09  -1.7489955e-02   1.1775130e-01   3.0192446e-02  -1.4408947e+07
   2.2114038e-09  -1.7451562e-02   1.1757811e-01   3.0238241e-02  -1.4376108e+07
   2.2140714e-09  -1.7413258e-02   1.1740556e-01   3.0283999e-02  -1.4343352e+07
   2.2167389e-09  -1.7375040e-02   1.1723365e-01   3.0329720e-02  -1.4310678e+07
   2.2194065e-09  -1.7336909e-02   1.1706238e-01   3.0375405e-02  -1.4278087e+07
   2.2220740e-09  -1.7298866e-02   1.1689175e-01   3.0421053e-02  -1.4245578e+07
   2.2247416e-09  -1.7260908e-02   1.1672174e-01   3.0466663e-02  -1.4213152e+07
   2.2274091e-09  -1.7223038e-02   1.1655236e-01   3.0512237e-02  -1.4180806e+07
   2.2300767e-09  -1.7185253e-02   1.1638361e-01   3.0557774e-02  -1.4148543e+07
   2.2327442e-09  -1.7147554e-02   1.1621548e-01   3.0603273e-02  -1.4116360e+07
   2.2354118e-09  -1.7109941e-02   1.1604796e-01   3.0648734e-02  -1.4084258e+07
   2.2380794e-09  -1.7072414e-02   1.1588107e-01   3.0694159e-02  -1.4052237e+07
   2.2407469e-09  -1.7034972e-02   1.1571478e-01   3.0739545e-02  -1.4020296e+07
   2.2434145e-09  -1.6997615e-02   1.1554911e-01   3.0784894e-02  -1.3988436e+07
   2.2460820e-09  -1.6960343e-02   1.1538405e-01   3.0830205e-02  -1.3956655e+07
   2.2487496e-09  -1.6923155e-02   1.1521959e-01   3.0875479e-02  -1.3924954e+07
   2.2514171e-09  -1.6886053e-02   1.1505573e-01   3.0920714e-02  -1.3893333e+07
   2.2540847e-09  -1.6849034e-02   1.1489247e-01   3.0965912e-02  -1.3861790e+07
   2.2567523e-09  -1.6812099e-02   1.1472980e-01   3.1011071e-02  -1.3830326e+07
   2.2594198e-09  -1.6775248e-02   1.1456774e-01   3.1056192e-02  -1.3798942e+07
   2.2620874e-09  -1.6738481e-02   1.1440626e-01   3.1101274e-02  -1.3767635e+07
   2.2647549e-09  -1.6701797e-02   1.1424537e-01   3.1146318e-02  -1.3736407e+07
   2.2674225e-09  -1.6665196e-02   1.1408506e-01   3.1191324e-02  -1.3705256e+07
   2.2700900e-09  -1.6628679e-02   1.1392534e-01   3.1236291e-02  -1.3674183e+07
   2.2727576e-09  -1.6592244e-02   1.1376620e-01   3.1281220e-02  -1.3643188e+07
   2.2754251e-09  -1.6555892e-02   1.1360763e-01   3.1326109e-02  -1.3612270e+07
   2.2780927e-09  -1.6519622e-02   1.1344964e-01   3.1370960e-02  -1.3581429e+07
   2.2807603e-09  -1.6483434e-02   1.1329222e-01   3.1415772e-02  -1.3550664e+07
   2.2834278e-09  -1.6447328e-02   1.1313537e-01   3.1460545e-02  -1.3519976e+07
   2.2860954e-09  -1.6411304e-02   1.1297909e-01   3.1505278e-02  -1.3489365e+07
   2.2887629e-09  -1.6375361e-02   1.1282337e-01   3.1549973e-02  -1.3458829e+07
   2.2914305e-09  -1.6339500e-02   1.1266822e-01   3.1594628e-02  -1.3428369e+07
   2.2940980e-09  -1.6303720e-02   1.1251362e-01   3.1639244e-02  -1.3397985e+07
   2.2967656e-09  -1.6268021e-02   1.1235958e-01   3.1683820e-02  -1.3367676e+07
   2.2994331e-09  -1.6232403e-02   1.1220609e-01   3.1728357e-02  -1.3337442e+07
   2.3021007e-09  -1.6196865e-02   1.1205316e-01   3.1772854e-02  -1.3307283e+07
   2.3047683e-09  -1.6161408e-02   1.1190077e-01   3.1817312e-02  -1.3277198e+07
   2.3074358e-09  -1.6126030e-02   1.1174893e-01   3.1861730e-02  -1.3247188e+07
   2.3101034e-09  -1.6090733e-02   1.1159763e-01   3.1906107e-02  -1.3217253e+07
   2.3127709e-09  -1.6055516e-02   1.1144688e-01   3.1950445e-02  -1.3187391e+07
   2.3154385e-09  -1.6020378e-02   1.1129666e-01   3.1994743e-02  -1.3157603e+07
   2.3181060e-09  -1.5985319e-02   1.1114699e-01   3.2039001e-02  -1.3127888e+07
   2.3207736e-09  -1.5950339e-02   1.1099784e-01   3.2083219e-02  -1.3098247e+07
   2.3234411e-09  -1.5915439e-02   1.1084923e-01   3.2127396e-02  -1.3068679e+07
   2.3261087e-09  -1.5880617e-02   1.1070115e-01   3.2171533e-02  -1.3039183e+07
   2.3287763e-09  -1.5845874e-02   1.1055359e-01   3.2215629e-02  -1.3009761e+07
   2.3314438e-09  -1.5811209e-02   1.1040656e-01   3.2259685e-02  -1.2980410e+07
   2.3341114e-09  -1.5776623e-02   1.1026005e-01   3.2303701e-02  -1.2951132e+07
   2.3367789e-09  -1.5742114e-02   1.1011406e-01   3.2347676e-02  -1.2921926e+07
   2.3394465e-09  -1.5707683e-02   1.0996859e-01   3.2391610e-02  -1.2892792e+07
   2.3421140e-09  -1.5673330e-02   1.0982363e-01   3.2435503e-02  -1.2863729e+07
   2.3447816e-09  -1.5639055e-02   1.0967919e-01   3.2479356e-02  -1.2834738e+07
   2.3474491e-09  -1.5604856e-02   1.0953526e-01   3.2523167e-02  -1.2805817e+07
   2.3501167e-09  -1.5570735e-02   1.0939183e-01   3.2566938e-02  -1.2776968e+07
   2.3527843e-09  -1.5536690e-02   1.0924892e-01   3.2610667e-02  -1.2748189e+07
   2.3554518e-09  -1.5502722e-02   1.0910650e-01   3.2654355e-02  -1.2719481e+07
   2.3581194e-09  -1.5468831e-02   1.0896459e-01   3.2698002e-02  -1.2690843e+07
   2.3607869e-09  -1.5435016e-02   1.0882318e-01   3.2741608e-02  -1.2662275e+07
   2.3634545e-09  -1.5401277e-02   1.0868226e-01   3.2785172e-02  -1.2633777e+07
   2.3661220e-09  -1.5367614e-02   1.0854184e-01   3.2828695e-02  -1.2605349e+07
   2.3687896e-09  -1.5334026e-02   1.0840192e-01   3.2872177e-02  -1.2576990e+07
   2.3714572e-09  -1.5300515e-02   1.0826248e-01   3.2915616e-02  -1.2548700e+07
   2.3741247e-09  -1.5267078e-02   1.0812353e-01   3.2959015e-02  -1.2520480e+07
   2.3767923e-09  -1.5233717e-02   1.0798507e-01   3.3002371e-02  -1.2492328e+07
   2.3794598e-09  -1.5200431e-02   1.0784709e-01   3.3045686e-02  -1.2464245e+07
   2.3821274e-09  -1.5167219e-02   1.0770960e-01   3.3088958e-02  -1.2436230e+07
   2.3847949e-09  -1.5134083e-02   1.0757258e-01   3.3132189e-02  -1.2408283e+07
   2.3874625e-09  -1.5101020e-02   1.0743605e-01   3.3175378e-02  -1.2380405e+07
   2.3901300e-09  -1.5068032e-02   1.0729998e-01   3.3218525e-02  -1.2352594e+07
   2.3927976e-09  -1.5035118e-02   1.0716440e-01   3.3261630e-02  -1.2324851e+07
   2.3954652e-09  -1.5002278e-02   1.0702928e-01   3.3304692e-02  -1.2297176e+07
   2.3981327e-09  -1.4969512e-02   1.0689463e-01   3.3347712e-02  -1.2269567e+07
   2.4008003e-09  -1.4936819e-02   1.0676045e-01   3.3390690e-02  -1.2242026e+07
   2.4034678e-09  -1.4904200e-02   1.0662674e-01   3.3433626e-02  -1.2214552e+07
   2.4061354e-09  -1.4871654e-02   1.0649349e-01   3.3476519e-02  -1.2187144e+07
   2.4088029e-09  -1.4839181e-02   1.0636070e-01   3.3519370e-02  -1.2159802e+07
   2.4114705e-09  -1.4806780e-02   1.0622837e-01   3.3562178e-02  -1.2132527e+07
   2.4141380e-09  -1.4774453e-02   1.0609650e-01   3.3604943e-02  -1.2105318e+07
   2.4168056e-09  -1.4742198e-02   1.0596508e-01   3.3647666e-02  -1.2078175e+07
   2.4194732e-09  -1.4710015e-02   1.0583412e-01   3.3690346e-02  -1.2051098e+07
   2.4221407e-09  -1.4677904e-02   1.0570361e-01   3.3732983e-02  -1.2024086e+07
   2.4248083e-09  -1.4645865e-02   1.0557354e-01   3.3775577e-02  -1.1997139e+07
   2.4274758e-09  -1.4613899e-02   1.0544393e-01   3.3818129e-02  -1.1970257e+07
   2.4301434e-09  -1.4582003e-02   1.0531476e-01   3.3860637e-02  -1.1943441e+07
   2.4328109e-09  -1.4550179e-02   1.0518604e-01   3.3903103e-02  -1.1916689e+07
   2.4354785e-09  -1.4518427e-02   1.0505775e-01   3.3945525e-02  -1.1890002e+07
   2.4381460e-09  -1.4486745e-02   1.0492991e-01   3.3987904e-02  -1.1863379e+07
   2.4408136e-09  -1.4455135e-02   1.0480250e-01   3.4030240e-02  -1.1836820e+07
   2.4434812e-09  -1.4423595e-02   1.0467553e-01   3.4072533e-02  -1.1810325e+07
   2.4461487e-09  -1.4392126e-02   1.0454900e-01   3.4114782e-02  -1.1783894e+07
   2.4488163e-09  -1.4360727e-02   1.0442290e-01   3.4156988e-02  -1.1757527e+07
   2.4514838e-09  -1.4329399e-02   1.0429722e-01   3.4199151e-02  -1.1731223e+07
   2.4541514e-09  -1.4298140e-02   1.0417198e-01   3.4241270e-02  -1.1704982e+07
   2.4568189e-09  -1.4266952e-02   1.0404716e-01   3.4283345e-02  -1.1678805e+07
   2.4594865e-09  -1.4235833e-02   1.0392277e-01   3.4325377e-02  -1.1652690e+07
   2.4621541e-09  -1.4204784e-02   1.0379880e-01   3.4367366e-02  -1.1626638e+07
   2.4648216e-09  -1.4173804e-02   1.0367526e-01   3.4409310e-02  -1.1600649e+07
   2.4674892e-09  -1.4142893e-02   1.0355213e-01   3.4451211e-02  -1.1574722e+07
   2.4701567e-09  -1.4112052e-02   1.0342942e-01   3.4493068e-02  -1.1548857e+07
   2.4728243e-09  -1.4081279e-02   1.0330713e-01   3.4534882e-02  -1.1523054e+07
   2.4754918e-09  -1.4050575e-02   1.0318525e-01   3.4576651e-02  -1.1497313e+07
   2.4781594e-09  -1.4019940e-02   1.0306378e-01   3.4618376e-02  -1.1471634e+07
   2.4808269e-09  -1.3989373e-02   1.0294273e-01   3.4660058e-02  -1.1446016e+07
   2.4834945e-09  -1.3958875e-02   1.0282208e-01   3.4701695e-02  -1.1420460e+07
   2.4861621e-09  -1.3928444e-02   1.0270184e-01   3.4743288e-02  -1.1394965e+07
   2.4888296e-09  -1.3898082e-02   1.0258201e-01   3.4784837e-02  -1.1369530e+07
   2.4914972e-09  -1.3867787e-02   1.0246258e-01   3.4826342e-02  -1.1344157e+07
   2.4941647e-09  -1.3837560e-02   1.0234355e-01   3.4867803e-02  -1.1318844e+07
   2.4968323e-09  -1.3807400e-02   1.0222492e-01   3.4909219e-02  -1.1293591e+07
   2.4994998e-09  -1.3777308e-02   1.0210670e-01   3.4950591e-02  -1.1268399e+07
   2.5021674e-09  -1.3747282e-02   1.0198886e-01   3.4991919e-02  -1.1243267e+07
   2.5048349e-09  -1.3717324e-02   1.0187143e-01   3.5033202e-02  -1.1218195e+07
   2.5075025e-09  -1.3687432e-02   1.0175439e-01   3.5074441e-02  -1.1193183e+07
   2.5101701e-09  -1.3657607e-02   1.0163774e-01   3.5115636e-02  -1.1168230e+07
   2.5128376e-09  -1.3627849e-02   1.0152148e-01   3.5156785e-02  -1.1143337e+07
   2.5155052e-09  -1.3598157e-02   1.0140561e-01   3.5197890e-02  -1.1118503e+07
   2.5181727e-09  -1.3568531e-02   1.0129013e-01   3.5238951e-02  -1.1093728e+07
   2.5208403e-09  -1.3538971e-02   1.0117503e-01   3.5279967e-02  -1.1069012e+07
   2.5235078e-09  -1.3509477e-02   1.0106032e-01   3.5320938e-02  -1.1044355e+07
   2.5261754e-09  -1.3480048e-02   1.0094599e-01   3.5361864e-02  -1.1019756e+07
   2.5288429e-09  -1.3450686e-02   1.0083204e-01   3.5402746e-02  -1.0995216e+07
   2.5315105e-09  -1.3421388e-02   1.0071847e-01   3.5443582e-02  -1.0970734e+07
   2.5341781e-09  -1.3392156e-02   1.0060528e-01   3.5484374e-02  -1.0946311e+07
   2.5368456e-09  -1.3362989e-02   1.0049246e-01   3.5525121e-02  -1.0921945e+07
   2.5395132e-09  -1.3333886e-02   1.0038002e-01   3.5565823e-02  -1.0897637e+07
   2.5421807e-09  -1.3304849e-02   1.0026795e-01   3.5606480e-02  -1.0873387e+07
   2.5448483e-09  -1.3275876e-02   1.0015625e-01   3.5647091e-02  -1.0849194e+07
   2.5475158e-09  -1.3246967e-02   1.0004493e-01   3.5687658e-02  -1.0825059e+07
   2.5501834e-09  -1.3218123e-02   9.9933966e-02   3.5728180e-02  -1.0800980e+07
   2.5528510e-09  -1.3189343e-02   9.9823375e-02   3.5768656e-02  -1.0776959e+07
   2.5555185e-09  -1.3160627e-02   9.9713149e-02   3.5809087e-02  -1.0752995e+07
   2.5581861e-09  -1.3131975e-02   9.9603286e-02   3.5849473e-02  -1.0729087e+07
   2.5608536e-09  -1.3103387e-02   9.9493786e-02   3.5889814e-02  -1.0705236e+07
   2.5635212e-09  -1.3074862e-02   9.9384647e-02   3.5930109e-02  -1.0681441e+07
   2.5661887e-09  -1.3046400e-02   9.9275868e-02   3.5970359e-02  -1.0657703e+07
   2.5688563e-09  -1.3018002e-02   9.9167446e-02   3.6010564e-02  -1.0634020e+07
   2.5715238e-09  -1.2989667e-02   9.9059382e-02   3.6050723e-02  -1.0610394e+07
   2.5741914e-09  -1.2961395e-02   9.8951672e-02   3.6090837e-02  -1.0586823e+07
   2.5768590e-09  -1.2933185e-02   9.8844315e-02   3.6130905e-02  -1.0563308e+07
   2.5795265e-09  -1.2905039e-02   9.8737311e-02   3.6170928e-02  -1.0539848e+07
   2.5821941e-09  -1.2876954e-02   9.8630658e-02   3.6210905e-02  -1.0516444e+07
   2.5848616e-09  -1.2848933e-02   9.8524354e-02   3.6250837e-02  -1.0493095e+07
   2.5875292e-09  -1.2820973e-02   9.8418398e-02   3.6290723e-02  -1.0469800e+07
   2.5901967e-09  -1.2793075e-02   9.8312788e-02   3.6330564e-02  -1.0446561e+07
   2.5928643e-09  -1.2765240e-02   9.8207523e-02   3.6370358e-02  -1.0423377e+07
   2.5955318e-09  -1.2737466e-02   9.8102602e-02   3.6410107e-02  -1.0400246e+07
   2.5981994e-09  -1.2709753e-02   9.7998023e-02   3.6449811e-02  -1.0377171e+07
   2.6008670e-09  -1.2682103e-02   9.7893786e-02   3.6489468e-02  -1.0354150e+07
   2.6035345e-09  -1.2654513e-02   9.7789887e-02   3.6529080e-02  -1.0331182e+07
   2.6062021e-09  -1.2626985e-02   9.7686327e-02   3.6568646e-02  -1.0308269e+07
   2.6088696e-09  -1.2599518e-02   9.7583104e-02   3.6608166e-02  -1.0285410e+07
   2.6115372e-09  -1.2572111e-02   9.7480216e-02   3.6647640e-02  -1.0262604e+07
   2.6142047e-09  -1.2544766e-02   9.7377662e-02   3.6687068e-02  -1.0239852e+07
   2.6168723e-09  -1.2517481e-02   9.7275441e-02   3.6726450e-02  -1.0217153e+07
   2.6195398e-09  -1.2490256e-02   9.7173551e-02   3.6765787e-02  -1.0194507e+07
   2.6222074e-09  -1.2463092e-02   9.7071991e-02   3.6805077e-02  -1.0171915e+07
   2.6248750e-09  -1.2435988e-02   9.6970760e-02   3.6844321e-02  -1.0149375e+07
   2.6275425e-09  -1.2408945e-02   9.6869856e-02   3.6883520e-02  -1.0126888e+07
   2.6302101e-09  -1.2381961e-02   9.6769279e-02   3.6922672e-02  -1.0104454e+07
   2.6328776e-09  -1.2355036e-02   9.6669026e-02   3.6961778e-02  -1.0082073e+07
   2.6355452e-09  -1.2328172e-02   9.6569097e-02   3.7000838e-02  -1.0059744e+07
   2.6382127e-09  -1.2301367e-02   9.6469489e-02   3.7039851e-02  -1.0037467e+07
   2.6408803e-09  -1.2274621e-02   9.6370203e-02   3.7078819e-02  -1.0015242e+07
   2.6435478e-09  -1.2247935e-02   9.6271237e-02   3.7117740e-02  -9.9930695e+06
   2.6462154e-09  -1.2221307e-02   9.6172589e-02   3.7156616e-02  -9.9709485e+06
   2.6488830e-09  -1.2194739e-02   9.6074257e-02   3.7195445e-02  -9.9488793e+06
   2.6515505e-09  -1.2168229e-02   9.5976242e-02   3.7234227e-02  -9.9268616e+06
   2.6542181e-09  -1.2141778e-02   9.5878541e-02   3.7272964e-02  -9.9048953e+06
   2.6568856e-09  -1.2115386e-02   9.5781154e-02   3.7311654e-02  -9.8829803e+06
   2.6595532e-09  -1.2089052e-02   9.5684079e-02   3.7350297e-02  -9.8611164e+06
   2.6622207e-09  -1.2062776e-02   9.5587314e-02   3.7388895e-02  -9.8393036e+06
   2.6648883e-09  -1.2036558e-02   9.5490860e-02   3.7427446e-02  -9.8175416e+06
   2.6675559e-09  -1.2010398e-02   9.5394713e-02   3.7465950e-02  -9.7958304e+06
   2.6702234e-09  -1.1984296e-02   9.5298874e-02   3.7504408e-02  -9.7741697e+06
   2.6728910e-09  -1.1958252e-02   9.5203341e-02   3.7542820e-02  -9.7525595e+06
   2.6755585e-09  -1.1932266e-02   9.5108112e-02   3.7581185e-02  -9.7309997e+06
   2.6782261e-09  -1.1906336e-02   9.5013187e-02   3.7619504e-02  -9.7094900e+06
   2.6808936e-09  -1.1880465e-02   9.4918565e-02   3.7657777e-02  -9.6880304e+06
   2.6835612e-09  -1.1854650e-02   9.4824243e-02   3.7696002e-02  -9.6666208e+06
   2.6862287e-09  -1.1828892e-02   9.4730222e-02   3.7734182e-02  -9.6452609e+06
   2.6888963e-09  -1.1803192e-02   9.4636499e-02   3.7772314e-02  -9.6239507e+06
   2.6915639e-09  -1.1777548e-02   9.4543074e-02   3.7810400e-02  -9.6026901e+06
   2.6942314e-09  -1.1751960e-02   9.4449946e-02   3.7848440e-02  -9.5814788e+06
   2.6968990e-09  -1.1726430e-02   9.4357113e-02   3.7886433e-02  -9.5603168e+06
   2.6995665e-09  -1.1700955e-02   9.4264574e-02   3.7924379e-02  -9.5392040e+06
   2.7022341e-09  -1.1675537e-02   9.4172328e-02   3.7962279e-02  -9.5181402e+06
   2.7049016e-09  -1.1650175e-02   9.4080374e-02   3.8000132e-02  -9.4971253e+06
   2.7075692e-09  -1.1624869e-02   9.3988710e-02   3.8037938e-02  -9.4761591e+06
   2.7102367e-09  -1.1599619e-02   9.3897336e-02   3.8075698e-02  -9.4552415e+06
   2.7129043e-09  -1.1574425e-02   9.3806251e-02   3.8113411e-02  -9.4343725e+06
   2.7155719e-09  -1.1549286e-02   9.3715453e-02   3.8151077e-02  -9.4135518e+06
   2.7182394e-09  -1.1524202e-02   9.3624942e-02   3.8188697e-02  -9.3927794e+06
   2.7209070e-09  -1.1499174e-02   9.3534715e-02   3.8226270e-02  -9.3720551e+06
   2.7235745e-09  -1.1474202e-02   9.3444772e-02   3.8263796e-02  -9.3513788e+06
   2.7262421e-09  -1.1449284e-02   9.3355113e-02   3.8301275e-02  -9.3307504e+06
   2.7289096e-09  -1.1424421e-02   9.3265735e-02   3.8338708e-02  -9.3101697e+06
   2.7315772e-09  -1.1399613e-02   9.3176638e-02   3.8376093e-02  -9.2896366e+06
   2.7342447e-09  -1.1374860e-02   9.3087821e-02   3.8413432e-02  -9.2691510e+06
   2.7369123e-09  -1.1350162e-02   9.2999282e-02   3.8450725e-02  -9.2487128e+06
   2.7395799e-09  -1.1325517e-02   9.2911020e-02   3.8487970e-02  -9.2283219e+06
   2.7422474e-09  -1.1300928e-02   9.2823036e-02   3.8525168e-02  -9.2079780e+06
   2.7449150e-09  -1.1276392e-02   9.2735326e-02   3.8562320e-02  -9.1876812e+06
   2.7475825e-09  -1.1251910e-02   9.2647891e-02   3.8599425e-02  -9.1674313e+06
   2.7502501e-09  -1.1227483e-02   9.2560729e-02   3.8636483e-02  -9.1472281e+06
   2.7529176e-09  -1.1203109e-02   9.2473839e-02   3.8673494e-02  -9.1270715e+06
   2.7555852e-09  -1.1178789e-02   9.2387221e-02   3.8710458e-02  -9.1069614e+06
   2.7582528e-09  -1.1154523e-02   9.2300872e-02   3.8747375e-02  -9.0868978e+06
   2.7609203e-09  -1.1130310e-02   9.2214793e-02   3.8784246e-02  -9.0668804e+06
   2.7635879e-09  -1.1106150e-02   9.2128981e-02   3.8821069e-02  -9.0469092e+06
   2.7662554e-09  -1.1082044e-02   9.2043437e-02   3.8857846e-02  -9.0269840e+06
   2.7689230e-09  -1.1057990e-02   9.1958159e-02   3.8894576e-02  -9.0071047e+06
   2.7715905e-09  -1.1033990e-02   9.1873146e-02   3.8931258e-02  -8.9872712e+06
   2.7742581e-09  -1.1010042e-02   9.1788396e-02   3.8967894e-02  -8.9674834e+06
   2.7769256e-09  -1.0986148e-02   9.1703910e-02   3.9004483e-02  -8.9477412e+06
   2.7795932e-09  -1.0962305e-02   9.1619686e-02   3.9041025e-02  -8.9280444e+06
   2.7822608e-09  -1.0938516e-02   9.1535723e-02   3.9077520e-02  -8.9083929e+06
   2.7849283e-09  -1.0914778e-02   9.1452019e-02   3.9113968e-02  -8.8887867e+06
   2.7875959e-09  -1.0891093e-02   9.1368575e-02   3.9150369e-02  -8.8692255e+06
   2.7902634e-09  -1.0867460e-02   9.1285389e-02   3.9186723e-02  -8.8497093e+06
   2.7929310e-09  -1.0843879e-02   9.1202460e-02   3.9223030e-02  -8.8302379e+06
   2.7955985e-09  -1.0820350e-02   9.1119787e-02   3.9259290e-02  -8.8108114e+06
   2.7982661e-09  -1.0796873e-02   9.1037369e-02   3.9295503e-02  -8.7914294e+06
   2.8009336e-09  -1.0773447e-02   9.0955205e-02   3.9331669e-02  -8.7720919e+06
   2.8036012e-09  -1.0750073e-02   9.0873294e-02   3.9367788e-02  -8.7527989e+06
   2.8062688e-09  -1.0726750e-02   9.0791636e-02   3.9403861e-02  -8.7335501e+06
   2.8089363e-09  -1.0703478e-02   9.0710229e-02   3.9439886e-02  -8.7143456e+06
   2.8116039e-09  -1.0680258e-02   9.0629072e-02   3.9475864e-02  -8.6951850e+06
   2.8142714e-09  -1.0657089e-02   9.0548165e-02   3.9511795e-02  -8.6760685e+06
   2.8169390e-09  -1.0633970e-02   9.0467506e-02   3.9547679e-02  -8.6569957e+06
   2.8196065e-09  -1.0610903e-02   9.0387094e-02   3.9583516e-02  -8.6379667e+06
   2.8222741e-09  -1.0587886e-02   9.0306930e-02   3.9619307e-02  -8.6189813e+06
   2.8249416e-09  -1.0564920e-02   9.0227011e-02   3.9655050e-02  -8.6000394e+06
   2.8276092e-09  -1.0542004e-02   9.0147336e-02   3.9690746e-02  -8.5811409e+06
   2.8302768e-09  -1.0519138e-02   9.0067906e-02   3.9726395e-02  -8.5622856e+06
   2.8329443e-09  -1.0496323e-02   8.9988718e-02   3.9761997e-02  -8.5434736e+06
   2.8356119e-09  -1.0473558e-02   8.9909773e-02   3.9797552e-02  -8.5247046e+06
   2.8382794e-09  -1.0450843e-02   8.9831068e-02   3.9833060e-02  -8.5059785e+06
   2.8409470e-09  -1.0428178e-02   8.9752604e-02   3.9868521e-02  -8.4872953e+06
   2.8436145e-09  -1.0405563e-02   8.9674379e-02   3.9903935e-02  -8.4686548e+06
   2.8462821e-09  -1.0382997e-02   8.9596393e-02   3.9939303e-02  -8.4500570e+06
   2.8489496e-09  -1.0360481e-02   8.9518644e-02   3.9974623e-02  -8.4315016e+06
   2.8516172e-09  -1.0338014e-02   8.9441132e-02   4.0009896e-02  -8.4129887e+06
   2.8542848e-09  -1.0315597e-02   8.9363856e-02   4.0045122e-02  -8.3945181e+06
   2.8569523e-09  -1.0293228e-02   8.9286814e-02   4.0080301e-02  -8.3760896e+06
   2.8596199e-09  -1.0270909e-02   8.9210007e-02   4.0115433e-02  -8.3577033e+06
   2.8622874e-09  -1.0248639e-02   8.9133432e-02   4.0150518e-02  -8.3393589e+06
   2.8649550e-09  -1.0226418e-02   8.9057091e-02   4.0185556e-02  -8.3210564e+06
   2.8676225e-09  -1.0204246e-02   8.8980980e-02   4.0220547e-02  -8.3027957e+06
   2.8702901e-09  -1.0182122e-02   8.8905100e-02   4.0255491e-02  -8.2845766e+06
   2.8729577e-09  -1.0160047e-02   8.8829450e-02   4.0290389e-02  -8.2663991e+06
   2.8756252e-09  -1.0138020e-02   8.8754029e-02   4.0325239e-02  -8.2482631e+06
   2.8782928e-09  -1.0116041e-02   8.8678836e-02   4.0360042e-02  -8.2301684e+06
   2.8809603e-09  -1.0094111e-02   8.8603870e-02   4.0394798e-02  -8.2121149e+06
   2.8836279e-09  -1.0072229e-02   8.8529130e-02   4.0429508e-02  -8.1941026e+06
   2.8862954e-09  -1.0050395e-02   8.8454616e-02   4.0464170e-02  -8.1761313e+06
   2.8889630e-09  -1.0028609e-02   8.8380327e-02   4.0498785e-02  -8.1582010e+06
   2.8916305e-09  -1.0006870e-02   8.8306262e-02   4.0533354e-02  -8.1403114e+06
   2.8942981e-09  -9.9851792e-03   8.8232420e-02   4.0567875e-02  -8.1224627e+06
   2.8969657e-09  -9.9635359e-03   8.8158800e-02   4.0602350e-02  -8.1046545e+06
   2.8996332e-09  -9.9419401e-03   8.8085401e-02   4.0636778e-02  -8.0868869e+06
   2.9023008e-09  -9.9203916e-03   8.8012224e-02   4.0671159e-02  -8.0691596e+06
   2.9049683e-09  -9.8988903e-03   8.7939266e-02   4.0705492e-02  -8.0514728e+06
   2.9076359e-09  -9.8774362e-03   8.7866527e-02   4.0739779e-02  -8.0338261e+06
   2.9103034e-09  -9.8560291e-03   8.7794006e-02   4.0774020e-02  -8.0162195e+06
   2.9129710e-09  -9.8346689e-03   8.7721703e-02   4.0808213e-02  -7.9986530e+06
   2.9156385e-09  -9.8133555e-03   8.7649616e-02   4.0842359e-02  -7.9811264e+06
   2.9183061e-09  -9.7920888e-03   8.7577745e-02   4.0876459e-02  -7.9636396e+06
   2.9209737e-09  -9.7708687e-03   8.7506090e-02   4.0910511e-02  -7.9461926e+06
   2.9236412e-09  -9.7496950e-03   8.7434648e-02   4.0944517e-02  -7.9287851e+06
   2.9263088e-09  -9.7285678e-03   8.7363420e-02   4.0978476e-02  -7.9114172e+06
   2.9289763e-09  -9.7074869e-03   8.7292405e-02   4.1012388e-02  -7.8940887e+06
   2.9316439e-09  -9.6864521e-03   8.7221602e-02   4.1046253e-02  -7.8767996e+06
   2.9343114e-09  -9.6654634e-03   8.7151010e-02   4.1080072e-02  -7.8595496e+06
   2.9369790e-09  -9.6445206e-03   8.7080629e-02   4.1113843e-02  -7.8423388e+06
   2.9396465e-09  -9.6236237e-03   8.7010457e-02   4.1147568e-02  -7.8251671e+06
   2.9423141e-09  -9.6027726e-03   8.6940494e-02   4.1181247e-02  -7.8080342e+06
   2.9449817e-09  -9.5819671e-03   8.6870740e-02   4.1214878e-02  -7.7909403e+06
   2.9476492e-09  -9.5612071e-03   8.6801193e-02   4.1248463e-02  -7.7738850e+06
   2.9503168e-09  -9.5404926e-03   8.6731852e-02   4.1282000e-02  -7.7568684e+06
   2.9529843e-09  -9.5198235e-03   8.6662717e-02   4.1315492e-02  -7.7398904e+06
   2.9556519e-09  -9.4991995e-03   8.6593788e-02   4.1348936e-02  -7.7229508e+06
   2.9583194e-09  -9.4786208e-03   8.6525063e-02   4.1382334e-02  -7.7060496e+06
   2.9609870e-09  -9.4580870e-03   8.6456542e-02   4.1415685e-02  -7.6891866e+06
   2.9636546e-09  -9.4375982e-03   8.6388224e-02   4.1448989e-02  -7.6723618e+06
   2.9663221e-09  -9.4171542e-03   8.6320108e-02   4.1482247e-02  -7.6555751e+06
   2.9689897e-09  -9.3967549e-03   8.6252193e-02   4.1515458e-02  -7.6388264e+06
   2.9716572e-09  -9.3764003e-03   8.6184480e-02   4.1548622e-02  -7.6221156e+06
   2.9743248e-09  -9.3560902e-03   8.6116967e-02   4.1581740e-02  -7.6054426e+06
   2.9769923e-09  -9.3358245e-03   8.6049652e-02   4.1614811e-02  -7.5888072e+06
   2.9796599e-09  -9.3156031e-03   8.5982537e-02   4.1647836e-02  -7.5722095e+06
   2.9823274e-09  -9.2954260e-03   8.5915620e-02   4.1680814e-02  -7.5556493e+06
   2.9849950e-09  -9.2752930e-03   8.5848900e-02   4.1713745e-02  -7.5391266e+06
   2.9876626e-09  -9.2552040e-03   8.5782376e-02   4.1746630e-02  -7.5226411e+06
   2.9903301e-09  -9.2351589e-03   8.5716048e-02   4.1779468e-02  -7.5061929e+06
   2.9929977e-09  -9.2151577e-03   8.5649916e-02   4.1812260e-02  -7.4897819e+06
   2.9956652e-09  -9.1952002e-03   8.5583978e-02   4.1845005e-02  -7.4734079e+06
   2.9983328e-09  -9.1752863e-03   8.5518234e-02   4.1877704e-02  -7.4570709e+06
   3.0010003e-09  -9.1554160e-03   8.5452683e-02   4.1910357e-02  -7.4407708e+06
   3.0036679e-09  -9.1355891e-03   8.5387324e-02   4.1942962e-02  -7.4245074e+06
   3.0063354e-09  -9.1158055e-03   8.5322157e-02   4.1975522e-02  -7.4082808e+06
   3.0090030e-09  -9.0960652e-03   8.5257181e-02   4.2008035e-02  -7.3920907e+06
   3.0116706e-09  -9.0763679e-03   8.5192395e-02   4.2040501e-02  -7.3759372e+06
   3.0143381e-09  -9.0567138e-03   8.5127800e-02   4.2072922e-02  -7.3598201e+06
   3.0170057e-09  -9.0371026e-03   8.5063393e-02   4.2105296e-02  -7.3437393e+06
   3.0196732e-09  -9.0175342e-03   8.4999174e-02   4.2137623e-02  -7.3276948e+06
   3.0223408e-09  -8.9980086e-03   8.4935144e-02   4.2169904e-02  -7.3116865e+06
   3.0250083e-09  -8.9785256e-03   8.4871300e-02   4.2202139e-02  -7.2957142e+06
   3.0276759e-09  -8.9590852e-03   8.4807643e-02   4.2234328e-02  -7.2797779e+06
   3.0303434e-09  -8.9396873e-03   8.4744171e-02   4.2266470e-02  -7.2638775e+06
   3.0330110e-09  -8.9203317e-03   8.4680885e-02   4.2298566e-02  -7.2480129e+06
   3.0356786e-09  -8.9010184e-03   8.4617783e-02   4.2330616e-02  -7.2321840e+06
   3.0383461e-09  -8.8817472e-03   8.4554865e-02   4.2362619e-02  -7.2163908e+06
   3.0410137e-09  -8.8625182e-03   8.4492130e-02   4.2394576e-02  -7.2006331e+06
   3.0436812e-09  -8.8433311e-03   8.4429577e-02   4.2426487e-02  -7.1849109e+06
   3.0463488e-09  -8.8241860e-03   8.4367207e-02   4.2458352e-02  -7.1692241e+06
   3.0490163e-09  -8.8050826e-03   8.4305017e-02   4.2490171e-02  -7.1535725e+06
   3.0516839e-09  -8.7860209e-03   8.4243009e-02   4.2521944e-02  -7.1379562e+06
   3.0543515e-09  -8.7670009e-03   8.4181180e-02   4.2553670e-02  -7.1223750e+06
   3.0570190e-09  -8.7480223e-03   8.4119530e-02   4.2585351e-02  -7.1068288e+06
   3.0596866e-09  -8.7290852e-03   8.4058059e-02   4.2616985e-02  -7.0913175e+06
   3.0623541e-09  -8.7101894e-03   8.3996767e-02   4.2648574e-02  -7.0758411e+06
   3.0650217e-09  -8.6913349e-03   8.3935651e-02   4.2680116e-02  -7.0603995e+06
   3.0676892e-09  -8.6725215e-03   8.3874713e-02   4.2711612e-02  -7.0449926e+06
   3.0703568e-09  -8.6537491e-03   8.3813951e-02   4.2743063e-02  -7.0296203e+06
   3.0730243e-09  -8.6350177e-03   8.3753365e-02   4.2774467e-02  -7.0142826e+06
   3.0756919e-09  -8.6163272e-03   8.3692953e-02   4.2805826e-02  -6.9989792e+06
   3.0783595e-09  -8.5976775e-03   8.3632716e-02   4.2837138e-02  -6.9837103e+06
   3.0810270e-09  -8.5790684e-03   8.3572653e-02   4.2868405e-02  -6.9684756e+06
   3.0836946e-09  -8.5604999e-03   8.3512763e-02   4.2899626e-02  -6.9532751e+06
   3.0863621e-09  -8.5419720e-03   8.3453046e-02   4.2930801e-02  -6.9381087e+06
   3.0890297e-09  -8.5234844e-03   8.3393500e-02   4.2961930e-02  -6.9229763e+06
   3.0916972e-09  -8.5050372e-03   8.3334126e-02   4.2993013e-02  -6.9078779e+06
   3.0943648e-09  -8.4866302e-03   8.3274923e-02   4.3024051e-02  -6.8928134e+06
   3.0970323e-09  -8.4682633e-03   8.3215890e-02   4.3055043e-02  -6.8777826e+06
   3.0996999e-09  -8.4499365e-03   8.3157027e-02   4.3085989e-02  -6.8627856e+06
   3.1023675e-09  -8.4316497e-03   8.3098333e-02   4.3116889e-02  -6.8478221e+06
   3.1050350e-09  -8.4134027e-03   8.3039807e-02   4.3147744e-02  -6.8328922e+06
   3.1077026e-09  -8.3951955e-03   8.2981450e-02   4.3178553e-02  -6.8179958e+06
   3.1103701e-09  -8.3770280e-03   8.2923259e-02   4.3209316e-02  -6.8031327e+06
   3.1130377e-09  -8.3589001e-03   8.2865236e-02   4.3240034e-02  -6.7883030e+06
   3.1157052e-09  -8.3408117e-03   8.2807378e-02   4.3270706e-02  -6.7735064e+06
   3.1183728e-09  -8.3227627e-03   8.2749687e-02   4.3301333e-02  -6.7587430e+06
   3.1210403e-09  -8.3047531e-03   8.2692160e-02   4.3331914e-02  -6.7440127e+06
   3.1237079e-09  -8.2867827e-03   8.2634798e-02   4.3362449e-02  -6.7293153e+06
   3.1263755e-09  -8.2688515e-03   8.2577599e-02   4.3392940e-02  -6.7146508e+06
   3.1290430e-09  -8.2509593e-03   8.2520565e-02   4.3423384e-02  -6.7000192e+06
   3.1317106e-09  -8.2331062e-03   8.2463692e-02   4.3453783e-02  -6.6854203e+06
   3.1343781e-09  -8.2152919e-03   8.2406983e-02   4.3484137e-02  -6.6708541e+06
   3.1370457e-09  -8.1975165e-03   8.2350435e-02   4.3514446e-02  -6.6563204e+06
   3.1397132e-09  -8.1797798e-03   8.2294048e-02   4.3544709e-02  -6.6418193e+06
   3.1423808e-09  -8.1620817e-03   8.2237821e-02   4.3574927e-02  -6.6273505e+06
   3.1450483e-09  -8.1444222e-03   8.2181755e-02   4.3605099e-02  -6.6129142e+06
   3.1477159e-09  -8.1268011e-03   8.2125848e-02   4.3635226e-02  -6.5985101e+06
   3.1503835e-09  -8.1092184e-03   8.2070100e-02   4.3665308e-02  -6.5841382e+06
   3.1530510e-09  -8.0916740e-03   8.2014511e-02   4.3695345e-02  -6.5697985e+06
   3.1557186e-09  -8.0741679e-03   8.1959079e-02   4.3725336e-02  -6.5554907e+06
   3.1583861e-09  -8.0566998e-03   8.1903805e-02   4.3755283e-02  -6.5412150e+06
   3.1610537e-09  -8.0392698e-03   8.1848688e-02   4.3785184e-02  -6.5269711e+06
   3.1637212e-09  -8.0218778e-03   8.1793727e-02   4.3815040e-02  -6.5127591e+06
   3.1663888e-09  -8.0045236e-03   8.1738922e-02   4.3844851e-02  -6.4985788e+06
   3.1690564e-09  -7.9872072e-03   8.1684272e-02   4.3874617e-02  -6.4844302e+06
   3.1717239e-09  -7.9699285e-03   8.1629777e-02   4.3904338e-02  -6.4703131e+06
   3.1743915e-09  -7.9526874e-03   8.1575436e-02   4.3934014e-02  -6.4562276e+06
   3.1770590e-09  -7.9354838e-03   8.1521249e-02   4.3963645e-02  -6.4421735e+06
   3.1797266e-09  -7.9183177e-03   8.1467214e-02   4.3993231e-02  -6.4281507e+06
   3.1823941e-09  -7.9011889e-03   8.1413333e-02   4.4022772e-02  -6.4141593e+06
   3.1850617e-09  -7.8840975e-03   8.1359604e-02   4.4052269e-02  -6.4001991e+06
   3.1877292e-09  -7.8670432e-03   8.1306026e-02   4.4081720e-02  -6.3862700e+06
   3.1903968e-09  -7.8500261e-03   8.1252599e-02   4.4111127e-02  -6.3723720e+06
   3.1930644e-09  -7.8330459e-03   8.1199323e-02   4.4140489e-02  -6.3585050e+06
   3.1957319e-09  -7.8161028e-03   8.1146197e-02   4.4169806e-02  -6.3446688e+06
   3.1983995e-09  -7.7991965e-03   8.1093221e-02   4.4199078e-02  -6.3308636e+06
   3.2010670e-09  -7.7823270e-03   8.1040394e-02   4.4228306e-02  -6.3170891e+06
   3.2037346e-09  -7.7654941e-03   8.0987715e-02   4.4257489e-02  -6.3033453e+06
   3.2064021e-09  -7.7486979e-03   8.0935185e-02   4.4286627e-02  -6.2896322e+06
   3.2090697e-09  -7.7319383e-03   8.0882802e-02   4.4315721e-02  -6.2759496e+06
   3.2117372e-09  -7.7152151e-03   8.0830566e-02   4.4344770e-02  -6.2622974e+06
   3.2144048e-09  -7.6985283e-03   8.0778477e-02   4.4373774e-02  -6.2486757e+06
   3.2170724e-09  -7.6818778e-03   8.0726534e-02   4.4402734e-02  -6.2350844e+06
   3.2197399e-09  -7.6652634e-03   8.0674737e-02   4.4431650e-02  -6.2215233e+06
   3.2224075e-09  -7.6486853e-03   8.0623085e-02   4.4460521e-02  -6.2079924e+06
   3.2250750e-09  -7.6321432e-03   8.0571578e-02   4.4489348e-02  -6.1944916e+06
   3.2277426e-09  -7.6156370e-03   8.0520214e-02   4.4518130e-02  -6.1810208e+06
   3.2304101e-09  -7.5991668e-03   8.0468995e-02   4.4546868e-02  -6.1675801e+06
   3.2330777e-09  -7.5827323e-03   8.0417919e-02   4.4575562e-02  -6.1541693e+06
   3.2357452e-09  -7.5663336e-03   8.0366985e-02   4.4604211e-02  -6.1407883e+06
   3.2384128e-09  -7.5499706e-03   8.0316194e-02   4.4632816e-02  -6.1274370e+06
   3.2410804e-09  -7.5336431e-03   8.0265545e-02   4.4661377e-02  -6.1141155e+06
   3.2437479e-09  -7.5173511e-03   8.0215037e-02   4.4689893e-02  -6.1008236e+06
   3.2464155e-09  -7.5010946e-03   8.0164670e-02   4.4718366e-02  -6.0875613e+06
   3.2490830e-09  -7.4848733e-03   8.0114443e-02   4.4746794e-02  -6.0743284e+06
   3.2517506e-09  -7.4686874e-03   8.0064357e-02   4.4775178e-02  -6.0611250e+06
   3.2544181e-09  -7.4525366e-03   8.0014409e-02   4.4803519e-02  -6.0479509e+06
   3.2570857e-09  -7.4364209e-03   7.9964601e-02   4.4831815e-02  -6.0348062e+06
   3.2597533e-09  -7.4203403e-03   7.9914932e-02   4.4860067e-02  -6.0216906e+06
   3.2624208e-09  -7.4042946e-03   7.9865400e-02   4.4888275e-02  -6.0086042e+06
   3.2650884e-09  -7.3882837e-03   7.9816007e-02   4.4916439e-02  -5.9955468e+06
   3.2677559e-09  -7.3723077e-03   7.9766750e-02   4.4944559e-02  -5.9825185e+06
   3.2704235e-09  -7.3563663e-03   7.9717631e-02   4.4972636e-02  -5.9695191e+06
   3.2730910e-09  -7.3404597e-03   7.9668647e-02   4.5000668e-02  -5.9565485e+06
   3.2757586e-09  -7.3245875e-03   7.9619800e-02   4.5028657e-02  -5.9436068e+06
   3.2784261e-09  -7.3087499e-03   7.9571088e-02   4.5056602e-02  -5.9306938e+06
   3.2810937e-09  -7.2929466e-03   7.9522511e-02   4.5084504e-02  -5.9178095e+06
   3.2837613e-09  -7.2771777e-03   7.9474068e-02   4.5112361e-02  -5.9049538e+06
   3.2864288e-09  -7.2614431e-03   7.9425760e-02   4.5140175e-02  -5.8921266e+06
   3.2890964e-09  -7.2457426e-03   7.9377585e-02   4.5167945e-02  -5.8793279e+06
   3.2917639e-09  -7.2300763e-03   7.9329544e-02   4.5195672e-02  -5.8665576e+06
   3.2944315e-09  -7.2144439e-03   7.9281635e-02   4.5223355e-02  -5.8538156e+06
   3.2970990e-09  -7.1988455e-03   7.9233859e-02   4.5250995e-02  -5.8411019e+06
   3.2997666e-09  -7.1832810e-03   7.9186214e-02   4.5278591e-02  -5.8284164e+06
   3.3024341e-09  -7.1677503e-03   7.9138701e-02   4.5306144e-02  -5.8157591e+06
   3.3051017e-09  -7.1522533e-03   7.9091320e-02   4.5333653e-02  -5.8031298e+06
   3.3077693e-09  -7.1367900e-03   7.9044069e-02   4.5361119e-02  -5.7905285e+06
   3.3104368e-09  -7.1213602e-03   7.8996948e-02   4.5388541e-02  -5.7779552e+06
   3.3131044e-09  -7.1059640e-03   7.8949956e-02   4.5415921e-02  -5.7654097e+06
   3.3157719e-09  -7.0906012e-03   7.8903095e-02   4.5443257e-02  -5.7528920e+06
   3.3184395e-09  -7.0752717e-03   7.8856362e-02   4.5470549e-02  -5.7404021e+06
   3.3211070e-09  -7.0599755e-03   7.8809758e-02   4.5497799e-02  -5.7279399e+06
   3.3237746e-09  -7.0447125e-03   7.8763282e-02   4.5525005e-02  -5.7155053e+06
   3.3264421e-09  -7.0294827e-03   7.8716933e-02   4.5552168e-02  -5.7030982e+06
   3.3291097e-09  -7.0142859e-03   7.8670712e-02   4.5579289e-02  -5.6907187e+06
   3.3317773e-09  -6.9991221e-03   7.8624618e-02   4.5606366e-02  -5.6783665e+06
   3.3344448e-09  -6.9839912e-03   7.8578650e-02   4.5633400e-02  -5.6660417e+06
   3.3371124e-09  -6.9688931e-03   7.8532809e-02   4.5660391e-02  -5.6537442e+06
   3.3397799e-09  -6.9538278e-03   7.8487093e-02   4.5687339e-02  -5.6414740e+06
   3.3424475e-09  -6.9387953e-03   7.8441502e-02   4.5714244e-02  -5.6292309e+06
   3.3451150e-09  -6.9237953e-03   7.8396036e-02   4.5741106e-02  -5.6170149e+06
   3.3477826e-09  -6.9088279e-03   7.8350695e-02   4.5767926e-02  -5.6048260e+06
   3.3504502e-09  -6.8938930e-03   7.8305477e-02   4.5794702e-02  -5.5926640e+06
   3.3531177e-09  -6.8789904e-03   7.8260384e-02   4.5821436e-02  -5.5805290e+06
   3.3557853e-09  -6.8641202e-03   7.8215413e-02   4.5848127e-02  -5.5684208e+06
   3.3584528e-09  -6.8492823e-03   7.8170566e-02   4.5874776e-02  -5.5563394e+06
   3.3611204e-09  -6.8344766e-03   7.8125840e-02   4.5901382e-02  -5.5442847e+06
   3.3637879e-09  -6.8197029e-03   7.8081237e-02   4.5927945e-02  -5.5322567e+06
   3.3664555e-09  -6.8049614e-03   7.8036756e-02   4.5954466e-02  -5.5202553e+06
   3.3691230e-09  -6.7902518e-03   7.7992396e-02   4.5980944e-02  -5.5082805e+06
   3.3717906e-09  -6.7755741e-03   7.7948157e-02   4.6007379e-02  -5.4963321e+06
   3.3744582e-09  -6.7609283e-03   7.7904038e-02   4.6033773e-02  -5.4844102e+06
   3.3771257e-09  -6.7463142e-03   7.7860040e-02   4.6060123e-02  -5.4725146e+06
   3.3797933e-09  -6.7317318e-03   7.7816161e-02   4.6086432e-02  -5.4606453e+06
   3.3824608e-09  -6.7171811e-03   7.7772401e-02   4.6112698e-02  -5.4488023e+06
   3.3851284e-09  -6.7026619e-03   7.7728761e-02   4.6138921e-02  -5.4369854e+06
   3.3877959e-09  -6.6881742e-03   7.7685239e-02   4.6165103e-02  -5.4251947e+06
   3.3904635e-09  -6.6737179e-03   7.7641836e-02   4.6191242e-02  -5.4134300e+06
   3.3931310e-09  -6.6592929e-03   7.7598550e-02   4.6217339e-02  -5.4016913e+06
   3.3957986e-09  -6.6448993e-03   7.7555382e-02   4.6243394e-02  -5.3899786e+06
   3.3984662e-09  -6.6305368e-03   7.7512330e-02   4.6269407e-02  -5.3782917e+06
   3.4011337e-09  -6.6162055e-03   7.7469396e-02   4.6295377e-02  -5.3666307e+06
   3.4038013e-09  -6.6019053e-03   7.7426578e-02   4.6321306e-02  -5.3549954e+06
   3.4064688e-09  -6.5876360e-03   7.7383876e-02   4.6347193e-02  -5.3433858e+06
   3.4091364e-09  -6.5733977e-03   7.7341290e-02   4.6373037e-02  -5.3318018e+06
   3.4118039e-09  -6.5591903e-03   7.7298818e-02   4.6398840e-02  -5.3202434e+06
   3.4144715e-09  -6.5450136e-03   7.7256462e-02   4.6424601e-02  -5.3087106e+06
   3.4171390e-09  -6.5308677e-03   7.7214220e-02   4.6450320e-02  -5.2972032e+06
   3.4198066e-09  -6.5167525e-03   7.7172093e-02   4.6475997e-02  -5.2857212e+06
   3.4224742e-09  -6.5026678e-03   7.7130079e-02   4.6501633e-02  -5.2742645e+06
   3.4251417e-09  -6.4886137e-03   7.7088179e-02   4.6527227e-02  -5.2628331e+06
   3.4278093e-09  -6.4745901e-03   7.7046392e-02   4.6552779e-02  -5.2514270e+06
   3.4304768e-09  -6.4605968e-03   7.7004717e-02   4.6578289e-02  -5.2400460e+06
   3.4331444e-09  -6.4466338e-03   7.6963155e-02   4.6603758e-02  -5.2286902e+06
   3.4358119e-09  -6.4327012e-03   7.6921705e-02   4.6629186e-02  -5.2173594e+06
   3.4384795e-09  -6.4187987e-03   7.6880366e-02   4.6654571e-02  -5.2060536e+06
   3.4411470e-09  -6.4049263e-03   7.6839139e-02   4.6679916e-02  -5.1947727e+06
   3.4438146e-09  -6.3910840e-03   7.6798023e-02   4.6705219e-02  -5.1835167e+06
   3.4464822e-09  -6.3772717e-03   7.6757018e-02   4.6730480e-02  -5.1722856e+06
   3.4491497e-09  -6.3634893e-03   7.6716123e-02   4.6755700e-02  -5.1610792e+06
   3.4518173e-09  -6.3497367e-03   7.6675337e-02   4.6780879e-02  -5.1498975e+06
   3.4544848e-09  -6.3360140e-03   7.6634662e-02   4.6806017e-02  -5.1387405e+06
   3.4571524e-09  -6.3223210e-03   7.6594095e-02   4.6831113e-02  -5.1276081e+06
   3.4598199e-09  -6.3086577e-03   7.6553637e-02   4.6856168e-02  -5.1165002e+06
   3.4624875e-09  -6.2950239e-03   7.6513288e-02   4.6881182e-02  -5.1054168e+06
   3.4651551e-09  -6.2814197e-03   7.6473048e-02   4.6906155e-02  -5.0943578e+06
   3.4678226e-09  -6.2678450e-03   7.6432915e-02   4.6931087e-02  -5.0833232e+06
   3.4704902e-09  -6.2542996e-03   7.6392889e-02   4.6955978e-02  -5.0723129e+06
   3.4731577e-09  -6.2407836e-03   7.6352971e-02   4.6980828e-02  -5.0613269e+06
   3.4758253e-09  -6.2272969e-03   7.6313160e-02   4.7005636e-02  -5.0503651e+06
   3.4784928e-09  -6.2138394e-03   7.6273455e-02   4.7030404e-02  -5.0394274e+06
   3.4811604e-09  -6.2004110e-03   7.6233857e-02   4.7055131e-02  -5.0285138e+06
   3.4838279e-09  -6.1870117e-03   7.6194364e-02   4.7079818e-02  -5.0176243e+06
   3.4864955e-09  -6.1736414e-03   7.6154977e-02   4.7104463e-02  -5.0067587e+06
   3.4891631e-09  -6.1603001e-03   7.6115695e-02   4.7129068e-02  -4.9959171e+06
   3.4918306e-09  -6.1469877e-03   7.6076518e-02   4.7153632e-02  -4.9850993e+06
   3.4944982e-09  -6.1337041e-03   7.6037446e-02   4.7178156e-02  -4.9743054e+06
   3.4971657e-09  -6.1204492e-03   7.5998477e-02   4.7202638e-02  -4.9635352e+06
   3.4998333e-09  -6.1072231e-03   7.5959613e-02   4.7227081e-02  -4.9527888e+06
   3.5025008e-09  -6.0940255e-03   7.5920852e-02   4.7251482e-02  -4.9420660e+06
   3.5051684e-09  -6.0808566e-03   7.5882195e-02   4.7275844e-02  -4.9313668e+06
   3.5078359e-09  -6.0677162e-03   7.5843641e-02   4.7300165e-02  -4.9206911e+06
   3.5105035e-09  -6.0546042e-03   7.5805189e-02   4.7324445e-02  -4.9100390e+06
   3.5131711e-09  -6.0415206e-03   7.5766839e-02   4.7348685e-02  -4.8994103e+06
   3.5158386e-09  -6.0284653e-03   7.5728592e-02   4.7372885e-02  -4.8888050e+06
   3.5185062e-09  -6.0154383e-03   7.5690446e-02   4.7397044e-02  -4.8782230e+06
   3.5211737e-09  -6.0024394e-03   7.5652402e-02   4.7421164e-02  -4.8676643e+06
   3.5238413e-09  -5.9894687e-03   7.5614458e-02   4.7445243e-02  -4.8571288e+06
   3.5265088e-09  -5.9765261e-03   7.5576616e-02   4.7469282e-02  -4.8466165e+06
   3.5291764e-09  -5.9636115e-03   7.5538874e-02   4.7493280e-02  -4.8361273e+06
   3.5318439e-09  -5.9507248e-03   7.5501232e-02   4.7517239e-02  -4.8256612e+06
   3.5345115e-09  -5.9378661e-03   7.5463689e-02   4.7541158e-02  -4.8152181e+06
   3.5371791e-09  -5.9250351e-03   7.5426247e-02   4.7565037e-02  -4.8047980e+06
   3.5398466e-09  -5.9122320e-03   7.5388903e-02   4.7588876e-02  -4.7944007e+06
   3.5425142e-09  -5.8994565e-03   7.5351659e-02   4.7612675e-02  -4.7840264e+06
   3.5451817e-09  -5.8867086e-03   7.5314513e-02   4.7636434e-02  -4.7736748e+06
   3.5478493e-09  -5.8739884e-03   7.5277465e-02   4.7660153e-02  -4.7633460e+06
   3.5505168e-09  -5.8612957e-03   7.5240515e-02   4.7683833e-02  -4.7530400e+06
   3.5531844e-09  -5.8486304e-03   7.5203663e-02   4.7707473e-02  -4.7427565e+06
   3.5558520e-09  -5.8359925e-03   7.5166909e-02   4.7731073e-02  -4.7324957e+06
   3.5585195e-09  -5.8233820e-03   7.5130251e-02   4.7754633e-02  -4.7222574e+06
   3.5611871e-09  -5.8107988e-03   7.5093691e-02   4.7778154e-02  -4.7120416e+06
   3.5638546e-09  -5.7982428e-03   7.5057227e-02   4.7801636e-02  -4.7018483e+06
   3.5665222e-09  -5.7857139e-03   7.5020859e-02   4.7825078e-02  -4.6916773e+06
   3.5691897e-09  -5.7732122e-03   7.4984587e-02   4.7848480e-02  -4.6815287e+06
   3.5718573e-09  -5.7607374e-03   7.4948410e-02   4.7871843e-02  -4.6714024e+06
   3.5745248e-09  -5.7482897e-03   7.4912329e-02   4.7895167e-02  -4.6612984e+06
   3.5771924e-09  -5.7358689e-03   7.4876343e-02   4.7918452e-02  -4.6512165e+06
   3.5798600e-09  -5.7234750e-03   7.4840452e-02   4.7941697e-02  -4.6411568e+06
   3.5825275e-09  -5.7111078e-03   7.4804655e-02   4.7964903e-02  -4.6311192e+06
   3.5851951e-09  -5.6987674e-03   7.4768952e-02   4.7988070e-02  -4.6211036e+06
   3.5878626e-09  -5.6864537e-03   7.4733344e-02   4.8011197e-02  -4.6111100e+06
   3.5905302e-09  -5.6741666e-03   7.4697829e-02   4.8034286e-02  -4.6011383e+06
   3.5931977e-09  -5.6619061e-03   7.4662407e-02   4.8057335e-02  -4.5911886e+06
   3.5958653e-09  -5.6496721e-03   7.4627078e-02   4.8080346e-02  -4.5812607e+06
   3.5985328e-09  -5.6374646e-03   7.4591842e-02   4.8103317e-02  -4.5713546e+06
   3.6012004e-09  -5.6252835e-03   7.4556699e-02   4.8126250e-02  -4.5614702e+06
   3.6038680e-09  -5.6131287e-03   7.4521647e-02   4.8149143e-02  -4.5516075e+06
   3.6065355e-09  -5.6010001e-03   7.4486688e-02   4.8171998e-02  -4.5417665e+06
   3.6092031e-09  -5.5888978e-03   7.4451820e-02   4.8194814e-02  -4.5319471e+06
   3.6118706e-09  -5.5768217e-03   7.4417044e-02   4.8217592e-02  -4.5221492e+06
   3.6145382e-09  -5.5647717e-03   7.4382358e-02   4.8240330e-02  -4.5123728e+06
   3.6172057e-09  -5.5527477e-03   7.4347764e-02   4.8263030e-02  -4.5026179e+06
   3.6198733e-09  -5.5407497e-03   7.4313260e-02   4.8285691e-02  -4.4928843e+06
   3.6225408e-09  -5.5287777e-03   7.4278846e-02   4.8308314e-02  -4.4831722e+06
   3.6252084e-09  -5.5168315e-03   7.4244523e-02   4.8330898e-02  -4.4734813e+06
   3.6278760e-09  -5.5049111e-03   7.4210289e-02   4.8353444e-02  -4.4638117e+06
   3.6305435e-09  -5.4930166e-03   7.4176144e-02   4.8375952e-02  -4.4541633e+06
   3.6332111e-09  -5.4811477e-03   7.4142089e-02   4.8398421e-02  -4.4445360e+06
   3.6358786e-09  -5.4693045e-03   7.4108122e-02   4.8420851e-02  -4.4349299e+06
   3.6385462e-09  -5.4574868e-03   7.4074244e-02   4.8443244e-02  -4.4253449e+06
   3.6412137e-09  -5.4456948e-03   7.4040455e-02   4.8465598e-02  -4.4157808e+06
   3.6438813e-09  -5.4339282e-03   7.4006754e-02   4.8487913e-02  -4.4062378e+06
   3.6465488e-09  -5.4221870e-03   7.3973140e-02   4.8510191e-02  -4.3967156e+06
   3.6492164e-09  -5.4104712e-03   7.3939614e-02   4.8532431e-02  -4.3872144e+06
   3.6518840e-09  -5.3987807e-03   7.3906176e-02   4.8554632e-02  -4.3777339e+06
   3.6545515e-09  -5.3871155e-03   7.3872824e-02   4.8576796e-02  -4.3682743e+06
   3.6572191e-09  -5.3754755e-03   7.3839560e-02   4.8598921e-02  -4.3588354e+06
   3.6598866e-09  -5.3638606e-03   7.3806382e-02   4.8621009e-02  -4.3494171e+06
   3.6625542e-09  -5.3522709e-03   7.3773290e-02   4.8643058e-02  -4.3400195e+06
   3.6652217e-09  -5.3407062e-03   7.3740284e-02   4.8665070e-02  -4.3306426e+06
   3.6678893e-09  -5.3291664e-03   7.3707364e-02   4.8687044e-02  -4.3212861e+06
   3.6705569e-09  -5.3176516e-03   7.3674529e-02   4.8708981e-02  -4.3119502e+06
   3.6732244e-09  -5.3061617e-03   7.3641780e-02   4.8730879e-02  -4.3026347e+06
   3.6758920e-09  -5.2946966e-03   7.3609116e-02   4.8752740e-02  -4.2933396e+06
   3.6785595e-09  -5.2832562e-03   7.3576536e-02   4.8774563e-02  -4.2840649e+06
   3.6812271e-09  -5.2718406e-03   7.3544041e-02   4.8796349e-02  -4.2748106e+06
   3.6838946e-09  -5.2604497e-03   7.3511630e-02   4.8818097e-02  -4.2655764e+06
   3.6865622e-09  -5.2490833e-03   7.3479304e-02   4.8839808e-02  -4.2563626e+06
   3.6892297e-09  -5.2377415e-03   7.3447061e-02   4.8861481e-02  -4.2471689e+06
   3.6918973e-09  -5.2264242e-03   7.3414901e-02   4.8883117e-02  -4.2379953e+06
   3.6945649e-09  -5.2151313e-03   7.3382825e-02   4.8904715e-02  -4.2288418e+06
   3.6972324e-09  -5.2038628e-03   7.3350831e-02   4.8926277e-02  -4.2197084e+06
   3.6999000e-09  -5.1926187e-03   7.3318921e-02   4.8947801e-02  -4.2105950e+06
   3.7025675e-09  -5.1813989e-03   7.3287093e-02   4.8969287e-02  -4.2015015e+06
   3.7052351e-09  -5.1702032e-03   7.3255347e-02   4.8990737e-02  -4.1924280e+06
   3.7079026e-09  -5.1590318e-03   7.3223683e-02   4.9012149e-02  -4.1833743e+06
   3.7105702e-09  -5.1478845e-03   7.3192101e-02   4.9033525e-02  -4.1743404e+06
   3.7132377e-09  -5.1367612e-03   7.3160601e-02   4.9054863e-02  -4.1653264e+06
   3.7159053e-09  -5.1256620e-03   7.3129182e-02   4.9076164e-02  -4.1563320e+06
   3.7185729e-09  -5.1145867e-03   7.3097844e-02   4.9097429e-02  -4.1473574e+06
   3.7212404e-09  -5.1035354e-03   7.3066586e-02   4.9118656e-02  -4.1384023e+06
   3.7239080e-09  -5.0925079e-03   7.3035410e-02   4.9139847e-02  -4.1294669e+06
   3.7265755e-09  -5.0815042e-03   7.3004313e-02   4.9161001e-02  -4.1205511e+06
   3.7292431e-09  -5.0705243e-03   7.2973297e-02   4.9182118e-02  -4.1116547e+06
   3.7319106e-09  -5.0595681e-03   7.2942361e-02   4.9203198e-02  -4.1027779e+06
   3.7345782e-09  -5.0486355e-03   7.2911504e-02   4.9224242e-02  -4.0939204e+06
   3.7372457e-09  -5.0377265e-03   7.2880726e-02   4.9245249e-02  -4.0850823e+06
   3.7399133e-09  -5.0268411e-03   7.2850028e-02   4.9266220e-02  -4.0762636e+06
   3.7425809e-09  -5.0159792e-03   7.2819409e-02   4.9287154e-02  -4.0674642e+06
   3.7452484e-09  -5.0051408e-03   7.2788868e-02   4.9308052e-02  -4.0586840e+06
   3.7479160e-09  -4.9943257e-03   7.2758406e-02   4.9328913e-02  -4.0499230e+06
   3.7505835e-09  -4.9835340e-03   7.2728022e-02   4.9349738e-02  -4.0411812e+06
   3.7532511e-09  -4.9727655e-03   7.2697717e-02   4.9370526e-02  -4.0324586e+06
   3.7559186e-09  -4.9620204e-03   7.2667488e-02   4.9391278e-02  -4.0237550e+06
   3.7585862e-09  -4.9512984e-03   7.2637338e-02   4.9411994e-02  -4.0150704e+06
   3.7612538e-09  -4.9405995e-03   7.2607265e-02   4.9432674e-02  -4.0064048e+06
   3.7639213e-09  -4.9299237e-03   7.2577269e-02   4.9453317e-02  -3.9977582e+06
   3.7665889e-09  -4.9192710e-03   7.2547349e-02   4.9473925e-02  -3.9891305e+06
   3.7692564e-09  -4.9086413e-03   7.2517507e-02   4.9494496e-02  -3.9805217e+06
   3.7719240e-09  -4.8980345e-03   7.2487740e-02   4.9515031e-02  -3.9719317e+06
   3.7745915e-09  -4.8874506e-03   7.2458051e-02   4.9535531e-02  -3.9633605e+06
   3.7772591e-09  -4.8768895e-03   7.2428436e-02   4.9555994e-02  -3.9548080e+06
   3.7799266e-09  -4.8663512e-03   7.2398898e-02   4.9576422e-02  -3.9462742e+06
   3.7825942e-09  -4.8558357e-03   7.2369436e-02   4.9596814e-02  -3.9377591e+06
   3.7852618e-09  -4.8453429e-03   7.2340048e-02   4.9617170e-02  -3.9292626e+06
   3.7879293e-09  -4.8348727e-03   7.2310736e-02   4.9637490e-02  -3.9207846e+06
   3.7905969e-09  -4.8244250e-03   7.2281498e-02   4.9657774e-02  -3.9123252e+06
   3.7932644e-09  -4.8140000e-03   7.2252336e-02   4.9678023e-02  -3.9038843e+06
   3.7959320e-09  -4.8035974e-03   7.2223247e-02   4.9698237e-02  -3.8954619e+06
   3.7985995e-09  -4.7932172e-03   7.2194233e-02   4.9718414e-02  -3.8870578e+06
   3.8012671e-09  -4.7828595e-03   7.2165293e-02   4.9738557e-02  -3.8786721e+06
   3.8039346e-09  -4.7725241e-03   7.2136427e-02   4.9758663e-02  -3.8703048e+06
   3.8066022e-09  -4.7622110e-03   7.2107634e-02   4.9778735e-02  -3.8619557e+06
   3.8092698e-09  -4.7519201e-03   7.2078914e-02   4.9798771e-02  -3.8536249e+06
   3.8119373e-09  -4.7416515e-03   7.2050268e-02   4.9818771e-02  -3.8453123e+06
   3.8146049e-09  -4.7314050e-03   7.2021695e-02   4.9838737e-02  -3.8370178e+06
   3.8172724e-09  -4.7211805e-03   7.1993194e-02   4.9858667e-02  -3.8287415e+06
   3.8199400e-09  -4.7109782e-03   7.1964766e-02   4.9878562e-02  -3.8204833e+06
   3.8226075e-09  -4.7007978e-03   7.1936411e-02   4.9898422e-02  -3.8122431e+06
   3.8252751e-09  -4.6906394e-03   7.1908127e-02   4.9918247e-02  -3.8040209e+06
   3.8279426e-09  -4.6805030e-03   7.1879915e-02   4.9938036e-02  -3.7958166e+06
   3.8306102e-09  -4.6703883e-03   7.1851775e-02   4.9957791e-02  -3.7876303e+06
   3.8332778e-09  -4.6602955e-03   7.1823707e-02   4.9977511e-02  -3.7794619e+06
   3.8359453e-09  -4.6502245e-03   7.1795709e-02   4.9997196e-02  -3.7713113e+06
   3.8386129e-09  -4.6401752e-03   7.1767783e-02   5.0016846e-02  -3.7631785e+06
   3.8412804e-09  -4.6301475e-03   7.1739928e-02   5.0036461e-02  -3.7550635e+06
   3.8439480e-09  -4.6201415e-03   7.1712143e-02   5.0056041e-02  -3.7469662e+06
   3.8466155e-09  -4.6101570e-03   7.1684428e-02   5.0075587e-02  -3.7388866e+06
   3.8492831e-09  -4.6001941e-03   7.1656784e-02   5.0095098e-02  -3.7308246e+06
   3.8519507e-09  -4.5902527e-03   7.1629210e-02   5.0114575e-02  -3.7227803e+06
   3.8546182e-09  -4.5803326e-03   7.1601706e-02   5.0134017e-02  -3.7147535e+06
   3.8572858e-09  -4.5704340e-03   7.1574272e-02   5.0153424e-02  -3.7067442e+06
   3.8599533e-09  -4.5605567e-03   7.1546907e-02   5.0172797e-02  -3.6987525e+06
   3.8626209e-09  -4.5507008e-03   7.1519611e-02   5.0192135e-02  -3.6907781e+06
   3.8652884e-09  -4.5408660e-03   7.1492384e-02   5.0211439e-02  -3.6828212e+06
   3.8679560e-09  -4.5310525e-03   7.1465226e-02   5.0230709e-02  -3.6748817e+06
   3.8706235e-09  -4.5212601e-03   7.1438137e-02   5.0249944e-02  -3.6669595e+06
   3.8732911e-09  -4.5114889e-03   7.1411116e-02   5.0269145e-02  -3.6590546e+06
   3.8759587e-09  -4.5017387e-03   7.1384163e-02   5.0288312e-02  -3.6511669e+06
   3.8786262e-09  -4.4920095e-03   7.1357279e-02   5.0307445e-02  -3.6432965e+06
   3.8812938e-09  -4.4823013e-03   7.1330462e-02   5.0326544e-02  -3.6354432e+06
   3.8839613e-09  -4.4726140e-03   7.1303713e-02   5.0345608e-02  -3.6276071e+06
   3.8866289e-09  -4.4629476e-03   7.1277032e-02   5.0364639e-02  -3.6197881e+06
   3.8892964e-09  -4.4533020e-03   7.1250418e-02   5.0383636e-02  -3.6119862e+06
   3.8919640e-09  -4.4436772e-03   7.1223870e-02   5.0402598e-02  -3.6042013e+06
   3.8946315e-09  -4.4340732e-03   7.1197390e-02   5.0421527e-02  -3.5964333e+06
   3.8972991e-09  -4.4244898e-03   7.1170977e-02   5.0440422e-02  -3.5886824e+06
   3.8999667e-09  -4.4149272e-03   7.1144630e-02   5.0459283e-02  -3.5809483e+06
