   0.0000000e+00  -1.5571608e-01   6.2258162e+00   3.4026831e-05  -5.1793872e+08
   2.6675559e-12  -1.5433966e-01   6.2168336e+00   3.7819005e-05  -5.1413577e+08
   5.3351117e-12  -1.5297339e-01   6.2074561e+00   4.1997859e-05  -5.1033065e+08
   8.0026676e-12  -1.5161727e-01   6.1976722e+00   4.6598456e-05  -5.0652347e+08
   1.0670223e-11  -1.5027132e-01   6.1874702e+00   5.1658537e-05  -5.0271437e+08
   1.3337779e-11  -1.4893553e-01   6.1768388e+00   5.7218668e-05  -4.9890347e+08
   1.6005335e-11  -1.4760992e-01   6.1657664e+00   6.3322397e-05  -4.9509094e+08
   1.8672891e-11  -1.4629447e-01   6.1542417e+00   7.0016403e-05  -4.9127694e+08
   2.1340447e-11  -1.4498921e-01   6.1422538e+00   7.7350656e-05  -4.8746167e+08
   2.4008003e-11  -1.4369412e-01   6.1297916e+00   8.5378573e-05  -4.8364531e+08
   2.6675559e-11  -1.4240922e-01   6.1168444e+00   9.4157171e-05  -4.7982810e+08
   2.9343114e-11  -1.4113451e-01   6.1034019e+00   1.0374723e-04  -4.7601027e+08
   3.2010670e-11  -1.3986998e-01   6.0894539e+00   1.1421344e-04  -4.7219208e+08
   3.4678226e-11  -1.3861564e-01   6.0749907e+00   1.2562455e-04  -4.6837379e+08
   3.7345782e-11  -1.3737149e-01   6.0600028e+00   1.3805352e-04  -4.6455571e+08
   4.0013338e-11  -1.3613752e-01   6.0444813e+00   1.5157767e-04  -4.6073814e+08
   4.2680894e-11  -1.3491374e-01   6.0284177e+00   1.6627881e-04  -4.5692141e+08
   4.5348449e-11  -1.3370013e-01   6.0118040e+00   1.8224334e-04  -4.5310588e+08
   4.8016005e-11  -1.3249671e-01   5.9946326e+00   1.9956243e-04  -4.4929191e+08
   5.0683561e-11  -1.3130346e-01   5.9768967e+00   2.1833207e-04  -4.4547989e+08
   5.3351117e-11  -1.3012037e-01   5.9585900e+00   2.3865320e-04  -4.4167024e+08
   5.6018673e-11  -1.2894745e-01   5.9397067e+00   2.6063179e-04  -4.3786337e+08
   5.8686229e-11  -1.2778467e-01   5.9202420e+00   2.8437891e-04  -4.3405975e+08
   6.1353785e-11  -1.2663204e-01   5.9001916e+00   3.1001080e-04  -4.3025983e+08
   6.4021340e-11  -1.2548955e-01   5.8795518e+00   3.3764888e-04  -4.2646410e+08
   6.6688896e-11  -1.2435717e-01   5.8583200e+00   3.6741982e-04  -4.2267307e+08
   6.9356452e-11  -1.2323489e-01   5.8364942e+00   3.9945548e-04  -4.1888726e+08
   7.2024008e-11  -1.2212271e-01   5.8140733e+00   4.3389298e-04  -4.1510721e+08
   7.4691564e-11  -1.2102061e-01   5.7910570e+00   4.7087458e-04  -4.1133349e+08
   7.7359120e-11  -1.1992856e-01   5.7674458e+00   5.1054770e-04  -4.0756666e+08
   8.0026676e-11  -1.1884655e-01   5.7432412e+00   5.5306478e-04  -4.0380731e+08
   8.2694231e-11  -1.1777456e-01   5.7184455e+00   5.9858323e-04  -4.0005606e+08
   8.5361787e-11  -1.1671256e-01   5.6930621e+00   6.4726526e-04  -3.9631353e+08
   8.8029343e-11  -1.1566054e-01   5.6670951e+00   6.9927780e-04  -3.9258034e+08
   9.0696899e-11  -1.1461846e-01   5.6405496e+00   7.5479225e-04  -3.8885714e+08
   9.3364455e-11  -1.1358629e-01   5.6134315e+00   8.1398435e-04  -3.8514460e+08
   9.6032011e-11  -1.1256402e-01   5.5857478e+00   8.7703397e-04  -3.8144337e+08
   9.8699567e-11  -1.1155160e-01   5.5575064e+00   9.4412482e-04  -3.7775413e+08
   1.0136712e-10  -1.1054901e-01   5.5287158e+00   1.0154442e-03  -3.7407756e+08
   1.0403468e-10  -1.0955620e-01   5.4993858e+00   1.0911829e-03  -3.7041435e+08
   1.0670223e-10  -1.0857315e-01   5.4695268e+00   1.1715345e-03  -3.6676520e+08
   1.0936979e-10  -1.0759981e-01   5.4391500e+00   1.2566955e-03  -3.6313080e+08
   1.1203735e-10  -1.0663614e-01   5.4082676e+00   1.3468648e-03  -3.5951185e+08
   1.1470490e-10  -1.0568211e-01   5.3768924e+00   1.4422432e-03  -3.5590905e+08
   1.1737246e-10  -1.0473766e-01   5.3450381e+00   1.5430332e-03  -3.5232309e+08
   1.2004001e-10  -1.0380275e-01   5.3127190e+00   1.6494388e-03  -3.4875467e+08
   1.2270757e-10  -1.0287734e-01   5.2799502e+00   1.7616648e-03  -3.4520448e+08
   1.2537513e-10  -1.0196137e-01   5.2467474e+00   1.8799163e-03  -3.4167320e+08
   1.2804268e-10  -1.0105479e-01   5.2131268e+00   2.0043990e-03  -3.3816152e+08
   1.3071024e-10  -1.0015755e-01   5.1791053e+00   2.1353179e-03  -3.3467009e+08
   1.3337779e-10  -9.9269593e-02   5.1447003e+00   2.2728776e-03  -3.3119959e+08
   1.3604535e-10  -9.8390865e-02   5.1099295e+00   2.4172814e-03  -3.2775065e+08
   1.3871290e-10  -9.7521306e-02   5.0748112e+00   2.5687312e-03  -3.2432391e+08
   1.4138046e-10  -9.6660855e-02   5.0393639e+00   2.7274271e-03  -3.2091998e+08
   1.4404802e-10  -9.5809451e-02   5.0036067e+00   2.8935668e-03  -3.1753948e+08
   1.4671557e-10  -9.4967031e-02   4.9675586e+00   3.0673453e-03  -3.1418300e+08
   1.4938313e-10  -9.4133530e-02   4.9312390e+00   3.2489545e-03  -3.1085109e+08
   1.5205068e-10  -9.3308880e-02   4.8946676e+00   3.4385832e-03  -3.0754431e+08
   1.5471824e-10  -9.2493016e-02   4.8578640e+00   3.6364161e-03  -3.0426319e+08
   1.5738580e-10  -9.1685867e-02   4.8208480e+00   3.8426338e-03  -3.0100824e+08
   1.6005335e-10  -9.0887363e-02   4.7836394e+00   4.0574126e-03  -2.9777995e+08
   1.6272091e-10  -9.0097432e-02   4.7462578e+00   4.2809242e-03  -2.9457878e+08
   1.6538846e-10  -8.9316001e-02   4.7087230e+00   4.5133349e-03  -2.9140517e+08
   1.6805602e-10  -8.8542996e-02   4.6710545e+00   4.7548060e-03  -2.8825954e+08
   1.7072357e-10  -8.7778342e-02   4.6332718e+00   5.0054932e-03  -2.8514228e+08
   1.7339113e-10  -8.7021963e-02   4.5953940e+00   5.2655464e-03  -2.8205377e+08
   1.7605869e-10  -8.6273781e-02   4.5574402e+00   5.5351097e-03  -2.7899434e+08
   1.7872624e-10  -8.5533719e-02   4.5194290e+00   5.8143208e-03  -2.7596431e+08
   1.8139380e-10  -8.4801698e-02   4.4813790e+00   6.1033112e-03  -2.7296397e+08
   1.8406135e-10  -8.4077637e-02   4.4433080e+00   6.4022062e-03  -2.6999358e+08
   1.8672891e-10  -8.3361458e-02   4.4052340e+00   6.7111241e-03  -2.6705339e+08
   1.8939647e-10  -8.2653078e-02   4.3671741e+00   7.0301768e-03  -2.6414362e+08
   1.9206402e-10  -8.1952418e-02   4.3291453e+00   7.3594695e-03  -2.6126444e+08
   1.9473158e-10  -8.1259394e-02   4.2911642e+00   7.6991005e-03  -2.5841602e+08
   1.9739913e-10  -8.0573925e-02   4.2532466e+00   8.0491613e-03  -2.5559850e+08
   2.0006669e-10  -7.9895928e-02   4.2154082e+00   8.4097367e-03  -2.5281199e+08
   2.0273424e-10  -7.9225320e-02   4.1776639e+00   8.7809043e-03  -2.5005658e+08
   2.0540180e-10  -7.8562018e-02   4.1400285e+00   9.1627353e-03  -2.4733233e+08
   2.0806936e-10  -7.7905940e-02   4.1025159e+00   9.5552938e-03  -2.4463929e+08
   2.1073691e-10  -7.7257001e-02   4.0651396e+00   9.9586374e-03  -2.4197748e+08
   2.1340447e-10  -7.6615118e-02   4.0279127e+00   1.0372817e-02  -2.3934688e+08
   2.1607202e-10  -7.5980209e-02   3.9908476e+00   1.0797876e-02  -2.3674747e+08
   2.1873958e-10  -7.5352191e-02   3.9539563e+00   1.1233854e-02  -2.3417922e+08
   2.2140714e-10  -7.4730979e-02   3.9172502e+00   1.1680780e-02  -2.3164204e+08
   2.2407469e-10  -7.4116492e-02   3.8807402e+00   1.2138681e-02  -2.2913586e+08
   2.2674225e-10  -7.3508647e-02   3.8444365e+00   1.2607575e-02  -2.2666056e+08
   2.2940980e-10  -7.2907361e-02   3.8083492e+00   1.3087475e-02  -2.2421603e+08
   2.3207736e-10  -7.2312554e-02   3.7724873e+00   1.3578389e-02  -2.2180213e+08
   2.3474491e-10  -7.1724143e-02   3.7368598e+00   1.4080316e-02  -2.1941870e+08
   2.3741247e-10  -7.1142047e-02   3.7014748e+00   1.4593254e-02  -2.1706557e+08
   2.4008003e-10  -7.0566187e-02   3.6663402e+00   1.5117192e-02  -2.1474255e+08
   2.4274758e-10  -6.9996481e-02   3.6314632e+00   1.5652116e-02  -2.1244944e+08
   2.4541514e-10  -6.9432850e-02   3.5968507e+00   1.6198005e-02  -2.1018603e+08
   2.4808269e-10  -6.8875216e-02   3.5625090e+00   1.6754834e-02  -2.0795209e+08
   2.5075025e-10  -6.8323501e-02   3.5284439e+00   1.7322575e-02  -2.0574738e+08
   2.5341781e-10  -6.7777626e-02   3.4946609e+00   1.7901191e-02  -2.0357166e+08
   2.5608536e-10  -6.7237514e-02   3.4611649e+00   1.8490646e-02  -2.0142467e+08
   2.5875292e-10  -6.6703090e-02   3.4279605e+00   1.9090895e-02  -1.9930613e+08
   2.6142047e-10  -6.6174278e-02   3.3950520e+00   1.9701892e-02  -1.9721578e+08
   2.6408803e-10  -6.5651004e-02   3.3624429e+00   2.0323585e-02  -1.9515334e+08
   2.6675559e-10  -6.5133192e-02   3.3301368e+00   2.0955921e-02  -1.9311849e+08
   2.6942314e-10  -6.4620771e-02   3.2981366e+00   2.1598840e-02  -1.9111096e+08
   2.7209070e-10  -6.4113667e-02   3.2664450e+00   2.2252282e-02  -1.8913044e+08
   2.7475825e-10  -6.3611809e-02   3.2350643e+00   2.2916182e-02  -1.8717662e+08
   2.7742581e-10  -6.3115126e-02   3.2039964e+00   2.3590470e-02  -1.8524919e+08
   2.8009336e-10  -6.2623548e-02   3.1732431e+00   2.4275078e-02  -1.8334782e+08
   2.8276092e-10  -6.2137007e-02   3.1428058e+00   2.4969930e-02  -1.8147220e+08
   2.8542848e-10  -6.1655434e-02   3.1126854e+00   2.5674951e-02  -1.7962201e+08
   2.8809603e-10  -6.1178761e-02   3.0828828e+00   2.6390062e-02  -1.7779691e+08
   2.9076359e-10  -6.0706923e-02   3.0533985e+00   2.7115182e-02  -1.7599659e+08
   2.9343114e-10  -6.0239853e-02   3.0242329e+00   2.7850227e-02  -1.7422071e+08
   2.9609870e-10  -5.9777487e-02   2.9953859e+00   2.8595112e-02  -1.7246893e+08
   2.9876626e-10  -5.9319761e-02   2.9668575e+00   2.9349750e-02  -1.7074094e+08
   3.0143381e-10  -5.8866612e-02   2.9386471e+00   3.0114052e-02  -1.6903640e+08
   3.0410137e-10  -5.8417978e-02   2.9107543e+00   3.0887926e-02  -1.6735498e+08
   3.0676892e-10  -5.7973797e-02   2.8831782e+00   3.1671280e-02  -1.6569635e+08
   3.0943648e-10  -5.7534010e-02   2.8559179e+00   3.2464021e-02  -1.6406017e+08
   3.1210403e-10  -5.7098557e-02   2.8289723e+00   3.3266053e-02  -1.6244612e+08
   3.1477159e-10  -5.6667380e-02   2.8023400e+00   3.4077279e-02  -1.6085387e+08
   3.1743915e-10  -5.6240420e-02   2.7760196e+00   3.4897601e-02  -1.5928310e+08
   3.2010670e-10  -5.5817622e-02   2.7500096e+00   3.5726922e-02  -1.5773348e+08
   3.2277426e-10  -5.5398928e-02   2.7243082e+00   3.6565140e-02  -1.5620470e+08
   3.2544181e-10  -5.4984284e-02   2.6989135e+00   3.7412156e-02  -1.5469642e+08
   3.2810937e-10  -5.4573635e-02   2.6738236e+00   3.8267868e-02  -1.5320834e+08
   3.3077693e-10  -5.4166929e-02   2.6490366e+00   3.9132173e-02  -1.5174015e+08
   3.3344448e-10  -5.3764113e-02   2.6245501e+00   4.0004968e-02  -1.5029152e+08
   3.3611204e-10  -5.3365134e-02   2.6003619e+00   4.0886151e-02  -1.4886216e+08
   3.3877959e-10  -5.2969942e-02   2.5764698e+00   4.1775617e-02  -1.4745175e+08
   3.4144715e-10  -5.2578486e-02   2.5528712e+00   4.2673262e-02  -1.4606000e+08
   3.4411470e-10  -5.2190718e-02   2.5295638e+00   4.3578980e-02  -1.4468661e+08
   3.4678226e-10  -5.1806589e-02   2.5065449e+00   4.4492667e-02  -1.4333129e+08
   3.4944982e-10  -5.1426051e-02   2.4838119e+00   4.5414217e-02  -1.4199374e+08
   3.5211737e-10  -5.1049056e-02   2.4613623e+00   4.6343525e-02  -1.4067367e+08
   3.5478493e-10  -5.0675560e-02   2.4391932e+00   4.7280485e-02  -1.3937081e+08
   3.5745248e-10  -5.0305515e-02   2.4173019e+00   4.8224990e-02  -1.3808487e+08
   3.6012004e-10  -4.9938879e-02   2.3956857e+00   4.9176936e-02  -1.3681558e+08
   3.6278760e-10  -4.9575605e-02   2.3743417e+00   5.0136216e-02  -1.3556266e+08
   3.6545515e-10  -4.9215652e-02   2.3532670e+00   5.1102723e-02  -1.3432585e+08
   3.6812271e-10  -4.8858977e-02   2.3324589e+00   5.2076353e-02  -1.3310489e+08
   3.7079026e-10  -4.8505537e-02   2.3119143e+00   5.3056999e-02  -1.3189951e+08
   3.7345782e-10  -4.8155291e-02   2.2916303e+00   5.4044556e-02  -1.3070946e+08
   3.7612538e-10  -4.7808200e-02   2.2716041e+00   5.5038917e-02  -1.2953448e+08
   3.7879293e-10  -4.7464222e-02   2.2518327e+00   5.6039979e-02  -1.2837433e+08
   3.8146049e-10  -4.7123319e-02   2.2323131e+00   5.7047636e-02  -1.2722876e+08
   3.8412804e-10  -4.6785453e-02   2.2130424e+00   5.8061782e-02  -1.2609753e+08
   3.8679560e-10  -4.6450585e-02   2.1940176e+00   5.9082315e-02  -1.2498042e+08
   3.8946315e-10  -4.6118678e-02   2.1752358e+00   6.0109128e-02  -1.2387717e+08
   3.9213071e-10  -4.5789695e-02   2.1566940e+00   6.1142119e-02  -1.2278758e+08
   3.9479827e-10  -4.5463601e-02   2.1383893e+00   6.2181184e-02  -1.2171140e+08
   3.9746582e-10  -4.5140359e-02   2.1203188e+00   6.3226220e-02  -1.2064842e+08
   4.0013338e-10  -4.4819935e-02   2.1024794e+00   6.4277124e-02  -1.1959843e+08
   4.0280093e-10  -4.4502295e-02   2.0848684e+00   6.5333794e-02  -1.1856121e+08
   4.0546849e-10  -4.4187404e-02   2.0674827e+00   6.6396128e-02  -1.1753655e+08
   4.0813605e-10  -4.3875230e-02   2.0503196e+00   6.7464024e-02  -1.1652425e+08
   4.1080360e-10  -4.3565740e-02   2.0333761e+00   6.8537382e-02  -1.1552410e+08
   4.1347116e-10  -4.3258901e-02   2.0166493e+00   6.9616102e-02  -1.1453590e+08
   4.1613871e-10  -4.2954683e-02   2.0001365e+00   7.0700082e-02  -1.1355947e+08
   4.1880627e-10  -4.2653053e-02   1.9838348e+00   7.1789225e-02  -1.1259460e+08
   4.2147382e-10  -4.2353982e-02   1.9677415e+00   7.2883430e-02  -1.1164112e+08
   4.2414138e-10  -4.2057439e-02   1.9518536e+00   7.3982600e-02  -1.1069883e+08
   4.2680894e-10  -4.1763395e-02   1.9361686e+00   7.5086636e-02  -1.0976756e+08
   4.2947649e-10  -4.1471820e-02   1.9206837e+00   7.6195442e-02  -1.0884712e+08
   4.3214405e-10  -4.1182686e-02   1.9053961e+00   7.7308921e-02  -1.0793736e+08
   4.3481160e-10  -4.0895965e-02   1.8903032e+00   7.8426976e-02  -1.0703808e+08
   4.3747916e-10  -4.0611628e-02   1.8754024e+00   7.9549511e-02  -1.0614913e+08
   4.4014672e-10  -4.0329649e-02   1.8606910e+00   8.0676433e-02  -1.0527034e+08
   4.4281427e-10  -4.0050001e-02   1.8461664e+00   8.1807646e-02  -1.0440155e+08
   4.4548183e-10  -3.9772657e-02   1.8318260e+00   8.2943057e-02  -1.0354260e+08
   4.4814938e-10  -3.9497591e-02   1.8176673e+00   8.4082572e-02  -1.0269333e+08
   4.5081694e-10  -3.9224778e-02   1.8036879e+00   8.5226099e-02  -1.0185359e+08
   4.5348449e-10  -3.8954192e-02   1.7898851e+00   8.6373546e-02  -1.0102324e+08
   4.5615205e-10  -3.8685808e-02   1.7762566e+00   8.7524821e-02  -1.0020212e+08
   4.5881961e-10  -3.8419603e-02   1.7627999e+00   8.8679834e-02  -9.9390088e+07
   4.6148716e-10  -3.8155551e-02   1.7495126e+00   8.9838495e-02  -9.8587007e+07
   4.6415472e-10  -3.7893630e-02   1.7363924e+00   9.1000713e-02  -9.7792736e+07
   4.6682227e-10  -3.7633816e-02   1.7234368e+00   9.2166401e-02  -9.7007138e+07
   4.6948983e-10  -3.7376086e-02   1.7106437e+00   9.3335470e-02  -9.6230081e+07
   4.7215739e-10  -3.7120418e-02   1.6980106e+00   9.4507833e-02  -9.5461433e+07
   4.7482494e-10  -3.6866788e-02   1.6855354e+00   9.5683402e-02  -9.4701065e+07
   4.7749250e-10  -3.6615176e-02   1.6732159e+00   9.6862091e-02  -9.3948851e+07
   4.8016005e-10  -3.6365560e-02   1.6610497e+00   9.8043815e-02  -9.3204667e+07
   4.8282761e-10  -3.6117918e-02   1.6490348e+00   9.9228488e-02  -9.2468392e+07
   4.8549517e-10  -3.5872230e-02   1.6371691e+00   1.0041603e-01  -9.1739906e+07
   4.8816272e-10  -3.5628474e-02   1.6254503e+00   1.0160635e-01  -9.1019094e+07
   4.9083028e-10  -3.5386632e-02   1.6138765e+00   1.0279937e-01  -9.0305839e+07
   4.9349783e-10  -3.5146682e-02   1.6024455e+00   1.0399500e-01  -8.9600030e+07
   4.9616539e-10  -3.4908604e-02   1.5911554e+00   1.0519317e-01  -8.8901555e+07
   4.9883294e-10  -3.4672380e-02   1.5800042e+00   1.0639379e-01  -8.8210308e+07
   5.0150050e-10  -3.4437991e-02   1.5689899e+00   1.0759678e-01  -8.7526180e+07
   5.0416806e-10  -3.4205417e-02   1.5581105e+00   1.0880207e-01  -8.6849069e+07
   5.0683561e-10  -3.3974640e-02   1.5473641e+00   1.1000957e-01  -8.6178872e+07
   5.0950317e-10  -3.3745641e-02   1.5367489e+00   1.1121921e-01  -8.5515487e+07
   5.1217072e-10  -3.3518403e-02   1.5262630e+00   1.1243090e-01  -8.4858818e+07
   5.1483828e-10  -3.3292908e-02   1.5159045e+00   1.1364457e-01  -8.4208766e+07
   5.1750584e-10  -3.3069138e-02   1.5056717e+00   1.1486015e-01  -8.3565238e+07
   5.2017339e-10  -3.2847076e-02   1.4955628e+00   1.1607755e-01  -8.2928139e+07
   5.2284095e-10  -3.2626705e-02   1.4855759e+00   1.1729671e-01  -8.2297379e+07
   5.2550850e-10  -3.2408008e-02   1.4757095e+00   1.1851754e-01  -8.1672867e+07
   5.2817606e-10  -3.2190969e-02   1.4659618e+00   1.1973998e-01  -8.1054516e+07
   5.3084361e-10  -3.1975571e-02   1.4563311e+00   1.2096395e-01  -8.0442240e+07
   5.3351117e-10  -3.1761798e-02   1.4468158e+00   1.2218938e-01  -7.9835952e+07
   5.3617873e-10  -3.1549635e-02   1.4374142e+00   1.2341619e-01  -7.9235571e+07
   5.3884628e-10  -3.1339065e-02   1.4281247e+00   1.2464431e-01  -7.8641014e+07
   5.4151384e-10  -3.1130074e-02   1.4189458e+00   1.2587368e-01  -7.8052201e+07
   5.4418139e-10  -3.0922646e-02   1.4098759e+00   1.2710423e-01  -7.7469053e+07
   5.4684895e-10  -3.0716766e-02   1.4009135e+00   1.2833587e-01  -7.6891493e+07
   5.4951651e-10  -3.0512419e-02   1.3920570e+00   1.2956856e-01  -7.6319444e+07
   5.5218406e-10  -3.0309590e-02   1.3833050e+00   1.3080221e-01  -7.5752833e+07
   5.5485162e-10  -3.0108266e-02   1.3746560e+00   1.3203675e-01  -7.5191585e+07
   5.5751917e-10  -2.9908432e-02   1.3661086e+00   1.3327213e-01  -7.4635630e+07
   5.6018673e-10  -2.9710074e-02   1.3576613e+00   1.3450828e-01  -7.4084895e+07
   5.6285428e-10  -2.9513179e-02   1.3493128e+00   1.3574513e-01  -7.3539313e+07
   5.6552184e-10  -2.9317731e-02   1.3410617e+00   1.3698261e-01  -7.2998814e+07
   5.6818940e-10  -2.9123719e-02   1.3329066e+00   1.3822067e-01  -7.2463332e+07
   5.7085695e-10  -2.8931129e-02   1.3248462e+00   1.3945923e-01  -7.1932801e+07
   5.7352451e-10  -2.8739947e-02   1.3168792e+00   1.4069823e-01  -7.1407156e+07
   5.7619206e-10  -2.8550161e-02   1.3090042e+00   1.4193762e-01  -7.0886334e+07
   5.7885962e-10  -2.8361758e-02   1.3012201e+00   1.4317733e-01  -7.0370272e+07
   5.8152718e-10  -2.8174725e-02   1.2935255e+00   1.4441729e-01  -6.9858910e+07
   5.8419473e-10  -2.7989050e-02   1.2859192e+00   1.4565745e-01  -6.9352186e+07
   5.8686229e-10  -2.7804721e-02   1.2784000e+00   1.4689775e-01  -6.8850043e+07
   5.8952984e-10  -2.7621725e-02   1.2709667e+00   1.4813813e-01  -6.8352421e+07
   5.9219740e-10  -2.7440050e-02   1.2636182e+00   1.4937853e-01  -6.7859264e+07
   5.9486495e-10  -2.7259685e-02   1.2563532e+00   1.5061889e-01  -6.7370516e+07
   5.9753251e-10  -2.7080618e-02   1.2491706e+00   1.5185915e-01  -6.6886121e+07
   6.0020007e-10  -2.6902838e-02   1.2420694e+00   1.5309926e-01  -6.6406025e+07
   6.0286762e-10  -2.6726332e-02   1.2350483e+00   1.5433916e-01  -6.5930174e+07
   6.0553518e-10  -2.6551090e-02   1.2281063e+00   1.5557879e-01  -6.5458517e+07
   6.0820273e-10  -2.6377101e-02   1.2212423e+00   1.5681810e-01  -6.4991002e+07
   6.1087029e-10  -2.6204353e-02   1.2144553e+00   1.5805704e-01  -6.4527578e+07
   6.1353785e-10  -2.6032836e-02   1.2077442e+00   1.5929554e-01  -6.4068195e+07
   6.1620540e-10  -2.5862539e-02   1.2011080e+00   1.6053356e-01  -6.3612805e+07
   6.1887296e-10  -2.5693452e-02   1.1945457e+00   1.6177105e-01  -6.3161359e+07
   6.2154051e-10  -2.5525564e-02   1.1880563e+00   1.6300795e-01  -6.2713810e+07
   6.2420807e-10  -2.5358864e-02   1.1816388e+00   1.6424420e-01  -6.2270112e+07
   6.2687563e-10  -2.5193343e-02   1.1752922e+00   1.6547977e-01  -6.1830218e+07
   6.2954318e-10  -2.5028990e-02   1.1690156e+00   1.6671459e-01  -6.1394083e+07
   6.3221074e-10  -2.4865796e-02   1.1628081e+00   1.6794862e-01  -6.0961664e+07
   6.3487829e-10  -2.4703751e-02   1.1566687e+00   1.6918181e-01  -6.0532916e+07
   6.3754585e-10  -2.4542844e-02   1.1505966e+00   1.7041411e-01  -6.0107797e+07
   6.4021340e-10  -2.4383066e-02   1.1445908e+00   1.7164548e-01  -5.9686264e+07
   6.4288096e-10  -2.4224408e-02   1.1386505e+00   1.7287585e-01  -5.9268277e+07
   6.4554852e-10  -2.4066861e-02   1.1327748e+00   1.7410520e-01  -5.8853794e+07
   6.4821607e-10  -2.3910414e-02   1.1269628e+00   1.7533346e-01  -5.8442774e+07
   6.5088363e-10  -2.3755059e-02   1.1212137e+00   1.7656060e-01  -5.8035180e+07
   6.5355118e-10  -2.3600787e-02   1.1155267e+00   1.7778656e-01  -5.7630970e+07
   6.5621874e-10  -2.3447589e-02   1.1099009e+00   1.7901131e-01  -5.7230108e+07
   6.5888630e-10  -2.3295456e-02   1.1043357e+00   1.8023480e-01  -5.6832556e+07
   6.6155385e-10  -2.3144379e-02   1.0988301e+00   1.8145698e-01  -5.6438276e+07
   6.6422141e-10  -2.2994349e-02   1.0933834e+00   1.8267782e-01  -5.6047231e+07
   6.6688896e-10  -2.2845358e-02   1.0879948e+00   1.8389727e-01  -5.5659387e+07
   6.6955652e-10  -2.2697397e-02   1.0826636e+00   1.8511528e-01  -5.5274708e+07
   6.7222407e-10  -2.2550459e-02   1.0773890e+00   1.8633182e-01  -5.4893158e+07
   6.7489163e-10  -2.2404534e-02   1.0721703e+00   1.8754684e-01  -5.4514703e+07
   6.7755919e-10  -2.2259614e-02   1.0670068e+00   1.8876031e-01  -5.4139310e+07
   6.8022674e-10  -2.2115692e-02   1.0618978e+00   1.8997218e-01  -5.3766945e+07
   6.8289430e-10  -2.1972759e-02   1.0568426e+00   1.9118242e-01  -5.3397576e+07
   6.8556185e-10  -2.1830808e-02   1.0518404e+00   1.9239098e-01  -5.3031170e+07
   6.8822941e-10  -2.1689829e-02   1.0468906e+00   1.9359783e-01  -5.2667696e+07
   6.9089697e-10  -2.1549817e-02   1.0419926e+00   1.9480293e-01  -5.2307121e+07
   6.9356452e-10  -2.1410763e-02   1.0371456e+00   1.9600623e-01  -5.1949417e+07
   6.9623208e-10  -2.1272659e-02   1.0323491e+00   1.9720772e-01  -5.1594550e+07
   6.9889963e-10  -2.1135498e-02   1.0276024e+00   1.9840734e-01  -5.1242493e+07
   7.0156719e-10  -2.0999272e-02   1.0229048e+00   1.9960506e-01  -5.0893216e+07
   7.0423474e-10  -2.0863975e-02   1.0182558e+00   2.0080085e-01  -5.0546689e+07
   7.0690230e-10  -2.0729598e-02   1.0136546e+00   2.0199467e-01  -5.0202883e+07
   7.0956986e-10  -2.0596134e-02   1.0091009e+00   2.0318649e-01  -4.9861772e+07
   7.1223741e-10  -2.0463577e-02   1.0045938e+00   2.0437627e-01  -4.9523326e+07
   7.1490497e-10  -2.0331920e-02   1.0001329e+00   2.0556398e-01  -4.9187518e+07
   7.1757252e-10  -2.0201154e-02   9.9571760e-01   2.0674959e-01  -4.8854322e+07
   7.2024008e-10  -2.0071274e-02   9.9134728e-01   2.0793306e-01  -4.8523710e+07
   7.2290764e-10  -1.9942273e-02   9.8702142e-01   2.0911437e-01  -4.8195658e+07
   7.2557519e-10  -1.9814143e-02   9.8273945e-01   2.1029347e-01  -4.7870137e+07
   7.2824275e-10  -1.9686878e-02   9.7850083e-01   2.1147035e-01  -4.7547124e+07
   7.3091030e-10  -1.9560471e-02   9.7430504e-01   2.1264496e-01  -4.7226593e+07
   7.3357786e-10  -1.9434917e-02   9.7015155e-01   2.1381728e-01  -4.6908519e+07
   7.3624542e-10  -1.9310207e-02   9.6603982e-01   2.1498729e-01  -4.6592878e+07
   7.3891297e-10  -1.9186336e-02   9.6196936e-01   2.1615494e-01  -4.6279645e+07
   7.4158053e-10  -1.9063298e-02   9.5793966e-01   2.1732021e-01  -4.5968797e+07
   7.4424808e-10  -1.8941086e-02   9.5395023e-01   2.1848308e-01  -4.5660311e+07
   7.4691564e-10  -1.8819693e-02   9.5000056e-01   2.1964351e-01  -4.5354163e+07
   7.4958319e-10  -1.8699114e-02   9.4609018e-01   2.2080148e-01  -4.5050331e+07
   7.5225075e-10  -1.8579343e-02   9.4221862e-01   2.2195696e-01  -4.4748792e+07
   7.5491831e-10  -1.8460372e-02   9.3838540e-01   2.2310992e-01  -4.4449523e+07
   7.5758586e-10  -1.8342197e-02   9.3459007e-01   2.2426035e-01  -4.4152503e+07
   7.6025342e-10  -1.8224812e-02   9.3083216e-01   2.2540820e-01  -4.3857711e+07
   7.6292097e-10  -1.8108210e-02   9.2711123e-01   2.2655346e-01  -4.3565125e+07
   7.6558853e-10  -1.7992385e-02   9.2342684e-01   2.2769611e-01  -4.3274724e+07
   7.6825609e-10  -1.7877332e-02   9.1977854e-01   2.2883611e-01  -4.2986487e+07
   7.7092364e-10  -1.7763046e-02   9.1616592e-01   2.2997345e-01  -4.2700395e+07
   7.7359120e-10  -1.7649519e-02   9.1258854e-01   2.3110810e-01  -4.2416425e+07
   7.7625875e-10  -1.7536747e-02   9.0904598e-01   2.3224004e-01  -4.2134560e+07
   7.7892631e-10  -1.7424725e-02   9.0553784e-01   2.3336925e-01  -4.1854778e+07
   7.8159386e-10  -1.7313446e-02   9.0206371e-01   2.3449569e-01  -4.1577062e+07
   7.8426142e-10  -1.7202905e-02   8.9862318e-01   2.3561936e-01  -4.1301390e+07
   7.8692898e-10  -1.7093096e-02   8.9521587e-01   2.3674023e-01  -4.1027745e+07
   7.8959653e-10  -1.6984015e-02   8.9184138e-01   2.3785828e-01  -4.0756108e+07
   7.9226409e-10  -1.6875656e-02   8.8849933e-01   2.3897349e-01  -4.0486461e+07
   7.9493164e-10  -1.6768014e-02   8.8518934e-01   2.4008583e-01  -4.0218785e+07
   7.9759920e-10  -1.6661083e-02   8.8191103e-01   2.4119530e-01  -3.9953062e+07
   8.0026676e-10  -1.6554858e-02   8.7866405e-01   2.4230186e-01  -3.9689275e+07
   8.0293431e-10  -1.6449334e-02   8.7544802e-01   2.4340550e-01  -3.9427405e+07
   8.0560187e-10  -1.6344507e-02   8.7226258e-01   2.4450621e-01  -3.9167437e+07
   8.0826942e-10  -1.6240370e-02   8.6910739e-01   2.4560395e-01  -3.8909352e+07
   8.1093698e-10  -1.6136919e-02   8.6598210e-01   2.4669873e-01  -3.8653134e+07
   8.1360453e-10  -1.6034150e-02   8.6288636e-01   2.4779051e-01  -3.8398765e+07
   8.1627209e-10  -1.5932056e-02   8.5981983e-01   2.4887928e-01  -3.8146231e+07
   8.1893965e-10  -1.5830634e-02   8.5678218e-01   2.4996502e-01  -3.7895514e+07
   8.2160720e-10  -1.5729878e-02   8.5377308e-01   2.5104773e-01  -3.7646598e+07
   8.2427476e-10  -1.5629783e-02   8.5079221e-01   2.5212737e-01  -3.7399468e+07
   8.2694231e-10  -1.5530346e-02   8.4783924e-01   2.5320394e-01  -3.7154108e+07
   8.2960987e-10  -1.5431560e-02   8.4491385e-01   2.5427743e-01  -3.6910501e+07
   8.3227743e-10  -1.5333422e-02   8.4201575e-01   2.5534780e-01  -3.6668634e+07
   8.3494498e-10  -1.5235927e-02   8.3914461e-01   2.5641506e-01  -3.6428491e+07
   8.3761254e-10  -1.5139071e-02   8.3630013e-01   2.5747919e-01  -3.6190057e+07
   8.4028009e-10  -1.5042848e-02   8.3348203e-01   2.5854016e-01  -3.5953317e+07
   8.4294765e-10  -1.4947254e-02   8.3068999e-01   2.5959798e-01  -3.5718256e+07
   8.4561521e-10  -1.4852286e-02   8.2792372e-01   2.6065262e-01  -3.5484861e+07
   8.4828276e-10  -1.4757937e-02   8.2518295e-01   2.6170408e-01  -3.5253117e+07
   8.5095032e-10  -1.4664205e-02   8.2246739e-01   2.6275234e-01  -3.5023009e+07
   8.5361787e-10  -1.4571084e-02   8.1977675e-01   2.6379738e-01  -3.4794525e+07
   8.5628543e-10  -1.4478571e-02   8.1711076e-01   2.6483921e-01  -3.4567650e+07
   8.5895298e-10  -1.4386660e-02   8.1446915e-01   2.6587779e-01  -3.4342370e+07
   8.6162054e-10  -1.4295349e-02   8.1185164e-01   2.6691313e-01  -3.4118673e+07
   8.6428810e-10  -1.4204632e-02   8.0925798e-01   2.6794522e-01  -3.3896544e+07
   8.6695565e-10  -1.4114506e-02   8.0668791e-01   2.6897403e-01  -3.3675971e+07
   8.6962321e-10  -1.4024966e-02   8.0414115e-01   2.6999957e-01  -3.3456941e+07
   8.7229076e-10  -1.3936008e-02   8.0161746e-01   2.7102182e-01  -3.3239441e+07
   8.7495832e-10  -1.3847628e-02   7.9911659e-01   2.7204077e-01  -3.3023458e+07
   8.7762588e-10  -1.3759823e-02   7.9663829e-01   2.7305641e-01  -3.2808980e+07
   8.8029343e-10  -1.3672587e-02   7.9418231e-01   2.7406874e-01  -3.2595994e+07
   8.8296099e-10  -1.3585918e-02   7.9174841e-01   2.7507774e-01  -3.2384488e+07
   8.8562854e-10  -1.3499811e-02   7.8933635e-01   2.7608341e-01  -3.2174450e+07
   8.8829610e-10  -1.3414263e-02   7.8694589e-01   2.7708574e-01  -3.1965867e+07
   8.9096365e-10  -1.3329268e-02   7.8457681e-01   2.7808471e-01  -3.1758729e+07
   8.9363121e-10  -1.3244825e-02   7.8222887e-01   2.7908033e-01  -3.1553022e+07
   8.9629877e-10  -1.3160928e-02   7.7990185e-01   2.8007259e-01  -3.1348737e+07
   8.9896632e-10  -1.3077575e-02   7.7759553e-01   2.8106147e-01  -3.1145860e+07
   9.0163388e-10  -1.2994760e-02   7.7530967e-01   2.8204697e-01  -3.0944381e+07
   9.0430143e-10  -1.2912482e-02   7.7304407e-01   2.8302909e-01  -3.0744288e+07
   9.0696899e-10  -1.2830735e-02   7.7079851e-01   2.8400782e-01  -3.0545571e+07
   9.0963655e-10  -1.2749517e-02   7.6857277e-01   2.8498314e-01  -3.0348218e+07
   9.1230410e-10  -1.2668823e-02   7.6636665e-01   2.8595507e-01  -3.0152218e+07
   9.1497166e-10  -1.2588650e-02   7.6417994e-01   2.8692358e-01  -2.9957561e+07
   9.1763921e-10  -1.2508995e-02   7.6201243e-01   2.8788869e-01  -2.9764236e+07
   9.2030677e-10  -1.2429853e-02   7.5986393e-01   2.8885037e-01  -2.9572233e+07
   9.2297432e-10  -1.2351222e-02   7.5773423e-01   2.8980863e-01  -2.9381540e+07
   9.2564188e-10  -1.2273098e-02   7.5562313e-01   2.9076346e-01  -2.9192148e+07
   9.2830944e-10  -1.2195478e-02   7.5353045e-01   2.9171486e-01  -2.9004046e+07
   9.3097699e-10  -1.2118357e-02   7.5145598e-01   2.9266282e-01  -2.8817224e+07
   9.3364455e-10  -1.2041734e-02   7.4939955e-01   2.9360734e-01  -2.8631673e+07
   9.3631210e-10  -1.1965603e-02   7.4736096e-01   2.9454842e-01  -2.8447382e+07
   9.3897966e-10  -1.1889963e-02   7.4534003e-01   2.9548605e-01  -2.8264341e+07
   9.4164722e-10  -1.1814809e-02   7.4333657e-01   2.9642023e-01  -2.8082542e+07
   9.4431477e-10  -1.1740138e-02   7.4135041e-01   2.9735095e-01  -2.7901973e+07
   9.4698233e-10  -1.1665947e-02   7.3938137e-01   2.9827823e-01  -2.7722626e+07
   9.4964988e-10  -1.1592234e-02   7.3742926e-01   2.9920204e-01  -2.7544491e+07
   9.5231744e-10  -1.1518993e-02   7.3549393e-01   3.0012240e-01  -2.7367559e+07
   9.5498499e-10  -1.1446224e-02   7.3357519e-01   3.0103929e-01  -2.7191821e+07
   9.5765255e-10  -1.1373921e-02   7.3167288e-01   3.0195272e-01  -2.7017267e+07
   9.6032011e-10  -1.1302083e-02   7.2978682e-01   3.0286268e-01  -2.6843888e+07
   9.6298766e-10  -1.1230705e-02   7.2791686e-01   3.0376918e-01  -2.6671676e+07
   9.6565522e-10  -1.1159785e-02   7.2606283e-01   3.0467221e-01  -2.6500622e+07
   9.6832277e-10  -1.1089320e-02   7.2422457e-01   3.0557178e-01  -2.6330716e+07
   9.7099033e-10  -1.1019307e-02   7.2240192e-01   3.0646787e-01  -2.6161950e+07
   9.7365789e-10  -1.0949742e-02   7.2059472e-01   3.0736050e-01  -2.5994316e+07
   9.7632544e-10  -1.0880623e-02   7.1880282e-01   3.0824966e-01  -2.5827804e+07
   9.7899300e-10  -1.0811947e-02   7.1702606e-01   3.0913534e-01  -2.5662407e+07
   9.8166055e-10  -1.0743711e-02   7.1526430e-01   3.1001756e-01  -2.5498116e+07
   9.8432811e-10  -1.0675911e-02   7.1351737e-01   3.1089631e-01  -2.5334923e+07
   9.8699567e-10  -1.0608545e-02   7.1178514e-01   3.1177159e-01  -2.5172819e+07
   9.8966322e-10  -1.0541610e-02   7.1006745e-01   3.1264341e-01  -2.5011797e+07
   9.9233078e-10  -1.0475103e-02   7.0836417e-01   3.1351176e-01  -2.4851848e+07
   9.9499833e-10  -1.0409022e-02   7.0667515e-01   3.1437664e-01  -2.4692964e+07
   9.9766589e-10  -1.0343363e-02   7.0500024e-01   3.1523806e-01  -2.4535138e+07
   1.0003334e-09  -1.0278123e-02   7.0333931e-01   3.1609601e-01  -2.4378361e+07
   1.0030010e-09  -1.0213301e-02   7.0169223e-01   3.1695051e-01  -2.4222626e+07
   1.0056686e-09  -1.0148892e-02   7.0005884e-01   3.1780154e-01  -2.4067925e+07
   1.0083361e-09  -1.0084895e-02   6.9843903e-01   3.1864912e-01  -2.3914251e+07
   1.0110037e-09  -1.0021306e-02   6.9683265e-01   3.1949324e-01  -2.3761595e+07
   1.0136712e-09  -9.9581230e-03   6.9523958e-01   3.2033391e-01  -2.3609951e+07
   1.0163388e-09  -9.8953433e-03   6.9365969e-01   3.2117113e-01  -2.3459311e+07
   1.0190063e-09  -9.8329641e-03   6.9209284e-01   3.2200491e-01  -2.3309668e+07
   1.0216739e-09  -9.7709828e-03   6.9053891e-01   3.2283523e-01  -2.3161014e+07
   1.0243414e-09  -9.7093967e-03   6.8899777e-01   3.2366212e-01  -2.3013342e+07
   1.0270090e-09  -9.6482032e-03   6.8746931e-01   3.2448557e-01  -2.2866645e+07
   1.0296766e-09  -9.5873998e-03   6.8595339e-01   3.2530558e-01  -2.2720917e+07
   1.0323441e-09  -9.5269838e-03   6.8444990e-01   3.2612216e-01  -2.2576149e+07
   1.0350117e-09  -9.4669527e-03   6.8295871e-01   3.2693531e-01  -2.2432335e+07
   1.0376792e-09  -9.4073040e-03   6.8147972e-01   3.2774503e-01  -2.2289468e+07
   1.0403468e-09  -9.3480351e-03   6.8001279e-01   3.2855134e-01  -2.2147541e+07
   1.0430143e-09  -9.2891436e-03   6.7855782e-01   3.2935422e-01  -2.2006548e+07
   1.0456819e-09  -9.2306269e-03   6.7711470e-01   3.3015370e-01  -2.1866481e+07
   1.0483494e-09  -9.1724827e-03   6.7568330e-01   3.3094976e-01  -2.1727335e+07
   1.0510170e-09  -9.1147084e-03   6.7426352e-01   3.3174243e-01  -2.1589102e+07
   1.0536846e-09  -9.0573017e-03   6.7285524e-01   3.3253169e-01  -2.1451776e+07
   1.0563521e-09  -9.0002600e-03   6.7145836e-01   3.3331756e-01  -2.1315351e+07
   1.0590197e-09  -8.9435811e-03   6.7007277e-01   3.3410003e-01  -2.1179819e+07
   1.0616872e-09  -8.8872626e-03   6.6869837e-01   3.3487912e-01  -2.1045175e+07
   1.0643548e-09  -8.8313020e-03   6.6733504e-01   3.3565484e-01  -2.0911413e+07
   1.0670223e-09  -8.7756971e-03   6.6598268e-01   3.3642717e-01  -2.0778525e+07
   1.0696899e-09  -8.7204456e-03   6.6464119e-01   3.3719614e-01  -2.0646506e+07
   1.0723575e-09  -8.6655450e-03   6.6331047e-01   3.3796174e-01  -2.0515351e+07
   1.0750250e-09  -8.6109932e-03   6.6199042e-01   3.3872399e-01  -2.0385051e+07
   1.0776926e-09  -8.5567878e-03   6.6068093e-01   3.3948288e-01  -2.0255603e+07
   1.0803601e-09  -8.5029266e-03   6.5938191e-01   3.4023842e-01  -2.0126998e+07
   1.0830277e-09  -8.4494073e-03   6.5809326e-01   3.4099062e-01  -1.9999233e+07
   1.0856952e-09  -8.3962277e-03   6.5681488e-01   3.4173949e-01  -1.9872300e+07
   1.0883628e-09  -8.3433857e-03   6.5554669e-01   3.4248502e-01  -1.9746194e+07
   1.0910303e-09  -8.2908789e-03   6.5428857e-01   3.4322724e-01  -1.9620909e+07
   1.0936979e-09  -8.2387053e-03   6.5304045e-01   3.4396613e-01  -1.9496439e+07
   1.0963655e-09  -8.1868626e-03   6.5180223e-01   3.4470172e-01  -1.9372779e+07
   1.0990330e-09  -8.1353487e-03   6.5057382e-01   3.4543400e-01  -1.9249923e+07
   1.1017006e-09  -8.0841614e-03   6.4935512e-01   3.4616299e-01  -1.9127866e+07
   1.1043681e-09  -8.0332987e-03   6.4814605e-01   3.4688868e-01  -1.9006601e+07
   1.1070357e-09  -7.9827584e-03   6.4694652e-01   3.4761109e-01  -1.8886123e+07
   1.1097032e-09  -7.9325385e-03   6.4575644e-01   3.4833022e-01  -1.8766427e+07
   1.1123708e-09  -7.8826368e-03   6.4457573e-01   3.4904608e-01  -1.8647507e+07
   1.1150383e-09  -7.8330513e-03   6.4340431e-01   3.4975868e-01  -1.8529359e+07
   1.1177059e-09  -7.7837800e-03   6.4224207e-01   3.5046803e-01  -1.8411976e+07
   1.1203735e-09  -7.7348208e-03   6.4108895e-01   3.5117412e-01  -1.8295353e+07
   1.1230410e-09  -7.6861716e-03   6.3994486e-01   3.5187698e-01  -1.8179486e+07
   1.1257086e-09  -7.6378306e-03   6.3880972e-01   3.5257660e-01  -1.8064368e+07
   1.1283761e-09  -7.5897956e-03   6.3768345e-01   3.5327299e-01  -1.7949995e+07
   1.1310437e-09  -7.5420647e-03   6.3656596e-01   3.5396617e-01  -1.7836362e+07
   1.1337112e-09  -7.4946360e-03   6.3545718e-01   3.5465613e-01  -1.7723463e+07
   1.1363788e-09  -7.4475075e-03   6.3435703e-01   3.5534289e-01  -1.7611294e+07
   1.1390463e-09  -7.4006772e-03   6.3326544e-01   3.5602646e-01  -1.7499849e+07
   1.1417139e-09  -7.3541432e-03   6.3218232e-01   3.5670684e-01  -1.7389123e+07
   1.1443815e-09  -7.3079037e-03   6.3110760e-01   3.5738403e-01  -1.7279113e+07
   1.1470490e-09  -7.2619567e-03   6.3004120e-01   3.5805806e-01  -1.7169811e+07
   1.1497166e-09  -7.2163003e-03   6.2898306e-01   3.5872892e-01  -1.7061215e+07
   1.1523841e-09  -7.1709326e-03   6.2793309e-01   3.5939663e-01  -1.6953319e+07
   1.1550517e-09  -7.1258519e-03   6.2689123e-01   3.6006119e-01  -1.6846118e+07
   1.1577192e-09  -7.0810562e-03   6.2585740e-01   3.6072261e-01  -1.6739607e+07
   1.1603868e-09  -7.0365436e-03   6.2483153e-01   3.6138090e-01  -1.6633782e+07
   1.1630544e-09  -6.9923125e-03   6.2381355e-01   3.6203607e-01  -1.6528639e+07
   1.1657219e-09  -6.9483610e-03   6.2280339e-01   3.6268813e-01  -1.6424172e+07
   1.1683895e-09  -6.9046872e-03   6.2180099e-01   3.6333708e-01  -1.6320377e+07
   1.1710570e-09  -6.8612894e-03   6.2080627e-01   3.6398293e-01  -1.6217249e+07
   1.1737246e-09  -6.8181658e-03   6.1981917e-01   3.6462570e-01  -1.6114784e+07
   1.1763921e-09  -6.7753147e-03   6.1883962e-01   3.6526539e-01  -1.6012978e+07
   1.1790597e-09  -6.7327343e-03   6.1786755e-01   3.6590201e-01  -1.5911825e+07
   1.1817272e-09  -6.6904228e-03   6.1690290e-01   3.6653556e-01  -1.5811322e+07
   1.1843948e-09  -6.6483786e-03   6.1594560e-01   3.6716607e-01  -1.5711464e+07
   1.1870624e-09  -6.6065999e-03   6.1499559e-01   3.6779353e-01  -1.5612247e+07
   1.1897299e-09  -6.5650850e-03   6.1405281e-01   3.6841795e-01  -1.5513667e+07
   1.1923975e-09  -6.5238322e-03   6.1311719e-01   3.6903935e-01  -1.5415719e+07
   1.1950650e-09  -6.4828399e-03   6.1218868e-01   3.6965773e-01  -1.5318398e+07
   1.1977326e-09  -6.4421064e-03   6.1126720e-01   3.7027311e-01  -1.5221702e+07
   1.2004001e-09  -6.4016300e-03   6.1035270e-01   3.7088549e-01  -1.5125625e+07
   1.2030677e-09  -6.3614090e-03   6.0944512e-01   3.7149488e-01  -1.5030163e+07
   1.2057352e-09  -6.3214419e-03   6.0854440e-01   3.7210129e-01  -1.4935313e+07
   1.2084028e-09  -6.2817270e-03   6.0765048e-01   3.7270473e-01  -1.4841070e+07
   1.2110704e-09  -6.2422626e-03   6.0676330e-01   3.7330520e-01  -1.4747430e+07
   1.2137379e-09  -6.2030473e-03   6.0588280e-01   3.7390273e-01  -1.4654389e+07
   1.2164055e-09  -6.1640794e-03   6.0500894e-01   3.7449731e-01  -1.4561944e+07
   1.2190730e-09  -6.1253572e-03   6.0414164e-01   3.7508896e-01  -1.4470089e+07
   1.2217406e-09  -6.0868794e-03   6.0328085e-01   3.7567769e-01  -1.4378822e+07
   1.2244081e-09  -6.0486442e-03   6.0242652e-01   3.7626350e-01  -1.4288138e+07
   1.2270757e-09  -6.0106501e-03   6.0157860e-01   3.7684641e-01  -1.4198033e+07
   1.2297432e-09  -5.9728956e-03   6.0073702e-01   3.7742643e-01  -1.4108504e+07
   1.2324108e-09  -5.9353792e-03   5.9990174e-01   3.7800356e-01  -1.4019547e+07
   1.2350784e-09  -5.8980993e-03   5.9907270e-01   3.7857781e-01  -1.3931158e+07
   1.2377459e-09  -5.8610545e-03   5.9824985e-01   3.7914920e-01  -1.3843333e+07
   1.2404135e-09  -5.8242432e-03   5.9743313e-01   3.7971773e-01  -1.3756068e+07
   1.2430810e-09  -5.7876639e-03   5.9662250e-01   3.8028341e-01  -1.3669360e+07
   1.2457486e-09  -5.7513152e-03   5.9581790e-01   3.8084626e-01  -1.3583206e+07
   1.2484161e-09  -5.7151955e-03   5.9501929e-01   3.8140628e-01  -1.3497600e+07
   1.2510837e-09  -5.6793035e-03   5.9422660e-01   3.8196349e-01  -1.3412541e+07
   1.2537513e-09  -5.6436377e-03   5.9343980e-01   3.8251788e-01  -1.3328023e+07
   1.2564188e-09  -5.6081966e-03   5.9265883e-01   3.8306948e-01  -1.3244044e+07
   1.2590864e-09  -5.5729789e-03   5.9188365e-01   3.8361830e-01  -1.3160600e+07
   1.2617539e-09  -5.5379830e-03   5.9111420e-01   3.8416433e-01  -1.3077688e+07
   1.2644215e-09  -5.5032075e-03   5.9035045e-01   3.8470760e-01  -1.2995304e+07
   1.2670890e-09  -5.4686512e-03   5.8959233e-01   3.8524811e-01  -1.2913444e+07
   1.2697566e-09  -5.4343125e-03   5.8883980e-01   3.8578587e-01  -1.2832105e+07
   1.2724241e-09  -5.4001901e-03   5.8809283e-01   3.8632089e-01  -1.2751284e+07
   1.2750917e-09  -5.3662825e-03   5.8735135e-01   3.8685318e-01  -1.2670977e+07
   1.2777593e-09  -5.3325886e-03   5.8661533e-01   3.8738276e-01  -1.2591181e+07
   1.2804268e-09  -5.2991068e-03   5.8588472e-01   3.8790963e-01  -1.2511893e+07
   1.2830944e-09  -5.2658359e-03   5.8515948e-01   3.8843380e-01  -1.2433109e+07
   1.2857619e-09  -5.2327744e-03   5.8443956e-01   3.8895528e-01  -1.2354825e+07
   1.2884295e-09  -5.1999211e-03   5.8372492e-01   3.8947409e-01  -1.2277040e+07
   1.2910970e-09  -5.1672747e-03   5.8301551e-01   3.8999022e-01  -1.2199748e+07
   1.2937646e-09  -5.1348337e-03   5.8231129e-01   3.9050370e-01  -1.2122948e+07
   1.2964321e-09  -5.1025970e-03   5.8161222e-01   3.9101453e-01  -1.2046636e+07
   1.2990997e-09  -5.0705632e-03   5.8091826e-01   3.9152272e-01  -1.1970808e+07
   1.3017673e-09  -5.0387310e-03   5.8022937e-01   3.9202829e-01  -1.1895462e+07
   1.3044348e-09  -5.0070992e-03   5.7954550e-01   3.9253124e-01  -1.1820594e+07
   1.3071024e-09  -4.9756665e-03   5.7886661e-01   3.9303158e-01  -1.1746202e+07
   1.3097699e-09  -4.9444316e-03   5.7819266e-01   3.9352932e-01  -1.1672281e+07
   1.3124375e-09  -4.9133932e-03   5.7752361e-01   3.9402448e-01  -1.1598830e+07
   1.3151050e-09  -4.8825502e-03   5.7685943e-01   3.9451705e-01  -1.1525845e+07
   1.3177726e-09  -4.8519012e-03   5.7620007e-01   3.9500706e-01  -1.1453323e+07
   1.3204401e-09  -4.8214451e-03   5.7554549e-01   3.9549452e-01  -1.1381261e+07
   1.3231077e-09  -4.7911806e-03   5.7489566e-01   3.9597943e-01  -1.1309656e+07
   1.3257753e-09  -4.7611065e-03   5.7425054e-01   3.9646180e-01  -1.1238505e+07
   1.3284428e-09  -4.7312216e-03   5.7361008e-01   3.9694164e-01  -1.1167805e+07
   1.3311104e-09  -4.7015247e-03   5.7297425e-01   3.9741897e-01  -1.1097553e+07
   1.3337779e-09  -4.6720146e-03   5.7234302e-01   3.9789379e-01  -1.1027747e+07
   1.3364455e-09  -4.6426901e-03   5.7171635e-01   3.9836611e-01  -1.0958382e+07
   1.3391130e-09  -4.6135500e-03   5.7109419e-01   3.9883595e-01  -1.0889458e+07
   1.3417806e-09  -4.5845933e-03   5.7047652e-01   3.9930331e-01  -1.0820970e+07
   1.3444481e-09  -4.5558186e-03   5.6986330e-01   3.9976821e-01  -1.0752915e+07
   1.3471157e-09  -4.5272250e-03   5.6925449e-01   4.0023065e-01  -1.0685292e+07
   1.3497833e-09  -4.4988111e-03   5.6865005e-01   4.0069065e-01  -1.0618097e+07
   1.3524508e-09  -4.4705759e-03   5.6804996e-01   4.0114821e-01  -1.0551327e+07
   1.3551184e-09  -4.4425183e-03   5.6745417e-01   4.0160334e-01  -1.0484980e+07
   1.3577859e-09  -4.4146371e-03   5.6686266e-01   4.0205606e-01  -1.0419053e+07
   1.3604535e-09  -4.3869312e-03   5.6627539e-01   4.0250637e-01  -1.0353544e+07
   1.3631210e-09  -4.3593995e-03   5.6569233e-01   4.0295429e-01  -1.0288449e+07
   1.3657886e-09  -4.3320409e-03   5.6511343e-01   4.0339982e-01  -1.0223765e+07
   1.3684562e-09  -4.3048543e-03   5.6453868e-01   4.0384298e-01  -1.0159491e+07
   1.3711237e-09  -4.2778386e-03   5.6396803e-01   4.0428377e-01  -1.0095623e+07
   1.3737913e-09  -4.2509927e-03   5.6340146e-01   4.0472220e-01  -1.0032160e+07
   1.3764588e-09  -4.2243156e-03   5.6283893e-01   4.0515830e-01  -9.9690974e+06
   1.3791264e-09  -4.1978062e-03   5.6228040e-01   4.0559205e-01  -9.9064338e+06
   1.3817939e-09  -4.1714634e-03   5.6172586e-01   4.0602348e-01  -9.8441664e+06
   1.3844615e-09  -4.1452862e-03   5.6117526e-01   4.0645260e-01  -9.7822926e+06
   1.3871290e-09  -4.1192735e-03   5.6062858e-01   4.0687941e-01  -9.7208099e+06
   1.3897966e-09  -4.0934243e-03   5.6008579e-01   4.0730392e-01  -9.6597157e+06
   1.3924642e-09  -4.0677376e-03   5.5954685e-01   4.0772615e-01  -9.5990077e+06
   1.3951317e-09  -4.0422122e-03   5.5901174e-01   4.0814611e-01  -9.5386832e+06
   1.3977993e-09  -4.0168473e-03   5.5848042e-01   4.0856380e-01  -9.4787399e+06
   1.4004668e-09  -3.9916418e-03   5.5795286e-01   4.0897923e-01  -9.4191752e+06
   1.4031344e-09  -3.9665947e-03   5.5742905e-01   4.0939242e-01  -9.3599868e+06
   1.4058019e-09  -3.9417050e-03   5.5690894e-01   4.0980338e-01  -9.3011722e+06
   1.4084695e-09  -3.9169717e-03   5.5639250e-01   4.1021210e-01  -9.2427290e+06
   1.4111370e-09  -3.8923938e-03   5.5587972e-01   4.1061861e-01  -9.1846549e+06
   1.4138046e-09  -3.8679703e-03   5.5537056e-01   4.1102292e-01  -9.1269474e+06
   1.4164722e-09  -3.8437002e-03   5.5486499e-01   4.1142503e-01  -9.0696042e+06
   1.4191397e-09  -3.8195827e-03   5.5436299e-01   4.1182495e-01  -9.0126230e+06
   1.4218073e-09  -3.7956166e-03   5.5386452e-01   4.1222270e-01  -8.9560015e+06
   1.4244748e-09  -3.7718012e-03   5.5336956e-01   4.1261828e-01  -8.8997374e+06
   1.4271424e-09  -3.7481353e-03   5.5287809e-01   4.1301170e-01  -8.8438283e+06
   1.4298099e-09  -3.7246181e-03   5.5239008e-01   4.1340297e-01  -8.7882720e+06
   1.4324775e-09  -3.7012487e-03   5.5190549e-01   4.1379211e-01  -8.7330662e+06
   1.4351450e-09  -3.6780260e-03   5.5142431e-01   4.1417912e-01  -8.6782088e+06
   1.4378126e-09  -3.6549492e-03   5.5094650e-01   4.1456401e-01  -8.6236973e+06
   1.4404802e-09  -3.6320174e-03   5.5047205e-01   4.1494679e-01  -8.5695298e+06
   1.4431477e-09  -3.6092296e-03   5.5000092e-01   4.1532747e-01  -8.5157039e+06
   1.4458153e-09  -3.5865849e-03   5.4953309e-01   4.1570607e-01  -8.4622174e+06
   1.4484828e-09  -3.5640825e-03   5.4906854e-01   4.1608258e-01  -8.4090682e+06
   1.4511504e-09  -3.5417214e-03   5.4860723e-01   4.1645702e-01  -8.3562542e+06
   1.4538179e-09  -3.5195007e-03   5.4814915e-01   4.1682941e-01  -8.3037732e+06
   1.4564855e-09  -3.4974196e-03   5.4769428e-01   4.1719974e-01  -8.2516230e+06
   1.4591531e-09  -3.4754772e-03   5.4724257e-01   4.1756803e-01  -8.1998016e+06
   1.4618206e-09  -3.4536726e-03   5.4679402e-01   4.1793429e-01  -8.1483069e+06
   1.4644882e-09  -3.4320049e-03   5.4634860e-01   4.1829852e-01  -8.0971367e+06
   1.4671557e-09  -3.4104732e-03   5.4590628e-01   4.1866075e-01  -8.0462891e+06
   1.4698233e-09  -3.3890768e-03   5.4546704e-01   4.1902097e-01  -7.9957618e+06
   1.4724908e-09  -3.3678147e-03   5.4503086e-01   4.1937919e-01  -7.9455530e+06
   1.4751584e-09  -3.3466862e-03   5.4459772e-01   4.1973543e-01  -7.8956606e+06
   1.4778259e-09  -3.3256903e-03   5.4416758e-01   4.2008969e-01  -7.8460825e+06
   1.4804935e-09  -3.3048263e-03   5.4374043e-01   4.2044199e-01  -7.7968167e+06
   1.4831611e-09  -3.2840932e-03   5.4331625e-01   4.2079233e-01  -7.7478614e+06
   1.4858286e-09  -3.2634904e-03   5.4289501e-01   4.2114073e-01  -7.6992144e+06
   1.4884962e-09  -3.2430169e-03   5.4247670e-01   4.2148718e-01  -7.6508738e+06
   1.4911637e-09  -3.2226719e-03   5.4206128e-01   4.2183171e-01  -7.6028377e+06
   1.4938313e-09  -3.2024547e-03   5.4164874e-01   4.2217432e-01  -7.5551041e+06
   1.4964988e-09  -3.1823644e-03   5.4123906e-01   4.2251501e-01  -7.5076711e+06
   1.4991664e-09  -3.1624002e-03   5.4083221e-01   4.2285381e-01  -7.4605368e+06
   1.5018339e-09  -3.1425614e-03   5.4042817e-01   4.2319071e-01  -7.4136994e+06
   1.5045015e-09  -3.1228471e-03   5.4002693e-01   4.2352573e-01  -7.3671568e+06
   1.5071691e-09  -3.1032566e-03   5.3962845e-01   4.2385887e-01  -7.3209072e+06
   1.5098366e-09  -3.0837891e-03   5.3923273e-01   4.2419015e-01  -7.2749488e+06
   1.5125042e-09  -3.0644438e-03   5.3883974e-01   4.2451957e-01  -7.2292797e+06
   1.5151717e-09  -3.0452199e-03   5.3844945e-01   4.2484715e-01  -7.1838982e+06
   1.5178393e-09  -3.0261167e-03   5.3806186e-01   4.2517289e-01  -7.1388022e+06
   1.5205068e-09  -3.0071334e-03   5.3767693e-01   4.2549680e-01  -7.0939901e+06
   1.5231744e-09  -2.9882693e-03   5.3729466e-01   4.2581889e-01  -7.0494600e+06
   1.5258419e-09  -2.9695236e-03   5.3691501e-01   4.2613917e-01  -7.0052102e+06
   1.5285095e-09  -2.9508956e-03   5.3653798e-01   4.2645764e-01  -6.9612388e+06
   1.5311771e-09  -2.9323845e-03   5.3616354e-01   4.2677432e-01  -6.9175441e+06
   1.5338446e-09  -2.9139896e-03   5.3579166e-01   4.2708922e-01  -6.8741244e+06
   1.5365122e-09  -2.8957101e-03   5.3542234e-01   4.2740234e-01  -6.8309778e+06
   1.5391797e-09  -2.8775454e-03   5.3505556e-01   4.2771370e-01  -6.7881027e+06
   1.5418473e-09  -2.8594947e-03   5.3469129e-01   4.2802329e-01  -6.7454974e+06
   1.5445148e-09  -2.8415572e-03   5.3432951e-01   4.2833114e-01  -6.7031600e+06
   1.5471824e-09  -2.8237324e-03   5.3397022e-01   4.2863724e-01  -6.6610890e+06
   1.5498499e-09  -2.8060194e-03   5.3361338e-01   4.2894162e-01  -6.6192827e+06
   1.5525175e-09  -2.7884176e-03   5.3325898e-01   4.2924427e-01  -6.5777393e+06
   1.5551851e-09  -2.7709263e-03   5.3290701e-01   4.2954520e-01  -6.5364572e+06
   1.5578526e-09  -2.7535447e-03   5.3255745e-01   4.2984443e-01  -6.4954347e+06
   1.5605202e-09  -2.7362723e-03   5.3221027e-01   4.3014196e-01  -6.4546702e+06
   1.5631877e-09  -2.7191082e-03   5.3186546e-01   4.3043780e-01  -6.4141621e+06
   1.5658553e-09  -2.7020519e-03   5.3152301e-01   4.3073196e-01  -6.3739087e+06
   1.5685228e-09  -2.6851026e-03   5.3118289e-01   4.3102445e-01  -6.3339085e+06
   1.5711904e-09  -2.6682596e-03   5.3084510e-01   4.3131527e-01  -6.2941597e+06
   1.5738580e-09  -2.6515224e-03   5.3050960e-01   4.3160444e-01  -6.2546609e+06
   1.5765255e-09  -2.6348902e-03   5.3017639e-01   4.3189196e-01  -6.2154104e+06
   1.5791931e-09  -2.6183623e-03   5.2984545e-01   4.3217784e-01  -6.1764067e+06
   1.5818606e-09  -2.6019382e-03   5.2951675e-01   4.3246209e-01  -6.1376482e+06
   1.5845282e-09  -2.5856172e-03   5.2919030e-01   4.3274471e-01  -6.0991334e+06
   1.5871957e-09  -2.5693985e-03   5.2886606e-01   4.3302573e-01  -6.0608607e+06
   1.5898633e-09  -2.5532817e-03   5.2854403e-01   4.3330514e-01  -6.0228285e+06
   1.5925308e-09  -2.5372659e-03   5.2822418e-01   4.3358295e-01  -5.9850355e+06
   1.5951984e-09  -2.5213507e-03   5.2790651e-01   4.3385917e-01  -5.9474799e+06
   1.5978660e-09  -2.5055353e-03   5.2759099e-01   4.3413381e-01  -5.9101605e+06
   1.6005335e-09  -2.4898192e-03   5.2727761e-01   4.3440687e-01  -5.8730755e+06
   1.6032011e-09  -2.4742017e-03   5.2696636e-01   4.3467838e-01  -5.8362237e+06
   1.6058686e-09  -2.4586822e-03   5.2665721e-01   4.3494832e-01  -5.7996034e+06
   1.6085362e-09  -2.4432600e-03   5.2635016e-01   4.3521672e-01  -5.7632133e+06
   1.6112037e-09  -2.4279347e-03   5.2604518e-01   4.3548357e-01  -5.7270519e+06
   1.6138713e-09  -2.4127055e-03   5.2574227e-01   4.3574889e-01  -5.6911177e+06
   1.6165388e-09  -2.3975718e-03   5.2544141e-01   4.3601269e-01  -5.6554093e+06
   1.6192064e-09  -2.3825331e-03   5.2514258e-01   4.3627496e-01  -5.6199253e+06
   1.6218740e-09  -2.3675888e-03   5.2484577e-01   4.3653573e-01  -5.5846642e+06
   1.6245415e-09  -2.3527382e-03   5.2455097e-01   4.3679500e-01  -5.5496247e+06
   1.6272091e-09  -2.3379808e-03   5.2425815e-01   4.3705277e-01  -5.5148053e+06
   1.6298766e-09  -2.3233160e-03   5.2396731e-01   4.3730906e-01  -5.4802047e+06
   1.6325442e-09  -2.3087432e-03   5.2367844e-01   4.3756387e-01  -5.4458215e+06
   1.6352117e-09  -2.2942618e-03   5.2339151e-01   4.3781721e-01  -5.4116543e+06
   1.6378793e-09  -2.2798713e-03   5.2310651e-01   4.3806909e-01  -5.3777017e+06
   1.6405468e-09  -2.2655711e-03   5.2282343e-01   4.3831951e-01  -5.3439624e+06
   1.6432144e-09  -2.2513605e-03   5.2254226e-01   4.3856848e-01  -5.3104350e+06
   1.6458820e-09  -2.2372392e-03   5.2226299e-01   4.3881601e-01  -5.2771182e+06
   1.6485495e-09  -2.2232064e-03   5.2198559e-01   4.3906211e-01  -5.2440108e+06
   1.6512171e-09  -2.2092617e-03   5.2171005e-01   4.3930679e-01  -5.2111112e+06
   1.6538846e-09  -2.1954045e-03   5.2143637e-01   4.3955005e-01  -5.1784183e+06
   1.6565522e-09  -2.1816342e-03   5.2116453e-01   4.3979190e-01  -5.1459308e+06
   1.6592197e-09  -2.1679503e-03   5.2089451e-01   4.4003234e-01  -5.1136473e+06
   1.6618873e-09  -2.1543522e-03   5.2062631e-01   4.4027139e-01  -5.0815665e+06
   1.6645549e-09  -2.1408394e-03   5.2035990e-01   4.4050906e-01  -5.0496872e+06
   1.6672224e-09  -2.1274114e-03   5.2009529e-01   4.4074534e-01  -5.0180081e+06
   1.6698900e-09  -2.1140677e-03   5.1983244e-01   4.4098025e-01  -4.9865280e+06
   1.6725575e-09  -2.1008077e-03   5.1957136e-01   4.4121380e-01  -4.9552456e+06
   1.6752251e-09  -2.0876308e-03   5.1931203e-01   4.4144598e-01  -4.9241596e+06
   1.6778926e-09  -2.0745366e-03   5.1905443e-01   4.4167682e-01  -4.8932688e+06
   1.6805602e-09  -2.0615246e-03   5.1879856e-01   4.4190631e-01  -4.8625719e+06
   1.6832277e-09  -2.0485942e-03   5.1854440e-01   4.4213446e-01  -4.8320679e+06
   1.6858953e-09  -2.0357449e-03   5.1829195e-01   4.4236129e-01  -4.8017553e+06
   1.6885629e-09  -2.0229762e-03   5.1804117e-01   4.4258679e-01  -4.7716331e+06
   1.6912304e-09  -2.0102876e-03   5.1779208e-01   4.4281098e-01  -4.7417001e+06
   1.6938980e-09  -1.9976786e-03   5.1754465e-01   4.4303386e-01  -4.7119549e+06
   1.6965655e-09  -1.9851487e-03   5.1729887e-01   4.4325543e-01  -4.6823965e+06
   1.6992331e-09  -1.9726974e-03   5.1705474e-01   4.4347572e-01  -4.6530237e+06
   1.7019006e-09  -1.9603242e-03   5.1681223e-01   4.4369471e-01  -4.6238353e+06
   1.7045682e-09  -1.9480287e-03   5.1657134e-01   4.4391243e-01  -4.5948302e+06
   1.7072357e-09  -1.9358102e-03   5.1633206e-01   4.4412887e-01  -4.5660071e+06
   1.7099033e-09  -1.9236684e-03   5.1609437e-01   4.4434404e-01  -4.5373650e+06
   1.7125709e-09  -1.9116028e-03   5.1585827e-01   4.4455796e-01  -4.5089027e+06
   1.7152384e-09  -1.8996129e-03   5.1562373e-01   4.4477062e-01  -4.4806191e+06
   1.7179060e-09  -1.8876981e-03   5.1539076e-01   4.4498204e-01  -4.4525130e+06
   1.7205735e-09  -1.8758581e-03   5.1515935e-01   4.4519221e-01  -4.4245833e+06
   1.7232411e-09  -1.8640924e-03   5.1492947e-01   4.4540116e-01  -4.3968290e+06
   1.7259086e-09  -1.8524005e-03   5.1470112e-01   4.4560888e-01  -4.3692489e+06
   1.7285762e-09  -1.8407819e-03   5.1447429e-01   4.4581537e-01  -4.3418419e+06
   1.7312437e-09  -1.8292362e-03   5.1424896e-01   4.4602066e-01  -4.3146069e+06
   1.7339113e-09  -1.8177629e-03   5.1402514e-01   4.4622474e-01  -4.2875429e+06
   1.7365789e-09  -1.8063616e-03   5.1380280e-01   4.4642762e-01  -4.2606488e+06
   1.7392464e-09  -1.7950318e-03   5.1358194e-01   4.4662931e-01  -4.2339234e+06
   1.7419140e-09  -1.7837731e-03   5.1336254e-01   4.4682981e-01  -4.2073658e+06
   1.7445815e-09  -1.7725850e-03   5.1314460e-01   4.4702913e-01  -4.1809749e+06
   1.7472491e-09  -1.7614670e-03   5.1292810e-01   4.4722727e-01  -4.1547496e+06
   1.7499166e-09  -1.7504189e-03   5.1271304e-01   4.4742425e-01  -4.1286889e+06
   1.7525842e-09  -1.7394400e-03   5.1249941e-01   4.4762007e-01  -4.1027918e+06
   1.7552518e-09  -1.7285299e-03   5.1228719e-01   4.4781474e-01  -4.0770572e+06
   1.7579193e-09  -1.7176883e-03   5.1207638e-01   4.4800825e-01  -4.0514841e+06
   1.7605869e-09  -1.7069148e-03   5.1186696e-01   4.4820063e-01  -4.0260715e+06
   1.7632544e-09  -1.6962087e-03   5.1165893e-01   4.4839187e-01  -4.0008184e+06
   1.7659220e-09  -1.6855699e-03   5.1145228e-01   4.4858198e-01  -3.9757237e+06
   1.7685895e-09  -1.6749977e-03   5.1124699e-01   4.4877097e-01  -3.9507866e+06
   1.7712571e-09  -1.6644919e-03   5.1104306e-01   4.4895884e-01  -3.9260059e+06
   1.7739246e-09  -1.6540520e-03   5.1084048e-01   4.4914560e-01  -3.9013807e+06
   1.7765922e-09  -1.6436776e-03   5.1063924e-01   4.4933125e-01  -3.8769101e+06
   1.7792598e-09  -1.6333682e-03   5.1043932e-01   4.4951581e-01  -3.8525930e+06
   1.7819273e-09  -1.6231235e-03   5.1024073e-01   4.4969928e-01  -3.8284285e+06
   1.7845949e-09  -1.6129431e-03   5.1004345e-01   4.4988166e-01  -3.8044156e+06
   1.7872624e-09  -1.6028265e-03   5.0984747e-01   4.5006295e-01  -3.7805535e+06
   1.7899300e-09  -1.5927733e-03   5.0965279e-01   4.5024318e-01  -3.7568410e+06
   1.7925975e-09  -1.5827832e-03   5.0945939e-01   4.5042234e-01  -3.7332773e+06
   1.7952651e-09  -1.5728558e-03   5.0926726e-01   4.5060043e-01  -3.7098615e+06
   1.7979326e-09  -1.5629907e-03   5.0907641e-01   4.5077747e-01  -3.6865926e+06
   1.8006002e-09  -1.5531874e-03   5.0888680e-01   4.5095346e-01  -3.6634698e+06
   1.8032678e-09  -1.5434456e-03   5.0869845e-01   4.5112840e-01  -3.6404920e+06
   1.8059353e-09  -1.5337649e-03   5.0851134e-01   4.5130230e-01  -3.6176583e+06
   1.8086029e-09  -1.5241449e-03   5.0832546e-01   4.5147518e-01  -3.5949680e+06
   1.8112704e-09  -1.5145853e-03   5.0814081e-01   4.5164702e-01  -3.5724200e+06
   1.8139380e-09  -1.5050856e-03   5.0795737e-01   4.5181784e-01  -3.5500134e+06
   1.8166055e-09  -1.4956455e-03   5.0777514e-01   4.5198765e-01  -3.5277475e+06
   1.8192731e-09  -1.4862646e-03   5.0759410e-01   4.5215645e-01  -3.5056212e+06
   1.8219406e-09  -1.4769426e-03   5.0741426e-01   4.5232424e-01  -3.4836338e+06
   1.8246082e-09  -1.4676790e-03   5.0723560e-01   4.5249104e-01  -3.4617843e+06
   1.8272758e-09  -1.4584735e-03   5.0705811e-01   4.5265684e-01  -3.4400719e+06
   1.8299433e-09  -1.4493258e-03   5.0688179e-01   4.5282165e-01  -3.4184957e+06
   1.8326109e-09  -1.4402354e-03   5.0670662e-01   4.5298548e-01  -3.3970549e+06
   1.8352784e-09  -1.4312021e-03   5.0653261e-01   4.5314834e-01  -3.3757486e+06
   1.8379460e-09  -1.4222254e-03   5.0635974e-01   4.5331022e-01  -3.3545760e+06
   1.8406135e-09  -1.4133050e-03   5.0618800e-01   4.5347114e-01  -3.3335361e+06
   1.8432811e-09  -1.4044406e-03   5.0601739e-01   4.5363110e-01  -3.3126283e+06
   1.8459486e-09  -1.3956317e-03   5.0584790e-01   4.5379011e-01  -3.2918517e+06
   1.8486162e-09  -1.3868781e-03   5.0567952e-01   4.5394816e-01  -3.2712054e+06
   1.8512838e-09  -1.3781794e-03   5.0551224e-01   4.5410527e-01  -3.2506886e+06
   1.8539513e-09  -1.3695353e-03   5.0534606e-01   4.5426145e-01  -3.2303005e+06
   1.8566189e-09  -1.3609454e-03   5.0518097e-01   4.5441669e-01  -3.2100403e+06
   1.8592864e-09  -1.3524094e-03   5.0501696e-01   4.5457100e-01  -3.1899072e+06
   1.8619540e-09  -1.3439268e-03   5.0485402e-01   4.5472439e-01  -3.1699004e+06
   1.8646215e-09  -1.3354975e-03   5.0469215e-01   4.5487686e-01  -3.1500191e+06
   1.8672891e-09  -1.3271211e-03   5.0453134e-01   4.5502842e-01  -3.1302626e+06
   1.8699567e-09  -1.3187972e-03   5.0437159e-01   4.5517907e-01  -3.1106299e+06
   1.8726242e-09  -1.3105255e-03   5.0421287e-01   4.5532882e-01  -3.0911204e+06
   1.8752918e-09  -1.3023057e-03   5.0405520e-01   4.5547767e-01  -3.0717334e+06
   1.8779593e-09  -1.2941374e-03   5.0389855e-01   4.5562564e-01  -3.0524679e+06
   1.8806269e-09  -1.2860204e-03   5.0374293e-01   4.5577271e-01  -3.0333232e+06
   1.8832944e-09  -1.2779543e-03   5.0358833e-01   4.5591891e-01  -3.0142987e+06
   1.8859620e-09  -1.2699387e-03   5.0343474e-01   4.5606422e-01  -2.9953935e+06
   1.8886295e-09  -1.2619735e-03   5.0328215e-01   4.5620867e-01  -2.9766069e+06
   1.8912971e-09  -1.2540582e-03   5.0313055e-01   4.5635225e-01  -2.9579381e+06
   1.8939647e-09  -1.2461925e-03   5.0297995e-01   4.5649497e-01  -2.9393864e+06
   1.8966322e-09  -1.2383762e-03   5.0283033e-01   4.5663683e-01  -2.9209511e+06
   1.8992998e-09  -1.2306089e-03   5.0268168e-01   4.5677784e-01  -2.9026314e+06
   1.9019673e-09  -1.2228903e-03   5.0253401e-01   4.5691800e-01  -2.8844267e+06
   1.9046349e-09  -1.2152201e-03   5.0238729e-01   4.5705732e-01  -2.8663361e+06
   1.9073024e-09  -1.2075981e-03   5.0224154e-01   4.5719581e-01  -2.8483590e+06
   1.9099700e-09  -1.2000238e-03   5.0209673e-01   4.5733346e-01  -2.8304946e+06
   1.9126375e-09  -1.1924970e-03   5.0195287e-01   4.5747028e-01  -2.8127424e+06
   1.9153051e-09  -1.1850175e-03   5.0180995e-01   4.5760629e-01  -2.7951014e+06
   1.9179727e-09  -1.1775848e-03   5.0166795e-01   4.5774147e-01  -2.7775711e+06
   1.9206402e-09  -1.1701988e-03   5.0152688e-01   4.5787584e-01  -2.7601508e+06
   1.9233078e-09  -1.1628591e-03   5.0138673e-01   4.5800940e-01  -2.7428397e+06
   1.9259753e-09  -1.1555654e-03   5.0124750e-01   4.5814216e-01  -2.7256372e+06
   1.9286429e-09  -1.1483175e-03   5.0110917e-01   4.5827411e-01  -2.7085426e+06
   1.9313104e-09  -1.1411150e-03   5.0097173e-01   4.5840528e-01  -2.6915553e+06
   1.9339780e-09  -1.1339577e-03   5.0083520e-01   4.5853565e-01  -2.6746745e+06
   1.9366455e-09  -1.1268453e-03   5.0069955e-01   4.5866523e-01  -2.6578995e+06
   1.9393131e-09  -1.1197775e-03   5.0056478e-01   4.5879404e-01  -2.6412298e+06
   1.9419807e-09  -1.1127540e-03   5.0043089e-01   4.5892207e-01  -2.6246646e+06
   1.9446482e-09  -1.1057746e-03   5.0029787e-01   4.5904933e-01  -2.6082033e+06
   1.9473158e-09  -1.0988389e-03   5.0016571e-01   4.5917581e-01  -2.5918453e+06
   1.9499833e-09  -1.0919468e-03   5.0003441e-01   4.5930154e-01  -2.5755899e+06
   1.9526509e-09  -1.0850978e-03   4.9990397e-01   4.5942651e-01  -2.5594364e+06
   1.9553184e-09  -1.0782919e-03   4.9977437e-01   4.5955072e-01  -2.5433842e+06
   1.9579860e-09  -1.0715286e-03   4.9964561e-01   4.5967418e-01  -2.5274327e+06
   1.9606536e-09  -1.0648077e-03   4.9951769e-01   4.5979690e-01  -2.5115813e+06
   1.9633211e-09  -1.0581290e-03   4.9939060e-01   4.5991887e-01  -2.4958293e+06
   1.9659887e-09  -1.0514921e-03   4.9926433e-01   4.6004011e-01  -2.4801760e+06
   1.9686562e-09  -1.0448969e-03   4.9913888e-01   4.6016062e-01  -2.4646210e+06
   1.9713238e-09  -1.0383431e-03   4.9901425e-01   4.6028039e-01  -2.4491635e+06
   1.9739913e-09  -1.0318304e-03   4.9889042e-01   4.6039945e-01  -2.4338029e+06
   1.9766589e-09  -1.0253585e-03   4.9876740e-01   4.6051778e-01  -2.4185387e+06
   1.9793264e-09  -1.0189272e-03   4.9864518e-01   4.6063539e-01  -2.4033702e+06
   1.9819940e-09  -1.0125362e-03   4.9852374e-01   4.6075230e-01  -2.3882969e+06
   1.9846616e-09  -1.0061853e-03   4.9840310e-01   4.6086850e-01  -2.3733181e+06
   1.9873291e-09  -9.9987426e-04   4.9828323e-01   4.6098399e-01  -2.3584332e+06
   1.9899967e-09  -9.9360279e-04   4.9816414e-01   4.6109878e-01  -2.3436417e+06
   1.9926642e-09  -9.8737065e-04   4.9804582e-01   4.6121288e-01  -2.3289430e+06
   1.9953318e-09  -9.8117760e-04   4.9792827e-01   4.6132629e-01  -2.3143364e+06
   1.9979993e-09  -9.7502339e-04   4.9781148e-01   4.6143901e-01  -2.2998215e+06
   2.0006669e-09  -9.6890778e-04   4.9769545e-01   4.6155105e-01  -2.2853975e+06
   2.0033344e-09  -9.6283052e-04   4.9758016e-01   4.6166240e-01  -2.2710641e+06
   2.0060020e-09  -9.5679138e-04   4.9746562e-01   4.6177309e-01  -2.2568205e+06
   2.0086696e-09  -9.5079011e-04   4.9735183e-01   4.6188310e-01  -2.2426663e+06
   2.0113371e-09  -9.4482649e-04   4.9723876e-01   4.6199244e-01  -2.2286008e+06
   2.0140047e-09  -9.3890026e-04   4.9712643e-01   4.6210112e-01  -2.2146236e+06
   2.0166722e-09  -9.3301120e-04   4.9701483e-01   4.6220914e-01  -2.2007340e+06
   2.0193398e-09  -9.2715908e-04   4.9690395e-01   4.6231651e-01  -2.1869315e+06
   2.0220073e-09  -9.2134366e-04   4.9679378e-01   4.6242322e-01  -2.1732156e+06
   2.0246749e-09  -9.1556472e-04   4.9668432e-01   4.6252929e-01  -2.1595857e+06
   2.0273424e-09  -9.0982202e-04   4.9657558e-01   4.6263471e-01  -2.1460412e+06
   2.0300100e-09  -9.0411533e-04   4.9646753e-01   4.6273949e-01  -2.1325818e+06
   2.0326776e-09  -8.9844444e-04   4.9636018e-01   4.6284363e-01  -2.1192067e+06
   2.0353451e-09  -8.9280911e-04   4.9625353e-01   4.6294714e-01  -2.1059155e+06
   2.0380127e-09  -8.8720913e-04   4.9614756e-01   4.6305002e-01  -2.0927077e+06
   2.0406802e-09  -8.8164427e-04   4.9604228e-01   4.6315228e-01  -2.0795827e+06
   2.0433478e-09  -8.7611431e-04   4.9593767e-01   4.6325391e-01  -2.0665400e+06
   2.0460153e-09  -8.7061904e-04   4.9583374e-01   4.6335493e-01  -2.0535791e+06
   2.0486829e-09  -8.6515822e-04   4.9573049e-01   4.6345533e-01  -2.0406995e+06
   2.0513505e-09  -8.5973166e-04   4.9562789e-01   4.6355512e-01  -2.0279007e+06
   2.0540180e-09  -8.5433913e-04   4.9552596e-01   4.6365431e-01  -2.0151821e+06
   2.0566856e-09  -8.4898043e-04   4.9542469e-01   4.6375289e-01  -2.0025433e+06
   2.0593531e-09  -8.4365533e-04   4.9532407e-01   4.6385086e-01  -1.9899838e+06
   2.0620207e-09  -8.3836363e-04   4.9522410e-01   4.6394825e-01  -1.9775030e+06
   2.0646882e-09  -8.3310512e-04   4.9512477e-01   4.6404504e-01  -1.9651005e+06
   2.0673558e-09  -8.2787959e-04   4.9502608e-01   4.6414124e-01  -1.9527758e+06
   2.0700233e-09  -8.2268683e-04   4.9492803e-01   4.6423685e-01  -1.9405283e+06
   2.0726909e-09  -8.1752664e-04   4.9483061e-01   4.6433188e-01  -1.9283577e+06
   2.0753585e-09  -8.1239881e-04   4.9473381e-01   4.6442633e-01  -1.9162634e+06
   2.0780260e-09  -8.0730315e-04   4.9463764e-01   4.6452021e-01  -1.9042450e+06
   2.0806936e-09  -8.0223944e-04   4.9454209e-01   4.6461351e-01  -1.8923019e+06
   2.0833611e-09  -7.9720750e-04   4.9444715e-01   4.6470625e-01  -1.8804337e+06
   2.0860287e-09  -7.9220711e-04   4.9435283e-01   4.6479841e-01  -1.8686400e+06
   2.0886962e-09  -7.8723808e-04   4.9425911e-01   4.6489002e-01  -1.8569202e+06
   2.0913638e-09  -7.8230022e-04   4.9416599e-01   4.6498107e-01  -1.8452739e+06
   2.0940313e-09  -7.7739333e-04   4.9407348e-01   4.6507156e-01  -1.8337007e+06
   2.0966989e-09  -7.7251721e-04   4.9398155e-01   4.6516150e-01  -1.8222000e+06
   2.0993665e-09  -7.6767168e-04   4.9389022e-01   4.6525089e-01  -1.8107714e+06
   2.1020340e-09  -7.6285653e-04   4.9379948e-01   4.6533973e-01  -1.7994146e+06
   2.1047016e-09  -7.5807159e-04   4.9370932e-01   4.6542804e-01  -1.7881289e+06
   2.1073691e-09  -7.5331666e-04   4.9361974e-01   4.6551580e-01  -1.7769140e+06
   2.1100367e-09  -7.4859155e-04   4.9353073e-01   4.6560302e-01  -1.7657695e+06
   2.1127042e-09  -7.4389607e-04   4.9344230e-01   4.6568972e-01  -1.7546948e+06
   2.1153718e-09  -7.3923004e-04   4.9335444e-01   4.6577588e-01  -1.7436896e+06
   2.1180393e-09  -7.3459328e-04   4.9326714e-01   4.6586152e-01  -1.7327535e+06
   2.1207069e-09  -7.2998560e-04   4.9318040e-01   4.6594663e-01  -1.7218859e+06
   2.1233745e-09  -7.2540682e-04   4.9309421e-01   4.6603122e-01  -1.7110864e+06
   2.1260420e-09  -7.2085676e-04   4.9300858e-01   4.6611530e-01  -1.7003547e+06
   2.1287096e-09  -7.1633523e-04   4.9292350e-01   4.6619886e-01  -1.6896903e+06
   2.1313771e-09  -7.1184206e-04   4.9283897e-01   4.6628191e-01  -1.6790927e+06
   2.1340447e-09  -7.0737708e-04   4.9275498e-01   4.6636445e-01  -1.6685617e+06
   2.1367122e-09  -7.0294009e-04   4.9267153e-01   4.6644649e-01  -1.6580966e+06
   2.1393798e-09  -6.9853094e-04   4.9258861e-01   4.6652803e-01  -1.6476972e+06
   2.1420473e-09  -6.9414944e-04   4.9250623e-01   4.6660906e-01  -1.6373630e+06
   2.1447149e-09  -6.8979541e-04   4.9242437e-01   4.6668960e-01  -1.6270937e+06
   2.1473825e-09  -6.8546870e-04   4.9234304e-01   4.6676965e-01  -1.6168887e+06
   2.1500500e-09  -6.8116913e-04   4.9226223e-01   4.6684920e-01  -1.6067477e+06
   2.1527176e-09  -6.7689652e-04   4.9218194e-01   4.6692827e-01  -1.5966703e+06
   2.1553851e-09  -6.7265070e-04   4.9210216e-01   4.6700686e-01  -1.5866561e+06
   2.1580527e-09  -6.6843152e-04   4.9202289e-01   4.6708496e-01  -1.5767047e+06
   2.1607202e-09  -6.6423880e-04   4.9194414e-01   4.6716258e-01  -1.5668158e+06
   2.1633878e-09  -6.6007238e-04   4.9186588e-01   4.6723973e-01  -1.5569888e+06
   2.1660554e-09  -6.5593209e-04   4.9178813e-01   4.6731641e-01  -1.5472235e+06
   2.1687229e-09  -6.5181776e-04   4.9171088e-01   4.6739261e-01  -1.5375194e+06
   2.1713905e-09  -6.4772924e-04   4.9163412e-01   4.6746835e-01  -1.5278762e+06
   2.1740580e-09  -6.4366637e-04   4.9155785e-01   4.6754363e-01  -1.5182934e+06
   2.1767256e-09  -6.3962897e-04   4.9148208e-01   4.6761844e-01  -1.5087707e+06
   2.1793931e-09  -6.3561690e-04   4.9140678e-01   4.6769279e-01  -1.4993078e+06
   2.1820607e-09  -6.3162999e-04   4.9133197e-01   4.6776669e-01  -1.4899042e+06
   2.1847282e-09  -6.2766809e-04   4.9125764e-01   4.6784013e-01  -1.4805596e+06
   2.1873958e-09  -6.2373104e-04   4.9118378e-01   4.6791313e-01  -1.4712735e+06
   2.1900634e-09  -6.1981868e-04   4.9111040e-01   4.6798567e-01  -1.4620458e+06
   2.1927309e-09  -6.1593085e-04   4.9103749e-01   4.6805777e-01  -1.4528758e+06
   2.1953985e-09  -6.1206742e-04   4.9096504e-01   4.6812943e-01  -1.4437634e+06
   2.1980660e-09  -6.0822821e-04   4.9089305e-01   4.6820065e-01  -1.4347082e+06
   2.2007336e-09  -6.0441308e-04   4.9082153e-01   4.6827143e-01  -1.4257097e+06
   2.2034011e-09  -6.0062188e-04   4.9075046e-01   4.6834177e-01  -1.4167676e+06
   2.2060687e-09  -5.9685446e-04   4.9067985e-01   4.6841169e-01  -1.4078817e+06
   2.2087362e-09  -5.9311067e-04   4.9060969e-01   4.6848117e-01  -1.3990514e+06
   2.2114038e-09  -5.8939036e-04   4.9053998e-01   4.6855023e-01  -1.3902766e+06
   2.2140714e-09  -5.8569339e-04   4.9047072e-01   4.6861886e-01  -1.3815567e+06
   2.2167389e-09  -5.8201960e-04   4.9040189e-01   4.6868707e-01  -1.3728916e+06
   2.2194065e-09  -5.7836885e-04   4.9033351e-01   4.6875486e-01  -1.3642808e+06
   2.2220740e-09  -5.7474101e-04   4.9026556e-01   4.6882224e-01  -1.3557240e+06
   2.2247416e-09  -5.7113591e-04   4.9019805e-01   4.6888920e-01  -1.3472208e+06
   2.2274091e-09  -5.6755343e-04   4.9013097e-01   4.6895574e-01  -1.3387710e+06
   2.2300767e-09  -5.6399341e-04   4.9006432e-01   4.6902188e-01  -1.3303742e+06
   2.2327442e-09  -5.6045573e-04   4.8999809e-01   4.6908762e-01  -1.3220300e+06
   2.2354118e-09  -5.5694023e-04   4.8993229e-01   4.6915294e-01  -1.3137382e+06
   2.2380794e-09  -5.5344678e-04   4.8986691e-01   4.6921787e-01  -1.3054984e+06
   2.2407469e-09  -5.4997525e-04   4.8980194e-01   4.6928240e-01  -1.2973102e+06
   2.2434145e-09  -5.4652549e-04   4.8973739e-01   4.6934653e-01  -1.2891734e+06
   2.2460820e-09  -5.4309736e-04   4.8967325e-01   4.6941026e-01  -1.2810876e+06
   2.2487496e-09  -5.3969074e-04   4.8960952e-01   4.6947361e-01  -1.2730525e+06
   2.2514171e-09  -5.3630548e-04   4.8954620e-01   4.6953656e-01  -1.2650678e+06
   2.2540847e-09  -5.3294146e-04   4.8948328e-01   4.6959912e-01  -1.2571332e+06
   2.2567523e-09  -5.2959853e-04   4.8942077e-01   4.6966130e-01  -1.2492484e+06
   2.2594198e-09  -5.2627657e-04   4.8935865e-01   4.6972310e-01  -1.2414130e+06
   2.2620874e-09  -5.2297545e-04   4.8929693e-01   4.6978452e-01  -1.2336267e+06
   2.2647549e-09  -5.1969503e-04   4.8923560e-01   4.6984556e-01  -1.2258893e+06
   2.2674225e-09  -5.1643519e-04   4.8917466e-01   4.6990622e-01  -1.2182004e+06
   2.2700900e-09  -5.1319580e-04   4.8911411e-01   4.6996651e-01  -1.2105597e+06
   2.2727576e-09  -5.0997672e-04   4.8905395e-01   4.7002642e-01  -1.2029669e+06
   2.2754251e-09  -5.0677783e-04   4.8899418e-01   4.7008597e-01  -1.1954218e+06
   2.2780927e-09  -5.0359901e-04   4.8893478e-01   4.7014515e-01  -1.1879240e+06
   2.2807603e-09  -5.0044012e-04   4.8887576e-01   4.7020397e-01  -1.1804731e+06
   2.2834278e-09  -4.9730105e-04   4.8881712e-01   4.7026242e-01  -1.1730691e+06
   2.2860954e-09  -4.9418166e-04   4.8875885e-01   4.7032052e-01  -1.1657114e+06
   2.2887629e-09  -4.9108184e-04   4.8870095e-01   4.7037825e-01  -1.1583999e+06
   2.2914305e-09  -4.8800147e-04   4.8864343e-01   4.7043563e-01  -1.1511343e+06
   2.2940980e-09  -4.8494041e-04   4.8858626e-01   4.7049266e-01  -1.1439142e+06
   2.2967656e-09  -4.8189856e-04   4.8852947e-01   4.7054933e-01  -1.1367394e+06
   2.2994331e-09  -4.7887578e-04   4.8847303e-01   4.7060565e-01  -1.1296096e+06
   2.3021007e-09  -4.7587196e-04   4.8841696e-01   4.7066163e-01  -1.1225245e+06
   2.3047683e-09  -4.7288698e-04   4.8836124e-01   4.7071726e-01  -1.1154838e+06
   2.3074358e-09  -4.6992073e-04   4.8830588e-01   4.7077255e-01  -1.1084873e+06
   2.3101034e-09  -4.6697308e-04   4.8825086e-01   4.7082749e-01  -1.1015347e+06
   2.3127709e-09  -4.6404391e-04   4.8819620e-01   4.7088210e-01  -1.0946256e+06
   2.3154385e-09  -4.6113312e-04   4.8814189e-01   4.7093637e-01  -1.0877599e+06
   2.3181060e-09  -4.5824059e-04   4.8808793e-01   4.7099031e-01  -1.0809373e+06
   2.3207736e-09  -4.5536620e-04   4.8803430e-01   4.7104391e-01  -1.0741574e+06
   2.3234411e-09  -4.5250984e-04   4.8798102e-01   4.7109718e-01  -1.0674201e+06
   2.3261087e-09  -4.4967139e-04   4.8792808e-01   4.7115012e-01  -1.0607250e+06
   2.3287763e-09  -4.4685075e-04   4.8787547e-01   4.7120274e-01  -1.0540719e+06
   2.3314438e-09  -4.4404780e-04   4.8782320e-01   4.7125503e-01  -1.0474606e+06
   2.3341114e-09  -4.4126243e-04   4.8777126e-01   4.7130700e-01  -1.0408907e+06
   2.3367789e-09  -4.3849453e-04   4.8771966e-01   4.7135864e-01  -1.0343620e+06
   2.3394465e-09  -4.3574399e-04   4.8766838e-01   4.7140997e-01  -1.0278742e+06
   2.3421140e-09  -4.3301071e-04   4.8761742e-01   4.7146098e-01  -1.0214272e+06
   2.3447816e-09  -4.3029456e-04   4.8756679e-01   4.7151168e-01  -1.0150205e+06
   2.3474491e-09  -4.2759546e-04   4.8751649e-01   4.7156206e-01  -1.0086541e+06
   2.3501167e-09  -4.2491328e-04   4.8746650e-01   4.7161213e-01  -1.0023275e+06
   2.3527843e-09  -4.2224793e-04   4.8741683e-01   4.7166189e-01  -9.9604070e+05
   2.3554518e-09  -4.1959929e-04   4.8736748e-01   4.7171135e-01  -9.8979328e+05
   2.3581194e-09  -4.1696727e-04   4.8731844e-01   4.7176049e-01  -9.8358504e+05
   2.3607869e-09  -4.1435175e-04   4.8726971e-01   4.7180934e-01  -9.7741573e+05
   2.3634545e-09  -4.1175264e-04   4.8722129e-01   4.7185788e-01  -9.7128512e+05
   2.3661220e-09  -4.0916984e-04   4.8717318e-01   4.7190612e-01  -9.6519295e+05
   2.3687896e-09  -4.0660323e-04   4.8712538e-01   4.7195406e-01  -9.5913899e+05
   2.3714572e-09  -4.0405272e-04   4.8707788e-01   4.7200171e-01  -9.5312300e+05
   2.3741247e-09  -4.0151821e-04   4.8703068e-01   4.7204906e-01  -9.4714474e+05
   2.3767923e-09  -3.9899960e-04   4.8698378e-01   4.7209612e-01  -9.4120398e+05
   2.3794598e-09  -3.9649678e-04   4.8693718e-01   4.7214289e-01  -9.3530047e+05
   2.3821274e-09  -3.9400966e-04   4.8689088e-01   4.7218937e-01  -9.2943398e+05
   2.3847949e-09  -3.9153815e-04   4.8684487e-01   4.7223556e-01  -9.2360429e+05
   2.3874625e-09  -3.8908213e-04   4.8679915e-01   4.7228147e-01  -9.1781116e+05
   2.3901300e-09  -3.8664152e-04   4.8675372e-01   4.7232709e-01  -9.1205436e+05
   2.3927976e-09  -3.8421622e-04   4.8670858e-01   4.7237243e-01  -9.0633367e+05
   2.3954652e-09  -3.8180613e-04   4.8666373e-01   4.7241749e-01  -9.0064885e+05
   2.3981327e-09  -3.7941115e-04   4.8661916e-01   4.7246227e-01  -8.9499969e+05
   2.4008003e-09  -3.7703120e-04   4.8657488e-01   4.7250677e-01  -8.8938595e+05
   2.4034678e-09  -3.7466618e-04   4.8653087e-01   4.7255099e-01  -8.8380743e+05
   2.4061354e-09  -3.7231599e-04   4.8648715e-01   4.7259495e-01  -8.7826389e+05
   2.4088029e-09  -3.6998054e-04   4.8644370e-01   4.7263863e-01  -8.7275511e+05
   2.4114705e-09  -3.6765974e-04   4.8640053e-01   4.7268204e-01  -8.6728089e+05
   2.4141380e-09  -3.6535350e-04   4.8635764e-01   4.7272518e-01  -8.6184100e+05
   2.4168056e-09  -3.6306172e-04   4.8631501e-01   4.7276805e-01  -8.5643523e+05
   2.4194732e-09  -3.6078432e-04   4.8627266e-01   4.7281066e-01  -8.5106336e+05
   2.4221407e-09  -3.5852120e-04   4.8623057e-01   4.7285301e-01  -8.4572518e+05
   2.4248083e-09  -3.5627228e-04   4.8618876e-01   4.7289509e-01  -8.4042048e+05
   2.4274758e-09  -3.5403747e-04   4.8614720e-01   4.7293691e-01  -8.3514905e+05
   2.4301434e-09  -3.5181667e-04   4.8610592e-01   4.7297847e-01  -8.2991068e+05
   2.4328109e-09  -3.4960980e-04   4.8606489e-01   4.7301978e-01  -8.2470516e+05
   2.4354785e-09  -3.4741677e-04   4.8602412e-01   4.7306083e-01  -8.1953229e+05
   2.4381460e-09  -3.4523750e-04   4.8598361e-01   4.7310162e-01  -8.1439186e+05
   2.4408136e-09  -3.4307190e-04   4.8594336e-01   4.7314216e-01  -8.0928368e+05
   2.4434812e-09  -3.4091988e-04   4.8590337e-01   4.7318245e-01  -8.0420753e+05
   2.4461487e-09  -3.3878136e-04   4.8586363e-01   4.7322249e-01  -7.9916321e+05
   2.4488163e-09  -3.3665626e-04   4.8582414e-01   4.7326229e-01  -7.9415054e+05
   2.4514838e-09  -3.3454448e-04   4.8578490e-01   4.7330183e-01  -7.8916930e+05
   2.4541514e-09  -3.3244595e-04   4.8574591e-01   4.7334113e-01  -7.8421930e+05
   2.4568189e-09  -3.3036058e-04   4.8570716e-01   4.7338019e-01  -7.7930035e+05
   2.4594865e-09  -3.2828829e-04   4.8566867e-01   4.7341900e-01  -7.7441225e+05
   2.4621541e-09  -3.2622901e-04   4.8563041e-01   4.7345758e-01  -7.6955480e+05
   2.4648216e-09  -3.2418263e-04   4.8559240e-01   4.7349591e-01  -7.6472782e+05
   2.4674892e-09  -3.2214910e-04   4.8555463e-01   4.7353401e-01  -7.5993112e+05
   2.4701567e-09  -3.2012831e-04   4.8551710e-01   4.7357187e-01  -7.5516449e+05
   2.4728243e-09  -3.1812021e-04   4.8547981e-01   4.7360950e-01  -7.5042777e+05
   2.4754918e-09  -3.1612470e-04   4.8544275e-01   4.7364689e-01  -7.4572075e+05
   2.4781594e-09  -3.1414170e-04   4.8540593e-01   4.7368405e-01  -7.4104325e+05
   2.4808269e-09  -3.1217115e-04   4.8536934e-01   4.7372098e-01  -7.3639509e+05
   2.4834945e-09  -3.1021295e-04   4.8533298e-01   4.7375768e-01  -7.3177608e+05
   2.4861621e-09  -3.0826704e-04   4.8529686e-01   4.7379415e-01  -7.2718604e+05
   2.4888296e-09  -3.0633333e-04   4.8526096e-01   4.7383040e-01  -7.2262479e+05
   2.4914972e-09  -3.0441176e-04   4.8522529e-01   4.7386642e-01  -7.1809215e+05
   2.4941647e-09  -3.0250223e-04   4.8518985e-01   4.7390222e-01  -7.1358793e+05
   2.4968323e-09  -3.0060468e-04   4.8515463e-01   4.7393779e-01  -7.0911197e+05
   2.4994998e-09  -2.9871904e-04   4.8511963e-01   4.7397315e-01  -7.0466407e+05
   2.5021674e-09  -2.9684522e-04   4.8508486e-01   4.7400828e-01  -7.0024408e+05
   2.5048349e-09  -2.9498316e-04   4.8505030e-01   4.7404320e-01  -6.9585180e+05
   2.5075025e-09  -2.9313277e-04   4.8501597e-01   4.7407790e-01  -6.9148708e+05
   2.5101701e-09  -2.9129400e-04   4.8498185e-01   4.7411238e-01  -6.8714972e+05
   2.5128376e-09  -2.8946675e-04   4.8494795e-01   4.7414665e-01  -6.8283958e+05
   2.5155052e-09  -2.8765097e-04   4.8491426e-01   4.7418071e-01  -6.7855646e+05
   2.5181727e-09  -2.8584658e-04   4.8488079e-01   4.7421456e-01  -6.7430021e+05
   2.5208403e-09  -2.8405350e-04   4.8484753e-01   4.7424820e-01  -6.7007065e+05
   2.5235078e-09  -2.8227168e-04   4.8481447e-01   4.7428162e-01  -6.6586762e+05
   2.5261754e-09  -2.8050102e-04   4.8478163e-01   4.7431484e-01  -6.6169095e+05
   2.5288429e-09  -2.7874148e-04   4.8474900e-01   4.7434786e-01  -6.5754048e+05
   2.5315105e-09  -2.7699297e-04   4.8471657e-01   4.7438066e-01  -6.5341603e+05
   2.5341781e-09  -2.7525543e-04   4.8468435e-01   4.7441327e-01  -6.4931746e+05
   2.5368456e-09  -2.7352879e-04   4.8465233e-01   4.7444567e-01  -6.4524459e+05
   2.5395132e-09  -2.7181298e-04   4.8462051e-01   4.7447787e-01  -6.4119727e+05
   2.5421807e-09  -2.7010793e-04   4.8458890e-01   4.7450987e-01  -6.3717533e+05
   2.5448483e-09  -2.6841358e-04   4.8455748e-01   4.7454167e-01  -6.3317862e+05
   2.5475158e-09  -2.6672985e-04   4.8452627e-01   4.7457327e-01  -6.2920697e+05
   2.5501834e-09  -2.6505669e-04   4.8449525e-01   4.7460468e-01  -6.2526024e+05
   2.5528510e-09  -2.6339402e-04   4.8446443e-01   4.7463589e-01  -6.2133826e+05
   2.5555185e-09  -2.6174178e-04   4.8443380e-01   4.7466691e-01  -6.1744087e+05
   2.5581861e-09  -2.6009990e-04   4.8440337e-01   4.7469774e-01  -6.1356793e+05
   2.5608536e-09  -2.5846832e-04   4.8437313e-01   4.7472837e-01  -6.0971929e+05
   2.5635212e-09  -2.5684698e-04   4.8434308e-01   4.7475881e-01  -6.0589478e+05
   2.5661887e-09  -2.5523581e-04   4.8431322e-01   4.7478907e-01  -6.0209426e+05
   2.5688563e-09  -2.5363474e-04   4.8428355e-01   4.7481913e-01  -5.9831757e+05
   2.5715238e-09  -2.5204371e-04   4.8425407e-01   4.7484901e-01  -5.9456457e+05
   2.5741914e-09  -2.5046267e-04   4.8422477e-01   4.7487871e-01  -5.9083511e+05
   2.5768590e-09  -2.4889154e-04   4.8419566e-01   4.7490821e-01  -5.8712905e+05
   2.5795265e-09  -2.4733027e-04   4.8416673e-01   4.7493754e-01  -5.8344622e+05
   2.5821941e-09  -2.4577879e-04   4.8413799e-01   4.7496668e-01  -5.7978650e+05
   2.5848616e-09  -2.4423704e-04   4.8410943e-01   4.7499564e-01  -5.7614973e+05
   2.5875292e-09  -2.4270497e-04   4.8408104e-01   4.7502442e-01  -5.7253577e+05
   2.5901967e-09  -2.4118250e-04   4.8405284e-01   4.7505303e-01  -5.6894448e+05
   2.5928643e-09  -2.3966958e-04   4.8402482e-01   4.7508145e-01  -5.6537571e+05
   2.5955318e-09  -2.3816616e-04   4.8399697e-01   4.7510970e-01  -5.6182933e+05
   2.5981994e-09  -2.3667216e-04   4.8396930e-01   4.7513777e-01  -5.5830518e+05
   2.6008670e-09  -2.3518754e-04   4.8394181e-01   4.7516567e-01  -5.5480315e+05
   2.6035345e-09  -2.3371222e-04   4.8391448e-01   4.7519339e-01  -5.5132307e+05
   2.6062021e-09  -2.3224616e-04   4.8388733e-01   4.7522094e-01  -5.4786483e+05
   2.6088696e-09  -2.3078930e-04   4.8386036e-01   4.7524832e-01  -5.4442827e+05
   2.6115372e-09  -2.2934158e-04   4.8383355e-01   4.7527553e-01  -5.4101327e+05
   2.6142047e-09  -2.2790294e-04   4.8380691e-01   4.7530257e-01  -5.3761969e+05
   2.6168723e-09  -2.2647332e-04   4.8378044e-01   4.7532944e-01  -5.3424740e+05
   2.6195398e-09  -2.2505266e-04   4.8375414e-01   4.7535614e-01  -5.3089625e+05
   2.6222074e-09  -2.2364092e-04   4.8372800e-01   4.7538268e-01  -5.2756613e+05
   2.6248750e-09  -2.2223804e-04   4.8370203e-01   4.7540906e-01  -5.2425689e+05
   2.6275425e-09  -2.2084395e-04   4.8367623e-01   4.7543526e-01  -5.2096840e+05
   2.6302101e-09  -2.1945861e-04   4.8365058e-01   4.7546131e-01  -5.1770055e+05
   2.6328776e-09  -2.1808196e-04   4.8362510e-01   4.7548719e-01  -5.1445319e+05
   2.6355452e-09  -2.1671395e-04   4.8359978e-01   4.7551292e-01  -5.1122619e+05
   2.6382127e-09  -2.1535451e-04   4.8357462e-01   4.7553848e-01  -5.0801944e+05
   2.6408803e-09  -2.1400361e-04   4.8354962e-01   4.7556388e-01  -5.0483280e+05
   2.6435478e-09  -2.1266117e-04   4.8352477e-01   4.7558912e-01  -5.0166615e+05
   2.6462154e-09  -2.1132716e-04   4.8350009e-01   4.7561421e-01  -4.9851936e+05
   2.6488830e-09  -2.1000152e-04   4.8347556e-01   4.7563914e-01  -4.9539231e+05
   2.6515505e-09  -2.0868419e-04   4.8345118e-01   4.7566392e-01  -4.9228487e+05
   2.6542181e-09  -2.0737512e-04   4.8342696e-01   4.7568854e-01  -4.8919692e+05
   2.6568856e-09  -2.0607427e-04   4.8340289e-01   4.7571301e-01  -4.8612834e+05
   2.6595532e-09  -2.0478157e-04   4.8337897e-01   4.7573733e-01  -4.8307900e+05
   2.6622207e-09  -2.0349698e-04   4.8335521e-01   4.7576149e-01  -4.8004879e+05
   2.6648883e-09  -2.0222046e-04   4.8333159e-01   4.7578550e-01  -4.7703759e+05
   2.6675559e-09  -2.0095193e-04   4.8330812e-01   4.7580937e-01  -4.7404528e+05
   2.6702234e-09  -1.9969137e-04   4.8328481e-01   4.7583308e-01  -4.7107173e+05
   2.6728910e-09  -1.9843871e-04   4.8326163e-01   4.7585665e-01  -4.6811683e+05
   2.6755585e-09  -1.9719391e-04   4.8323861e-01   4.7588007e-01  -4.6518047e+05
   2.6782261e-09  -1.9595692e-04   4.8321573e-01   4.7590335e-01  -4.6226253e+05
   2.6808936e-09  -1.9472769e-04   4.8319299e-01   4.7592648e-01  -4.5936288e+05
   2.6835612e-09  -1.9350617e-04   4.8317040e-01   4.7594947e-01  -4.5648143e+05
   2.6862287e-09  -1.9229231e-04   4.8314795e-01   4.7597231e-01  -4.5361805e+05
   2.6888963e-09  -1.9108607e-04   4.8312564e-01   4.7599501e-01  -4.5077262e+05
   2.6915639e-09  -1.8988739e-04   4.8310348e-01   4.7601757e-01  -4.4794505e+05
   2.6942314e-09  -1.8869623e-04   4.8308145e-01   4.7603999e-01  -4.4513521e+05
   2.6968990e-09  -1.8751254e-04   4.8305956e-01   4.7606226e-01  -4.4234299e+05
   2.6995665e-09  -1.8633628e-04   4.8303781e-01   4.7608440e-01  -4.3956829e+05
   2.7022341e-09  -1.8516739e-04   4.8301620e-01   4.7610641e-01  -4.3681099e+05
   2.7049016e-09  -1.8400584e-04   4.8299473e-01   4.7612827e-01  -4.3407099e+05
   2.7075692e-09  -1.8285157e-04   4.8297339e-01   4.7615000e-01  -4.3134817e+05
   2.7102367e-09  -1.8170455e-04   4.8295218e-01   4.7617159e-01  -4.2864243e+05
   2.7129043e-09  -1.8056472e-04   4.8293111e-01   4.7619305e-01  -4.2595366e+05
   2.7155719e-09  -1.7943204e-04   4.8291017e-01   4.7621438e-01  -4.2328176e+05
   2.7182394e-09  -1.7830646e-04   4.8288936e-01   4.7623557e-01  -4.2062662e+05
   2.7209070e-09  -1.7718795e-04   4.8286869e-01   4.7625663e-01  -4.1798812e+05
   2.7235745e-09  -1.7607645e-04   4.8284814e-01   4.7627756e-01  -4.1536618e+05
   2.7262421e-09  -1.7497192e-04   4.8282773e-01   4.7629835e-01  -4.1276069e+05
   2.7289096e-09  -1.7387432e-04   4.8280744e-01   4.7631902e-01  -4.1017154e+05
   2.7315772e-09  -1.7278361e-04   4.8278728e-01   4.7633956e-01  -4.0759862e+05
   2.7342447e-09  -1.7169974e-04   4.8276725e-01   4.7635997e-01  -4.0504185e+05
   2.7369123e-09  -1.7062266e-04   4.8274734e-01   4.7638026e-01  -4.0250111e+05
   2.7395799e-09  -1.6955235e-04   4.8272756e-01   4.7640041e-01  -3.9997631e+05
   2.7422474e-09  -1.6848874e-04   4.8270791e-01   4.7642045e-01  -3.9746734e+05
   2.7449150e-09  -1.6743181e-04   4.8268838e-01   4.7644035e-01  -3.9497412e+05
   2.7475825e-09  -1.6638151e-04   4.8266897e-01   4.7646014e-01  -3.9249653e+05
   2.7502501e-09  -1.6533780e-04   4.8264968e-01   4.7647979e-01  -3.9003448e+05
   2.7529176e-09  -1.6430063e-04   4.8263052e-01   4.7649933e-01  -3.8758787e+05
   2.7555852e-09  -1.6326997e-04   4.8261148e-01   4.7651875e-01  -3.8515661e+05
   2.7582528e-09  -1.6224578e-04   4.8259256e-01   4.7653804e-01  -3.8274060e+05
   2.7609203e-09  -1.6122801e-04   4.8257375e-01   4.7655721e-01  -3.8033974e+05
   2.7635879e-09  -1.6021662e-04   4.8255507e-01   4.7657627e-01  -3.7795395e+05
   2.7662554e-09  -1.5921158e-04   4.8253650e-01   4.7659520e-01  -3.7558311e+05
   2.7689230e-09  -1.5821284e-04   4.8251805e-01   4.7661402e-01  -3.7322715e+05
   2.7715905e-09  -1.5722037e-04   4.8249972e-01   4.7663272e-01  -3.7088597e+05
   2.7742581e-09  -1.5623412e-04   4.8248150e-01   4.7665130e-01  -3.6855947e+05
   2.7769256e-09  -1.5525406e-04   4.8246340e-01   4.7666977e-01  -3.6624756e+05
   2.7795932e-09  -1.5428015e-04   4.8244541e-01   4.7668812e-01  -3.6395016e+05
   2.7822608e-09  -1.5331235e-04   4.8242753e-01   4.7670636e-01  -3.6166716e+05
   2.7849283e-09  -1.5235061e-04   4.8240977e-01   4.7672448e-01  -3.5939849e+05
   2.7875959e-09  -1.5139492e-04   4.8239212e-01   4.7674249e-01  -3.5714404e+05
   2.7902634e-09  -1.5044521e-04   4.8237458e-01   4.7676039e-01  -3.5490374e+05
   2.7929310e-09  -1.4950146e-04   4.8235715e-01   4.7677817e-01  -3.5267749e+05
   2.7955985e-09  -1.4856364e-04   4.8233983e-01   4.7679585e-01  -3.5046520e+05
   2.7982661e-09  -1.4763169e-04   4.8232262e-01   4.7681341e-01  -3.4826679e+05
   2.8009336e-09  -1.4670559e-04   4.8230552e-01   4.7683087e-01  -3.4608216e+05
   2.8036012e-09  -1.4578530e-04   4.8228852e-01   4.7684821e-01  -3.4391125e+05
   2.8062688e-09  -1.4487079e-04   4.8227164e-01   4.7686545e-01  -3.4175394e+05
   2.8089363e-09  -1.4396201e-04   4.8225486e-01   4.7688258e-01  -3.3961017e+05
   2.8116039e-09  -1.4305893e-04   4.8223818e-01   4.7689961e-01  -3.3747985e+05
   2.8142714e-09  -1.4216151e-04   4.8222161e-01   4.7691652e-01  -3.3536289e+05
   2.8169390e-09  -1.4126973e-04   4.8220515e-01   4.7693333e-01  -3.3325920e+05
   2.8196065e-09  -1.4038353e-04   4.8218879e-01   4.7695004e-01  -3.3116872e+05
   2.8222741e-09  -1.3950290e-04   4.8217253e-01   4.7696664e-01  -3.2909134e+05
   2.8249416e-09  -1.3862779e-04   4.8215637e-01   4.7698314e-01  -3.2702700e+05
   2.8276092e-09  -1.3775818e-04   4.8214032e-01   4.7699954e-01  -3.2497560e+05
   2.8302768e-09  -1.3689401e-04   4.8212437e-01   4.7701583e-01  -3.2293707e+05
   2.8329443e-09  -1.3603527e-04   4.8210851e-01   4.7703202e-01  -3.2091133e+05
   2.8356119e-09  -1.3518191e-04   4.8209276e-01   4.7704811e-01  -3.1889830e+05
   2.8382794e-09  -1.3433391e-04   4.8207711e-01   4.7706410e-01  -3.1689789e+05
   2.8409470e-09  -1.3349123e-04   4.8206155e-01   4.7707999e-01  -3.1491003e+05
   2.8436145e-09  -1.3265383e-04   4.8204610e-01   4.7709578e-01  -3.1293463e+05
   2.8462821e-09  -1.3182168e-04   4.8203074e-01   4.7711148e-01  -3.1097163e+05
   2.8489496e-09  -1.3099476e-04   4.8201548e-01   4.7712707e-01  -3.0902094e+05
   2.8516172e-09  -1.3017302e-04   4.8200031e-01   4.7714257e-01  -3.0708249e+05
   2.8542848e-09  -1.2935644e-04   4.8198524e-01   4.7715797e-01  -3.0515620e+05
   2.8569523e-09  -1.2854498e-04   4.8197026e-01   4.7717327e-01  -3.0324199e+05
   2.8596199e-09  -1.2773861e-04   4.8195538e-01   4.7718848e-01  -3.0133978e+05
   2.8622874e-09  -1.2693729e-04   4.8194060e-01   4.7720359e-01  -2.9944951e+05
   2.8649550e-09  -1.2614101e-04   4.8192590e-01   4.7721861e-01  -2.9757109e+05
   2.8676225e-09  -1.2534972e-04   4.8191130e-01   4.7723354e-01  -2.9570446e+05
   2.8702901e-09  -1.2456339e-04   4.8189679e-01   4.7724837e-01  -2.9384954e+05
   2.8729577e-09  -1.2378199e-04   4.8188237e-01   4.7726311e-01  -2.9200625e+05
   2.8756252e-09  -1.2300550e-04   4.8186804e-01   4.7727776e-01  -2.9017452e+05
   2.8782928e-09  -1.2223388e-04   4.8185381e-01   4.7729231e-01  -2.8835428e+05
   2.8809603e-09  -1.2146710e-04   4.8183966e-01   4.7730678e-01  -2.8654546e+05
   2.8836279e-09  -1.2070513e-04   4.8182560e-01   4.7732115e-01  -2.8474799e+05
   2.8862954e-09  -1.1994793e-04   4.8181163e-01   4.7733544e-01  -2.8296179e+05
   2.8889630e-09  -1.1919549e-04   4.8179775e-01   4.7734963e-01  -2.8118679e+05
   2.8916305e-09  -1.1844777e-04   4.8178395e-01   4.7736374e-01  -2.7942293e+05
   2.8942981e-09  -1.1770474e-04   4.8177024e-01   4.7737776e-01  -2.7767013e+05
   2.8969657e-09  -1.1696637e-04   4.8175662e-01   4.7739169e-01  -2.7592833e+05
   2.8996332e-09  -1.1623263e-04   4.8174309e-01   4.7740553e-01  -2.7419745e+05
   2.9023008e-09  -1.1550349e-04   4.8172964e-01   4.7741929e-01  -2.7247743e+05
   2.9049683e-09  -1.1477893e-04   4.8171627e-01   4.7743296e-01  -2.7076820e+05
   2.9076359e-09  -1.1405891e-04   4.8170299e-01   4.7744655e-01  -2.6906969e+05
   2.9103034e-09  -1.1334341e-04   4.8168979e-01   4.7746005e-01  -2.6738183e+05
   2.9129710e-09  -1.1263240e-04   4.8167668e-01   4.7747347e-01  -2.6570457e+05
   2.9156385e-09  -1.1192584e-04   4.8166364e-01   4.7748680e-01  -2.6403782e+05
   2.9183061e-09  -1.1122372e-04   4.8165069e-01   4.7750005e-01  -2.6238153e+05
   2.9209737e-09  -1.1052601e-04   4.8163782e-01   4.7751322e-01  -2.6073562e+05
   2.9236412e-09  -1.0983267e-04   4.8162504e-01   4.7752630e-01  -2.5910004e+05
   2.9263088e-09  -1.0914368e-04   4.8161233e-01   4.7753930e-01  -2.5747472e+05
   2.9289763e-09  -1.0845901e-04   4.8159970e-01   4.7755222e-01  -2.5585960e+05
   2.9316439e-09  -1.0777864e-04   4.8158715e-01   4.7756507e-01  -2.5425460e+05
   2.9343114e-09  -1.0710253e-04   4.8157469e-01   4.7757783e-01  -2.5265968e+05
   2.9369790e-09  -1.0643067e-04   4.8156230e-01   4.7759051e-01  -2.5107476e+05
   2.9396465e-09  -1.0576302e-04   4.8154998e-01   4.7760311e-01  -2.4949978e+05
   2.9423141e-09  -1.0509956e-04   4.8153775e-01   4.7761563e-01  -2.4793467e+05
   2.9449817e-09  -1.0444026e-04   4.8152559e-01   4.7762808e-01  -2.4637939e+05
   2.9476492e-09  -1.0378509e-04   4.8151351e-01   4.7764044e-01  -2.4483386e+05
   2.9503168e-09  -1.0313404e-04   4.8150150e-01   4.7765273e-01  -2.4329803e+05
   2.9529843e-09  -1.0248707e-04   4.8148957e-01   4.7766495e-01  -2.4177183e+05
   2.9556519e-09  -1.0184416e-04   4.8147772e-01   4.7767708e-01  -2.4025520e+05
   2.9583194e-09  -1.0120528e-04   4.8146594e-01   4.7768914e-01  -2.3874809e+05
   2.9609870e-09  -1.0057041e-04   4.8145423e-01   4.7770113e-01  -2.3725043e+05
   2.9636546e-09  -9.9939521e-05   4.8144260e-01   4.7771304e-01  -2.3576217e+05
   2.9663221e-09  -9.9312590e-05   4.8143104e-01   4.7772487e-01  -2.3428324e+05
   2.9689897e-09  -9.8689592e-05   4.8141956e-01   4.7773663e-01  -2.3281359e+05
   2.9716572e-09  -9.8070501e-05   4.8140814e-01   4.7774832e-01  -2.3135315e+05
   2.9743248e-09  -9.7455295e-05   4.8139680e-01   4.7775994e-01  -2.2990188e+05
   2.9769923e-09  -9.6843947e-05   4.8138553e-01   4.7777148e-01  -2.2845971e+05
   2.9796599e-09  -9.6236435e-05   4.8137433e-01   4.7778295e-01  -2.2702659e+05
   2.9823274e-09  -9.5632733e-05   4.8136320e-01   4.7779435e-01  -2.2560245e+05
   2.9849950e-09  -9.5032819e-05   4.8135214e-01   4.7780568e-01  -2.2418725e+05
   2.9876626e-09  -9.4436668e-05   4.8134115e-01   4.7781693e-01  -2.2278093e+05
   2.9903301e-09  -9.3844256e-05   4.8133023e-01   4.7782812e-01  -2.2138343e+05
   2.9929977e-09  -9.3255560e-05   4.8131938e-01   4.7783924e-01  -2.1999469e+05
   2.9956652e-09  -9.2670558e-05   4.8130860e-01   4.7785028e-01  -2.1861467e+05
   2.9983328e-09  -9.2089225e-05   4.8129788e-01   4.7786126e-01  -2.1724330e+05
   3.0010003e-09  -9.1511539e-05   4.8128723e-01   4.7787217e-01  -2.1588053e+05
   3.0036679e-09  -9.0937476e-05   4.8127665e-01   4.7788301e-01  -2.1452631e+05
   3.0063354e-09  -9.0367015e-05   4.8126614e-01   4.7789378e-01  -2.1318059e+05
   3.0090030e-09  -8.9800132e-05   4.8125569e-01   4.7790449e-01  -2.1184331e+05
   3.0116706e-09  -8.9236806e-05   4.8124531e-01   4.7791513e-01  -2.1051442e+05
   3.0143381e-09  -8.8677013e-05   4.8123499e-01   4.7792570e-01  -2.0919386e+05
   3.0170057e-09  -8.8120731e-05   4.8122474e-01   4.7793620e-01  -2.0788158e+05
   3.0196732e-09  -8.7567939e-05   4.8121455e-01   4.7794665e-01  -2.0657754e+05
   3.0223408e-09  -8.7018615e-05   4.8120442e-01   4.7795702e-01  -2.0528168e+05
   3.0250083e-09  -8.6472737e-05   4.8119436e-01   4.7796733e-01  -2.0399394e+05
   3.0276759e-09  -8.5930283e-05   4.8118437e-01   4.7797758e-01  -2.0271429e+05
   3.0303434e-09  -8.5391231e-05   4.8117443e-01   4.7798776e-01  -2.0144266e+05
   3.0330110e-09  -8.4855562e-05   4.8116456e-01   4.7799788e-01  -2.0017901e+05
   3.0356786e-09  -8.4323252e-05   4.8115475e-01   4.7800793e-01  -1.9892328e+05
   3.0383461e-09  -8.3794282e-05   4.8114500e-01   4.7801792e-01  -1.9767543e+05
   3.0410137e-09  -8.3268630e-05   4.8113532e-01   4.7802785e-01  -1.9643541e+05
   3.0436812e-09  -8.2746275e-05   4.8112569e-01   4.7803772e-01  -1.9520317e+05
   3.0463488e-09  -8.2227197e-05   4.8111613e-01   4.7804752e-01  -1.9397865e+05
   3.0490163e-09  -8.1711375e-05   4.8110662e-01   4.7805727e-01  -1.9276182e+05
   3.0516839e-09  -8.1198789e-05   4.8109718e-01   4.7806695e-01  -1.9155262e+05
   3.0543515e-09  -8.0689419e-05   4.8108779e-01   4.7807657e-01  -1.9035101e+05
   3.0570190e-09  -8.0183244e-05   4.8107846e-01   4.7808614e-01  -1.8915693e+05
   3.0596866e-09  -7.9680244e-05   4.8106920e-01   4.7809564e-01  -1.8797034e+05
   3.0623541e-09  -7.9180399e-05   4.8105999e-01   4.7810508e-01  -1.8679120e+05
   3.0650217e-09  -7.8683690e-05   4.8105083e-01   4.7811446e-01  -1.8561945e+05
   3.0676892e-09  -7.8190097e-05   4.8104174e-01   4.7812379e-01  -1.8445505e+05
   3.0703568e-09  -7.7699600e-05   4.8103270e-01   4.7813306e-01  -1.8329796e+05
   3.0730243e-09  -7.7212180e-05   4.8102372e-01   4.7814227e-01  -1.8214812e+05
   3.0756919e-09  -7.6727817e-05   4.8101480e-01   4.7815142e-01  -1.8100550e+05
   3.0783595e-09  -7.6246493e-05   4.8100593e-01   4.7816051e-01  -1.7987005e+05
   3.0810270e-09  -7.5768188e-05   4.8099712e-01   4.7816955e-01  -1.7874172e+05
   3.0836946e-09  -7.5292884e-05   4.8098836e-01   4.7817853e-01  -1.7762046e+05
   3.0863621e-09  -7.4820562e-05   4.8097966e-01   4.7818745e-01  -1.7650624e+05
   3.0890297e-09  -7.4351202e-05   4.8097102e-01   4.7819632e-01  -1.7539901e+05
   3.0916972e-09  -7.3884786e-05   4.8096242e-01   4.7820513e-01  -1.7429872e+05
   3.0943648e-09  -7.3421297e-05   4.8095389e-01   4.7821389e-01  -1.7320534e+05
   3.0970323e-09  -7.2960715e-05   4.8094540e-01   4.7822260e-01  -1.7211881e+05
   3.0996999e-09  -7.2503022e-05   4.8093697e-01   4.7823124e-01  -1.7103910e+05
   3.1023675e-09  -7.2048200e-05   4.8092859e-01   4.7823984e-01  -1.6996616e+05
   3.1050350e-09  -7.1596231e-05   4.8092027e-01   4.7824838e-01  -1.6889996e+05
   3.1077026e-09  -7.1147098e-05   4.8091199e-01   4.7825687e-01  -1.6784044e+05
   3.1103701e-09  -7.0700782e-05   4.8090377e-01   4.7826530e-01  -1.6678757e+05
   3.1130377e-09  -7.0257266e-05   4.8089560e-01   4.7827368e-01  -1.6574130e+05
   3.1157052e-09  -6.9816532e-05   4.8088749e-01   4.7828201e-01  -1.6470159e+05
   3.1183728e-09  -6.9378562e-05   4.8087942e-01   4.7829029e-01  -1.6366841e+05
   3.1210403e-09  -6.8943340e-05   4.8087140e-01   4.7829851e-01  -1.6264171e+05
   3.1237079e-09  -6.8510849e-05   4.8086344e-01   4.7830669e-01  -1.6162145e+05
   3.1263755e-09  -6.8081070e-05   4.8085552e-01   4.7831481e-01  -1.6060758e+05
   3.1290430e-09  -6.7653987e-05   4.8084765e-01   4.7832288e-01  -1.5960008e+05
   3.1317106e-09  -6.7229584e-05   4.8083984e-01   4.7833090e-01  -1.5859890e+05
   3.1343781e-09  -6.6807843e-05   4.8083207e-01   4.7833887e-01  -1.5760400e+05
   3.1370457e-09  -6.6388747e-05   4.8082435e-01   4.7834679e-01  -1.5661534e+05
   3.1397132e-09  -6.5972280e-05   4.8081668e-01   4.7835467e-01  -1.5563288e+05
   3.1423808e-09  -6.5558426e-05   4.8080906e-01   4.7836249e-01  -1.5465658e+05
   3.1450483e-09  -6.5147168e-05   4.8080149e-01   4.7837026e-01  -1.5368641e+05
   3.1477159e-09  -6.4738490e-05   4.8079396e-01   4.7837799e-01  -1.5272232e+05
   3.1503835e-09  -6.4332376e-05   4.8078648e-01   4.7838566e-01  -1.5176428e+05
   3.1530510e-09  -6.3928809e-05   4.8077905e-01   4.7839329e-01  -1.5081225e+05
   3.1557186e-09  -6.3527773e-05   4.8077166e-01   4.7840087e-01  -1.4986620e+05
   3.1583861e-09  -6.3129254e-05   4.8076432e-01   4.7840840e-01  -1.4892607e+05
   3.1610537e-09  -6.2733234e-05   4.8075703e-01   4.7841589e-01  -1.4799185e+05
   3.1637212e-09  -6.2339699e-05   4.8074978e-01   4.7842333e-01  -1.4706348e+05
   3.1663888e-09  -6.1948632e-05   4.8074258e-01   4.7843072e-01  -1.4614094e+05
   3.1690564e-09  -6.1560019e-05   4.8073543e-01   4.7843807e-01  -1.4522419e+05
   3.1717239e-09  -6.1173843e-05   4.8072832e-01   4.7844537e-01  -1.4431318e+05
   3.1743915e-09  -6.0790090e-05   4.8072125e-01   4.7845262e-01  -1.4340789e+05
   3.1770590e-09  -6.0408744e-05   4.8071423e-01   4.7845983e-01  -1.4250828e+05
   3.1797266e-09  -6.0029790e-05   4.8070725e-01   4.7846699e-01  -1.4161432e+05
   3.1823941e-09  -5.9653214e-05   4.8070032e-01   4.7847411e-01  -1.4072596e+05
   3.1850617e-09  -5.9279000e-05   4.8069343e-01   4.7848119e-01  -1.3984317e+05
   3.1877292e-09  -5.8907133e-05   4.8068658e-01   4.7848822e-01  -1.3896592e+05
   3.1903968e-09  -5.8537599e-05   4.8067977e-01   4.7849520e-01  -1.3809418e+05
   3.1930644e-09  -5.8170383e-05   4.8067301e-01   4.7850215e-01  -1.3722790e+05
   3.1957319e-09  -5.7805471e-05   4.8066629e-01   4.7850905e-01  -1.3636705e+05
   3.1983995e-09  -5.7442848e-05   4.8065962e-01   4.7851590e-01  -1.3551161e+05
   3.2010670e-09  -5.7082499e-05   4.8065298e-01   4.7852271e-01  -1.3466153e+05
   3.2037346e-09  -5.6724411e-05   4.8064639e-01   4.7852948e-01  -1.3381679e+05
   3.2064021e-09  -5.6368570e-05   4.8063984e-01   4.7853621e-01  -1.3297734e+05
   3.2090697e-09  -5.6014960e-05   4.8063333e-01   4.7854290e-01  -1.3214316e+05
   3.2117372e-09  -5.5663569e-05   4.8062686e-01   4.7854954e-01  -1.3131421e+05
   3.2144048e-09  -5.5314383e-05   4.8062043e-01   4.7855614e-01  -1.3049046e+05
   3.2170724e-09  -5.4967386e-05   4.8061404e-01   4.7856271e-01  -1.2967188e+05
   3.2197399e-09  -5.4622567e-05   4.8060769e-01   4.7856923e-01  -1.2885844e+05
   3.2224075e-09  -5.4279910e-05   4.8060139e-01   4.7857570e-01  -1.2805009e+05
   3.2250750e-09  -5.3939403e-05   4.8059512e-01   4.7858214e-01  -1.2724682e+05
   3.2277426e-09  -5.3601032e-05   4.8058889e-01   4.7858854e-01  -1.2644859e+05
   3.2304101e-09  -5.3264784e-05   4.8058270e-01   4.7859490e-01  -1.2565536e+05
   3.2330777e-09  -5.2930645e-05   4.8057655e-01   4.7860122e-01  -1.2486711e+05
   3.2357452e-09  -5.2598602e-05   4.8057043e-01   4.7860750e-01  -1.2408381e+05
   3.2384128e-09  -5.2268642e-05   4.8056436e-01   4.7861374e-01  -1.2330542e+05
   3.2410804e-09  -5.1940752e-05   4.8055832e-01   4.7861994e-01  -1.2253191e+05
   3.2437479e-09  -5.1614919e-05   4.8055233e-01   4.7862610e-01  -1.2176325e+05
   3.2464155e-09  -5.1291129e-05   4.8054637e-01   4.7863222e-01  -1.2099941e+05
   3.2490830e-09  -5.0969371e-05   4.8054044e-01   4.7863830e-01  -1.2024037e+05
   3.2517506e-09  -5.0649632e-05   4.8053456e-01   4.7864435e-01  -1.1948609e+05
   3.2544181e-09  -5.0331898e-05   4.8052871e-01   4.7865036e-01  -1.1873654e+05
   3.2570857e-09  -5.0016157e-05   4.8052290e-01   4.7865633e-01  -1.1799169e+05
   3.2597533e-09  -4.9702397e-05   4.8051712e-01   4.7866226e-01  -1.1725151e+05
   3.2624208e-09  -4.9390605e-05   4.8051138e-01   4.7866816e-01  -1.1651598e+05
   3.2650884e-09  -4.9080769e-05   4.8050568e-01   4.7867402e-01  -1.1578506e+05
   3.2677559e-09  -4.8772877e-05   4.8050001e-01   4.7867984e-01  -1.1505873e+05
   3.2704235e-09  -4.8466916e-05   4.8049438e-01   4.7868563e-01  -1.1433695e+05
   3.2730910e-09  -4.8162875e-05   4.8048878e-01   4.7869138e-01  -1.1361970e+05
   3.2757586e-09  -4.7860741e-05   4.8048322e-01   4.7869709e-01  -1.1290695e+05
   3.2784261e-09  -4.7560502e-05   4.8047770e-01   4.7870277e-01  -1.1219867e+05
   3.2810937e-09  -4.7262146e-05   4.8047221e-01   4.7870841e-01  -1.1149483e+05
   3.2837613e-09  -4.6965662e-05   4.8046675e-01   4.7871402e-01  -1.1079541e+05
   3.2864288e-09  -4.6671038e-05   4.8046133e-01   4.7871959e-01  -1.1010037e+05
   3.2890964e-09  -4.6378263e-05   4.8045594e-01   4.7872513e-01  -1.0940970e+05
   3.2917639e-09  -4.6087324e-05   4.8045058e-01   4.7873063e-01  -1.0872336e+05
   3.2944315e-09  -4.5798210e-05   4.8044526e-01   4.7873610e-01  -1.0804132e+05
   3.2970990e-09  -4.5510909e-05   4.8043997e-01   4.7874154e-01  -1.0736356e+05
   3.2997666e-09  -4.5225411e-05   4.8043472e-01   4.7874694e-01  -1.0669006e+05
   3.3024341e-09  -4.4941704e-05   4.8042950e-01   4.7875230e-01  -1.0602078e+05
   3.3051017e-09  -4.4659777e-05   4.8042431e-01   4.7875763e-01  -1.0535569e+05
   3.3077693e-09  -4.4379618e-05   4.8041915e-01   4.7876293e-01  -1.0469478e+05
   3.3104368e-09  -4.4101216e-05   4.8041403e-01   4.7876820e-01  -1.0403802e+05
   3.3131044e-09  -4.3824561e-05   4.8040894e-01   4.7877343e-01  -1.0338537e+05
   3.3157719e-09  -4.3549642e-05   4.8040388e-01   4.7877863e-01  -1.0273682e+05
   3.3184395e-09  -4.3276447e-05   4.8039885e-01   4.7878380e-01  -1.0209234e+05
   3.3211070e-09  -4.3004966e-05   4.8039386e-01   4.7878893e-01  -1.0145190e+05
   3.3237746e-09  -4.2735188e-05   4.8038889e-01   4.7879404e-01  -1.0081548e+05
   3.3264421e-09  -4.2467102e-05   4.8038396e-01   4.7879911e-01  -1.0018305e+05
   3.3291097e-09  -4.2200698e-05   4.8037906e-01   4.7880415e-01  -9.9554582e+04
   3.3317773e-09  -4.1935966e-05   4.8037418e-01   4.7880916e-01  -9.8930062e+04
   3.3344448e-09  -4.1672894e-05   4.8036934e-01   4.7881413e-01  -9.8309459e+04
   3.3371124e-09  -4.1411472e-05   4.8036453e-01   4.7881908e-01  -9.7692749e+04
   3.3397799e-09  -4.1151690e-05   4.8035975e-01   4.7882399e-01  -9.7079908e+04
   3.3424475e-09  -4.0893538e-05   4.8035500e-01   4.7882888e-01  -9.6470911e+04
   3.3451150e-09  -4.0637005e-05   4.8035028e-01   4.7883373e-01  -9.5865734e+04
   3.3477826e-09  -4.0382082e-05   4.8034559e-01   4.7883855e-01  -9.5264354e+04
   3.3504502e-09  -4.0128757e-05   4.8034093e-01   4.7884334e-01  -9.4666746e+04
   3.3531177e-09  -3.9877022e-05   4.8033630e-01   4.7884811e-01  -9.4072887e+04
   3.3557853e-09  -3.9626866e-05   4.8033169e-01   4.7885284e-01  -9.3482753e+04
   3.3584528e-09  -3.9378279e-05   4.8032712e-01   4.7885754e-01  -9.2896321e+04
   3.3611204e-09  -3.9131252e-05   4.8032257e-01   4.7886221e-01  -9.2313568e+04
   3.3637879e-09  -3.8885774e-05   4.8031806e-01   4.7886686e-01  -9.1734471e+04
   3.3664555e-09  -3.8641837e-05   4.8031357e-01   4.7887147e-01  -9.1159006e+04
   3.3691230e-09  -3.8399429e-05   4.8030911e-01   4.7887606e-01  -9.0587151e+04
   3.3717906e-09  -3.8158542e-05   4.8030467e-01   4.7888062e-01  -9.0018883e+04
   3.3744582e-09  -3.7919167e-05   4.8030027e-01   4.7888514e-01  -8.9454180e+04
   3.3771257e-09  -3.7681292e-05   4.8029589e-01   4.7888964e-01  -8.8893020e+04
   3.3797933e-09  -3.7444911e-05   4.8029154e-01   4.7889412e-01  -8.8335380e+04
   3.3824608e-09  -3.7210012e-05   4.8028722e-01   4.7889856e-01  -8.7781238e+04
   3.3851284e-09  -3.6976586e-05   4.8028293e-01   4.7890298e-01  -8.7230572e+04
   3.3877959e-09  -3.6744625e-05   4.8027866e-01   4.7890737e-01  -8.6683360e+04
   3.3904635e-09  -3.6514119e-05   4.8027442e-01   4.7891173e-01  -8.6139581e+04
   3.3931310e-09  -3.6285059e-05   4.8027020e-01   4.7891606e-01  -8.5599213e+04
   3.3957986e-09  -3.6057436e-05   4.8026602e-01   4.7892037e-01  -8.5062235e+04
   3.3984662e-09  -3.5831241e-05   4.8026185e-01   4.7892465e-01  -8.4528625e+04
   3.4011337e-09  -3.5606464e-05   4.8025772e-01   4.7892890e-01  -8.3998363e+04
   3.4038013e-09  -3.5383098e-05   4.8025361e-01   4.7893313e-01  -8.3471427e+04
   3.4064688e-09  -3.5161133e-05   4.8024953e-01   4.7893733e-01  -8.2947797e+04
   3.4091364e-09  -3.4940561e-05   4.8024547e-01   4.7894150e-01  -8.2427451e+04
   3.4118039e-09  -3.4721372e-05   4.8024143e-01   4.7894565e-01  -8.1910370e+04
   3.4144715e-09  -3.4503558e-05   4.8023743e-01   4.7894977e-01  -8.1396532e+04
   3.4171390e-09  -3.4287110e-05   4.8023344e-01   4.7895386e-01  -8.0885918e+04
   3.4198066e-09  -3.4072021e-05   4.8022949e-01   4.7895793e-01  -8.0378506e+04
   3.4224742e-09  -3.3858280e-05   4.8022556e-01   4.7896198e-01  -7.9874278e+04
   3.4251417e-09  -3.3645881e-05   4.8022165e-01   4.7896600e-01  -7.9373213e+04
   3.4278093e-09  -3.3434814e-05   4.8021776e-01   4.7896999e-01  -7.8875291e+04
   3.4304768e-09  -3.3225071e-05   4.8021391e-01   4.7897396e-01  -7.8380493e+04
   3.4331444e-09  -3.3016643e-05   4.8021007e-01   4.7897790e-01  -7.7888798e+04
   3.4358119e-09  -3.2809523e-05   4.8020626e-01   4.7898182e-01  -7.7400188e+04
   3.4384795e-09  -3.2603703e-05   4.8020247e-01   4.7898572e-01  -7.6914643e+04
   3.4411470e-09  -3.2399174e-05   4.8019871e-01   4.7898959e-01  -7.6432143e+04
   3.4438146e-09  -3.2195927e-05   4.8019497e-01   4.7899343e-01  -7.5952671e+04
   3.4464822e-09  -3.1993956e-05   4.8019126e-01   4.7899725e-01  -7.5476206e+04
   3.4491497e-09  -3.1793251e-05   4.8018757e-01   4.7900105e-01  -7.5002731e+04
   3.4518173e-09  -3.1593806e-05   4.8018390e-01   4.7900483e-01  -7.4532225e+04
   3.4544848e-09  -3.1395612e-05   4.8018025e-01   4.7900858e-01  -7.4064671e+04
   3.4571524e-09  -3.1198661e-05   4.8017663e-01   4.7901230e-01  -7.3600050e+04
   3.4598199e-09  -3.1002946e-05   4.8017303e-01   4.7901601e-01  -7.3138343e+04
   3.4624875e-09  -3.0808458e-05   4.8016945e-01   4.7901969e-01  -7.2679533e+04
   3.4651551e-09  -3.0615191e-05   4.8016589e-01   4.7902334e-01  -7.2223601e+04
   3.4678226e-09  -3.0423136e-05   4.8016236e-01   4.7902698e-01  -7.1770529e+04
   3.4704902e-09  -3.0232285e-05   4.8015885e-01   4.7903059e-01  -7.1320299e+04
   3.4731577e-09  -3.0042632e-05   4.8015536e-01   4.7903418e-01  -7.0872894e+04
   3.4758253e-09  -2.9854169e-05   4.8015190e-01   4.7903775e-01  -7.0428295e+04
   3.4784928e-09  -2.9666888e-05   4.8014845e-01   4.7904129e-01  -6.9986485e+04
   3.4811604e-09  -2.9480782e-05   4.8014503e-01   4.7904481e-01  -6.9547447e+04
   3.4838279e-09  -2.9295843e-05   4.8014162e-01   4.7904831e-01  -6.9111163e+04
   3.4864955e-09  -2.9112064e-05   4.8013824e-01   4.7905179e-01  -6.8677616e+04
   3.4891631e-09  -2.8929438e-05   4.8013489e-01   4.7905525e-01  -6.8246788e+04
   3.4918306e-09  -2.8747958e-05   4.8013155e-01   4.7905868e-01  -6.7818663e+04
   3.4944982e-09  -2.8567617e-05   4.8012823e-01   4.7906209e-01  -6.7393224e+04
   3.4971657e-09  -2.8388406e-05   4.8012493e-01   4.7906549e-01  -6.6970453e+04
   3.4998333e-09  -2.8210320e-05   4.8012166e-01   4.7906886e-01  -6.6550335e+04
   3.5025008e-09  -2.8033351e-05   4.8011840e-01   4.7907220e-01  -6.6132852e+04
   3.5051684e-09  -2.7857492e-05   4.8011517e-01   4.7907553e-01  -6.5717988e+04
   3.5078359e-09  -2.7682737e-05   4.8011195e-01   4.7907884e-01  -6.5305726e+04
   3.5105035e-09  -2.7509077e-05   4.8010876e-01   4.7908213e-01  -6.4896051e+04
   3.5131711e-09  -2.7336507e-05   4.8010558e-01   4.7908539e-01  -6.4488945e+04
   3.5158386e-09  -2.7165020e-05   4.8010243e-01   4.7908864e-01  -6.4084394e+04
   3.5185062e-09  -2.6994609e-05   4.8009930e-01   4.7909186e-01  -6.3682380e+04
   3.5211737e-09  -2.6825266e-05   4.8009618e-01   4.7909507e-01  -6.3282888e+04
   3.5238413e-09  -2.6656986e-05   4.8009309e-01   4.7909825e-01  -6.2885902e+04
   3.5265088e-09  -2.6489761e-05   4.8009001e-01   4.7910142e-01  -6.2491407e+04
   3.5291764e-09  -2.6323585e-05   4.8008695e-01   4.7910456e-01  -6.2099386e+04
   3.5318439e-09  -2.6158452e-05   4.8008392e-01   4.7910769e-01  -6.1709824e+04
   3.5345115e-09  -2.5994355e-05   4.8008090e-01   4.7911079e-01  -6.1322706e+04
   3.5371791e-09  -2.5831287e-05   4.8007790e-01   4.7911388e-01  -6.0938017e+04
   3.5398466e-09  -2.5669242e-05   4.8007492e-01   4.7911695e-01  -6.0555741e+04
   3.5425142e-09  -2.5508214e-05   4.8007196e-01   4.7912000e-01  -6.0175862e+04
   3.5451817e-09  -2.5348196e-05   4.8006901e-01   4.7912302e-01  -5.9798367e+04
   3.5478493e-09  -2.5189182e-05   4.8006609e-01   4.7912603e-01  -5.9423240e+04
   3.5505168e-09  -2.5031165e-05   4.8006318e-01   4.7912902e-01  -5.9050466e+04
   3.5531844e-09  -2.4874139e-05   4.8006030e-01   4.7913200e-01  -5.8680031e+04
   3.5558520e-09  -2.4718099e-05   4.8005743e-01   4.7913495e-01  -5.8311919e+04
   3.5585195e-09  -2.4563037e-05   4.8005457e-01   4.7913789e-01  -5.7946117e+04
   3.5611871e-09  -2.4408948e-05   4.8005174e-01   4.7914080e-01  -5.7582609e+04
   3.5638546e-09  -2.4255826e-05   4.8004892e-01   4.7914370e-01  -5.7221382e+04
   3.5665222e-09  -2.4103664e-05   4.8004613e-01   4.7914658e-01  -5.6862421e+04
   3.5691897e-09  -2.3952457e-05   4.8004334e-01   4.7914944e-01  -5.6505711e+04
   3.5718573e-09  -2.3802198e-05   4.8004058e-01   4.7915229e-01  -5.6151239e+04
   3.5745248e-09  -2.3652882e-05   4.8003783e-01   4.7915511e-01  -5.5798991e+04
   3.5771924e-09  -2.3504503e-05   4.8003511e-01   4.7915792e-01  -5.5448953e+04
   3.5798600e-09  -2.3357055e-05   4.8003239e-01   4.7916071e-01  -5.5101110e+04
   3.5825275e-09  -2.3210531e-05   4.8002970e-01   4.7916349e-01  -5.4755449e+04
   3.5851951e-09  -2.3064927e-05   4.8002702e-01   4.7916624e-01  -5.4411957e+04
   3.5878626e-09  -2.2920236e-05   4.8002436e-01   4.7916898e-01  -5.4070620e+04
   3.5905302e-09  -2.2776452e-05   4.8002172e-01   4.7917170e-01  -5.3731424e+04
   3.5931977e-09  -2.2633571e-05   4.8001909e-01   4.7917441e-01  -5.3394355e+04
   3.5958653e-09  -2.2491586e-05   4.8001648e-01   4.7917709e-01  -5.3059402e+04
   3.5985328e-09  -2.2350492e-05   4.8001388e-01   4.7917976e-01  -5.2726549e+04
   3.6012004e-09  -2.2210283e-05   4.8001130e-01   4.7918242e-01  -5.2395784e+04
   3.6038680e-09  -2.2070953e-05   4.8000874e-01   4.7918506e-01  -5.2067095e+04
   3.6065355e-09  -2.1932498e-05   4.8000620e-01   4.7918768e-01  -5.1740467e+04
   3.6092031e-09  -2.1794911e-05   4.8000367e-01   4.7919028e-01  -5.1415888e+04
   3.6118706e-09  -2.1658187e-05   4.8000115e-01   4.7919287e-01  -5.1093346e+04
   3.6145382e-09  -2.1522320e-05   4.7999865e-01   4.7919544e-01  -5.0772826e+04
   3.6172057e-09  -2.1387307e-05   4.7999617e-01   4.7919800e-01  -5.0454318e+04
   3.6198733e-09  -2.1253140e-05   4.7999370e-01   4.7920054e-01  -5.0137807e+04
   3.6225408e-09  -2.1119814e-05   4.7999125e-01   4.7920306e-01  -4.9823282e+04
   3.6252084e-09  -2.0987325e-05   4.7998881e-01   4.7920557e-01  -4.9510730e+04
   3.6278760e-09  -2.0855668e-05   4.7998639e-01   4.7920806e-01  -4.9200139e+04
   3.6305435e-09  -2.0724836e-05   4.7998399e-01   4.7921054e-01  -4.8891496e+04
   3.6332111e-09  -2.0594825e-05   4.7998160e-01   4.7921300e-01  -4.8584789e+04
   3.6358786e-09  -2.0465629e-05   4.7997922e-01   4.7921544e-01  -4.8280007e+04
   3.6385462e-09  -2.0337244e-05   4.7997686e-01   4.7921788e-01  -4.7977136e+04
   3.6412137e-09  -2.0209664e-05   4.7997451e-01   4.7922029e-01  -4.7676165e+04
   3.6438813e-09  -2.0082885e-05   4.7997218e-01   4.7922269e-01  -4.7377082e+04
   3.6465488e-09  -1.9956901e-05   4.7996987e-01   4.7922508e-01  -4.7079876e+04
   3.6492164e-09  -1.9831707e-05   4.7996756e-01   4.7922745e-01  -4.6784534e+04
   3.6518840e-09  -1.9707299e-05   4.7996528e-01   4.7922980e-01  -4.6491044e+04
   3.6545515e-09  -1.9583671e-05   4.7996300e-01   4.7923214e-01  -4.6199396e+04
   3.6572191e-09  -1.9460819e-05   4.7996074e-01   4.7923447e-01  -4.5909577e+04
   3.6598866e-09  -1.9338737e-05   4.7995850e-01   4.7923678e-01  -4.5621577e+04
   3.6625542e-09  -1.9217421e-05   4.7995627e-01   4.7923907e-01  -4.5335383e+04
   3.6652217e-09  -1.9096866e-05   4.7995405e-01   4.7924136e-01  -4.5050984e+04
   3.6678893e-09  -1.8977068e-05   4.7995185e-01   4.7924362e-01  -4.4768369e+04
   3.6705569e-09  -1.8858021e-05   4.7994966e-01   4.7924588e-01  -4.4487528e+04
   3.6732244e-09  -1.8739721e-05   4.7994748e-01   4.7924812e-01  -4.4208448e+04
   3.6758920e-09  -1.8622162e-05   4.7994532e-01   4.7925034e-01  -4.3931119e+04
   3.6785595e-09  -1.8505342e-05   4.7994317e-01   4.7925255e-01  -4.3655529e+04
   3.6812271e-09  -1.8389254e-05   4.7994104e-01   4.7925475e-01  -4.3381669e+04
   3.6838946e-09  -1.8273895e-05   4.7993892e-01   4.7925694e-01  -4.3109526e+04
   3.6865622e-09  -1.8159259e-05   4.7993681e-01   4.7925911e-01  -4.2839090e+04
   3.6892297e-09  -1.8045342e-05   4.7993471e-01   4.7926126e-01  -4.2570351e+04
   3.6918973e-09  -1.7932140e-05   4.7993263e-01   4.7926341e-01  -4.2303298e+04
   3.6945649e-09  -1.7819648e-05   4.7993056e-01   4.7926554e-01  -4.2037920e+04
   3.6972324e-09  -1.7707862e-05   4.7992851e-01   4.7926765e-01  -4.1774207e+04
   3.6999000e-09  -1.7596777e-05   4.7992647e-01   4.7926976e-01  -4.1512149e+04
   3.7025675e-09  -1.7486388e-05   4.7992444e-01   4.7927185e-01  -4.1251734e+04
   3.7052351e-09  -1.7376693e-05   4.7992242e-01   4.7927392e-01  -4.0992953e+04
   3.7079026e-09  -1.7267685e-05   4.7992042e-01   4.7927599e-01  -4.0735795e+04
   3.7105702e-09  -1.7159361e-05   4.7991842e-01   4.7927804e-01  -4.0480250e+04
   3.7132377e-09  -1.7051717e-05   4.7991644e-01   4.7928007e-01  -4.0226309e+04
   3.7159053e-09  -1.6944748e-05   4.7991448e-01   4.7928210e-01  -3.9973960e+04
   3.7185729e-09  -1.6838450e-05   4.7991252e-01   4.7928411e-01  -3.9723195e+04
   3.7212404e-09  -1.6732819e-05   4.7991058e-01   4.7928611e-01  -3.9474002e+04
   3.7239080e-09  -1.6627851e-05   4.7990865e-01   4.7928810e-01  -3.9226373e+04
   3.7265755e-09  -1.6523541e-05   4.7990673e-01   4.7929007e-01  -3.8980297e+04
   3.7292431e-09  -1.6419886e-05   4.7990483e-01   4.7929204e-01  -3.8735765e+04
   3.7319106e-09  -1.6316880e-05   4.7990293e-01   4.7929399e-01  -3.8492767e+04
   3.7345782e-09  -1.6214521e-05   4.7990105e-01   4.7929593e-01  -3.8251294e+04
   3.7372457e-09  -1.6112804e-05   4.7989918e-01   4.7929785e-01  -3.8011335e+04
   3.7399133e-09  -1.6011725e-05   4.7989732e-01   4.7929976e-01  -3.7772881e+04
   3.7425809e-09  -1.5911280e-05   4.7989548e-01   4.7930167e-01  -3.7535924e+04
   3.7452484e-09  -1.5811466e-05   4.7989364e-01   4.7930356e-01  -3.7300452e+04
   3.7479160e-09  -1.5712277e-05   4.7989182e-01   4.7930543e-01  -3.7066458e+04
   3.7505835e-09  -1.5613711e-05   4.7989000e-01   4.7930730e-01  -3.6833932e+04
   3.7532511e-09  -1.5515763e-05   4.7988820e-01   4.7930915e-01  -3.6602865e+04
   3.7559186e-09  -1.5418429e-05   4.7988641e-01   4.7931100e-01  -3.6373247e+04
   3.7585862e-09  -1.5321706e-05   4.7988464e-01   4.7931283e-01  -3.6145069e+04
   3.7612538e-09  -1.5225590e-05   4.7988287e-01   4.7931465e-01  -3.5918323e+04
   3.7639213e-09  -1.5130077e-05   4.7988111e-01   4.7931646e-01  -3.5692999e+04
   3.7665889e-09  -1.5035163e-05   4.7987937e-01   4.7931825e-01  -3.5469089e+04
   3.7692564e-09  -1.4940844e-05   4.7987763e-01   4.7932004e-01  -3.5246584e+04
   3.7719240e-09  -1.4847117e-05   4.7987591e-01   4.7932181e-01  -3.5025474e+04
   3.7745915e-09  -1.4753978e-05   4.7987420e-01   4.7932358e-01  -3.4805751e+04
   3.7772591e-09  -1.4661424e-05   4.7987250e-01   4.7932533e-01  -3.4587407e+04
   3.7799266e-09  -1.4569450e-05   4.7987080e-01   4.7932707e-01  -3.4370432e+04
   3.7825942e-09  -1.4478053e-05   4.7986912e-01   4.7932880e-01  -3.4154819e+04
   3.7852618e-09  -1.4387229e-05   4.7986745e-01   4.7933052e-01  -3.3940558e+04
   3.7879293e-09  -1.4296975e-05   4.7986580e-01   4.7933223e-01  -3.3727641e+04
   3.7905969e-09  -1.4207287e-05   4.7986415e-01   4.7933393e-01  -3.3516060e+04
   3.7932644e-09  -1.4118162e-05   4.7986251e-01   4.7933562e-01  -3.3305806e+04
   3.7959320e-09  -1.4029596e-05   4.7986088e-01   4.7933729e-01  -3.3096871e+04
   3.7985995e-09  -1.3941585e-05   4.7985926e-01   4.7933896e-01  -3.2889247e+04
   3.8012671e-09  -1.3854127e-05   4.7985765e-01   4.7934062e-01  -3.2682926e+04
   3.8039346e-09  -1.3767217e-05   4.7985606e-01   4.7934226e-01  -3.2477898e+04
   3.8066022e-09  -1.3680852e-05   4.7985447e-01   4.7934390e-01  -3.2274157e+04
   3.8092698e-09  -1.3595030e-05   4.7985289e-01   4.7934552e-01  -3.2071694e+04
   3.8119373e-09  -1.3509745e-05   4.7985132e-01   4.7934714e-01  -3.1870501e+04
   3.8146049e-09  -1.3424996e-05   4.7984976e-01   4.7934874e-01  -3.1670570e+04
   3.8172724e-09  -1.3340778e-05   4.7984822e-01   4.7935034e-01  -3.1471893e+04
   3.8199400e-09  -1.3257089e-05   4.7984668e-01   4.7935192e-01  -3.1274463e+04
   3.8226075e-09  -1.3173925e-05   4.7984515e-01   4.7935350e-01  -3.1078271e+04
   3.8252751e-09  -1.3091282e-05   4.7984363e-01   4.7935506e-01  -3.0883310e+04
   3.8279426e-09  -1.3009158e-05   4.7984212e-01   4.7935662e-01  -3.0689572e+04
   3.8306102e-09  -1.2927549e-05   4.7984062e-01   4.7935816e-01  -3.0497050e+04
   3.8332778e-09  -1.2846451e-05   4.7983913e-01   4.7935970e-01  -3.0305735e+04
   3.8359453e-09  -1.2765863e-05   4.7983765e-01   4.7936122e-01  -3.0115620e+04
   3.8386129e-09  -1.2685780e-05   4.7983617e-01   4.7936274e-01  -2.9926698e+04
   3.8412804e-09  -1.2606200e-05   4.7983471e-01   4.7936425e-01  -2.9738961e+04
   3.8439480e-09  -1.2527119e-05   4.7983326e-01   4.7936574e-01  -2.9552401e+04
   3.8466155e-09  -1.2448533e-05   4.7983181e-01   4.7936723e-01  -2.9367012e+04
   3.8492831e-09  -1.2370441e-05   4.7983038e-01   4.7936871e-01  -2.9182787e+04
   3.8519507e-09  -1.2292839e-05   4.7982895e-01   4.7937018e-01  -2.8999716e+04
   3.8546182e-09  -1.2215724e-05   4.7982753e-01   4.7937164e-01  -2.8817794e+04
   3.8572858e-09  -1.2139092e-05   4.7982612e-01   4.7937309e-01  -2.8637014e+04
   3.8599533e-09  -1.2062941e-05   4.7982472e-01   4.7937453e-01  -2.8457367e+04
   3.8626209e-09  -1.1987268e-05   4.7982333e-01   4.7937597e-01  -2.8278848e+04
   3.8652884e-09  -1.1912069e-05   4.7982195e-01   4.7937739e-01  -2.8101448e+04
   3.8679560e-09  -1.1837342e-05   4.7982058e-01   4.7937880e-01  -2.7925161e+04
   3.8706235e-09  -1.1763084e-05   4.7981921e-01   4.7938021e-01  -2.7749980e+04
   3.8732911e-09  -1.1689292e-05   4.7981785e-01   4.7938161e-01  -2.7575898e+04
   3.8759587e-09  -1.1615963e-05   4.7981651e-01   4.7938300e-01  -2.7402909e+04
   3.8786262e-09  -1.1543094e-05   4.7981517e-01   4.7938438e-01  -2.7231004e+04
   3.8812938e-09  -1.1470681e-05   4.7981383e-01   4.7938575e-01  -2.7060178e+04
   3.8839613e-09  -1.1398724e-05   4.7981251e-01   4.7938711e-01  -2.6890423e+04
   3.8866289e-09  -1.1327217e-05   4.7981120e-01   4.7938846e-01  -2.6721733e+04
   3.8892964e-09  -1.1256159e-05   4.7980989e-01   4.7938981e-01  -2.6554102e+04
   3.8919640e-09  -1.1185547e-05   4.7980859e-01   4.7939115e-01  -2.6387522e+04
   3.8946315e-09  -1.1115378e-05   4.7980730e-01   4.7939248e-01  -2.6221987e+04
   3.8972991e-09  -1.1045649e-05   4.7980602e-01   4.7939380e-01  -2.6057490e+04
   3.8999667e-09  -1.0976357e-05   4.7980475e-01   4.7939511e-01  -2.5894026e+04
