   0.0000000e+00  -1.1103526e-01   6.4347198e+00   1.1379645e-03  -5.2360926e+08
   6.6688896e-13  -1.1068637e-01   6.4352712e+00   1.1693821e-03  -5.2269408e+08
   1.3337779e-12  -1.1033809e-01   6.4358289e+00   1.2016113e-03  -5.2177895e+08
   2.0006669e-12  -1.0999043e-01   6.4363929e+00   1.2346713e-03  -5.2086389e+08
   2.6675559e-12  -1.0964337e-01   6.4369634e+00   1.2685818e-03  -5.1994888e+08
   3.3344448e-12  -1.0929693e-01   6.4375403e+00   1.3033632e-03  -5.1903392e+08
   4.0013338e-12  -1.0895109e-01   6.4381238e+00   1.3390359e-03  -5.1811903e+08
   4.6682227e-12  -1.0860586e-01   6.4387138e+00   1.3756211e-03  -5.1720419e+08
   5.3351117e-12  -1.0826125e-01   6.4393104e+00   1.4131402e-03  -5.1628942e+08
   6.0020007e-12  -1.0791724e-01   6.4399137e+00   1.4516153e-03  -5.1537470e+08
   6.6688896e-12  -1.0757385e-01   6.4405237e+00   1.4910686e-03  -5.1446003e+08
   7.3357786e-12  -1.0723106e-01   6.4411406e+00   1.5315231e-03  -5.1354543e+08
   8.0026676e-12  -1.0688888e-01   6.4417642e+00   1.5730022e-03  -5.1263089e+08
   8.6695565e-12  -1.0654732e-01   6.4423948e+00   1.6155298e-03  -5.1171640e+08
   9.3364455e-12  -1.0620636e-01   6.4430323e+00   1.6591301e-03  -5.1080197e+08
   1.0003334e-11  -1.0586601e-01   6.4436768e+00   1.7038282e-03  -5.0988760e+08
   1.0670223e-11  -1.0552628e-01   6.4443284e+00   1.7496493e-03  -5.0897329e+08
   1.1337112e-11  -1.0518715e-01   6.4449871e+00   1.7966194e-03  -5.0805904e+08
   1.2004001e-11  -1.0484863e-01   6.4456530e+00   1.8447650e-03  -5.0714484e+08
   1.2670890e-11  -1.0451072e-01   6.4463261e+00   1.8941130e-03  -5.0623071e+08
   1.3337779e-11  -1.0417343e-01   6.4470065e+00   1.9446910e-03  -5.0531663e+08
   1.4004668e-11  -1.0383674e-01   6.4476943e+00   1.9965271e-03  -5.0440261e+08
   1.4671557e-11  -1.0350066e-01   6.4483894e+00   2.0496501e-03  -5.0348865e+08
   1.5338446e-11  -1.0316519e-01   6.4490920e+00   2.1040891e-03  -5.0257475e+08
   1.6005335e-11  -1.0283033e-01   6.4498021e+00   2.1598741e-03  -5.0166091e+08
   1.6672224e-11  -1.0249608e-01   6.4505197e+00   2.2170355e-03  -5.0074713e+08
   1.7339113e-11  -1.0216244e-01   6.4512450e+00   2.2756045e-03  -4.9983340e+08
   1.8006002e-11  -1.0182940e-01   6.4519779e+00   2.3356127e-03  -4.9891974e+08
   1.8672891e-11  -1.0149698e-01   6.4527185e+00   2.3970926e-03  -4.9800613e+08
   1.9339780e-11  -1.0116517e-01   6.4534670e+00   2.4600771e-03  -4.9709258e+08
   2.0006669e-11  -1.0083396e-01   6.4542233e+00   2.5245998e-03  -4.9617909e+08
   2.0673558e-11  -1.0050337e-01   6.4549874e+00   2.5906952e-03  -4.9526565e+08
   2.1340447e-11  -1.0017338e-01   6.4557596e+00   2.6583983e-03  -4.9435228e+08
   2.2007336e-11  -9.9844005e-02   6.4565397e+00   2.7277446e-03  -4.9343896e+08
   2.2674225e-11  -9.9515237e-02   6.4573279e+00   2.7987708e-03  -4.9252571e+08
   2.3341114e-11  -9.9187079e-02   6.4581242e+00   2.8715138e-03  -4.9161251e+08
   2.4008003e-11  -9.8859529e-02   6.4589286e+00   2.9460115e-03  -4.9069936e+08
   2.4674892e-11  -9.8532588e-02   6.4597413e+00   3.0223026e-03  -4.8978628e+08
   2.5341781e-11  -9.8206256e-02   6.4605623e+00   3.1004264e-03  -4.8887325e+08
   2.6008670e-11  -9.7880532e-02   6.4613916e+00   3.1804230e-03  -4.8796029e+08
   2.6675559e-11  -9.7555418e-02   6.4622293e+00   3.2623332e-03  -4.8704738e+08
   2.7342447e-11  -9.7230912e-02   6.4630754e+00   3.3461988e-03  -4.8613452e+08
   2.8009336e-11  -9.6907016e-02   6.4639300e+00   3.4320622e-03  -4.8522173e+08
   2.8676225e-11  -9.6583728e-02   6.4647932e+00   3.5199668e-03  -4.8430899e+08
   2.9343114e-11  -9.6261048e-02   6.4656650e+00   3.6099565e-03  -4.8339631e+08
   3.0010003e-11  -9.5938977e-02   6.4665454e+00   3.7020765e-03  -4.8248369e+08
   3.0676892e-11  -9.5617515e-02   6.4674345e+00   3.7963724e-03  -4.8157112e+08
   3.1343781e-11  -9.5296661e-02   6.4683324e+00   3.8928910e-03  -4.8065861e+08
   3.2010670e-11  -9.4976416e-02   6.4692391e+00   3.9916798e-03  -4.7974616e+08
   3.2677559e-11  -9.4656780e-02   6.4701547e+00   4.0927873e-03  -4.7883376e+08
   3.3344448e-11  -9.4337751e-02   6.4710792e+00   4.1962629e-03  -4.7792142e+08
   3.4011337e-11  -9.4019332e-02   6.4720127e+00   4.3021567e-03  -4.7700913e+08
   3.4678226e-11  -9.3701520e-02   6.4729552e+00   4.4105200e-03  -4.7609691e+08
   3.5345115e-11  -9.3384317e-02   6.4739068e+00   4.5214050e-03  -4.7518473e+08
   3.6012004e-11  -9.3067722e-02   6.4748675e+00   4.6348649e-03  -4.7427262e+08
   3.6678893e-11  -9.2751736e-02   6.4758373e+00   4.7509536e-03  -4.7336055e+08
   3.7345782e-11  -9.2436357e-02   6.4768164e+00   4.8697263e-03  -4.7244855e+08
   3.8012671e-11  -9.2121587e-02   6.4778048e+00   4.9912392e-03  -4.7153660e+08
   3.8679560e-11  -9.1807425e-02   6.4788025e+00   5.1155492e-03  -4.7062470e+08
   3.9346449e-11  -9.1493871e-02   6.4798096e+00   5.2427147e-03  -4.6971286e+08
   4.0013338e-11  -9.1180926e-02   6.4808261e+00   5.3727947e-03  -4.6880107e+08
   4.0680227e-11  -9.0868588e-02   6.4818521e+00   5.5058497e-03  -4.6788934e+08
   4.1347116e-11  -9.0556858e-02   6.4828876e+00   5.6419409e-03  -4.6697766e+08
   4.2014005e-11  -9.0245736e-02   6.4839326e+00   5.7811308e-03  -4.6606604e+08
   4.2680894e-11  -8.9935223e-02   6.4849873e+00   5.9234830e-03  -4.6515446e+08
   4.3347783e-11  -8.9625317e-02   6.4860516e+00   6.0690622e-03  -4.6424295e+08
   4.4014672e-11  -8.9316019e-02   6.4871257e+00   6.2179343e-03  -4.6333148e+08
   4.4681561e-11  -8.9007328e-02   6.4882095e+00   6.3701663e-03  -4.6242007e+08
   4.5348449e-11  -8.8699246e-02   6.4893031e+00   6.5258263e-03  -4.6150871e+08
   4.6015338e-11  -8.8391771e-02   6.4904065e+00   6.6849838e-03  -4.6059740e+08
   4.6682227e-11  -8.8084904e-02   6.4915199e+00   6.8477094e-03  -4.5968614e+08
   4.7349116e-11  -8.7778645e-02   6.4926431e+00   7.0140748e-03  -4.5877494e+08
   4.8016005e-11  -8.7472993e-02   6.4937763e+00   7.1841533e-03  -4.5786378e+08
   4.8682894e-11  -8.7167949e-02   6.4949196e+00   7.3580190e-03  -4.5695268e+08
   4.9349783e-11  -8.6863513e-02   6.4960729e+00   7.5357476e-03  -4.5604163e+08
   5.0016672e-11  -8.6559684e-02   6.4972363e+00   7.7174161e-03  -4.5513063e+08
   5.0683561e-11  -8.6256463e-02   6.4984098e+00   7.9031026e-03  -4.5421968e+08
   5.1350450e-11  -8.5953849e-02   6.4995935e+00   8.0928867e-03  -4.5330878e+08
   5.2017339e-11  -8.5651843e-02   6.5007874e+00   8.2868492e-03  -4.5239793e+08
   5.2684228e-11  -8.5350444e-02   6.5019916e+00   8.4850725e-03  -4.5148712e+08
   5.3351117e-11  -8.5049652e-02   6.5032061e+00   8.6876401e-03  -4.5057637e+08
   5.4018006e-11  -8.4749468e-02   6.5044308e+00   8.8946372e-03  -4.4966566e+08
   5.4684895e-11  -8.4449891e-02   6.5056660e+00   9.1061501e-03  -4.4875501e+08
   5.5351784e-11  -8.4150921e-02   6.5069115e+00   9.3222667e-03  -4.4784440e+08
   5.6018673e-11  -8.3852559e-02   6.5081675e+00   9.5430765e-03  -4.4693384e+08
   5.6685562e-11  -8.3554804e-02   6.5094339e+00   9.7686701e-03  -4.4602332e+08
   5.7352451e-11  -8.3257656e-02   6.5107108e+00   9.9991400e-03  -4.4511286e+08
   5.8019340e-11  -8.2961115e-02   6.5119983e+00   1.0234580e-02  -4.4420243e+08
   5.8686229e-11  -8.2665181e-02   6.5132963e+00   1.0475085e-02  -4.4329206e+08
   5.9353118e-11  -8.2369855e-02   6.5146048e+00   1.0720752e-02  -4.4238173e+08
   6.0020007e-11  -8.2075136e-02   6.5159240e+00   1.0971680e-02  -4.4147145e+08
   6.0686896e-11  -8.1781023e-02   6.5172539e+00   1.1227969e-02  -4.4056121e+08
   6.1353785e-11  -8.1487518e-02   6.5185944e+00   1.1489720e-02  -4.3965101e+08
   6.2020674e-11  -8.1194619e-02   6.5199455e+00   1.1757036e-02  -4.3874086e+08
   6.2687563e-11  -8.0902328e-02   6.5213074e+00   1.2030023e-02  -4.3783076e+08
   6.3354451e-11  -8.0610643e-02   6.5226801e+00   1.2308787e-02  -4.3692069e+08
   6.4021340e-11  -8.0319566e-02   6.5240635e+00   1.2593436e-02  -4.3601067e+08
   6.4688229e-11  -8.0029095e-02   6.5254577e+00   1.2884079e-02  -4.3510070e+08
   6.5355118e-11  -7.9739231e-02   6.5268627e+00   1.3180830e-02  -4.3419076e+08
   6.6022007e-11  -7.9449974e-02   6.5282785e+00   1.3483800e-02  -4.3328087e+08
   6.6688896e-11  -7.9161324e-02   6.5297051e+00   1.3793105e-02  -4.3237102e+08
   6.7355785e-11  -7.8873280e-02   6.5311426e+00   1.4108861e-02  -4.3146120e+08
   6.8022674e-11  -7.8585844e-02   6.5325909e+00   1.4431189e-02  -4.3055143e+08
   6.8689563e-11  -7.8299014e-02   6.5340502e+00   1.4760206e-02  -4.2964170e+08
   6.9356452e-11  -7.8012790e-02   6.5355203e+00   1.5096037e-02  -4.2873201e+08
   7.0023341e-11  -7.7727173e-02   6.5370014e+00   1.5438805e-02  -4.2782236e+08
   7.0690230e-11  -7.7442163e-02   6.5384933e+00   1.5788637e-02  -4.2691275e+08
   7.1357119e-11  -7.7157760e-02   6.5399962e+00   1.6145659e-02  -4.2600318e+08
   7.2024008e-11  -7.6873963e-02   6.5415100e+00   1.6510001e-02  -4.2509365e+08
   7.2690897e-11  -7.6590772e-02   6.5430347e+00   1.6881796e-02  -4.2418415e+08
   7.3357786e-11  -7.6308189e-02   6.5445704e+00   1.7261177e-02  -4.2327469e+08
   7.4024675e-11  -7.6026211e-02   6.5461170e+00   1.7648279e-02  -4.2236527e+08
   7.4691564e-11  -7.5744840e-02   6.5476746e+00   1.8043239e-02  -4.2145588e+08
   7.5358453e-11  -7.5464076e-02   6.5492431e+00   1.8446199e-02  -4.2054653e+08
   7.6025342e-11  -7.5183918e-02   6.5508225e+00   1.8857298e-02  -4.1963722e+08
   7.6692231e-11  -7.4904366e-02   6.5524129e+00   1.9276680e-02  -4.1872794e+08
   7.7359120e-11  -7.4625421e-02   6.5540142e+00   1.9704491e-02  -4.1781869e+08
   7.8026009e-11  -7.4347082e-02   6.5556264e+00   2.0140878e-02  -4.1690948e+08
   7.8692898e-11  -7.4069350e-02   6.5572496e+00   2.0585992e-02  -4.1600031e+08
   7.9359787e-11  -7.3792224e-02   6.5588836e+00   2.1039984e-02  -4.1509117e+08
   8.0026676e-11  -7.3515704e-02   6.5605286e+00   2.1503008e-02  -4.1418206e+08
   8.0693565e-11  -7.3239790e-02   6.5621844e+00   2.1975220e-02  -4.1327298e+08
   8.1360453e-11  -7.2964483e-02   6.5638511e+00   2.2456778e-02  -4.1236394e+08
   8.2027342e-11  -7.2689782e-02   6.5655286e+00   2.2947842e-02  -4.1145493e+08
   8.2694231e-11  -7.2415687e-02   6.5672170e+00   2.3448576e-02  -4.1054595e+08
   8.3361120e-11  -7.2142198e-02   6.5689161e+00   2.3959144e-02  -4.0963700e+08
   8.4028009e-11  -7.1869315e-02   6.5706261e+00   2.4479712e-02  -4.0872808e+08
   8.4694898e-11  -7.1597039e-02   6.5723468e+00   2.5010451e-02  -4.0781920e+08
   8.5361787e-11  -7.1325368e-02   6.5740782e+00   2.5551531e-02  -4.0691034e+08
   8.6028676e-11  -7.1054304e-02   6.5758204e+00   2.6103127e-02  -4.0600151e+08
   8.6695565e-11  -7.0783846e-02   6.5775732e+00   2.6665414e-02  -4.0509271e+08
   8.7362454e-11  -7.0513994e-02   6.5793367e+00   2.7238570e-02  -4.0418394e+08
   8.8029343e-11  -7.0244748e-02   6.5811107e+00   2.7822778e-02  -4.0327520e+08
   8.8696232e-11  -6.9976108e-02   6.5828954e+00   2.8418218e-02  -4.0236649e+08
   8.9363121e-11  -6.9708074e-02   6.5846905e+00   2.9025077e-02  -4.0145781e+08
   9.0030010e-11  -6.9440646e-02   6.5864962e+00   2.9643542e-02  -4.0054915e+08
   9.0696899e-11  -6.9173824e-02   6.5883123e+00   3.0273804e-02  -3.9964052e+08
   9.1363788e-11  -6.8907608e-02   6.5901388e+00   3.0916055e-02  -3.9873192e+08
   9.2030677e-11  -6.8641998e-02   6.5919757e+00   3.1570489e-02  -3.9782334e+08
   9.2697566e-11  -6.8376994e-02   6.5938229e+00   3.2237304e-02  -3.9691479e+08
   9.3364455e-11  -6.8112595e-02   6.5956803e+00   3.2916701e-02  -3.9600627e+08
   9.4031344e-11  -6.7848803e-02   6.5975479e+00   3.3608879e-02  -3.9509777e+08
   9.4698233e-11  -6.7585616e-02   6.5994256e+00   3.4314046e-02  -3.9418929e+08
   9.5365122e-11  -6.7323036e-02   6.6013135e+00   3.5032407e-02  -3.9328085e+08
   9.6032011e-11  -6.7061061e-02   6.6032113e+00   3.5764172e-02  -3.9237242e+08
   9.6698900e-11  -6.6799692e-02   6.6051192e+00   3.6509553e-02  -3.9146402e+08
   9.7365789e-11  -6.6538928e-02   6.6070369e+00   3.7268765e-02  -3.9055565e+08
   9.8032678e-11  -6.6278771e-02   6.6089644e+00   3.8042024e-02  -3.8964730e+08
   9.8699567e-11  -6.6019219e-02   6.6109017e+00   3.8829551e-02  -3.8873897e+08
   9.9366455e-11  -6.5760273e-02   6.6128486e+00   3.9631567e-02  -3.8783066e+08
   1.0003334e-10  -6.5501933e-02   6.6148052e+00   4.0448298e-02  -3.8692238e+08
   1.0070023e-10  -6.5244199e-02   6.6167713e+00   4.1279969e-02  -3.8601412e+08
   1.0136712e-10  -6.4987070e-02   6.6187468e+00   4.2126812e-02  -3.8510589e+08
   1.0203401e-10  -6.4730547e-02   6.6207317e+00   4.2989058e-02  -3.8419768e+08
   1.0270090e-10  -6.4474630e-02   6.6227258e+00   4.3866942e-02  -3.8328949e+08
   1.0336779e-10  -6.4219318e-02   6.6247292e+00   4.4760702e-02  -3.8238132e+08
   1.0403468e-10  -6.3964612e-02   6.6267416e+00   4.5670578e-02  -3.8147317e+08
   1.0470157e-10  -6.3710511e-02   6.6287630e+00   4.6596812e-02  -3.8056505e+08
   1.0536846e-10  -6.3457017e-02   6.6307933e+00   4.7539650e-02  -3.7965695e+08
   1.0603535e-10  -6.3204127e-02   6.6328324e+00   4.8499339e-02  -3.7874887e+08
   1.0670223e-10  -6.2951844e-02   6.6348802e+00   4.9476130e-02  -3.7784081e+08
   1.0736912e-10  -6.2700166e-02   6.6369365e+00   5.0470277e-02  -3.7693277e+08
   1.0803601e-10  -6.2449093e-02   6.6390014e+00   5.1482033e-02  -3.7602476e+08
   1.0870290e-10  -6.2198626e-02   6.6410746e+00   5.2511659e-02  -3.7511677e+08
   1.0936979e-10  -6.1948765e-02   6.6431560e+00   5.3559415e-02  -3.7420879e+08
   1.1003668e-10  -6.1699509e-02   6.6452456e+00   5.4625563e-02  -3.7330084e+08
   1.1070357e-10  -6.1450859e-02   6.6473432e+00   5.5710371e-02  -3.7239292e+08
   1.1137046e-10  -6.1202814e-02   6.6494487e+00   5.6814107e-02  -3.7148501e+08
   1.1203735e-10  -6.0955375e-02   6.6515619e+00   5.7937042e-02  -3.7057712e+08
   1.1270423e-10  -6.0708541e-02   6.6536828e+00   5.9079450e-02  -3.6966926e+08
   1.1337112e-10  -6.0462312e-02   6.6558112e+00   6.0241608e-02  -3.6876142e+08
   1.1403801e-10  -6.0216689e-02   6.6579469e+00   6.1423794e-02  -3.6785360e+08
   1.1470490e-10  -5.9971672e-02   6.6600898e+00   6.2626291e-02  -3.6694581e+08
   1.1537179e-10  -5.9727259e-02   6.6622398e+00   6.3849383e-02  -3.6603803e+08
   1.1603868e-10  -5.9483453e-02   6.6643968e+00   6.5093355e-02  -3.6513028e+08
   1.1670557e-10  -5.9240251e-02   6.6665605e+00   6.6358499e-02  -3.6422255e+08
   1.1737246e-10  -5.8997655e-02   6.6687309e+00   6.7645105e-02  -3.6331485e+08
   1.1803935e-10  -5.8755664e-02   6.6709077e+00   6.8953468e-02  -3.6240716e+08
   1.1870624e-10  -5.8514279e-02   6.6730909e+00   7.0283886e-02  -3.6149951e+08
   1.1937312e-10  -5.8273499e-02   6.6752802e+00   7.1636657e-02  -3.6059187e+08
   1.2004001e-10  -5.8033324e-02   6.6774755e+00   7.3012084e-02  -3.5968426e+08
   1.2070690e-10  -5.7793754e-02   6.6796766e+00   7.4410471e-02  -3.5877668e+08
   1.2137379e-10  -5.7554790e-02   6.6818834e+00   7.5832125e-02  -3.5786912e+08
   1.2204068e-10  -5.7316431e-02   6.6840956e+00   7.7277357e-02  -3.5696158e+08
   1.2270757e-10  -5.7078677e-02   6.6863131e+00   7.8746476e-02  -3.5605407e+08
   1.2337446e-10  -5.6841529e-02   6.6885358e+00   8.0239799e-02  -3.5514659e+08
   1.2404135e-10  -5.6604985e-02   6.6907634e+00   8.1757642e-02  -3.5423914e+08
   1.2470824e-10  -5.6369047e-02   6.6929957e+00   8.3300323e-02  -3.5333171e+08
   1.2537513e-10  -5.6133714e-02   6.6952326e+00   8.4868165e-02  -3.5242431e+08
   1.2604201e-10  -5.5898986e-02   6.6974738e+00   8.6461492e-02  -3.5151694e+08
   1.2670890e-10  -5.5664863e-02   6.6997192e+00   8.8080628e-02  -3.5060960e+08
   1.2737579e-10  -5.5431346e-02   6.7019685e+00   8.9725904e-02  -3.4970229e+08
   1.2804268e-10  -5.5198433e-02   6.7042216e+00   9.1397650e-02  -3.4879501e+08
   1.2870957e-10  -5.4966126e-02   6.7064782e+00   9.3096198e-02  -3.4788776e+08
   1.2937646e-10  -5.4734423e-02   6.7087382e+00   9.4821884e-02  -3.4698055e+08
   1.3004335e-10  -5.4503326e-02   6.7110012e+00   9.6575045e-02  -3.4607337e+08
   1.3071024e-10  -5.4272833e-02   6.7132672e+00   9.8356022e-02  -3.4516622e+08
   1.3137713e-10  -5.4042946e-02   6.7155358e+00   1.0016515e-01  -3.4425911e+08
   1.3204401e-10  -5.3813663e-02   6.7178068e+00   1.0200279e-01  -3.4335203e+08
   1.3271090e-10  -5.3584985e-02   6.7200801e+00   1.0386927e-01  -3.4244499e+08
   1.3337779e-10  -5.3356913e-02   6.7223553e+00   1.0576494e-01  -3.4153799e+08
   1.3404468e-10  -5.3129445e-02   6.7246322e+00   1.0769016e-01  -3.4063103e+08
   1.3471157e-10  -5.2902582e-02   6.7269107e+00   1.0964527e-01  -3.3972411e+08
   1.3537846e-10  -5.2676323e-02   6.7291904e+00   1.1163063e-01  -3.3881723e+08
   1.3604535e-10  -5.2450670e-02   6.7314711e+00   1.1364660e-01  -3.3791039e+08
   1.3671224e-10  -5.2225621e-02   6.7337526e+00   1.1569352e-01  -3.3700359e+08
   1.3737913e-10  -5.2001177e-02   6.7360346e+00   1.1777177e-01  -3.3609684e+08
   1.3804602e-10  -5.1777338e-02   6.7383168e+00   1.1988170e-01  -3.3519014e+08
   1.3871290e-10  -5.1554103e-02   6.7405989e+00   1.2202368e-01  -3.3428349e+08
   1.3937979e-10  -5.1331473e-02   6.7428808e+00   1.2419806e-01  -3.3337688e+08
   1.4004668e-10  -5.1109448e-02   6.7451622e+00   1.2640522e-01  -3.3247033e+08
   1.4071357e-10  -5.0888027e-02   6.7474427e+00   1.2864552e-01  -3.3156382e+08
   1.4138046e-10  -5.0667211e-02   6.7497221e+00   1.3091932e-01  -3.3065738e+08
   1.4204735e-10  -5.0446999e-02   6.7520001e+00   1.3322701e-01  -3.2975098e+08
   1.4271424e-10  -5.0227392e-02   6.7542764e+00   1.3556895e-01  -3.2884465e+08
   1.4338113e-10  -5.0008389e-02   6.7565508e+00   1.3794552e-01  -3.2793837e+08
   1.4404802e-10  -4.9789991e-02   6.7588230e+00   1.4035708e-01  -3.2703215e+08
   1.4471490e-10  -4.9572196e-02   6.7610926e+00   1.4280401e-01  -3.2612600e+08
   1.4538179e-10  -4.9355007e-02   6.7633593e+00   1.4528670e-01  -3.2521991e+08
   1.4604868e-10  -4.9138421e-02   6.7656230e+00   1.4780551e-01  -3.2431389e+08
   1.4671557e-10  -4.8922440e-02   6.7678832e+00   1.5036083e-01  -3.2340793e+08
   1.4738246e-10  -4.8707062e-02   6.7701396e+00   1.5295303e-01  -3.2250205e+08
   1.4804935e-10  -4.8492289e-02   6.7723920e+00   1.5558250e-01  -3.2159623e+08
   1.4871624e-10  -4.8278120e-02   6.7746400e+00   1.5824961e-01  -3.2069050e+08
   1.4938313e-10  -4.8064555e-02   6.7768834e+00   1.6095475e-01  -3.1978484e+08
   1.5005002e-10  -4.7851594e-02   6.7791217e+00   1.6369830e-01  -3.1887925e+08
   1.5071691e-10  -4.7639237e-02   6.7813547e+00   1.6648064e-01  -3.1797375e+08
   1.5138379e-10  -4.7427484e-02   6.7835820e+00   1.6930216e-01  -3.1706834e+08
   1.5205068e-10  -4.7216334e-02   6.7858034e+00   1.7216324e-01  -3.1616301e+08
   1.5271757e-10  -4.7005788e-02   6.7880184e+00   1.7506426e-01  -3.1525777e+08
   1.5338446e-10  -4.6795846e-02   6.7902268e+00   1.7800560e-01  -3.1435262e+08
   1.5405135e-10  -4.6586508e-02   6.7924282e+00   1.8098767e-01  -3.1344756e+08
   1.5471824e-10  -4.6377773e-02   6.7946223e+00   1.8401082e-01  -3.1254261e+08
   1.5538513e-10  -4.6169641e-02   6.7968086e+00   1.8707546e-01  -3.1163775e+08
   1.5605202e-10  -4.5962113e-02   6.7989870e+00   1.9018197e-01  -3.1073299e+08
   1.5671891e-10  -4.5755189e-02   6.8011569e+00   1.9333072e-01  -3.0982834e+08
   1.5738580e-10  -4.5548867e-02   6.8033182e+00   1.9652211e-01  -3.0892380e+08
   1.5805268e-10  -4.5343149e-02   6.8054703e+00   1.9975652e-01  -3.0801937e+08
   1.5871957e-10  -4.5138034e-02   6.8076130e+00   2.0303433e-01  -3.0711506e+08
   1.5938646e-10  -4.4933522e-02   6.8097459e+00   2.0635592e-01  -3.0621086e+08
   1.6005335e-10  -4.4729613e-02   6.8118686e+00   2.0972168e-01  -3.0530679e+08
   1.6072024e-10  -4.4526307e-02   6.8139807e+00   2.1313199e-01  -3.0440284e+08
   1.6138713e-10  -4.4323604e-02   6.8160819e+00   2.1658722e-01  -3.0349901e+08
   1.6205402e-10  -4.4121503e-02   6.8181719e+00   2.2008777e-01  -3.0259532e+08
   1.6272091e-10  -4.3920005e-02   6.8202501e+00   2.2363399e-01  -3.0169177e+08
   1.6338780e-10  -4.3719110e-02   6.8223164e+00   2.2722629e-01  -3.0078835e+08
   1.6405468e-10  -4.3518817e-02   6.8243702e+00   2.3086502e-01  -2.9988508e+08
   1.6472157e-10  -4.3319126e-02   6.8264112e+00   2.3455056e-01  -2.9898196e+08
   1.6538846e-10  -4.3120038e-02   6.8284390e+00   2.3828329e-01  -2.9807898e+08
   1.6605535e-10  -4.2921552e-02   6.8304532e+00   2.4206358e-01  -2.9717616e+08
   1.6672224e-10  -4.2723667e-02   6.8324535e+00   2.4589181e-01  -2.9627350e+08
   1.6738913e-10  -4.2526385e-02   6.8344394e+00   2.4976832e-01  -2.9537100e+08
   1.6805602e-10  -4.2329705e-02   6.8364106e+00   2.5369351e-01  -2.9446867e+08
   1.6872291e-10  -4.2133626e-02   6.8383666e+00   2.5766772e-01  -2.9356651e+08
   1.6938980e-10  -4.1938149e-02   6.8403071e+00   2.6169132e-01  -2.9266452e+08
   1.7005669e-10  -4.1743273e-02   6.8422316e+00   2.6576467e-01  -2.9176272e+08
   1.7072357e-10  -4.1548999e-02   6.8441398e+00   2.6988813e-01  -2.9086110e+08
   1.7139046e-10  -4.1355326e-02   6.8460312e+00   2.7406205e-01  -2.8995967e+08
   1.7205735e-10  -4.1162254e-02   6.8479055e+00   2.7828679e-01  -2.8905843e+08
   1.7272424e-10  -4.0969783e-02   6.8497623e+00   2.8256270e-01  -2.8815740e+08
   1.7339113e-10  -4.0777913e-02   6.8516011e+00   2.8689012e-01  -2.8725657e+08
   1.7405802e-10  -4.0586644e-02   6.8534215e+00   2.9126939e-01  -2.8635594e+08
   1.7472491e-10  -4.0395975e-02   6.8552231e+00   2.9570087e-01  -2.8545554e+08
   1.7539180e-10  -4.0205906e-02   6.8570056e+00   3.0018488e-01  -2.8455535e+08
   1.7605869e-10  -4.0016438e-02   6.8587685e+00   3.0472176e-01  -2.8365539e+08
   1.7672558e-10  -3.9827570e-02   6.8605113e+00   3.0931184e-01  -2.8275565e+08
   1.7739246e-10  -3.9639302e-02   6.8622338e+00   3.1395545e-01  -2.8185616e+08
   1.7805935e-10  -3.9451633e-02   6.8639353e+00   3.1865291e-01  -2.8095690e+08
   1.7872624e-10  -3.9264565e-02   6.8656157e+00   3.2340455e-01  -2.8005790e+08
   1.7939313e-10  -3.9078096e-02   6.8672744e+00   3.2821067e-01  -2.7915914e+08
   1.8006002e-10  -3.8892226e-02   6.8689110e+00   3.3307160e-01  -2.7826065e+08
   1.8072691e-10  -3.8706955e-02   6.8705251e+00   3.3798764e-01  -2.7736242e+08
   1.8139380e-10  -3.8522283e-02   6.8721163e+00   3.4295908e-01  -2.7646446e+08
   1.8206069e-10  -3.8338210e-02   6.8736841e+00   3.4798624e-01  -2.7556677e+08
   1.8272758e-10  -3.8154735e-02   6.8752282e+00   3.5306940e-01  -2.7466938e+08
   1.8339446e-10  -3.7971859e-02   6.8767482e+00   3.5820886e-01  -2.7377227e+08
   1.8406135e-10  -3.7789581e-02   6.8782435e+00   3.6340490e-01  -2.7287545e+08
   1.8472824e-10  -3.7607901e-02   6.8797139e+00   3.6865780e-01  -2.7197894e+08
   1.8539513e-10  -3.7426819e-02   6.8811589e+00   3.7396783e-01  -2.7108274e+08
   1.8606202e-10  -3.7246335e-02   6.8825780e+00   3.7933527e-01  -2.7018686e+08
   1.8672891e-10  -3.7066447e-02   6.8839709e+00   3.8476037e-01  -2.6929130e+08
   1.8739580e-10  -3.6887157e-02   6.8853371e+00   3.9024340e-01  -2.6839607e+08
   1.8806269e-10  -3.6708464e-02   6.8866763e+00   3.9578462e-01  -2.6750118e+08
   1.8872958e-10  -3.6530368e-02   6.8879880e+00   4.0138426e-01  -2.6660663e+08
   1.8939647e-10  -3.6352867e-02   6.8892717e+00   4.0704257e-01  -2.6571244e+08
   1.9006335e-10  -3.6175964e-02   6.8905272e+00   4.1275978e-01  -2.6481860e+08
   1.9073024e-10  -3.5999656e-02   6.8917540e+00   4.1853613e-01  -2.6392513e+08
   1.9139713e-10  -3.5823944e-02   6.8929516e+00   4.2437183e-01  -2.6303204e+08
   1.9206402e-10  -3.5648827e-02   6.8941197e+00   4.3026711e-01  -2.6213933e+08
   1.9273091e-10  -3.5474306e-02   6.8952579e+00   4.3622217e-01  -2.6124701e+08
   1.9339780e-10  -3.5300379e-02   6.8963658e+00   4.4223723e-01  -2.6035508e+08
   1.9406469e-10  -3.5127048e-02   6.8974429e+00   4.4831246e-01  -2.5946357e+08
   1.9473158e-10  -3.4954310e-02   6.8984888e+00   4.5444808e-01  -2.5857246e+08
   1.9539847e-10  -3.4782167e-02   6.8995033e+00   4.6064425e-01  -2.5768178e+08
   1.9606536e-10  -3.4610618e-02   6.9004858e+00   4.6690115e-01  -2.5679153e+08
   1.9673224e-10  -3.4439662e-02   6.9014359e+00   4.7321896e-01  -2.5590172e+08
   1.9739913e-10  -3.4269299e-02   6.9023534e+00   4.7959783e-01  -2.5501236e+08
   1.9806602e-10  -3.4099530e-02   6.9032377e+00   4.8603793e-01  -2.5412346e+08
   1.9873291e-10  -3.3930353e-02   6.9040886e+00   4.9253938e-01  -2.5323502e+08
   1.9939980e-10  -3.3761769e-02   6.9049056e+00   4.9910235e-01  -2.5234705e+08
   2.0006669e-10  -3.3593776e-02   6.9056883e+00   5.0572694e-01  -2.5145957e+08
   2.0073358e-10  -3.3426375e-02   6.9064364e+00   5.1241330e-01  -2.5057258e+08
   2.0140047e-10  -3.3259566e-02   6.9071495e+00   5.1916153e-01  -2.4968610e+08
   2.0206736e-10  -3.3093347e-02   6.9078273e+00   5.2597174e-01  -2.4880012e+08
   2.0273424e-10  -3.2927720e-02   6.9084693e+00   5.3284404e-01  -2.4791467e+08
   2.0340113e-10  -3.2762682e-02   6.9090752e+00   5.3977850e-01  -2.4702974e+08
   2.0406802e-10  -3.2598235e-02   6.9096446e+00   5.4677522e-01  -2.4614536e+08
   2.0473491e-10  -3.2434377e-02   6.9101772e+00   5.5383426e-01  -2.4526152e+08
   2.0540180e-10  -3.2271109e-02   6.9106726e+00   5.6095570e-01  -2.4437825e+08
   2.0606869e-10  -3.2108429e-02   6.9111306e+00   5.6813958e-01  -2.4349554e+08
   2.0673558e-10  -3.1946338e-02   6.9115506e+00   5.7538596e-01  -2.4261341e+08
   2.0740247e-10  -3.1784835e-02   6.9119325e+00   5.8269488e-01  -2.4173188e+08
   2.0806936e-10  -3.1623919e-02   6.9122758e+00   5.9006636e-01  -2.4085094e+08
   2.0873625e-10  -3.1463591e-02   6.9125802e+00   5.9750042e-01  -2.3997061e+08
   2.0940313e-10  -3.1303850e-02   6.9128455e+00   6.0499709e-01  -2.3909091e+08
   2.1007002e-10  -3.1144695e-02   6.9130712e+00   6.1255635e-01  -2.3821183e+08
   2.1073691e-10  -3.0986127e-02   6.9132571e+00   6.2017821e-01  -2.3733340e+08
   2.1140380e-10  -3.0828143e-02   6.9134028e+00   6.2786265e-01  -2.3645562e+08
   2.1207069e-10  -3.0670746e-02   6.9135081e+00   6.3560964e-01  -2.3557851e+08
   2.1273758e-10  -3.0513932e-02   6.9135726e+00   6.4341915e-01  -2.3470207e+08
   2.1340447e-10  -3.0357703e-02   6.9135961e+00   6.5129113e-01  -2.3382631e+08
   2.1407136e-10  -3.0202058e-02   6.9135782e+00   6.5922553e-01  -2.3295126e+08
   2.1473825e-10  -3.0046997e-02   6.9135188e+00   6.6722228e-01  -2.3207691e+08
   2.1540514e-10  -2.9892518e-02   6.9134173e+00   6.7528132e-01  -2.3120328e+08
   2.1607202e-10  -2.9738621e-02   6.9132738e+00   6.8340256e-01  -2.3033038e+08
   2.1673891e-10  -2.9585306e-02   6.9130877e+00   6.9158590e-01  -2.2945823e+08
   2.1740580e-10  -2.9432573e-02   6.9128590e+00   6.9983125e-01  -2.2858683e+08
   2.1807269e-10  -2.9280421e-02   6.9125872e+00   7.0813849e-01  -2.2771619e+08
   2.1873958e-10  -2.9128849e-02   6.9122723e+00   7.1650750e-01  -2.2684634e+08
   2.1940647e-10  -2.8977857e-02   6.9119139e+00   7.2493814e-01  -2.2597727e+08
   2.2007336e-10  -2.8827444e-02   6.9115118e+00   7.3343028e-01  -2.2510901e+08
   2.2074025e-10  -2.8677610e-02   6.9110657e+00   7.4198377e-01  -2.2424156e+08
   2.2140714e-10  -2.8528354e-02   6.9105755e+00   7.5059843e-01  -2.2337494e+08
   2.2207402e-10  -2.8379676e-02   6.9100409e+00   7.5927410e-01  -2.2250915e+08
   2.2274091e-10  -2.8231575e-02   6.9094617e+00   7.6801059e-01  -2.2164422e+08
   2.2340780e-10  -2.8084050e-02   6.9088377e+00   7.7680772e-01  -2.2078015e+08
   2.2407469e-10  -2.7937102e-02   6.9081688e+00   7.8566527e-01  -2.1991696e+08
   2.2474158e-10  -2.7790728e-02   6.9074546e+00   7.9458304e-01  -2.1905465e+08
   2.2540847e-10  -2.7644930e-02   6.9066951e+00   8.0356081e-01  -2.1819325e+08
   2.2607536e-10  -2.7499706e-02   6.9058900e+00   8.1259834e-01  -2.1733276e+08
   2.2674225e-10  -2.7355055e-02   6.9050392e+00   8.2169539e-01  -2.1647319e+08
   2.2740914e-10  -2.7210977e-02   6.9041426e+00   8.3085170e-01  -2.1561457e+08
   2.2807603e-10  -2.7067472e-02   6.9031999e+00   8.4006701e-01  -2.1475690e+08
   2.2874291e-10  -2.6924538e-02   6.9022110e+00   8.4934106e-01  -2.1390019e+08
   2.2940980e-10  -2.6782175e-02   6.9011758e+00   8.5867355e-01  -2.1304447e+08
   2.3007669e-10  -2.6640383e-02   6.9000942e+00   8.6806419e-01  -2.1218973e+08
   2.3074358e-10  -2.6499160e-02   6.8989660e+00   8.7751268e-01  -2.1133600e+08
   2.3141047e-10  -2.6358506e-02   6.8977910e+00   8.8701871e-01  -2.1048329e+08
   2.3207736e-10  -2.6218421e-02   6.8965693e+00   8.9658196e-01  -2.0963161e+08
   2.3274425e-10  -2.6078903e-02   6.8953007e+00   9.0620209e-01  -2.0878098e+08
   2.3341114e-10  -2.5939952e-02   6.8939851e+00   9.1587876e-01  -2.0793140e+08
   2.3407803e-10  -2.5801567e-02   6.8926223e+00   9.2561162e-01  -2.0708290e+08
   2.3474491e-10  -2.5663748e-02   6.8912124e+00   9.3540031e-01  -2.0623548e+08
   2.3541180e-10  -2.5526494e-02   6.8897553e+00   9.4524445e-01  -2.0538916e+08
   2.3607869e-10  -2.5389803e-02   6.8882509e+00   9.5514366e-01  -2.0454396e+08
   2.3674558e-10  -2.5253676e-02   6.8866991e+00   9.6509756e-01  -2.0369988e+08
   2.3741247e-10  -2.5118112e-02   6.8850999e+00   9.7510575e-01  -2.0285694e+08
   2.3807936e-10  -2.4983109e-02   6.8834533e+00   9.8516781e-01  -2.0201516e+08
   2.3874625e-10  -2.4848667e-02   6.8817592e+00   9.9528333e-01  -2.0117454e+08
   2.3941314e-10  -2.4714786e-02   6.8800176e+00   1.0054519e+00  -2.0033510e+08
   2.4008003e-10  -2.4581464e-02   6.8782285e+00   1.0156730e+00  -1.9949686e+08
   2.4074692e-10  -2.4448700e-02   6.8763918e+00   1.0259463e+00  -1.9865983e+08
   2.4141380e-10  -2.4316495e-02   6.8745077e+00   1.0362713e+00  -1.9782403e+08
   2.4208069e-10  -2.4184846e-02   6.8725760e+00   1.0466475e+00  -1.9698946e+08
   2.4274758e-10  -2.4053753e-02   6.8705969e+00   1.0570745e+00  -1.9615614e+08
   2.4341447e-10  -2.3923216e-02   6.8685703e+00   1.0675518e+00  -1.9532409e+08
   2.4408136e-10  -2.3793233e-02   6.8664963e+00   1.0780788e+00  -1.9449332e+08
   2.4474825e-10  -2.3663804e-02   6.8643749e+00   1.0886551e+00  -1.9366384e+08
   2.4541514e-10  -2.3534928e-02   6.8622061e+00   1.0992803e+00  -1.9283567e+08
   2.4608203e-10  -2.3406603e-02   6.8599901e+00   1.1099537e+00  -1.9200882e+08
   2.4674892e-10  -2.3278830e-02   6.8577269e+00   1.1206748e+00  -1.9118330e+08
   2.4741581e-10  -2.3151606e-02   6.8554165e+00   1.1314432e+00  -1.9035914e+08
   2.4808269e-10  -2.3024932e-02   6.8530591e+00   1.1422582e+00  -1.8953633e+08
   2.4874958e-10  -2.2898806e-02   6.8506548e+00   1.1531194e+00  -1.8871491e+08
   2.4941647e-10  -2.2773227e-02   6.8482035e+00   1.1640262e+00  -1.8789488e+08
   2.5008336e-10  -2.2648195e-02   6.8457055e+00   1.1749780e+00  -1.8707625e+08
   2.5075025e-10  -2.2523708e-02   6.8431609e+00   1.1859743e+00  -1.8625905e+08
   2.5141714e-10  -2.2399766e-02   6.8405698e+00   1.1970144e+00  -1.8544328e+08
   2.5208403e-10  -2.2276367e-02   6.8379322e+00   1.2080979e+00  -1.8462895e+08
   2.5275092e-10  -2.2153511e-02   6.8352484e+00   1.2192240e+00  -1.8381609e+08
   2.5341781e-10  -2.2031196e-02   6.8325186e+00   1.2303923e+00  -1.8300471e+08
   2.5408469e-10  -2.1909422e-02   6.8297427e+00   1.2416021e+00  -1.8219481e+08
   2.5475158e-10  -2.1788188e-02   6.8269211e+00   1.2528529e+00  -1.8138642e+08
   2.5541847e-10  -2.1667492e-02   6.8240539e+00   1.2641439e+00  -1.8057955e+08
   2.5608536e-10  -2.1547334e-02   6.8211412e+00   1.2754746e+00  -1.7977421e+08
   2.5675225e-10  -2.1427712e-02   6.8181833e+00   1.2868443e+00  -1.7897041e+08
   2.5741914e-10  -2.1308626e-02   6.8151803e+00   1.2982525e+00  -1.7816818e+08
   2.5808603e-10  -2.1190075e-02   6.8121324e+00   1.3096984e+00  -1.7736752e+08
   2.5875292e-10  -2.1072057e-02   6.8090399e+00   1.3211815e+00  -1.7656844e+08
   2.5941981e-10  -2.0954571e-02   6.8059029e+00   1.3327011e+00  -1.7577097e+08
   2.6008670e-10  -2.0837616e-02   6.8027217e+00   1.3442565e+00  -1.7497511e+08
   2.6075358e-10  -2.0721192e-02   6.7994965e+00   1.3558471e+00  -1.7418087e+08
   2.6142047e-10  -2.0605297e-02   6.7962276e+00   1.3674722e+00  -1.7338828e+08
   2.6208736e-10  -2.0489930e-02   6.7929151e+00   1.3791312e+00  -1.7259735e+08
   2.6275425e-10  -2.0375090e-02   6.7895594e+00   1.3908234e+00  -1.7180808e+08
   2.6342114e-10  -2.0260775e-02   6.7861606e+00   1.4025480e+00  -1.7102050e+08
   2.6408803e-10  -2.0146985e-02   6.7827191e+00   1.4143045e+00  -1.7023461e+08
   2.6475492e-10  -2.0033719e-02   6.7792351e+00   1.4260921e+00  -1.6945043e+08
   2.6542181e-10  -1.9920975e-02   6.7757089e+00   1.4379102e+00  -1.6866797e+08
   2.6608870e-10  -1.9808753e-02   6.7721407e+00   1.4497581e+00  -1.6788724e+08
   2.6675559e-10  -1.9697050e-02   6.7685310e+00   1.4616350e+00  -1.6710827e+08
   2.6742247e-10  -1.9585867e-02   6.7648799e+00   1.4735403e+00  -1.6633105e+08
   2.6808936e-10  -1.9475201e-02   6.7611877e+00   1.4854732e+00  -1.6555561e+08
   2.6875625e-10  -1.9365051e-02   6.7574548e+00   1.4974332e+00  -1.6478196e+08
   2.6942314e-10  -1.9255418e-02   6.7536815e+00   1.5094194e+00  -1.6401010e+08
   2.7009003e-10  -1.9146298e-02   6.7498680e+00   1.5214311e+00  -1.6324006e+08
   2.7075692e-10  -1.9037691e-02   6.7460148e+00   1.5334677e+00  -1.6247184e+08
   2.7142381e-10  -1.8929596e-02   6.7421221e+00   1.5455285e+00  -1.6170546e+08
   2.7209070e-10  -1.8822011e-02   6.7381903e+00   1.5576126e+00  -1.6094093e+08
   2.7275759e-10  -1.8714935e-02   6.7342198e+00   1.5697195e+00  -1.6017826e+08
   2.7342447e-10  -1.8608368e-02   6.7302108e+00   1.5818483e+00  -1.5941746e+08
   2.7409136e-10  -1.8502307e-02   6.7261637e+00   1.5939985e+00  -1.5865855e+08
   2.7475825e-10  -1.8396752e-02   6.7220788e+00   1.6061691e+00  -1.5790154e+08
   2.7542514e-10  -1.8291701e-02   6.7179566e+00   1.6183596e+00  -1.5714644e+08
   2.7609203e-10  -1.8187153e-02   6.7137974e+00   1.6305692e+00  -1.5639326e+08
   2.7675892e-10  -1.8083106e-02   6.7096016e+00   1.6427972e+00  -1.5564201e+08
   2.7742581e-10  -1.7979560e-02   6.7053695e+00   1.6550429e+00  -1.5489271e+08
   2.7809270e-10  -1.7876513e-02   6.7011016e+00   1.6673055e+00  -1.5414537e+08
   2.7875959e-10  -1.7773964e-02   6.6967981e+00   1.6795843e+00  -1.5339999e+08
   2.7942648e-10  -1.7671911e-02   6.6924595e+00   1.6918786e+00  -1.5265659e+08
   2.8009336e-10  -1.7570353e-02   6.6880862e+00   1.7041877e+00  -1.5191519e+08
   2.8076025e-10  -1.7469289e-02   6.6836786e+00   1.7165108e+00  -1.5117578e+08
   2.8142714e-10  -1.7368717e-02   6.6792370e+00   1.7288473e+00  -1.5043839e+08
   2.8209403e-10  -1.7268637e-02   6.6747620e+00   1.7411963e+00  -1.4970302e+08
   2.8276092e-10  -1.7169046e-02   6.6702538e+00   1.7535573e+00  -1.4896968e+08
   2.8342781e-10  -1.7069944e-02   6.6657129e+00   1.7659294e+00  -1.4823839e+08
   2.8409470e-10  -1.6971328e-02   6.6611397e+00   1.7783120e+00  -1.4750915e+08
   2.8476159e-10  -1.6873199e-02   6.6565346e+00   1.7907043e+00  -1.4678198e+08
   2.8542848e-10  -1.6775553e-02   6.6518981e+00   1.8031056e+00  -1.4605688e+08
   2.8609537e-10  -1.6678390e-02   6.6472305e+00   1.8155152e+00  -1.4533387e+08
   2.8676225e-10  -1.6581709e-02   6.6425324e+00   1.8279324e+00  -1.4461295e+08
   2.8742914e-10  -1.6485508e-02   6.6378040e+00   1.8403565e+00  -1.4389414e+08
   2.8809603e-10  -1.6389786e-02   6.6330459e+00   1.8527868e+00  -1.4317744e+08
   2.8876292e-10  -1.6294541e-02   6.6282584e+00   1.8652226e+00  -1.4246286e+08
   2.8942981e-10  -1.6199771e-02   6.6234421e+00   1.8776631e+00  -1.4175042e+08
   2.9009670e-10  -1.6105476e-02   6.6185973e+00   1.8901077e+00  -1.4104012e+08
   2.9076359e-10  -1.6011654e-02   6.6137246e+00   1.9025557e+00  -1.4033197e+08
   2.9143048e-10  -1.5918304e-02   6.6088242e+00   1.9150064e+00  -1.3962598e+08
   2.9209737e-10  -1.5825424e-02   6.6038967e+00   1.9274590e+00  -1.3892216e+08
   2.9276425e-10  -1.5733012e-02   6.5989425e+00   1.9399130e+00  -1.3822052e+08
   2.9343114e-10  -1.5641068e-02   6.5939621e+00   1.9523676e+00  -1.3752106e+08
   2.9409803e-10  -1.5549589e-02   6.5889559e+00   1.9648221e+00  -1.3682380e+08
   2.9476492e-10  -1.5458574e-02   6.5839244e+00   1.9772759e+00  -1.3612873e+08
   2.9543181e-10  -1.5368023e-02   6.5788679e+00   1.9897283e+00  -1.3543588e+08
   2.9609870e-10  -1.5277932e-02   6.5737870e+00   2.0021786e+00  -1.3474525e+08
   2.9676559e-10  -1.5188302e-02   6.5686822e+00   2.0146261e+00  -1.3405684e+08
   2.9743248e-10  -1.5099130e-02   6.5635538e+00   2.0270703e+00  -1.3337067e+08
   2.9809937e-10  -1.5010414e-02   6.5584023e+00   2.0395104e+00  -1.3268673e+08
   2.9876626e-10  -1.4922154e-02   6.5532281e+00   2.0519457e+00  -1.3200505e+08
   2.9943314e-10  -1.4834348e-02   6.5480318e+00   2.0643757e+00  -1.3132562e+08
   3.0010003e-10  -1.4746995e-02   6.5428138e+00   2.0767997e+00  -1.3064845e+08
   3.0076692e-10  -1.4660092e-02   6.5375745e+00   2.0892170e+00  -1.2997355e+08
   3.0143381e-10  -1.4573638e-02   6.5323143e+00   2.1016271e+00  -1.2930092e+08
   3.0210070e-10  -1.4487632e-02   6.5270339e+00   2.1140292e+00  -1.2863058e+08
   3.0276759e-10  -1.4402073e-02   6.5217335e+00   2.1264228e+00  -1.2796252e+08
   3.0343448e-10  -1.4316958e-02   6.5164137e+00   2.1388072e+00  -1.2729676e+08
   3.0410137e-10  -1.4232287e-02   6.5110748e+00   2.1511819e+00  -1.2663330e+08
   3.0476826e-10  -1.4148057e-02   6.5057175e+00   2.1635461e+00  -1.2597214e+08
   3.0543515e-10  -1.4064267e-02   6.5003420e+00   2.1758994e+00  -1.2531330e+08
   3.0610203e-10  -1.3980916e-02   6.4949489e+00   2.1882411e+00  -1.2465677e+08
   3.0676892e-10  -1.3898002e-02   6.4895386e+00   2.2005706e+00  -1.2400257e+08
   3.0743581e-10  -1.3815523e-02   6.4841116e+00   2.2128873e+00  -1.2335069e+08
   3.0810270e-10  -1.3733479e-02   6.4786683e+00   2.2251907e+00  -1.2270115e+08
   3.0876959e-10  -1.3651867e-02   6.4732092e+00   2.2374801e+00  -1.2205395e+08
   3.0943648e-10  -1.3570685e-02   6.4677347e+00   2.2497551e+00  -1.2140908e+08
   3.1010337e-10  -1.3489933e-02   6.4622453e+00   2.2620149e+00  -1.2076657e+08
   3.1077026e-10  -1.3409609e-02   6.4567414e+00   2.2742592e+00  -1.2012640e+08
   3.1143715e-10  -1.3329711e-02   6.4512234e+00   2.2864872e+00  -1.1948859e+08
   3.1210403e-10  -1.3250237e-02   6.4456918e+00   2.2986986e+00  -1.1885314e+08
   3.1277092e-10  -1.3171186e-02   6.4401470e+00   2.3108926e+00  -1.1822005e+08
   3.1343781e-10  -1.3092557e-02   6.4345896e+00   2.3230688e+00  -1.1758934e+08
   3.1410470e-10  -1.3014348e-02   6.4290198e+00   2.3352268e+00  -1.1696099e+08
   3.1477159e-10  -1.2936557e-02   6.4234382e+00   2.3473658e+00  -1.1633501e+08
   3.1543848e-10  -1.2859182e-02   6.4178452e+00   2.3594855e+00  -1.1571142e+08
   3.1610537e-10  -1.2782223e-02   6.4122412e+00   2.3715852e+00  -1.1509020e+08
   3.1677226e-10  -1.2705677e-02   6.4066267e+00   2.3836646e+00  -1.1447137e+08
   3.1743915e-10  -1.2629543e-02   6.4010020e+00   2.3957231e+00  -1.1385493e+08
   3.1810604e-10  -1.2553819e-02   6.3953676e+00   2.4077602e+00  -1.1324087e+08
   3.1877292e-10  -1.2478504e-02   6.3897240e+00   2.4197754e+00  -1.1262921e+08
   3.1943981e-10  -1.2403596e-02   6.3840715e+00   2.4317683e+00  -1.1201994e+08
   3.2010670e-10  -1.2329094e-02   6.3784106e+00   2.4437384e+00  -1.1141306e+08
   3.2077359e-10  -1.2254995e-02   6.3727416e+00   2.4556852e+00  -1.1080859e+08
   3.2144048e-10  -1.2181299e-02   6.3670651e+00   2.4676082e+00  -1.1020651e+08
   3.2210737e-10  -1.2108004e-02   6.3613814e+00   2.4795070e+00  -1.0960684e+08
   3.2277426e-10  -1.2035107e-02   6.3556909e+00   2.4913812e+00  -1.0900957e+08
   3.2344115e-10  -1.1962608e-02   6.3499940e+00   2.5032303e+00  -1.0841471e+08
   3.2410804e-10  -1.1890505e-02   6.3442911e+00   2.5150539e+00  -1.0782225e+08
   3.2477492e-10  -1.1818797e-02   6.3385827e+00   2.5268515e+00  -1.0723220e+08
   3.2544181e-10  -1.1747481e-02   6.3328691e+00   2.5386227e+00  -1.0664456e+08
   3.2610870e-10  -1.1676556e-02   6.3271507e+00   2.5503672e+00  -1.0605933e+08
   3.2677559e-10  -1.1606021e-02   6.3214280e+00   2.5620845e+00  -1.0547651e+08
   3.2744248e-10  -1.1535873e-02   6.3157012e+00   2.5737742e+00  -1.0489609e+08
   3.2810937e-10  -1.1466112e-02   6.3099709e+00   2.5854359e+00  -1.0431810e+08
   3.2877626e-10  -1.1396736e-02   6.3042373e+00   2.5970693e+00  -1.0374251e+08
   3.2944315e-10  -1.1327742e-02   6.2985008e+00   2.6086739e+00  -1.0316933e+08
   3.3011004e-10  -1.1259130e-02   6.2927619e+00   2.6202493e+00  -1.0259857e+08
   3.3077693e-10  -1.1190898e-02   6.2870209e+00   2.6317953e+00  -1.0203021e+08
   3.3144381e-10  -1.1123044e-02   6.2812782e+00   2.6433114e+00  -1.0146427e+08
   3.3211070e-10  -1.1055566e-02   6.2755341e+00   2.6547974e+00  -1.0090074e+08
   3.3277759e-10  -1.0988464e-02   6.2697890e+00   2.6662527e+00  -1.0033962e+08
   3.3344448e-10  -1.0921735e-02   6.2640433e+00   2.6776772e+00  -9.9780904e+07
   3.3411137e-10  -1.0855378e-02   6.2582973e+00   2.6890704e+00  -9.9224601e+07
   3.3477826e-10  -1.0789391e-02   6.2525513e+00   2.7004321e+00  -9.8670705e+07
   3.3544515e-10  -1.0723772e-02   6.2468058e+00   2.7117619e+00  -9.8119217e+07
   3.3611204e-10  -1.0658521e-02   6.2410611e+00   2.7230595e+00  -9.7570133e+07
   3.3677893e-10  -1.0593635e-02   6.2353174e+00   2.7343246e+00  -9.7023454e+07
   3.3744582e-10  -1.0529113e-02   6.2295753e+00   2.7455569e+00  -9.6479177e+07
   3.3811270e-10  -1.0464953e-02   6.2238349e+00   2.7567561e+00  -9.5937302e+07
   3.3877959e-10  -1.0401153e-02   6.2180966e+00   2.7679219e+00  -9.5397826e+07
   3.3944648e-10  -1.0337713e-02   6.2123608e+00   2.7790540e+00  -9.4860747e+07
   3.4011337e-10  -1.0274629e-02   6.2066277e+00   2.7901522e+00  -9.4326064e+07
   3.4078026e-10  -1.0211902e-02   6.2008977e+00   2.8012161e+00  -9.3793774e+07
   3.4144715e-10  -1.0149529e-02   6.1951712e+00   2.8122456e+00  -9.3263875e+07
   3.4211404e-10  -1.0087508e-02   6.1894484e+00   2.8232403e+00  -9.2736365e+07
   3.4278093e-10  -1.0025838e-02   6.1837296e+00   2.8342000e+00  -9.2211242e+07
   3.4344782e-10  -9.9645182e-03   6.1780151e+00   2.8451245e+00  -9.1688502e+07
   3.4411470e-10  -9.9035458e-03   6.1723053e+00   2.8560135e+00  -9.1168144e+07
   3.4478159e-10  -9.8429196e-03   6.1666005e+00   2.8668667e+00  -9.0650164e+07
   3.4544848e-10  -9.7826381e-03   6.1609009e+00   2.8776840e+00  -9.0134559e+07
   3.4611537e-10  -9.7226996e-03   6.1552068e+00   2.8884652e+00  -8.9621327e+07
   3.4678226e-10  -9.6631026e-03   6.1495185e+00   2.8992099e+00  -8.9110464e+07
   3.4744915e-10  -9.6038454e-03   6.1438364e+00   2.9099181e+00  -8.8601967e+07
   3.4811604e-10  -9.5449267e-03   6.1381606e+00   2.9205895e+00  -8.8095833e+07
   3.4878293e-10  -9.4863446e-03   6.1324915e+00   2.9312238e+00  -8.7592058e+07
   3.4944982e-10  -9.4280978e-03   6.1268293e+00   2.9418210e+00  -8.7090639e+07
   3.5011671e-10  -9.3701845e-03   6.1211744e+00   2.9523808e+00  -8.6591572e+07
   3.5078359e-10  -9.3126033e-03   6.1155269e+00   2.9629030e+00  -8.6094853e+07
   3.5145048e-10  -9.2553525e-03   6.1098871e+00   2.9733875e+00  -8.5600479e+07
   3.5211737e-10  -9.1984307e-03   6.1042553e+00   2.9838341e+00  -8.5108445e+07
   3.5278426e-10  -9.1418362e-03   6.0986318e+00   2.9942427e+00  -8.4618747e+07
   3.5345115e-10  -9.0855676e-03   6.0930168e+00   3.0046130e+00  -8.4131382e+07
   3.5411804e-10  -9.0296231e-03   6.0874105e+00   3.0149449e+00  -8.3646345e+07
   3.5478493e-10  -8.9740014e-03   6.0818132e+00   3.0252382e+00  -8.3163631e+07
   3.5545182e-10  -8.9187008e-03   6.0762251e+00   3.0354929e+00  -8.2683237e+07
   3.5611871e-10  -8.8637198e-03   6.0706465e+00   3.0457088e+00  -8.2205157e+07
   3.5678560e-10  -8.8090568e-03   6.0650776e+00   3.0558858e+00  -8.1729387e+07
   3.5745248e-10  -8.7547104e-03   6.0595187e+00   3.0660236e+00  -8.1255923e+07
   3.5811937e-10  -8.7006789e-03   6.0539698e+00   3.0761223e+00  -8.0784760e+07
   3.5878626e-10  -8.6469609e-03   6.0484314e+00   3.0861817e+00  -8.0315892e+07
   3.5945315e-10  -8.5935548e-03   6.0429035e+00   3.0962016e+00  -7.9849315e+07
   3.6012004e-10  -8.5404592e-03   6.0373865e+00   3.1061820e+00  -7.9385024e+07
   3.6078693e-10  -8.4876723e-03   6.0318804e+00   3.1161228e+00  -7.8923013e+07
   3.6145382e-10  -8.4351929e-03   6.0263856e+00   3.1260238e+00  -7.8463278e+07
   3.6212071e-10  -8.3830192e-03   6.0209022e+00   3.1358850e+00  -7.8005813e+07
   3.6278760e-10  -8.3311499e-03   6.0154304e+00   3.1457063e+00  -7.7550613e+07
   3.6345448e-10  -8.2795834e-03   6.0099705e+00   3.1554876e+00  -7.7097673e+07
   3.6412137e-10  -8.2283182e-03   6.0045226e+00   3.1652288e+00  -7.6646986e+07
   3.6478826e-10  -8.1773528e-03   5.9990868e+00   3.1749298e+00  -7.6198548e+07
   3.6545515e-10  -8.1266858e-03   5.9936635e+00   3.1845907e+00  -7.5752352e+07
   3.6612204e-10  -8.0763155e-03   5.9882528e+00   3.1942112e+00  -7.5308393e+07
   3.6678893e-10  -8.0262406e-03   5.9828547e+00   3.2037914e+00  -7.4866666e+07
   3.6745582e-10  -7.9764595e-03   5.9774697e+00   3.2133312e+00  -7.4427164e+07
   3.6812271e-10  -7.9269708e-03   5.9720977e+00   3.2228305e+00  -7.3989882e+07
   3.6878960e-10  -7.8777729e-03   5.9667390e+00   3.2322894e+00  -7.3554813e+07
   3.6945649e-10  -7.8288645e-03   5.9613937e+00   3.2417076e+00  -7.3121952e+07
   3.7012337e-10  -7.7802440e-03   5.9560621e+00   3.2510853e+00  -7.2691292e+07
   3.7079026e-10  -7.7319099e-03   5.9507442e+00   3.2604224e+00  -7.2262827e+07
   3.7145715e-10  -7.6838609e-03   5.9454402e+00   3.2697188e+00  -7.1836551e+07
   3.7212404e-10  -7.6360954e-03   5.9401502e+00   3.2789745e+00  -7.1412458e+07
   3.7279093e-10  -7.5886121e-03   5.9348745e+00   3.2881894e+00  -7.0990542e+07
   3.7345782e-10  -7.5414093e-03   5.9296132e+00   3.2973637e+00  -7.0570795e+07
   3.7412471e-10  -7.4944858e-03   5.9243663e+00   3.3064972e+00  -7.0153212e+07
   3.7479160e-10  -7.4478400e-03   5.9191341e+00   3.3155900e+00  -6.9737787e+07
   3.7545849e-10  -7.4014706e-03   5.9139167e+00   3.3246419e+00  -6.9324511e+07
   3.7612538e-10  -7.3553761e-03   5.9087142e+00   3.3336531e+00  -6.8913380e+07
   3.7679226e-10  -7.3095550e-03   5.9035267e+00   3.3426236e+00  -6.8504386e+07
   3.7745915e-10  -7.2640059e-03   5.8983545e+00   3.3515532e+00  -6.8097523e+07
   3.7812604e-10  -7.2187275e-03   5.8931975e+00   3.3604421e+00  -6.7692783e+07
   3.7879293e-10  -7.1737183e-03   5.8880559e+00   3.3692902e+00  -6.7290161e+07
   3.7945982e-10  -7.1289769e-03   5.8829299e+00   3.3780975e+00  -6.6889649e+07
   3.8012671e-10  -7.0845019e-03   5.8778195e+00   3.3868641e+00  -6.6491241e+07
   3.8079360e-10  -7.0402919e-03   5.8727249e+00   3.3955900e+00  -6.6094929e+07
   3.8146049e-10  -6.9963455e-03   5.8676461e+00   3.4042752e+00  -6.5700706e+07
   3.8212738e-10  -6.9526613e-03   5.8625834e+00   3.4129197e+00  -6.5308566e+07
   3.8279426e-10  -6.9092379e-03   5.8575367e+00   3.4215236e+00  -6.4918502e+07
   3.8346115e-10  -6.8660739e-03   5.8525062e+00   3.4300869e+00  -6.4530506e+07
   3.8412804e-10  -6.8231681e-03   5.8474920e+00   3.4386096e+00  -6.4144572e+07
   3.8479493e-10  -6.7805189e-03   5.8424942e+00   3.4470917e+00  -6.3760692e+07
   3.8546182e-10  -6.7381250e-03   5.8375129e+00   3.4555333e+00  -6.3378859e+07
   3.8612871e-10  -6.6959851e-03   5.8325481e+00   3.4639344e+00  -6.2999066e+07
   3.8679560e-10  -6.6540978e-03   5.8276000e+00   3.4722952e+00  -6.2621305e+07
   3.8746249e-10  -6.6124617e-03   5.8226686e+00   3.4806155e+00  -6.2245570e+07
   3.8812938e-10  -6.5710756e-03   5.8177541e+00   3.4888956e+00  -6.1871853e+07
   3.8879627e-10  -6.5299379e-03   5.8128564e+00   3.4971353e+00  -6.1500147e+07
   3.8946315e-10  -6.4890476e-03   5.8079758e+00   3.5053349e+00  -6.1130444e+07
   3.9013004e-10  -6.4484031e-03   5.8031121e+00   3.5134943e+00  -6.0762737e+07
   3.9079693e-10  -6.4080031e-03   5.7982656e+00   3.5216136e+00  -6.0397019e+07
   3.9146382e-10  -6.3678464e-03   5.7934363e+00   3.5296928e+00  -6.0033282e+07
   3.9213071e-10  -6.3279316e-03   5.7886243e+00   3.5377321e+00  -5.9671519e+07
   3.9279760e-10  -6.2882574e-03   5.7838296e+00   3.5457315e+00  -5.9311722e+07
   3.9346449e-10  -6.2488225e-03   5.7790523e+00   3.5536911e+00  -5.8953884e+07
   3.9413138e-10  -6.2096256e-03   5.7742924e+00   3.5616109e+00  -5.8597997e+07
   3.9479827e-10  -6.1706654e-03   5.7695501e+00   3.5694910e+00  -5.8244053e+07
   3.9546516e-10  -6.1319405e-03   5.7648253e+00   3.5773315e+00  -5.7892046e+07
   3.9613204e-10  -6.0934498e-03   5.7601181e+00   3.5851325e+00  -5.7541968e+07
   3.9679893e-10  -6.0551919e-03   5.7554286e+00   3.5928940e+00  -5.7193811e+07
   3.9746582e-10  -6.0171655e-03   5.7507568e+00   3.6006161e+00  -5.6847567e+07
   3.9813271e-10  -5.9793694e-03   5.7461028e+00   3.6082990e+00  -5.6503228e+07
   3.9879960e-10  -5.9418023e-03   5.7414666e+00   3.6159427e+00  -5.6160788e+07
   3.9946649e-10  -5.9044630e-03   5.7368482e+00   3.6235473e+00  -5.5820239e+07
   4.0013338e-10  -5.8673501e-03   5.7322478e+00   3.6311128e+00  -5.5481572e+07
   4.0080027e-10  -5.8304625e-03   5.7276653e+00   3.6386394e+00  -5.5144780e+07
   4.0146716e-10  -5.7937988e-03   5.7231007e+00   3.6461272e+00  -5.4809856e+07
   4.0213404e-10  -5.7573579e-03   5.7185542e+00   3.6535763e+00  -5.4476791e+07
   4.0280093e-10  -5.7211384e-03   5.7140256e+00   3.6609867e+00  -5.4145579e+07
   4.0346782e-10  -5.6851393e-03   5.7095152e+00   3.6683585e+00  -5.3816211e+07
   4.0413471e-10  -5.6493592e-03   5.7050229e+00   3.6756920e+00  -5.3488679e+07
   4.0480160e-10  -5.6137969e-03   5.7005486e+00   3.6829871e+00  -5.3162977e+07
   4.0546849e-10  -5.5784511e-03   5.6960926e+00   3.6902439e+00  -5.2839095e+07
   4.0613538e-10  -5.5433208e-03   5.6916547e+00   3.6974626e+00  -5.2517027e+07
   4.0680227e-10  -5.5084047e-03   5.6872349e+00   3.7046433e+00  -5.2196765e+07
   4.0746916e-10  -5.4737015e-03   5.6828334e+00   3.7117861e+00  -5.1878300e+07
   4.0813605e-10  -5.4392102e-03   5.6784502e+00   3.7188911e+00  -5.1561626e+07
   4.0880293e-10  -5.4049294e-03   5.6740851e+00   3.7259583e+00  -5.1246734e+07
   4.0946982e-10  -5.3708580e-03   5.6697384e+00   3.7329880e+00  -5.0933616e+07
   4.1013671e-10  -5.3369948e-03   5.6654099e+00   3.7399802e+00  -5.0622266e+07
   4.1080360e-10  -5.3033387e-03   5.6610997e+00   3.7469351e+00  -5.0312674e+07
   4.1147049e-10  -5.2698885e-03   5.6568078e+00   3.7538527e+00  -5.0004834e+07
   4.1213738e-10  -5.2366430e-03   5.6525341e+00   3.7607332e+00  -4.9698738e+07
   4.1280427e-10  -5.2036011e-03   5.6482788e+00   3.7675767e+00  -4.9394377e+07
   4.1347116e-10  -5.1707615e-03   5.6440418e+00   3.7743833e+00  -4.9091744e+07
   4.1413805e-10  -5.1381232e-03   5.6398231e+00   3.7811531e+00  -4.8790831e+07
   4.1480493e-10  -5.1056850e-03   5.6356228e+00   3.7878863e+00  -4.8491631e+07
   4.1547182e-10  -5.0734457e-03   5.6314407e+00   3.7945829e+00  -4.8194136e+07
   4.1613871e-10  -5.0414043e-03   5.6272770e+00   3.8012432e+00  -4.7898338e+07
   4.1680560e-10  -5.0095596e-03   5.6231316e+00   3.8078671e+00  -4.7604229e+07
   4.1747249e-10  -4.9779105e-03   5.6190044e+00   3.8144549e+00  -4.7311801e+07
   4.1813938e-10  -4.9464558e-03   5.6148956e+00   3.8210067e+00  -4.7021047e+07
   4.1880627e-10  -4.9151945e-03   5.6108051e+00   3.8275226e+00  -4.6731959e+07
   4.1947316e-10  -4.8841254e-03   5.6067328e+00   3.8340027e+00  -4.6444530e+07
   4.2014005e-10  -4.8532474e-03   5.6026789e+00   3.8404472e+00  -4.6158751e+07
   4.2080694e-10  -4.8225595e-03   5.5986432e+00   3.8468561e+00  -4.5874615e+07
   4.2147382e-10  -4.7920605e-03   5.5946258e+00   3.8532296e+00  -4.5592115e+07
   4.2214071e-10  -4.7617494e-03   5.5906266e+00   3.8595679e+00  -4.5311241e+07
   4.2280760e-10  -4.7316250e-03   5.5866456e+00   3.8658711e+00  -4.5031988e+07
   4.2347449e-10  -4.7016863e-03   5.5826828e+00   3.8721393e+00  -4.4754347e+07
   4.2414138e-10  -4.6719323e-03   5.5787382e+00   3.8783726e+00  -4.4478310e+07
   4.2480827e-10  -4.6423618e-03   5.5748118e+00   3.8845712e+00  -4.4203870e+07
   4.2547516e-10  -4.6129738e-03   5.5709036e+00   3.8907352e+00  -4.3931019e+07
   4.2614205e-10  -4.5837672e-03   5.5670135e+00   3.8968647e+00  -4.3659750e+07
   4.2680894e-10  -4.5547410e-03   5.5631415e+00   3.9029599e+00  -4.3390055e+07
   4.2747583e-10  -4.5258942e-03   5.5592876e+00   3.9090210e+00  -4.3121926e+07
   4.2814271e-10  -4.4972256e-03   5.5554517e+00   3.9150479e+00  -4.2855356e+07
   4.2880960e-10  -4.4687343e-03   5.5516339e+00   3.9210410e+00  -4.2590337e+07
   4.2947649e-10  -4.4404192e-03   5.5478342e+00   3.9270002e+00  -4.2326862e+07
   4.3014338e-10  -4.4122793e-03   5.5440524e+00   3.9329259e+00  -4.2064923e+07
   4.3081027e-10  -4.3843136e-03   5.5402885e+00   3.9388180e+00  -4.1804512e+07
   4.3147716e-10  -4.3565210e-03   5.5365426e+00   3.9446767e+00  -4.1545622e+07
   4.3214405e-10  -4.3289006e-03   5.5328146e+00   3.9505022e+00  -4.1288246e+07
   4.3281094e-10  -4.3014514e-03   5.5291045e+00   3.9562947e+00  -4.1032376e+07
   4.3347783e-10  -4.2741722e-03   5.5254122e+00   3.9620541e+00  -4.0778004e+07
   4.3414471e-10  -4.2470622e-03   5.5217378e+00   3.9677808e+00  -4.0525123e+07
   4.3481160e-10  -4.2201204e-03   5.5180811e+00   3.9734748e+00  -4.0273727e+07
   4.3547849e-10  -4.1933457e-03   5.5144421e+00   3.9791362e+00  -4.0023806e+07
   4.3614538e-10  -4.1667372e-03   5.5108208e+00   3.9847653e+00  -3.9775354e+07
   4.3681227e-10  -4.1402939e-03   5.5072173e+00   3.9903621e+00  -3.9528363e+07
   4.3747916e-10  -4.1140148e-03   5.5036313e+00   3.9959268e+00  -3.9282827e+07
   4.3814605e-10  -4.0878990e-03   5.5000630e+00   4.0014595e+00  -3.9038737e+07
   4.3881294e-10  -4.0619455e-03   5.4965122e+00   4.0069604e+00  -3.8796086e+07
   4.3947983e-10  -4.0361533e-03   5.4929789e+00   4.0124296e+00  -3.8554868e+07
   4.4014672e-10  -4.0105215e-03   5.4894631e+00   4.0178672e+00  -3.8315074e+07
   4.4081360e-10  -3.9850492e-03   5.4859647e+00   4.0232735e+00  -3.8076697e+07
   4.4148049e-10  -3.9597354e-03   5.4824838e+00   4.0286484e+00  -3.7839731e+07
   4.4214738e-10  -3.9345791e-03   5.4790202e+00   4.0339923e+00  -3.7604168e+07
   4.4281427e-10  -3.9095794e-03   5.4755739e+00   4.0393051e+00  -3.7370000e+07
   4.4348116e-10  -3.8847355e-03   5.4721449e+00   4.0445872e+00  -3.7137221e+07
   4.4414805e-10  -3.8600463e-03   5.4687331e+00   4.0498385e+00  -3.6905823e+07
   4.4481494e-10  -3.8355110e-03   5.4653385e+00   4.0550592e+00  -3.6675800e+07
   4.4548183e-10  -3.8111286e-03   5.4619610e+00   4.0602496e+00  -3.6447143e+07
   4.4614872e-10  -3.7868983e-03   5.4586007e+00   4.0654096e+00  -3.6219847e+07
   4.4681561e-10  -3.7628191e-03   5.4552574e+00   4.0705396e+00  -3.5993903e+07
   4.4748249e-10  -3.7388901e-03   5.4519311e+00   4.0756395e+00  -3.5769305e+07
   4.4814938e-10  -3.7151105e-03   5.4486217e+00   4.0807096e+00  -3.5546045e+07
   4.4881627e-10  -3.6914793e-03   5.4453292e+00   4.0857500e+00  -3.5324117e+07
   4.4948316e-10  -3.6679957e-03   5.4420536e+00   4.0907608e+00  -3.5103514e+07
   4.5015005e-10  -3.6446587e-03   5.4387949e+00   4.0957421e+00  -3.4884229e+07
   4.5081694e-10  -3.6214676e-03   5.4355528e+00   4.1006942e+00  -3.4666254e+07
   4.5148383e-10  -3.5984214e-03   5.4323275e+00   4.1056172e+00  -3.4449583e+07
   4.5215072e-10  -3.5755192e-03   5.4291189e+00   4.1105111e+00  -3.4234208e+07
   4.5281761e-10  -3.5527602e-03   5.4259268e+00   4.1153762e+00  -3.4020124e+07
   4.5348449e-10  -3.5301436e-03   5.4227513e+00   4.1202125e+00  -3.3807323e+07
   4.5415138e-10  -3.5076685e-03   5.4195924e+00   4.1250203e+00  -3.3595797e+07
   4.5481827e-10  -3.4853340e-03   5.4164499e+00   4.1297996e+00  -3.3385542e+07
   4.5548516e-10  -3.4631393e-03   5.4133237e+00   4.1345507e+00  -3.3176548e+07
   4.5615205e-10  -3.4410836e-03   5.4102140e+00   4.1392735e+00  -3.2968811e+07
   4.5681894e-10  -3.4191660e-03   5.4071205e+00   4.1439684e+00  -3.2762323e+07
   4.5748583e-10  -3.3973856e-03   5.4040433e+00   4.1486354e+00  -3.2557076e+07
   4.5815272e-10  -3.3757418e-03   5.4009823e+00   4.1532746e+00  -3.2353066e+07
   4.5881961e-10  -3.3542336e-03   5.3979374e+00   4.1578862e+00  -3.2150284e+07
   4.5948650e-10  -3.3328602e-03   5.3949086e+00   4.1624703e+00  -3.1948725e+07
   4.6015338e-10  -3.3116208e-03   5.3918958e+00   4.1670272e+00  -3.1748381e+07
   4.6082027e-10  -3.2905146e-03   5.3888990e+00   4.1715568e+00  -3.1549247e+07
   4.6148716e-10  -3.2695408e-03   5.3859181e+00   4.1760594e+00  -3.1351314e+07
   4.6215405e-10  -3.2486986e-03   5.3829531e+00   4.1805351e+00  -3.1154578e+07
   4.6282094e-10  -3.2279873e-03   5.3800039e+00   4.1849840e+00  -3.0959031e+07
   4.6348783e-10  -3.2074059e-03   5.3770705e+00   4.1894062e+00  -3.0764666e+07
   4.6415472e-10  -3.1869538e-03   5.3741527e+00   4.1938020e+00  -3.0571478e+07
   4.6482161e-10  -3.1666301e-03   5.3712506e+00   4.1981714e+00  -3.0379460e+07
   4.6548850e-10  -3.1464341e-03   5.3683640e+00   4.2025146e+00  -3.0188605e+07
   4.6615539e-10  -3.1263649e-03   5.3654930e+00   4.2068316e+00  -2.9998908e+07
   4.6682227e-10  -3.1064219e-03   5.3626374e+00   4.2111228e+00  -2.9810360e+07
   4.6748916e-10  -3.0866043e-03   5.3597973e+00   4.2153881e+00  -2.9622958e+07
   4.6815605e-10  -3.0669112e-03   5.3569725e+00   4.2196277e+00  -2.9436693e+07
   4.6882294e-10  -3.0473420e-03   5.3541630e+00   4.2238418e+00  -2.9251560e+07
   4.6948983e-10  -3.0278959e-03   5.3513687e+00   4.2280304e+00  -2.9067552e+07
   4.7015672e-10  -3.0085721e-03   5.3485896e+00   4.2321938e+00  -2.8884663e+07
   4.7082361e-10  -2.9893699e-03   5.3458256e+00   4.2363320e+00  -2.8702887e+07
   4.7149050e-10  -2.9702886e-03   5.3430767e+00   4.2404452e+00  -2.8522218e+07
   4.7215739e-10  -2.9513274e-03   5.3403428e+00   4.2445336e+00  -2.8342649e+07
   4.7282427e-10  -2.9324855e-03   5.3376238e+00   4.2485972e+00  -2.8164174e+07
   4.7349116e-10  -2.9137624e-03   5.3349197e+00   4.2526361e+00  -2.7986788e+07
   4.7415805e-10  -2.8951571e-03   5.3322305e+00   4.2566506e+00  -2.7810484e+07
   4.7482494e-10  -2.8766691e-03   5.3295559e+00   4.2606407e+00  -2.7635256e+07
   4.7549183e-10  -2.8582976e-03   5.3268961e+00   4.2646066e+00  -2.7461097e+07
   4.7615872e-10  -2.8400419e-03   5.3242510e+00   4.2685485e+00  -2.7288003e+07
   4.7682561e-10  -2.8219012e-03   5.3216204e+00   4.2724663e+00  -2.7115967e+07
   4.7749250e-10  -2.8038750e-03   5.3190044e+00   4.2763603e+00  -2.6944982e+07
   4.7815939e-10  -2.7859624e-03   5.3164028e+00   4.2802306e+00  -2.6775044e+07
   4.7882628e-10  -2.7681628e-03   5.3138156e+00   4.2840774e+00  -2.6606146e+07
   4.7949316e-10  -2.7504755e-03   5.3112428e+00   4.2879007e+00  -2.6438282e+07
   4.8016005e-10  -2.7328998e-03   5.3086842e+00   4.2917007e+00  -2.6271446e+07
   4.8082694e-10  -2.7154350e-03   5.3061399e+00   4.2954775e+00  -2.6105633e+07
   4.8149383e-10  -2.6980804e-03   5.3036098e+00   4.2992312e+00  -2.5940836e+07
   4.8216072e-10  -2.6808354e-03   5.3010937e+00   4.3029620e+00  -2.5777050e+07
   4.8282761e-10  -2.6636993e-03   5.2985917e+00   4.3066700e+00  -2.5614270e+07
   4.8349450e-10  -2.6466715e-03   5.2961037e+00   4.3103552e+00  -2.5452489e+07
   4.8416139e-10  -2.6297511e-03   5.2936296e+00   4.3140180e+00  -2.5291701e+07
   4.8482828e-10  -2.6129377e-03   5.2911693e+00   4.3176583e+00  -2.5131902e+07
   4.8549517e-10  -2.5962305e-03   5.2887229e+00   4.3212763e+00  -2.4973085e+07
   4.8616205e-10  -2.5796290e-03   5.2862902e+00   4.3248721e+00  -2.4815244e+07
   4.8682894e-10  -2.5631323e-03   5.2838712e+00   4.3284458e+00  -2.4658375e+07
   4.8749583e-10  -2.5467399e-03   5.2814658e+00   4.3319977e+00  -2.4502471e+07
   4.8816272e-10  -2.5304512e-03   5.2790740e+00   4.3355277e+00  -2.4347527e+07
   4.8882961e-10  -2.5142655e-03   5.2766957e+00   4.3390360e+00  -2.4193538e+07
   4.8949650e-10  -2.4981822e-03   5.2743308e+00   4.3425227e+00  -2.4040497e+07
   4.9016339e-10  -2.4822006e-03   5.2719793e+00   4.3459880e+00  -2.3888400e+07
   4.9083028e-10  -2.4663202e-03   5.2696411e+00   4.3494319e+00  -2.3737241e+07
   4.9149717e-10  -2.4505402e-03   5.2673161e+00   4.3528546e+00  -2.3587015e+07
   4.9216405e-10  -2.4348601e-03   5.2650044e+00   4.3562563e+00  -2.3437716e+07
   4.9283094e-10  -2.4192793e-03   5.2627058e+00   4.3596370e+00  -2.3289338e+07
   4.9349783e-10  -2.4037971e-03   5.2604203e+00   4.3629968e+00  -2.3141877e+07
   4.9416472e-10  -2.3884130e-03   5.2581478e+00   4.3663359e+00  -2.2995327e+07
   4.9483161e-10  -2.3731263e-03   5.2558883e+00   4.3696544e+00  -2.2849683e+07
   4.9549850e-10  -2.3579364e-03   5.2536417e+00   4.3729523e+00  -2.2704940e+07
   4.9616539e-10  -2.3428427e-03   5.2514079e+00   4.3762299e+00  -2.2561091e+07
   4.9683228e-10  -2.3278447e-03   5.2491869e+00   4.3794873e+00  -2.2418133e+07
   4.9749917e-10  -2.3129417e-03   5.2469786e+00   4.3827244e+00  -2.2276060e+07
   4.9816606e-10  -2.2981332e-03   5.2447829e+00   4.3859416e+00  -2.2134867e+07
   4.9883294e-10  -2.2834185e-03   5.2425999e+00   4.3891388e+00  -2.1994548e+07
   4.9949983e-10  -2.2687972e-03   5.2404294e+00   4.3923162e+00  -2.1855098e+07
   5.0016672e-10  -2.2542685e-03   5.2382714e+00   4.3954740e+00  -2.1716513e+07
   5.0083361e-10  -2.2398320e-03   5.2361258e+00   4.3986121e+00  -2.1578788e+07
   5.0150050e-10  -2.2254870e-03   5.2339925e+00   4.4017308e+00  -2.1441916e+07
   5.0216739e-10  -2.2112330e-03   5.2318716e+00   4.4048301e+00  -2.1305894e+07
   5.0283428e-10  -2.1970695e-03   5.2297629e+00   4.4079102e+00  -2.1170716e+07
   5.0350117e-10  -2.1829958e-03   5.2276664e+00   4.4109712e+00  -2.1036378e+07
   5.0416806e-10  -2.1690114e-03   5.2255820e+00   4.4140131e+00  -2.0902873e+07
   5.0483494e-10  -2.1551158e-03   5.2235097e+00   4.4170362e+00  -2.0770199e+07
   5.0550183e-10  -2.1413084e-03   5.2214494e+00   4.4200404e+00  -2.0638348e+07
   5.0616872e-10  -2.1275887e-03   5.2194010e+00   4.4230260e+00  -2.0507318e+07
   5.0683561e-10  -2.1139560e-03   5.2173645e+00   4.4259929e+00  -2.0377102e+07
   5.0750250e-10  -2.1004099e-03   5.2153399e+00   4.4289414e+00  -2.0247696e+07
   5.0816939e-10  -2.0869499e-03   5.2133270e+00   4.4318716e+00  -2.0119096e+07
   5.0883628e-10  -2.0735754e-03   5.2113259e+00   4.4347834e+00  -1.9991296e+07
   5.0950317e-10  -2.0602858e-03   5.2093364e+00   4.4376772e+00  -1.9864292e+07
   5.1017006e-10  -2.0470806e-03   5.2073585e+00   4.4405528e+00  -1.9738078e+07
   5.1083695e-10  -2.0339594e-03   5.2053921e+00   4.4434106e+00  -1.9612651e+07
   5.1150383e-10  -2.0209215e-03   5.2034373e+00   4.4462505e+00  -1.9488006e+07
   5.1217072e-10  -2.0079665e-03   5.2014938e+00   4.4490727e+00  -1.9364138e+07
   5.1283761e-10  -1.9950939e-03   5.1995617e+00   4.4518772e+00  -1.9241042e+07
   5.1350450e-10  -1.9823031e-03   5.1976410e+00   4.4546643e+00  -1.9118714e+07
   5.1417139e-10  -1.9695936e-03   5.1957315e+00   4.4574339e+00  -1.8997149e+07
   5.1483828e-10  -1.9569650e-03   5.1938332e+00   4.4601862e+00  -1.8876342e+07
   5.1550517e-10  -1.9444166e-03   5.1919460e+00   4.4629213e+00  -1.8756290e+07
   5.1617206e-10  -1.9319481e-03   5.1900699e+00   4.4656393e+00  -1.8636987e+07
   5.1683895e-10  -1.9195588e-03   5.1882049e+00   4.4683403e+00  -1.8518430e+07
   5.1750584e-10  -1.9072484e-03   5.1863508e+00   4.4710244e+00  -1.8400613e+07
   5.1817272e-10  -1.8950163e-03   5.1845076e+00   4.4736917e+00  -1.8283533e+07
   5.1883961e-10  -1.8828621e-03   5.1826753e+00   4.4763422e+00  -1.8167184e+07
   5.1950650e-10  -1.8707852e-03   5.1808538e+00   4.4789762e+00  -1.8051563e+07
   5.2017339e-10  -1.8587852e-03   5.1790431e+00   4.4815936e+00  -1.7936665e+07
   5.2084028e-10  -1.8468615e-03   5.1772430e+00   4.4841947e+00  -1.7822485e+07
   5.2150717e-10  -1.8350138e-03   5.1754536e+00   4.4867794e+00  -1.7709021e+07
   5.2217406e-10  -1.8232414e-03   5.1736747e+00   4.4893479e+00  -1.7596266e+07
   5.2284095e-10  -1.8115441e-03   5.1719064e+00   4.4919003e+00  -1.7484217e+07
   5.2350784e-10  -1.7999212e-03   5.1701486e+00   4.4944367e+00  -1.7372870e+07
   5.2417472e-10  -1.7883724e-03   5.1684012e+00   4.4969571e+00  -1.7262220e+07
   5.2484161e-10  -1.7768971e-03   5.1666641e+00   4.4994617e+00  -1.7152264e+07
   5.2550850e-10  -1.7654949e-03   5.1649374e+00   4.5019506e+00  -1.7042996e+07
   5.2617539e-10  -1.7541654e-03   5.1632209e+00   4.5044238e+00  -1.6934414e+07
   5.2684228e-10  -1.7429080e-03   5.1615146e+00   4.5068815e+00  -1.6826512e+07
   5.2750917e-10  -1.7317224e-03   5.1598184e+00   4.5093237e+00  -1.6719287e+07
   5.2817606e-10  -1.7206081e-03   5.1581324e+00   4.5117506e+00  -1.6612735e+07
   5.2884295e-10  -1.7095645e-03   5.1564564e+00   4.5141622e+00  -1.6506851e+07
   5.2950984e-10  -1.6985914e-03   5.1547903e+00   4.5165586e+00  -1.6401631e+07
   5.3017673e-10  -1.6876883e-03   5.1531342e+00   4.5189400e+00  -1.6297072e+07
   5.3084361e-10  -1.6768546e-03   5.1514880e+00   4.5213063e+00  -1.6193169e+07
   5.3151050e-10  -1.6660900e-03   5.1498517e+00   4.5236578e+00  -1.6089919e+07
   5.3217739e-10  -1.6553941e-03   5.1482250e+00   4.5259944e+00  -1.5987318e+07
   5.3284428e-10  -1.6447664e-03   5.1466082e+00   4.5283163e+00  -1.5885361e+07
   5.3351117e-10  -1.6342064e-03   5.1450010e+00   4.5306236e+00  -1.5784044e+07
   5.3417806e-10  -1.6237138e-03   5.1434034e+00   4.5329163e+00  -1.5683365e+07
   5.3484495e-10  -1.6132881e-03   5.1418153e+00   4.5351945e+00  -1.5583318e+07
   5.3551184e-10  -1.6029290e-03   5.1402368e+00   4.5374584e+00  -1.5483901e+07
   5.3617873e-10  -1.5926359e-03   5.1386678e+00   4.5397080e+00  -1.5385108e+07
   5.3684562e-10  -1.5824085e-03   5.1371082e+00   4.5419434e+00  -1.5286937e+07
   5.3751250e-10  -1.5722464e-03   5.1355579e+00   4.5441647e+00  -1.5189384e+07
   5.3817939e-10  -1.5621491e-03   5.1340170e+00   4.5463720e+00  -1.5092445e+07
   5.3884628e-10  -1.5521163e-03   5.1324853e+00   4.5485654e+00  -1.4996116e+07
   5.3951317e-10  -1.5421475e-03   5.1309628e+00   4.5507448e+00  -1.4900393e+07
   5.4018006e-10  -1.5322423e-03   5.1294495e+00   4.5529105e+00  -1.4805274e+07
   5.4084695e-10  -1.5224004e-03   5.1279453e+00   4.5550626e+00  -1.4710753e+07
   5.4151384e-10  -1.5126213e-03   5.1264501e+00   4.5572010e+00  -1.4616828e+07
   5.4218073e-10  -1.5029047e-03   5.1249640e+00   4.5593259e+00  -1.4523494e+07
   5.4284762e-10  -1.4932501e-03   5.1234868e+00   4.5614374e+00  -1.4430749e+07
   5.4351450e-10  -1.4836571e-03   5.1220186e+00   4.5635355e+00  -1.4338588e+07
   5.4418139e-10  -1.4741255e-03   5.1205592e+00   4.5656203e+00  -1.4247008e+07
   5.4484828e-10  -1.4646547e-03   5.1191086e+00   4.5676919e+00  -1.4156006e+07
   5.4551517e-10  -1.4552444e-03   5.1176668e+00   4.5697505e+00  -1.4065577e+07
   5.4618206e-10  -1.4458942e-03   5.1162337e+00   4.5717960e+00  -1.3975719e+07
   5.4684895e-10  -1.4366037e-03   5.1148092e+00   4.5738285e+00  -1.3886428e+07
   5.4751584e-10  -1.4273726e-03   5.1133934e+00   4.5758482e+00  -1.3797700e+07
   5.4818273e-10  -1.4182005e-03   5.1119862e+00   4.5778551e+00  -1.3709533e+07
   5.4884962e-10  -1.4090871e-03   5.1105875e+00   4.5798493e+00  -1.3621922e+07
   5.4951651e-10  -1.4000318e-03   5.1091973e+00   4.5818308e+00  -1.3534864e+07
   5.5018339e-10  -1.3910344e-03   5.1078155e+00   4.5837998e+00  -1.3448355e+07
   5.5085028e-10  -1.3820946e-03   5.1064421e+00   4.5857563e+00  -1.3362393e+07
   5.5151717e-10  -1.3732118e-03   5.1050770e+00   4.5877003e+00  -1.3276974e+07
   5.5218406e-10  -1.3643859e-03   5.1037202e+00   4.5896321e+00  -1.3192095e+07
   5.5285095e-10  -1.3556164e-03   5.1023717e+00   4.5915516e+00  -1.3107752e+07
   5.5351784e-10  -1.3469030e-03   5.1010313e+00   4.5934589e+00  -1.3023942e+07
   5.5418473e-10  -1.3382452e-03   5.0996992e+00   4.5953542e+00  -1.2940662e+07
   5.5485162e-10  -1.3296429e-03   5.0983751e+00   4.5972374e+00  -1.2857909e+07
   5.5551851e-10  -1.3210955e-03   5.0970591e+00   4.5991086e+00  -1.2775678e+07
   5.5618540e-10  -1.3126028e-03   5.0957511e+00   4.6009680e+00  -1.2693968e+07
   5.5685228e-10  -1.3041645e-03   5.0944510e+00   4.6028156e+00  -1.2612774e+07
   5.5751917e-10  -1.2957801e-03   5.0931589e+00   4.6046514e+00  -1.2532095e+07
   5.5818606e-10  -1.2874493e-03   5.0918747e+00   4.6064756e+00  -1.2451925e+07
   5.5885295e-10  -1.2791719e-03   5.0905983e+00   4.6082882e+00  -1.2372263e+07
   5.5951984e-10  -1.2709474e-03   5.0893297e+00   4.6100892e+00  -1.2293105e+07
   5.6018673e-10  -1.2627755e-03   5.0880689e+00   4.6118788e+00  -1.2214448e+07
   5.6085362e-10  -1.2546559e-03   5.0868157e+00   4.6136571e+00  -1.2136290e+07
   5.6152051e-10  -1.2465883e-03   5.0855702e+00   4.6154240e+00  -1.2058626e+07
   5.6218740e-10  -1.2385723e-03   5.0843324e+00   4.6171798e+00  -1.1981454e+07
   5.6285428e-10  -1.2306076e-03   5.0831021e+00   4.6189243e+00  -1.1904770e+07
   5.6352117e-10  -1.2226938e-03   5.0818793e+00   4.6206578e+00  -1.1828573e+07
   5.6418806e-10  -1.2148308e-03   5.0806640e+00   4.6223802e+00  -1.1752858e+07
   5.6485495e-10  -1.2070180e-03   5.0794562e+00   4.6240917e+00  -1.1677623e+07
   5.6552184e-10  -1.1992553e-03   5.0782558e+00   4.6257922e+00  -1.1602865e+07
   5.6618873e-10  -1.1915423e-03   5.0770627e+00   4.6274820e+00  -1.1528581e+07
   5.6685562e-10  -1.1838786e-03   5.0758769e+00   4.6291610e+00  -1.1454768e+07
   5.6752251e-10  -1.1762640e-03   5.0746985e+00   4.6308293e+00  -1.1381422e+07
   5.6818940e-10  -1.1686982e-03   5.0735272e+00   4.6324870e+00  -1.1308542e+07
   5.6885629e-10  -1.1611809e-03   5.0723631e+00   4.6341342e+00  -1.1236124e+07
   5.6952317e-10  -1.1537116e-03   5.0712062e+00   4.6357708e+00  -1.1164165e+07
   5.7019006e-10  -1.1462902e-03   5.0700564e+00   4.6373971e+00  -1.1092663e+07
   5.7085695e-10  -1.1389164e-03   5.0689137e+00   4.6390129e+00  -1.1021615e+07
   5.7152384e-10  -1.1315898e-03   5.0677780e+00   4.6406185e+00  -1.0951017e+07
   5.7219073e-10  -1.1243101e-03   5.0666493e+00   4.6422139e+00  -1.0880868e+07
   5.7285762e-10  -1.1170770e-03   5.0655275e+00   4.6437990e+00  -1.0811163e+07
   5.7352451e-10  -1.1098903e-03   5.0644126e+00   4.6453741e+00  -1.0741901e+07
   5.7419140e-10  -1.1027496e-03   5.0633046e+00   4.6469392e+00  -1.0673079e+07
   5.7485829e-10  -1.0956547e-03   5.0622034e+00   4.6484942e+00  -1.0604694e+07
   5.7552518e-10  -1.0886052e-03   5.0611090e+00   4.6500394e+00  -1.0536743e+07
   5.7619206e-10  -1.0816009e-03   5.0600214e+00   4.6515747e+00  -1.0469224e+07
   5.7685895e-10  -1.0746415e-03   5.0589405e+00   4.6531002e+00  -1.0402133e+07
   5.7752584e-10  -1.0677267e-03   5.0578662e+00   4.6546160e+00  -1.0335469e+07
   5.7819273e-10  -1.0608562e-03   5.0567986e+00   4.6561221e+00  -1.0269229e+07
   5.7885962e-10  -1.0540297e-03   5.0557375e+00   4.6576186e+00  -1.0203409e+07
   5.7952651e-10  -1.0472470e-03   5.0546830e+00   4.6591056e+00  -1.0138007e+07
   5.8019340e-10  -1.0405077e-03   5.0536350e+00   4.6605830e+00  -1.0073022e+07
   5.8086029e-10  -1.0338117e-03   5.0525935e+00   4.6620511e+00  -1.0008449e+07
   5.8152718e-10  -1.0271586e-03   5.0515585e+00   4.6635097e+00  -9.9442871e+06
   5.8219406e-10  -1.0205482e-03   5.0505298e+00   4.6649591e+00  -9.8805329e+06
   5.8286095e-10  -1.0139801e-03   5.0495075e+00   4.6663992e+00  -9.8171842e+06
   5.8352784e-10  -1.0074541e-03   5.0484915e+00   4.6678301e+00  -9.7542384e+06
   5.8419473e-10  -1.0009700e-03   5.0474818e+00   4.6692519e+00  -9.6916929e+06
   5.8486162e-10  -9.9452746e-04   5.0464784e+00   4.6706646e+00  -9.6295453e+06
   5.8552851e-10  -9.8812624e-04   5.0454812e+00   4.6720683e+00  -9.5677930e+06
   5.8619540e-10  -9.8176606e-04   5.0444901e+00   4.6734630e+00  -9.5064337e+06
   5.8686229e-10  -9.7544668e-04   5.0435052e+00   4.6748488e+00  -9.4454648e+06
   5.8752918e-10  -9.6916783e-04   5.0425264e+00   4.6762257e+00  -9.3848839e+06
   5.8819607e-10  -9.6292924e-04   5.0415537e+00   4.6775939e+00  -9.3246886e+06
   5.8886295e-10  -9.5673068e-04   5.0405870e+00   4.6789533e+00  -9.2648765e+06
   5.8952984e-10  -9.5057187e-04   5.0396263e+00   4.6803040e+00  -9.2054451e+06
   5.9019673e-10  -9.4445257e-04   5.0386716e+00   4.6816461e+00  -9.1463921e+06
   5.9086362e-10  -9.3837253e-04   5.0377228e+00   4.6829796e+00  -9.0877152e+06
   5.9153051e-10  -9.3233150e-04   5.0367798e+00   4.6843046e+00  -9.0294119e+06
   5.9219740e-10  -9.2632922e-04   5.0358428e+00   4.6856211e+00  -8.9714799e+06
   5.9286429e-10  -9.2036545e-04   5.0349116e+00   4.6869292e+00  -8.9139169e+06
   5.9353118e-10  -9.1443995e-04   5.0339861e+00   4.6882289e+00  -8.8567206e+06
   5.9419807e-10  -9.0855247e-04   5.0330664e+00   4.6895203e+00  -8.7998886e+06
   5.9486495e-10  -9.0270277e-04   5.0321525e+00   4.6908035e+00  -8.7434188e+06
   5.9553184e-10  -8.9689061e-04   5.0312442e+00   4.6920784e+00  -8.6873088e+06
   5.9619873e-10  -8.9111575e-04   5.0303415e+00   4.6933452e+00  -8.6315563e+06
   5.9686562e-10  -8.8537796e-04   5.0294445e+00   4.6946039e+00  -8.5761592e+06
   5.9753251e-10  -8.7967698e-04   5.0285531e+00   4.6958546e+00  -8.5211152e+06
   5.9819940e-10  -8.7401260e-04   5.0276672e+00   4.6970972e+00  -8.4664220e+06
   5.9886629e-10  -8.6838458e-04   5.0267869e+00   4.6983319e+00  -8.4120775e+06
   5.9953318e-10  -8.6279268e-04   5.0259120e+00   4.6995587e+00  -8.3580795e+06
   6.0020007e-10  -8.5723668e-04   5.0250426e+00   4.7007776e+00  -8.3044259e+06
   6.0086696e-10  -8.5171635e-04   5.0241786e+00   4.7019888e+00  -8.2511143e+06
   6.0153384e-10  -8.4623145e-04   5.0233200e+00   4.7031921e+00  -8.1981428e+06
   6.0220073e-10  -8.4078177e-04   5.0224667e+00   4.7043878e+00  -8.1455091e+06
   6.0286762e-10  -8.3536708e-04   5.0216188e+00   4.7055759e+00  -8.0932111e+06
   6.0353451e-10  -8.2998715e-04   5.0207761e+00   4.7067563e+00  -8.0412468e+06
   6.0420140e-10  -8.2464176e-04   5.0199388e+00   4.7079291e+00  -7.9896139e+06
   6.0486829e-10  -8.1933070e-04   5.0191066e+00   4.7090945e+00  -7.9383106e+06
   6.0553518e-10  -8.1405375e-04   5.0182797e+00   4.7102524e+00  -7.8873345e+06
   6.0620207e-10  -8.0881068e-04   5.0174579e+00   4.7114028e+00  -7.8366838e+06
   6.0686896e-10  -8.0360128e-04   5.0166412e+00   4.7125459e+00  -7.7863564e+06
   6.0753585e-10  -7.9842534e-04   5.0158297e+00   4.7136817e+00  -7.7363501e+06
   6.0820273e-10  -7.9328264e-04   5.0150232e+00   4.7148102e+00  -7.6866631e+06
   6.0886962e-10  -7.8817297e-04   5.0142218e+00   4.7159315e+00  -7.6372932e+06
   6.0953651e-10  -7.8309611e-04   5.0134254e+00   4.7170456e+00  -7.5882386e+06
   6.1020340e-10  -7.7805187e-04   5.0126339e+00   4.7181525e+00  -7.5394971e+06
   6.1087029e-10  -7.7304003e-04   5.0118474e+00   4.7192524e+00  -7.4910669e+06
   6.1153718e-10  -7.6806038e-04   5.0110659e+00   4.7203452e+00  -7.4429459e+06
   6.1220407e-10  -7.6311272e-04   5.0102892e+00   4.7214310e+00  -7.3951323e+06
   6.1287096e-10  -7.5819685e-04   5.0095174e+00   4.7225098e+00  -7.3476240e+06
   6.1353785e-10  -7.5331256e-04   5.0087504e+00   4.7235817e+00  -7.3004192e+06
   6.1420473e-10  -7.4845965e-04   5.0079883e+00   4.7246468e+00  -7.2535159e+06
   6.1487162e-10  -7.4363791e-04   5.0072309e+00   4.7257050e+00  -7.2069123e+06
   6.1553851e-10  -7.3884716e-04   5.0064782e+00   4.7267565e+00  -7.1606064e+06
   6.1620540e-10  -7.3408719e-04   5.0057303e+00   4.7278012e+00  -7.1145964e+06
   6.1687229e-10  -7.2935780e-04   5.0049871e+00   4.7288392e+00  -7.0688804e+06
   6.1753918e-10  -7.2465881e-04   5.0042485e+00   4.7298705e+00  -7.0234565e+06
   6.1820607e-10  -7.1999001e-04   5.0035145e+00   4.7308953e+00  -6.9783229e+06
   6.1887296e-10  -7.1535121e-04   5.0027852e+00   4.7319134e+00  -6.9334778e+06
   6.1953985e-10  -7.1074222e-04   5.0020604e+00   4.7329251e+00  -6.8889193e+06
   6.2020674e-10  -7.0616286e-04   5.0013402e+00   4.7339302e+00  -6.8446457e+06
   6.2087362e-10  -7.0161292e-04   5.0006245e+00   4.7349289e+00  -6.8006551e+06
   6.2154051e-10  -6.9709223e-04   4.9999133e+00   4.7359212e+00  -6.7569457e+06
   6.2220740e-10  -6.9260060e-04   4.9992066e+00   4.7369071e+00  -6.7135158e+06
   6.2287429e-10  -6.8813783e-04   4.9985043e+00   4.7378867e+00  -6.6703636e+06
   6.2354118e-10  -6.8370375e-04   4.9978064e+00   4.7388600e+00  -6.6274874e+06
   6.2420807e-10  -6.7929817e-04   4.9971129e+00   4.7398271e+00  -6.5848853e+06
   6.2487496e-10  -6.7492091e-04   4.9964238e+00   4.7407880e+00  -6.5425557e+06
   6.2554185e-10  -6.7057180e-04   4.9957390e+00   4.7417427e+00  -6.5004969e+06
   6.2620874e-10  -6.6625064e-04   4.9950585e+00   4.7426912e+00  -6.4587070e+06
   6.2687563e-10  -6.6195726e-04   4.9943823e+00   4.7436337e+00  -6.4171845e+06
   6.2754251e-10  -6.5769148e-04   4.9937103e+00   4.7445702e+00  -6.3759277e+06
   6.2820940e-10  -6.5345313e-04   4.9930426e+00   4.7455006e+00  -6.3349348e+06
   6.2887629e-10  -6.4924202e-04   4.9923791e+00   4.7464250e+00  -6.2942041e+06
   6.2954318e-10  -6.4505800e-04   4.9917197e+00   4.7473436e+00  -6.2537341e+06
   6.3021007e-10  -6.4090087e-04   4.9910645e+00   4.7482562e+00  -6.2135231e+06
   6.3087696e-10  -6.3677048e-04   4.9904134e+00   4.7491629e+00  -6.1735694e+06
   6.3154385e-10  -6.3266665e-04   4.9897664e+00   4.7500639e+00  -6.1338713e+06
   6.3221074e-10  -6.2858920e-04   4.9891235e+00   4.7509590e+00  -6.0944274e+06
   6.3287763e-10  -6.2453798e-04   4.9884847e+00   4.7518484e+00  -6.0552360e+06
   6.3354451e-10  -6.2051281e-04   4.9878498e+00   4.7527321e+00  -6.0162954e+06
   6.3421140e-10  -6.1651352e-04   4.9872190e+00   4.7536102e+00  -5.9776040e+06
   6.3487829e-10  -6.1253995e-04   4.9865921e+00   4.7544825e+00  -5.9391604e+06
   6.3554518e-10  -6.0859194e-04   4.9859692e+00   4.7553493e+00  -5.9009629e+06
   6.3621207e-10  -6.0466933e-04   4.9853503e+00   4.7562105e+00  -5.8630100e+06
   6.3687896e-10  -6.0077194e-04   4.9847352e+00   4.7570662e+00  -5.8253001e+06
   6.3754585e-10  -5.9689962e-04   4.9841240e+00   4.7579164e+00  -5.7878317e+06
   6.3821274e-10  -5.9305220e-04   4.9835167e+00   4.7587611e+00  -5.7506032e+06
   6.3887963e-10  -5.8922953e-04   4.9829132e+00   4.7596004e+00  -5.7136131e+06
   6.3954652e-10  -5.8543146e-04   4.9823135e+00   4.7604343e+00  -5.6768600e+06
   6.4021340e-10  -5.8165781e-04   4.9817175e+00   4.7612629e+00  -5.6403423e+06
   6.4088029e-10  -5.7790844e-04   4.9811254e+00   4.7620861e+00  -5.6040584e+06
   6.4154718e-10  -5.7418319e-04   4.9805370e+00   4.7629040e+00  -5.5680070e+06
   6.4221407e-10  -5.7048190e-04   4.9799523e+00   4.7637167e+00  -5.5321866e+06
   6.4288096e-10  -5.6680443e-04   4.9793713e+00   4.7645242e+00  -5.4965956e+06
   6.4354785e-10  -5.6315062e-04   4.9787939e+00   4.7653265e+00  -5.4612326e+06
   6.4421474e-10  -5.5952031e-04   4.9782203e+00   4.7661236e+00  -5.4260963e+06
   6.4488163e-10  -5.5591336e-04   4.9776502e+00   4.7669156e+00  -5.3911851e+06
   6.4554852e-10  -5.5232962e-04   4.9770837e+00   4.7677025e+00  -5.3564975e+06
   6.4621541e-10  -5.4876893e-04   4.9765209e+00   4.7684843e+00  -5.3220323e+06
   6.4688229e-10  -5.4523116e-04   4.9759615e+00   4.7692611e+00  -5.2877880e+06
   6.4754918e-10  -5.4171615e-04   4.9754057e+00   4.7700330e+00  -5.2537631e+06
   6.4821607e-10  -5.3822376e-04   4.9748535e+00   4.7707998e+00  -5.2199563e+06
   6.4888296e-10  -5.3475384e-04   4.9743047e+00   4.7715618e+00  -5.1863662e+06
   6.4954985e-10  -5.3130625e-04   4.9737594e+00   4.7723188e+00  -5.1529914e+06
   6.5021674e-10  -5.2788084e-04   4.9732175e+00   4.7730710e+00  -5.1198306e+06
   6.5088363e-10  -5.2447748e-04   4.9726791e+00   4.7738183e+00  -5.0868823e+06
   6.5155052e-10  -5.2109602e-04   4.9721441e+00   4.7745608e+00  -5.0541453e+06
   6.5221741e-10  -5.1773633e-04   4.9716124e+00   4.7752986e+00  -5.0216182e+06
   6.5288429e-10  -5.1439825e-04   4.9710842e+00   4.7760316e+00  -4.9892996e+06
   6.5355118e-10  -5.1108166e-04   4.9705592e+00   4.7767599e+00  -4.9571883e+06
   6.5421807e-10  -5.0778642e-04   4.9700376e+00   4.7774835e+00  -4.9252828e+06
   6.5488496e-10  -5.0451239e-04   4.9695193e+00   4.7782025e+00  -4.8935820e+06
   6.5555185e-10  -5.0125942e-04   4.9690043e+00   4.7789168e+00  -4.8620845e+06
   6.5621874e-10  -4.9802740e-04   4.9684926e+00   4.7796266e+00  -4.8307889e+06
   6.5688563e-10  -4.9481618e-04   4.9679840e+00   4.7803318e+00  -4.7996941e+06
   6.5755252e-10  -4.9162563e-04   4.9674788e+00   4.7810324e+00  -4.7687988e+06
   6.5821941e-10  -4.8845562e-04   4.9669767e+00   4.7817286e+00  -4.7381016e+06
   6.5888630e-10  -4.8530601e-04   4.9664778e+00   4.7824202e+00  -4.7076013e+06
   6.5955318e-10  -4.8217668e-04   4.9659820e+00   4.7831074e+00  -4.6772966e+06
   6.6022007e-10  -4.7906749e-04   4.9654894e+00   4.7837902e+00  -4.6471864e+06
   6.6088696e-10  -4.7597832e-04   4.9649999e+00   4.7844686e+00  -4.6172694e+06
   6.6155385e-10  -4.7290904e-04   4.9645135e+00   4.7851427e+00  -4.5875442e+06
   6.6222074e-10  -4.6985951e-04   4.9640303e+00   4.7858124e+00  -4.5580099e+06
   6.6288763e-10  -4.6682962e-04   4.9635500e+00   4.7864778e+00  -4.5286650e+06
   6.6355452e-10  -4.6381924e-04   4.9630728e+00   4.7871389e+00  -4.4995084e+06
   6.6422141e-10  -4.6082824e-04   4.9625987e+00   4.7877957e+00  -4.4705389e+06
   6.6488830e-10  -4.5785649e-04   4.9621275e+00   4.7884484e+00  -4.4417553e+06
   6.6555519e-10  -4.5490388e-04   4.9616594e+00   4.7890968e+00  -4.4131564e+06
   6.6622207e-10  -4.5197028e-04   4.9611942e+00   4.7897411e+00  -4.3847411e+06
   6.6688896e-10  -4.4905557e-04   4.9607320e+00   4.7903812e+00  -4.3565082e+06
   6.6755585e-10  -4.4615963e-04   4.9602727e+00   4.7910172e+00  -4.3284564e+06
   6.6822274e-10  -4.4328233e-04   4.9598163e+00   4.7916491e+00  -4.3005847e+06
   6.6888963e-10  -4.4042356e-04   4.9593628e+00   4.7922769e+00  -4.2728920e+06
   6.6955652e-10  -4.3758320e-04   4.9589122e+00   4.7929007e+00  -4.2453770e+06
   6.7022341e-10  -4.3476113e-04   4.9584645e+00   4.7935205e+00  -4.2180386e+06
   6.7089030e-10  -4.3195723e-04   4.9580196e+00   4.7941363e+00  -4.1908757e+06
   6.7155719e-10  -4.2917139e-04   4.9575775e+00   4.7947482e+00  -4.1638872e+06
   6.7222407e-10  -4.2640350e-04   4.9571382e+00   4.7953561e+00  -4.1370720e+06
   6.7289096e-10  -4.2365342e-04   4.9567017e+00   4.7959600e+00  -4.1104290e+06
   6.7355785e-10  -4.2092106e-04   4.9562680e+00   4.7965601e+00  -4.0839570e+06
   6.7422474e-10  -4.1820629e-04   4.9558371e+00   4.7971564e+00  -4.0576550e+06
   6.7489163e-10  -4.1550901e-04   4.9554089e+00   4.7977488e+00  -4.0315219e+06
   6.7555852e-10  -4.1282910e-04   4.9549834e+00   4.7983374e+00  -4.0055566e+06
   6.7622541e-10  -4.1016645e-04   4.9545606e+00   4.7989221e+00  -3.9797581e+06
   6.7689230e-10  -4.0752095e-04   4.9541405e+00   4.7995032e+00  -3.9541252e+06
   6.7755919e-10  -4.0489249e-04   4.9537231e+00   4.8000805e+00  -3.9286570e+06
   6.7822608e-10  -4.0228096e-04   4.9533084e+00   4.8006540e+00  -3.9033523e+06
   6.7889296e-10  -3.9968625e-04   4.9528962e+00   4.8012239e+00  -3.8782102e+06
   6.7955985e-10  -3.9710825e-04   4.9524867e+00   4.8017901e+00  -3.8532295e+06
   6.8022674e-10  -3.9454686e-04   4.9520798e+00   4.8023527e+00  -3.8284093e+06
   6.8089363e-10  -3.9200197e-04   4.9516755e+00   4.8029116e+00  -3.8037486e+06
   6.8156052e-10  -3.8947347e-04   4.9512738e+00   4.8034670e+00  -3.7792462e+06
   6.8222741e-10  -3.8696126e-04   4.9508746e+00   4.8040188e+00  -3.7549013e+06
   6.8289430e-10  -3.8446523e-04   4.9504780e+00   4.8045670e+00  -3.7307128e+06
   6.8356119e-10  -3.8198528e-04   4.9500838e+00   4.8051117e+00  -3.7066796e+06
   6.8422808e-10  -3.7952131e-04   4.9496922e+00   4.8056529e+00  -3.6828009e+06
   6.8489496e-10  -3.7707321e-04   4.9493031e+00   4.8061906e+00  -3.6590756e+06
   6.8556185e-10  -3.7464088e-04   4.9489165e+00   4.8067248e+00  -3.6355027e+06
   6.8622874e-10  -3.7222422e-04   4.9485323e+00   4.8072556e+00  -3.6120813e+06
   6.8689563e-10  -3.6982313e-04   4.9481506e+00   4.8077830e+00  -3.5888104e+06
   6.8756252e-10  -3.6743751e-04   4.9477713e+00   4.8083069e+00  -3.5656891e+06
   6.8822941e-10  -3.6506726e-04   4.9473944e+00   4.8088275e+00  -3.5427163e+06
   6.8889630e-10  -3.6271228e-04   4.9470199e+00   4.8093448e+00  -3.5198911e+06
   6.8956319e-10  -3.6037247e-04   4.9466478e+00   4.8098587e+00  -3.4972127e+06
   6.9023008e-10  -3.5804774e-04   4.9462781e+00   4.8103693e+00  -3.4746800e+06
   6.9089697e-10  -3.5573799e-04   4.9459107e+00   4.8108766e+00  -3.4522921e+06
   6.9156385e-10  -3.5344312e-04   4.9455457e+00   4.8113807e+00  -3.4300481e+06
   6.9223074e-10  -3.5116304e-04   4.9451830e+00   4.8118815e+00  -3.4079470e+06
   6.9289763e-10  -3.4889764e-04   4.9448226e+00   4.8123791e+00  -3.3859881e+06
   6.9356452e-10  -3.4664685e-04   4.9444645e+00   4.8128735e+00  -3.3641702e+06
   6.9423141e-10  -3.4441056e-04   4.9441087e+00   4.8133647e+00  -3.3424927e+06
   6.9489830e-10  -3.4218868e-04   4.9437552e+00   4.8138527e+00  -3.3209544e+06
   6.9556519e-10  -3.3998111e-04   4.9434039e+00   4.8143376e+00  -3.2995546e+06
   6.9623208e-10  -3.3778777e-04   4.9430548e+00   4.8148193e+00  -3.2782924e+06
   6.9689897e-10  -3.3560857e-04   4.9427080e+00   4.8152980e+00  -3.2571669e+06
   6.9756586e-10  -3.3344340e-04   4.9423634e+00   4.8157736e+00  -3.2361773e+06
   6.9823274e-10  -3.3129219e-04   4.9420210e+00   4.8162461e+00  -3.2153225e+06
   6.9889963e-10  -3.2915485e-04   4.9416807e+00   4.8167156e+00  -3.1946019e+06
   6.9956652e-10  -3.2703128e-04   4.9413427e+00   4.8171820e+00  -3.1740144e+06
   7.0023341e-10  -3.2492139e-04   4.9410068e+00   4.8176454e+00  -3.1535594e+06
   7.0090030e-10  -3.2282510e-04   4.9406730e+00   4.8181059e+00  -3.1332359e+06
   7.0156719e-10  -3.2074232e-04   4.9403414e+00   4.8185634e+00  -3.1130430e+06
   7.0223408e-10  -3.1867296e-04   4.9400119e+00   4.8190179e+00  -3.0929800e+06
   7.0290097e-10  -3.1661694e-04   4.9396845e+00   4.8194695e+00  -3.0730460e+06
   7.0356786e-10  -3.1457417e-04   4.9393591e+00   4.8199182e+00  -3.0532403e+06
   7.0423474e-10  -3.1254457e-04   4.9390359e+00   4.8203640e+00  -3.0335619e+06
   7.0490163e-10  -3.1052805e-04   4.9387147e+00   4.8208070e+00  -3.0140100e+06
   7.0556852e-10  -3.0852452e-04   4.9383956e+00   4.8212471e+00  -2.9945839e+06
   7.0623541e-10  -3.0653391e-04   4.9380785e+00   4.8216843e+00  -2.9752827e+06
   7.0690230e-10  -3.0455613e-04   4.9377634e+00   4.8221187e+00  -2.9561057e+06
   7.0756919e-10  -3.0259109e-04   4.9374503e+00   4.8225504e+00  -2.9370520e+06
   7.0823608e-10  -3.0063872e-04   4.9371393e+00   4.8229792e+00  -2.9181209e+06
   7.0890297e-10  -2.9869894e-04   4.9368302e+00   4.8234053e+00  -2.8993116e+06
   7.0956986e-10  -2.9677166e-04   4.9365231e+00   4.8238286e+00  -2.8806232e+06
   7.1023675e-10  -2.9485680e-04   4.9362180e+00   4.8242493e+00  -2.8620551e+06
   7.1090363e-10  -2.9295429e-04   4.9359148e+00   4.8246672e+00  -2.8436064e+06
   7.1157052e-10  -2.9106404e-04   4.9356135e+00   4.8250824e+00  -2.8252763e+06
   7.1223741e-10  -2.8918597e-04   4.9353142e+00   4.8254949e+00  -2.8070642e+06
   7.1290430e-10  -2.8732001e-04   4.9350168e+00   4.8259048e+00  -2.7889693e+06
   7.1357119e-10  -2.8546608e-04   4.9347213e+00   4.8263120e+00  -2.7709908e+06
   7.1423808e-10  -2.8362410e-04   4.9344277e+00   4.8267166e+00  -2.7531279e+06
   7.1490497e-10  -2.8179399e-04   4.9341359e+00   4.8271186e+00  -2.7353800e+06
   7.1557186e-10  -2.7997568e-04   4.9338460e+00   4.8275180e+00  -2.7177463e+06
   7.1623875e-10  -2.7816910e-04   4.9335580e+00   4.8279148e+00  -2.7002260e+06
   7.1690564e-10  -2.7637416e-04   4.9332718e+00   4.8283091e+00  -2.6828185e+06
   7.1757252e-10  -2.7459079e-04   4.9329874e+00   4.8287009e+00  -2.6655229e+06
   7.1823941e-10  -2.7281892e-04   4.9327049e+00   4.8290901e+00  -2.6483387e+06
   7.1890630e-10  -2.7105847e-04   4.9324241e+00   4.8294768e+00  -2.6312650e+06
   7.1957319e-10  -2.6930937e-04   4.9321452e+00   4.8298610e+00  -2.6143012e+06
   7.2024008e-10  -2.6757155e-04   4.9318680e+00   4.8302427e+00  -2.5974466e+06
   7.2090697e-10  -2.6584493e-04   4.9315927e+00   4.8306220e+00  -2.5807004e+06
   7.2157386e-10  -2.6412944e-04   4.9313190e+00   4.8309988e+00  -2.5640621e+06
   7.2224075e-10  -2.6242501e-04   4.9310472e+00   4.8313732e+00  -2.5475307e+06
   7.2290764e-10  -2.6073158e-04   4.9307770e+00   4.8317452e+00  -2.5311058e+06
   7.2357452e-10  -2.5904906e-04   4.9305086e+00   4.8321148e+00  -2.5147866e+06
   7.2424141e-10  -2.5737739e-04   4.9302419e+00   4.8324820e+00  -2.4985724e+06
   7.2490830e-10  -2.5571649e-04   4.9299769e+00   4.8328468e+00  -2.4824626e+06
   7.2557519e-10  -2.5406631e-04   4.9297136e+00   4.8332093e+00  -2.4664565e+06
   7.2624208e-10  -2.5242676e-04   4.9294520e+00   4.8335695e+00  -2.4505534e+06
   7.2690897e-10  -2.5079779e-04   4.9291921e+00   4.8339273e+00  -2.4347526e+06
   7.2757586e-10  -2.4917932e-04   4.9289338e+00   4.8342828e+00  -2.4190536e+06
   7.2824275e-10  -2.4757129e-04   4.9286772e+00   4.8346360e+00  -2.4034556e+06
   7.2890964e-10  -2.4597362e-04   4.9284222e+00   4.8349870e+00  -2.3879580e+06
   7.2957653e-10  -2.4438626e-04   4.9281689e+00   4.8353357e+00  -2.3725602e+06
   7.3024341e-10  -2.4280913e-04   4.9279172e+00   4.8356821e+00  -2.3572615e+06
   7.3091030e-10  -2.4124218e-04   4.9276671e+00   4.8360263e+00  -2.3420613e+06
   7.3157719e-10  -2.3968532e-04   4.9274186e+00   4.8363683e+00  -2.3269590e+06
   7.3224408e-10  -2.3813851e-04   4.9271716e+00   4.8367081e+00  -2.3119538e+06
   7.3291097e-10  -2.3660167e-04   4.9269263e+00   4.8370457e+00  -2.2970453e+06
   7.3357786e-10  -2.3507474e-04   4.9266825e+00   4.8373811e+00  -2.2822328e+06
   7.3424475e-10  -2.3355766e-04   4.9264403e+00   4.8377143e+00  -2.2675156e+06
   7.3491164e-10  -2.3205036e-04   4.9261997e+00   4.8380454e+00  -2.2528932e+06
   7.3557853e-10  -2.3055278e-04   4.9259605e+00   4.8383744e+00  -2.2383649e+06
   7.3624542e-10  -2.2906485e-04   4.9257230e+00   4.8387013e+00  -2.2239302e+06
   7.3691230e-10  -2.2758653e-04   4.9254869e+00   4.8390260e+00  -2.2095884e+06
   7.3757919e-10  -2.2611773e-04   4.9252523e+00   4.8393486e+00  -2.1953390e+06
   7.3824608e-10  -2.2465841e-04   4.9250193e+00   4.8396692e+00  -2.1811813e+06
   7.3891297e-10  -2.2320850e-04   4.9247877e+00   4.8399877e+00  -2.1671148e+06
   7.3957986e-10  -2.2176794e-04   4.9245577e+00   4.8403041e+00  -2.1531388e+06
   7.4024675e-10  -2.2033667e-04   4.9243291e+00   4.8406185e+00  -2.1392529e+06
   7.4091364e-10  -2.1891463e-04   4.9241019e+00   4.8409309e+00  -2.1254563e+06
   7.4158053e-10  -2.1750176e-04   4.9238763e+00   4.8412413e+00  -2.1117487e+06
   7.4224742e-10  -2.1609801e-04   4.9236520e+00   4.8415496e+00  -2.0981293e+06
   7.4291430e-10  -2.1470331e-04   4.9234292e+00   4.8418560e+00  -2.0845976e+06
   7.4358119e-10  -2.1331760e-04   4.9232079e+00   4.8421604e+00  -2.0711530e+06
   7.4424808e-10  -2.1194083e-04   4.9229879e+00   4.8424628e+00  -2.0577950e+06
   7.4491497e-10  -2.1057294e-04   4.9227694e+00   4.8427633e+00  -2.0445231e+06
   7.4558186e-10  -2.0921387e-04   4.9225522e+00   4.8430619e+00  -2.0313366e+06
   7.4624875e-10  -2.0786357e-04   4.9223365e+00   4.8433585e+00  -2.0182351e+06
   7.4691564e-10  -2.0652197e-04   4.9221221e+00   4.8436532e+00  -2.0052180e+06
   7.4758253e-10  -2.0518903e-04   4.9219091e+00   4.8439460e+00  -1.9922847e+06
   7.4824942e-10  -2.0386469e-04   4.9216975e+00   4.8442369e+00  -1.9794347e+06
   7.4891631e-10  -2.0254889e-04   4.9214872e+00   4.8445260e+00  -1.9666674e+06
   7.4958319e-10  -2.0124157e-04   4.9212783e+00   4.8448131e+00  -1.9539824e+06
   7.5025008e-10  -1.9994269e-04   4.9210707e+00   4.8450985e+00  -1.9413791e+06
   7.5091697e-10  -1.9865219e-04   4.9208645e+00   4.8453819e+00  -1.9288570e+06
   7.5158386e-10  -1.9737001e-04   4.9206595e+00   4.8456636e+00  -1.9164156e+06
   7.5225075e-10  -1.9609610e-04   4.9204559e+00   4.8459434e+00  -1.9040543e+06
   7.5291764e-10  -1.9483040e-04   4.9202536e+00   4.8462215e+00  -1.8917726e+06
   7.5358453e-10  -1.9357288e-04   4.9200526e+00   4.8464977e+00  -1.8795700e+06
   7.5425142e-10  -1.9232346e-04   4.9198529e+00   4.8467722e+00  -1.8674461e+06
   7.5491831e-10  -1.9108210e-04   4.9196544e+00   4.8470449e+00  -1.8554002e+06
   7.5558520e-10  -1.8984875e-04   4.9194573e+00   4.8473158e+00  -1.8434320e+06
   7.5625208e-10  -1.8862335e-04   4.9192614e+00   4.8475850e+00  -1.8315408e+06
   7.5691897e-10  -1.8740586e-04   4.9190667e+00   4.8478524e+00  -1.8197263e+06
   7.5758586e-10  -1.8619623e-04   4.9188733e+00   4.8481181e+00  -1.8079879e+06
   7.5825275e-10  -1.8499439e-04   4.9186811e+00   4.8483822e+00  -1.7963251e+06
   7.5891964e-10  -1.8380031e-04   4.9184902e+00   4.8486445e+00  -1.7847374e+06
   7.5958653e-10  -1.8261393e-04   4.9183005e+00   4.8489051e+00  -1.7732244e+06
   7.6025342e-10  -1.8143521e-04   4.9181120e+00   4.8491640e+00  -1.7617856e+06
   7.6092031e-10  -1.8026408e-04   4.9179247e+00   4.8494213e+00  -1.7504205e+06
   7.6158720e-10  -1.7910052e-04   4.9177387e+00   4.8496769e+00  -1.7391286e+06
   7.6225408e-10  -1.7794446e-04   4.9175538e+00   4.8499308e+00  -1.7279095e+06
   7.6292097e-10  -1.7679585e-04   4.9173701e+00   4.8501831e+00  -1.7167626e+06
   7.6358786e-10  -1.7565466e-04   4.9171876e+00   4.8504338e+00  -1.7056876e+06
   7.6425475e-10  -1.7452083e-04   4.9170062e+00   4.8506829e+00  -1.6946839e+06
   7.6492164e-10  -1.7339431e-04   4.9168261e+00   4.8509304e+00  -1.6837512e+06
   7.6558853e-10  -1.7227506e-04   4.9166470e+00   4.8511762e+00  -1.6728889e+06
   7.6625542e-10  -1.7116304e-04   4.9164692e+00   4.8514205e+00  -1.6620966e+06
   7.6692231e-10  -1.7005818e-04   4.9162924e+00   4.8516632e+00  -1.6513738e+06
   7.6758920e-10  -1.6896045e-04   4.9161168e+00   4.8519043e+00  -1.6407201e+06
   7.6825609e-10  -1.6786981e-04   4.9159423e+00   4.8521439e+00  -1.6301351e+06
   7.6892297e-10  -1.6678620e-04   4.9157690e+00   4.8523820e+00  -1.6196183e+06
   7.6958986e-10  -1.6570958e-04   4.9155968e+00   4.8526185e+00  -1.6091693e+06
   7.7025675e-10  -1.6463991e-04   4.9154256e+00   4.8528534e+00  -1.5987876e+06
   7.7092364e-10  -1.6357714e-04   4.9152556e+00   4.8530869e+00  -1.5884728e+06
   7.7159053e-10  -1.6252123e-04   4.9150866e+00   4.8533189e+00  -1.5782245e+06
   7.7225742e-10  -1.6147213e-04   4.9149188e+00   4.8535493e+00  -1.5680422e+06
   7.7292431e-10  -1.6042979e-04   4.9147520e+00   4.8537783e+00  -1.5579256e+06
   7.7359120e-10  -1.5939418e-04   4.9145863e+00   4.8540058e+00  -1.5478741e+06
   7.7425809e-10  -1.5836526e-04   4.9144216e+00   4.8542318e+00  -1.5378875e+06
   7.7492497e-10  -1.5734297e-04   4.9142581e+00   4.8544564e+00  -1.5279652e+06
   7.7559186e-10  -1.5632728e-04   4.9140955e+00   4.8546795e+00  -1.5181068e+06
   7.7625875e-10  -1.5531814e-04   4.9139340e+00   4.8549012e+00  -1.5083120e+06
   7.7692564e-10  -1.5431551e-04   4.9137736e+00   4.8551214e+00  -1.4985803e+06
   7.7759253e-10  -1.5331935e-04   4.9136141e+00   4.8553403e+00  -1.4889114e+06
   7.7825942e-10  -1.5232962e-04   4.9134557e+00   4.8555577e+00  -1.4793047e+06
   7.7892631e-10  -1.5134627e-04   4.9132983e+00   4.8557737e+00  -1.4697600e+06
   7.7959320e-10  -1.5036927e-04   4.9131420e+00   4.8559883e+00  -1.4602768e+06
   7.8026009e-10  -1.4939857e-04   4.9129866e+00   4.8562015e+00  -1.4508548e+06
   7.8092698e-10  -1.4843414e-04   4.9128322e+00   4.8564134e+00  -1.4414935e+06
   7.8159386e-10  -1.4747593e-04   4.9126788e+00   4.8566239e+00  -1.4321925e+06
   7.8226075e-10  -1.4652390e-04   4.9125264e+00   4.8568330e+00  -1.4229514e+06
   7.8292764e-10  -1.4557801e-04   4.9123750e+00   4.8570408e+00  -1.4137700e+06
   7.8359453e-10  -1.4463823e-04   4.9122246e+00   4.8572473e+00  -1.4046477e+06
   7.8426142e-10  -1.4370451e-04   4.9120751e+00   4.8574524e+00  -1.3955842e+06
   7.8492831e-10  -1.4277682e-04   4.9119266e+00   4.8576562e+00  -1.3865792e+06
   7.8559520e-10  -1.4185511e-04   4.9117790e+00   4.8578586e+00  -1.3776322e+06
   7.8626209e-10  -1.4093935e-04   4.9116324e+00   4.8580598e+00  -1.3687429e+06
   7.8692898e-10  -1.4002950e-04   4.9114867e+00   4.8582597e+00  -1.3599109e+06
   7.8759587e-10  -1.3912552e-04   4.9113420e+00   4.8584582e+00  -1.3511358e+06
   7.8826275e-10  -1.3822737e-04   4.9111982e+00   4.8586555e+00  -1.3424173e+06
   7.8892964e-10  -1.3733502e-04   4.9110553e+00   4.8588516e+00  -1.3337550e+06
   7.8959653e-10  -1.3644843e-04   4.9109133e+00   4.8590463e+00  -1.3251485e+06
   7.9026342e-10  -1.3556755e-04   4.9107723e+00   4.8592398e+00  -1.3165976e+06
   7.9093031e-10  -1.3469237e-04   4.9106321e+00   4.8594321e+00  -1.3081017e+06
   7.9159720e-10  -1.3382282e-04   4.9104929e+00   4.8596231e+00  -1.2996606e+06
   7.9226409e-10  -1.3295889e-04   4.9103545e+00   4.8598129e+00  -1.2912740e+06
   7.9293098e-10  -1.3210054e-04   4.9102171e+00   4.8600014e+00  -1.2829414e+06
   7.9359787e-10  -1.3124772e-04   4.9100805e+00   4.8601888e+00  -1.2746626e+06
   7.9426475e-10  -1.3040041e-04   4.9099448e+00   4.8603749e+00  -1.2664371e+06
   7.9493164e-10  -1.2955857e-04   4.9098100e+00   4.8605598e+00  -1.2582647e+06
   7.9559853e-10  -1.2872215e-04   4.9096760e+00   4.8607436e+00  -1.2501449e+06
   7.9626542e-10  -1.2789114e-04   4.9095429e+00   4.8609261e+00  -1.2420775e+06
   7.9693231e-10  -1.2706549e-04   4.9094107e+00   4.8611075e+00  -1.2340621e+06
   7.9759920e-10  -1.2624516e-04   4.9092793e+00   4.8612877e+00  -1.2260984e+06
   7.9826609e-10  -1.2543013e-04   4.9091487e+00   4.8614667e+00  -1.2181861e+06
   7.9893298e-10  -1.2462036e-04   4.9090190e+00   4.8616446e+00  -1.2103248e+06
   7.9959987e-10  -1.2381582e-04   4.9088901e+00   4.8618214e+00  -1.2025141e+06
   8.0026676e-10  -1.2301646e-04   4.9087621e+00   4.8619970e+00  -1.1947539e+06
   8.0093364e-10  -1.2222227e-04   4.9086349e+00   4.8621714e+00  -1.1870436e+06
   8.0160053e-10  -1.2143320e-04   4.9085085e+00   4.8623448e+00  -1.1793831e+06
   8.0226742e-10  -1.2064922e-04   4.9083829e+00   4.8625170e+00  -1.1717720e+06
   8.0293431e-10  -1.1987031e-04   4.9082581e+00   4.8626881e+00  -1.1642099e+06
   8.0360120e-10  -1.1909641e-04   4.9081341e+00   4.8628581e+00  -1.1566967e+06
   8.0426809e-10  -1.1832752e-04   4.9080109e+00   4.8630270e+00  -1.1492318e+06
   8.0493498e-10  -1.1756358e-04   4.9078885e+00   4.8631948e+00  -1.1418151e+06
   8.0560187e-10  -1.1680458e-04   4.9077669e+00   4.8633615e+00  -1.1344463e+06
   8.0626876e-10  -1.1605047e-04   4.9076461e+00   4.8635272e+00  -1.1271249e+06
   8.0693565e-10  -1.1530123e-04   4.9075261e+00   4.8636918e+00  -1.1198508e+06
   8.0760253e-10  -1.1455683e-04   4.9074068e+00   4.8638553e+00  -1.1126236e+06
   8.0826942e-10  -1.1381723e-04   4.9072883e+00   4.8640178e+00  -1.1054430e+06
   8.0893631e-10  -1.1308241e-04   4.9071705e+00   4.8641792e+00  -1.0983086e+06
   8.0960320e-10  -1.1235232e-04   4.9070535e+00   4.8643396e+00  -1.0912203e+06
   8.1027009e-10  -1.1162695e-04   4.9069373e+00   4.8644989e+00  -1.0841778e+06
   8.1093698e-10  -1.1090626e-04   4.9068218e+00   4.8646572e+00  -1.0771806e+06
   8.1160387e-10  -1.1019022e-04   4.9067071e+00   4.8648145e+00  -1.0702285e+06
   8.1227076e-10  -1.0947880e-04   4.9065931e+00   4.8649708e+00  -1.0633213e+06
   8.1293765e-10  -1.0877198e-04   4.9064798e+00   4.8651261e+00  -1.0564587e+06
   8.1360453e-10  -1.0806971e-04   4.9063672e+00   4.8652804e+00  -1.0496403e+06
   8.1427142e-10  -1.0737198e-04   4.9062554e+00   4.8654336e+00  -1.0428659e+06
   8.1493831e-10  -1.0667875e-04   4.9061443e+00   4.8655859e+00  -1.0361351e+06
   8.1560520e-10  -1.0598999e-04   4.9060339e+00   4.8657372e+00  -1.0294478e+06
   8.1627209e-10  -1.0530569e-04   4.9059243e+00   4.8658875e+00  -1.0228036e+06
   8.1693898e-10  -1.0462579e-04   4.9058153e+00   4.8660369e+00  -1.0162023e+06
   8.1760587e-10  -1.0395029e-04   4.9057070e+00   4.8661853e+00  -1.0096435e+06
   8.1827276e-10  -1.0327914e-04   4.9055994e+00   4.8663327e+00  -1.0031270e+06
   8.1893965e-10  -1.0261233e-04   4.9054926e+00   4.8664792e+00  -9.9665262e+05
   8.1960654e-10  -1.0194982e-04   4.9053864e+00   4.8666247e+00  -9.9021995e+05
   8.2027342e-10  -1.0129159e-04   4.9052809e+00   4.8667693e+00  -9.8382877e+05
   8.2094031e-10  -1.0063760e-04   4.9051760e+00   4.8669130e+00  -9.7747881e+05
   8.2160720e-10  -9.9987838e-05   4.9050719e+00   4.8670557e+00  -9.7116981e+05
   8.2227409e-10  -9.9342268e-05   4.9049684e+00   4.8671975e+00  -9.6490150e+05
   8.2294098e-10  -9.8700865e-05   4.9048656e+00   4.8673384e+00  -9.5867363e+05
   8.2360787e-10  -9.8063601e-05   4.9047634e+00   4.8674784e+00  -9.5248593e+05
   8.2427476e-10  -9.7430451e-05   4.9046619e+00   4.8676175e+00  -9.4633814e+05
   8.2494165e-10  -9.6801388e-05   4.9045611e+00   4.8677557e+00  -9.4023000e+05
   8.2560854e-10  -9.6176385e-05   4.9044609e+00   4.8678930e+00  -9.3416127e+05
   8.2627543e-10  -9.5555415e-05   4.9043613e+00   4.8680294e+00  -9.2813168e+05
   8.2694231e-10  -9.4938454e-05   4.9042624e+00   4.8681649e+00  -9.2214099e+05
   8.2760920e-10  -9.4325475e-05   4.9041641e+00   4.8682996e+00  -9.1618894e+05
   8.2827609e-10  -9.3716453e-05   4.9040665e+00   4.8684334e+00  -9.1027528e+05
   8.2894298e-10  -9.3111362e-05   4.9039695e+00   4.8685663e+00  -9.0439977e+05
   8.2960987e-10  -9.2510176e-05   4.9038731e+00   4.8686984e+00  -8.9856216e+05
   8.3027676e-10  -9.1912871e-05   4.9037773e+00   4.8688296e+00  -8.9276221e+05
   8.3094365e-10  -9.1319421e-05   4.9036821e+00   4.8689599e+00  -8.8699967e+05
   8.3161054e-10  -9.0729802e-05   4.9035876e+00   4.8690895e+00  -8.8127431e+05
   8.3227743e-10  -9.0143989e-05   4.9034937e+00   4.8692181e+00  -8.7558588e+05
   8.3294431e-10  -8.9561957e-05   4.9034003e+00   4.8693460e+00  -8.6993414e+05
   8.3361120e-10  -8.8983682e-05   4.9033076e+00   4.8694730e+00  -8.6431887e+05
   8.3427809e-10  -8.8409140e-05   4.9032155e+00   4.8695992e+00  -8.5873982e+05
   8.3494498e-10  -8.7838306e-05   4.9031239e+00   4.8697246e+00  -8.5319676e+05
   8.3561187e-10  -8.7271157e-05   4.9030330e+00   4.8698492e+00  -8.4768946e+05
   8.3627876e-10  -8.6707668e-05   4.9029426e+00   4.8699730e+00  -8.4221769e+05
   8.3694565e-10  -8.6147817e-05   4.9028528e+00   4.8700960e+00  -8.3678122e+05
   8.3761254e-10  -8.5591580e-05   4.9027636e+00   4.8702182e+00  -8.3137982e+05
   8.3827943e-10  -8.5038934e-05   4.9026750e+00   4.8703396e+00  -8.2601327e+05
   8.3894632e-10  -8.4489854e-05   4.9025870e+00   4.8704602e+00  -8.2068134e+05
   8.3961320e-10  -8.3944319e-05   4.9024995e+00   4.8705800e+00  -8.1538381e+05
   8.4028009e-10  -8.3402306e-05   4.9024125e+00   4.8706991e+00  -8.1012045e+05
   8.4094698e-10  -8.2863791e-05   4.9023262e+00   4.8708174e+00  -8.0489105e+05
   8.4161387e-10  -8.2328752e-05   4.9022404e+00   4.8709349e+00  -7.9969539e+05
   8.4228076e-10  -8.1797167e-05   4.9021551e+00   4.8710517e+00  -7.9453325e+05
   8.4294765e-10  -8.1269014e-05   4.9020704e+00   4.8711677e+00  -7.8940442e+05
   8.4361454e-10  -8.0744270e-05   4.9019862e+00   4.8712830e+00  -7.8430867e+05
   8.4428143e-10  -8.0222913e-05   4.9019026e+00   4.8713975e+00  -7.7924581e+05
   8.4494832e-10  -7.9704922e-05   4.9018195e+00   4.8715113e+00  -7.7421560e+05
   8.4561521e-10  -7.9190274e-05   4.9017370e+00   4.8716244e+00  -7.6921785e+05
   8.4628209e-10  -7.8678949e-05   4.9016550e+00   4.8717367e+00  -7.6425235e+05
   8.4694898e-10  -7.8170924e-05   4.9015735e+00   4.8718483e+00  -7.5931888e+05
   8.4761587e-10  -7.7666179e-05   4.9014925e+00   4.8719592e+00  -7.5441724e+05
   8.4828276e-10  -7.7164692e-05   4.9014121e+00   4.8720693e+00  -7.4954723e+05
   8.4894965e-10  -7.6666442e-05   4.9013321e+00   4.8721788e+00  -7.4470864e+05
   8.4961654e-10  -7.6171409e-05   4.9012527e+00   4.8722875e+00  -7.3990127e+05
   8.5028343e-10  -7.5679572e-05   4.9011738e+00   4.8723956e+00  -7.3512492e+05
   8.5095032e-10  -7.5190909e-05   4.9010954e+00   4.8725029e+00  -7.3037939e+05
   8.5161721e-10  -7.4705401e-05   4.9010176e+00   4.8726096e+00  -7.2566447e+05
   8.5228409e-10  -7.4223027e-05   4.9009402e+00   4.8727155e+00  -7.2097998e+05
   8.5295098e-10  -7.3743767e-05   4.9008633e+00   4.8728208e+00  -7.1632571e+05
   8.5361787e-10  -7.3267601e-05   4.9007869e+00   4.8729254e+00  -7.1170148e+05
   8.5428476e-10  -7.2794509e-05   4.9007110e+00   4.8730293e+00  -7.0710708e+05
   8.5495165e-10  -7.2324470e-05   4.9006356e+00   4.8731326e+00  -7.0254232e+05
   8.5561854e-10  -7.1857467e-05   4.9005607e+00   4.8732352e+00  -6.9800702e+05
   8.5628543e-10  -7.1393478e-05   4.9004862e+00   4.8733371e+00  -6.9350099e+05
   8.5695232e-10  -7.0932484e-05   4.9004123e+00   4.8734384e+00  -6.8902403e+05
   8.5761921e-10  -7.0474466e-05   4.9003388e+00   4.8735390e+00  -6.8457596e+05
   8.5828610e-10  -7.0019405e-05   4.9002658e+00   4.8736389e+00  -6.8015659e+05
   8.5895298e-10  -6.9567282e-05   4.9001932e+00   4.8737383e+00  -6.7576574e+05
   8.5961987e-10  -6.9118077e-05   4.9001212e+00   4.8738369e+00  -6.7140322e+05
   8.6028676e-10  -6.8671773e-05   4.9000495e+00   4.8739350e+00  -6.6706885e+05
   8.6095365e-10  -6.8228350e-05   4.8999784e+00   4.8740324e+00  -6.6276245e+05
   8.6162054e-10  -6.7787789e-05   4.8999077e+00   4.8741292e+00  -6.5848383e+05
   8.6228743e-10  -6.7350072e-05   4.8998375e+00   4.8742253e+00  -6.5423283e+05
   8.6295432e-10  -6.6915181e-05   4.8997677e+00   4.8743208e+00  -6.5000926e+05
   8.6362121e-10  -6.6483098e-05   4.8996984e+00   4.8744158e+00  -6.4581294e+05
   8.6428810e-10  -6.6053804e-05   4.8996295e+00   4.8745101e+00  -6.4164370e+05
   8.6495498e-10  -6.5627282e-05   4.8995610e+00   4.8746038e+00  -6.3750137e+05
   8.6562187e-10  -6.5203513e-05   4.8994930e+00   4.8746969e+00  -6.3338577e+05
   8.6628876e-10  -6.4782480e-05   4.8994255e+00   4.8747893e+00  -6.2929672e+05
   8.6695565e-10  -6.4364165e-05   4.8993583e+00   4.8748812e+00  -6.2523406e+05
   8.6762254e-10  -6.3948551e-05   4.8992917e+00   4.8749725e+00  -6.2119762e+05
   8.6828943e-10  -6.3535620e-05   4.8992254e+00   4.8750632e+00  -6.1718723e+05
   8.6895632e-10  -6.3125354e-05   4.8991596e+00   4.8751534e+00  -6.1320272e+05
   8.6962321e-10  -6.2717738e-05   4.8990941e+00   4.8752429e+00  -6.0924392e+05
   8.7029010e-10  -6.2312753e-05   4.8990291e+00   4.8753319e+00  -6.0531066e+05
   8.7095699e-10  -6.1910382e-05   4.8989646e+00   4.8754203e+00  -6.0140280e+05
   8.7162387e-10  -6.1510609e-05   4.8989004e+00   4.8755081e+00  -5.9752014e+05
   8.7229076e-10  -6.1113417e-05   4.8988367e+00   4.8755953e+00  -5.9366255e+05
   8.7295765e-10  -6.0718790e-05   4.8987733e+00   4.8756820e+00  -5.8982985e+05
   8.7362454e-10  -6.0326710e-05   4.8987104e+00   4.8757681e+00  -5.8602189e+05
   8.7429143e-10  -5.9937161e-05   4.8986479e+00   4.8758537e+00  -5.8223849e+05
   8.7495832e-10  -5.9550128e-05   4.8985858e+00   4.8759387e+00  -5.7847952e+05
   8.7562521e-10  -5.9165593e-05   4.8985241e+00   4.8760232e+00  -5.7474480e+05
   8.7629210e-10  -5.8783540e-05   4.8984627e+00   4.8761071e+00  -5.7103419e+05
   8.7695899e-10  -5.8403955e-05   4.8984018e+00   4.8761905e+00  -5.6734753e+05
   8.7762588e-10  -5.8026819e-05   4.8983413e+00   4.8762734e+00  -5.6368465e+05
   8.7829276e-10  -5.7652119e-05   4.8982812e+00   4.8763557e+00  -5.6004542e+05
   8.7895965e-10  -5.7279838e-05   4.8982214e+00   4.8764375e+00  -5.5642967e+05
   8.7962654e-10  -5.6909960e-05   4.8981620e+00   4.8765187e+00  -5.5283726e+05
   8.8029343e-10  -5.6542471e-05   4.8981031e+00   4.8765994e+00  -5.4926803e+05
   8.8096032e-10  -5.6177354e-05   4.8980444e+00   4.8766796e+00  -5.4572184e+05
   8.8162721e-10  -5.5814594e-05   4.8979862e+00   4.8767593e+00  -5.4219853e+05
   8.8229410e-10  -5.5454176e-05   4.8979284e+00   4.8768385e+00  -5.3869796e+05
   8.8296099e-10  -5.5096085e-05   4.8978709e+00   4.8769172e+00  -5.3521999e+05
   8.8362788e-10  -5.4740307e-05   4.8978138e+00   4.8769953e+00  -5.3176446e+05
   8.8429476e-10  -5.4386825e-05   4.8977570e+00   4.8770730e+00  -5.2833123e+05
   8.8496165e-10  -5.4035625e-05   4.8977007e+00   4.8771501e+00  -5.2492017e+05
   8.8562854e-10  -5.3686693e-05   4.8976447e+00   4.8772268e+00  -5.2153111e+05
   8.8629543e-10  -5.3340014e-05   4.8975890e+00   4.8773029e+00  -5.1816393e+05
   8.8696232e-10  -5.2995572e-05   4.8975337e+00   4.8773786e+00  -5.1481849e+05
   8.8762921e-10  -5.2653355e-05   4.8974788e+00   4.8774538e+00  -5.1149463e+05
   8.8829610e-10  -5.2313347e-05   4.8974242e+00   4.8775284e+00  -5.0819223e+05
   8.8896299e-10  -5.1975535e-05   4.8973700e+00   4.8776026e+00  -5.0491114e+05
   8.8962988e-10  -5.1639903e-05   4.8973161e+00   4.8776764e+00  -5.0165123e+05
   8.9029677e-10  -5.1306439e-05   4.8972626e+00   4.8777496e+00  -4.9841236e+05
   8.9096365e-10  -5.0975127e-05   4.8972094e+00   4.8778224e+00  -4.9519439e+05
   8.9163054e-10  -5.0645955e-05   4.8971565e+00   4.8778947e+00  -4.9199719e+05
   8.9229743e-10  -5.0318908e-05   4.8971040e+00   4.8779666e+00  -4.8882063e+05
   8.9296432e-10  -4.9993972e-05   4.8970519e+00   4.8780379e+00  -4.8566457e+05
   8.9363121e-10  -4.9671135e-05   4.8970000e+00   4.8781089e+00  -4.8252888e+05
   8.9429810e-10  -4.9350381e-05   4.8969485e+00   4.8781793e+00  -4.7941343e+05
   8.9496499e-10  -4.9031699e-05   4.8968974e+00   4.8782493e+00  -4.7631809e+05
   8.9563188e-10  -4.8715074e-05   4.8968466e+00   4.8783189e+00  -4.7324273e+05
   8.9629877e-10  -4.8400494e-05   4.8967960e+00   4.8783880e+00  -4.7018722e+05
   8.9696566e-10  -4.8087945e-05   4.8967459e+00   4.8784566e+00  -4.6715143e+05
   8.9763254e-10  -4.7777413e-05   4.8966960e+00   4.8785249e+00  -4.6413523e+05
   8.9829943e-10  -4.7468887e-05   4.8966465e+00   4.8785926e+00  -4.6113851e+05
   8.9896632e-10  -4.7162353e-05   4.8965973e+00   4.8786600e+00  -4.5816112e+05
   8.9963321e-10  -4.6857797e-05   4.8965484e+00   4.8787269e+00  -4.5520296e+05
   9.0030010e-10  -4.6555209e-05   4.8964998e+00   4.8787933e+00  -4.5226388e+05
   9.0096699e-10  -4.6254574e-05   4.8964515e+00   4.8788594e+00  -4.4934378e+05
   9.0163388e-10  -4.5955880e-05   4.8964036e+00   4.8789250e+00  -4.4644253e+05
   9.0230077e-10  -4.5659114e-05   4.8963559e+00   4.8789902e+00  -4.4356000e+05
   9.0296766e-10  -4.5364265e-05   4.8963086e+00   4.8790549e+00  -4.4069608e+05
   9.0363454e-10  -4.5071320e-05   4.8962615e+00   4.8791193e+00  -4.3785064e+05
   9.0430143e-10  -4.4780265e-05   4.8962148e+00   4.8791832e+00  -4.3502358e+05
   9.0496832e-10  -4.4491091e-05   4.8961684e+00   4.8792468e+00  -4.3221476e+05
   9.0563521e-10  -4.4203783e-05   4.8961222e+00   4.8793099e+00  -4.2942407e+05
   9.0630210e-10  -4.3918330e-05   4.8960764e+00   4.8793726e+00  -4.2665139e+05
   9.0696899e-10  -4.3634721e-05   4.8960309e+00   4.8794349e+00  -4.2389661e+05
   9.0763588e-10  -4.3352942e-05   4.8959856e+00   4.8794968e+00  -4.2115961e+05
   9.0830277e-10  -4.3072983e-05   4.8959407e+00   4.8795583e+00  -4.1844029e+05
   9.0896966e-10  -4.2794832e-05   4.8958960e+00   4.8796194e+00  -4.1573851e+05
   9.0963655e-10  -4.2518477e-05   4.8958516e+00   4.8796801e+00  -4.1305417e+05
   9.1030343e-10  -4.2243906e-05   4.8958075e+00   4.8797404e+00  -4.1038716e+05
   9.1097032e-10  -4.1971107e-05   4.8957637e+00   4.8798003e+00  -4.0773737e+05
   9.1163721e-10  -4.1700071e-05   4.8957202e+00   4.8798599e+00  -4.0510468e+05
   9.1230410e-10  -4.1430784e-05   4.8956770e+00   4.8799190e+00  -4.0248899e+05
   9.1297099e-10  -4.1163236e-05   4.8956340e+00   4.8799778e+00  -3.9989018e+05
   9.1363788e-10  -4.0897416e-05   4.8955913e+00   4.8800362e+00  -3.9730814e+05
   9.1430477e-10  -4.0633312e-05   4.8955489e+00   4.8800942e+00  -3.9474278e+05
   9.1497166e-10  -4.0370913e-05   4.8955068e+00   4.8801518e+00  -3.9219397e+05
   9.1563855e-10  -4.0110208e-05   4.8954649e+00   4.8802091e+00  -3.8966161e+05
   9.1630544e-10  -3.9851187e-05   4.8954233e+00   4.8802660e+00  -3.8714561e+05
   9.1697232e-10  -3.9593838e-05   4.8953820e+00   4.8803225e+00  -3.8464584e+05
   9.1763921e-10  -3.9338151e-05   4.8953409e+00   4.8803787e+00  -3.8216221e+05
   9.1830610e-10  -3.9084115e-05   4.8953001e+00   4.8804345e+00  -3.7969462e+05
   9.1897299e-10  -3.8831719e-05   4.8952596e+00   4.8804899e+00  -3.7724295e+05
   9.1963988e-10  -3.8580953e-05   4.8952193e+00   4.8805450e+00  -3.7480711e+05
   9.2030677e-10  -3.8331807e-05   4.8951793e+00   4.8805998e+00  -3.7238699e+05
   9.2097366e-10  -3.8084268e-05   4.8951396e+00   4.8806541e+00  -3.6998250e+05
   9.2164055e-10  -3.7838329e-05   4.8951001e+00   4.8807082e+00  -3.6759352e+05
   9.2230744e-10  -3.7593977e-05   4.8950608e+00   4.8807618e+00  -3.6521997e+05
   9.2297432e-10  -3.7351203e-05   4.8950218e+00   4.8808152e+00  -3.6286175e+05
   9.2364121e-10  -3.7109996e-05   4.8949831e+00   4.8808682e+00  -3.6051874e+05
   9.2430810e-10  -3.6870348e-05   4.8949446e+00   4.8809208e+00  -3.5819086e+05
   9.2497499e-10  -3.6632246e-05   4.8949064e+00   4.8809731e+00  -3.5587801e+05
   9.2564188e-10  -3.6395682e-05   4.8948684e+00   4.8810251e+00  -3.5358009e+05
   9.2630877e-10  -3.6160645e-05   4.8948306e+00   4.8810767e+00  -3.5129700e+05
   9.2697566e-10  -3.5927127e-05   4.8947931e+00   4.8811280e+00  -3.4902865e+05
   9.2764255e-10  -3.5695115e-05   4.8947559e+00   4.8811790e+00  -3.4677495e+05
   9.2830944e-10  -3.5464603e-05   4.8947188e+00   4.8812296e+00  -3.4453579e+05
   9.2897633e-10  -3.5235578e-05   4.8946821e+00   4.8812799e+00  -3.4231109e+05
   9.2964321e-10  -3.5008032e-05   4.8946455e+00   4.8813299e+00  -3.4010075e+05
   9.3031010e-10  -3.4781956e-05   4.8946092e+00   4.8813796e+00  -3.3790468e+05
   9.3097699e-10  -3.4557339e-05   4.8945731e+00   4.8814289e+00  -3.3572279e+05
   9.3164388e-10  -3.4334173e-05   4.8945373e+00   4.8814779e+00  -3.3355498e+05
   9.3231077e-10  -3.4112448e-05   4.8945017e+00   4.8815266e+00  -3.3140117e+05
   9.3297766e-10  -3.3892155e-05   4.8944663e+00   4.8815750e+00  -3.2926126e+05
   9.3364455e-10  -3.3673284e-05   4.8944311e+00   4.8816231e+00  -3.2713517e+05
   9.3431144e-10  -3.3455826e-05   4.8943962e+00   4.8816709e+00  -3.2502280e+05
   9.3497833e-10  -3.3239772e-05   4.8943615e+00   4.8817183e+00  -3.2292407e+05
   9.3564522e-10  -3.3025114e-05   4.8943270e+00   4.8817655e+00  -3.2083889e+05
   9.3631210e-10  -3.2811841e-05   4.8942928e+00   4.8818123e+00  -3.1876717e+05
   9.3697899e-10  -3.2599946e-05   4.8942587e+00   4.8818589e+00  -3.1670882e+05
   9.3764588e-10  -3.2389419e-05   4.8942249e+00   4.8819051e+00  -3.1466377e+05
   9.3831277e-10  -3.2180252e-05   4.8941913e+00   4.8819511e+00  -3.1263191e+05
   9.3897966e-10  -3.1972435e-05   4.8941579e+00   4.8819967e+00  -3.1061317e+05
   9.3964655e-10  -3.1765960e-05   4.8941248e+00   4.8820421e+00  -3.0860747e+05
   9.4031344e-10  -3.1560818e-05   4.8940918e+00   4.8820871e+00  -3.0661471e+05
   9.4098033e-10  -3.1357001e-05   4.8940591e+00   4.8821319e+00  -3.0463482e+05
   9.4164722e-10  -3.1154500e-05   4.8940266e+00   4.8821764e+00  -3.0266772e+05
   9.4231410e-10  -3.0953307e-05   4.8939943e+00   4.8822206e+00  -3.0071331e+05
   9.4298099e-10  -3.0753412e-05   4.8939621e+00   4.8822645e+00  -2.9877151e+05
   9.4364788e-10  -3.0554809e-05   4.8939302e+00   4.8823081e+00  -2.9684226e+05
   9.4431477e-10  -3.0357488e-05   4.8938985e+00   4.8823515e+00  -2.9492546e+05
   9.4498166e-10  -3.0161441e-05   4.8938671e+00   4.8823945e+00  -2.9302104e+05
   9.4564855e-10  -2.9966660e-05   4.8938358e+00   4.8824373e+00  -2.9112891e+05
   9.4631544e-10  -2.9773137e-05   4.8938047e+00   4.8824798e+00  -2.8924899e+05
   9.4698233e-10  -2.9580864e-05   4.8937738e+00   4.8825221e+00  -2.8738121e+05
   9.4764922e-10  -2.9389832e-05   4.8937431e+00   4.8825640e+00  -2.8552550e+05
   9.4831611e-10  -2.9200033e-05   4.8937126e+00   4.8826057e+00  -2.8368176e+05
   9.4898299e-10  -2.9011461e-05   4.8936823e+00   4.8826471e+00  -2.8184992e+05
   9.4964988e-10  -2.8824106e-05   4.8936522e+00   4.8826883e+00  -2.8002992e+05
   9.5031677e-10  -2.8637960e-05   4.8936223e+00   4.8827292e+00  -2.7822166e+05
   9.5098366e-10  -2.8453017e-05   4.8935926e+00   4.8827698e+00  -2.7642507e+05
   9.5165055e-10  -2.8269268e-05   4.8935631e+00   4.8828102e+00  -2.7464009e+05
   9.5231744e-10  -2.8086706e-05   4.8935338e+00   4.8828503e+00  -2.7286663e+05
   9.5298433e-10  -2.7905322e-05   4.8935046e+00   4.8828901e+00  -2.7110462e+05
   9.5365122e-10  -2.7725110e-05   4.8934757e+00   4.8829297e+00  -2.6935399e+05
   9.5431811e-10  -2.7546061e-05   4.8934469e+00   4.8829691e+00  -2.6761466e+05
   9.5498499e-10  -2.7368169e-05   4.8934183e+00   4.8830081e+00  -2.6588655e+05
   9.5565188e-10  -2.7191425e-05   4.8933900e+00   4.8830470e+00  -2.6416961e+05
   9.5631877e-10  -2.7015823e-05   4.8933617e+00   4.8830855e+00  -2.6246375e+05
   9.5698566e-10  -2.6841354e-05   4.8933337e+00   4.8831239e+00  -2.6076890e+05
   9.5765255e-10  -2.6668012e-05   4.8933059e+00   4.8831619e+00  -2.5908500e+05
   9.5831944e-10  -2.6495790e-05   4.8932782e+00   4.8831998e+00  -2.5741197e+05
   9.5898633e-10  -2.6324680e-05   4.8932507e+00   4.8832373e+00  -2.5574974e+05
   9.5965322e-10  -2.6154674e-05   4.8932234e+00   4.8832747e+00  -2.5409824e+05
   9.6032011e-10  -2.5985767e-05   4.8931963e+00   4.8833118e+00  -2.5245740e+05
   9.6098700e-10  -2.5817950e-05   4.8931693e+00   4.8833487e+00  -2.5082716e+05
   9.6165388e-10  -2.5651217e-05   4.8931425e+00   4.8833853e+00  -2.4920745e+05
   9.6232077e-10  -2.5485560e-05   4.8931159e+00   4.8834217e+00  -2.4759819e+05
   9.6298766e-10  -2.5320973e-05   4.8930895e+00   4.8834578e+00  -2.4599932e+05
   9.6365455e-10  -2.5157449e-05   4.8930632e+00   4.8834938e+00  -2.4441077e+05
   9.6432144e-10  -2.4994981e-05   4.8930371e+00   4.8835294e+00  -2.4283249e+05
   9.6498833e-10  -2.4833562e-05   4.8930112e+00   4.8835649e+00  -2.4126439e+05
   9.6565522e-10  -2.4673186e-05   4.8929854e+00   4.8836001e+00  -2.3970641e+05
   9.6632211e-10  -2.4513845e-05   4.8929598e+00   4.8836351e+00  -2.3815850e+05
   9.6698900e-10  -2.4355533e-05   4.8929344e+00   4.8836699e+00  -2.3662058e+05
   9.6765589e-10  -2.4198244e-05   4.8929091e+00   4.8837045e+00  -2.3509259e+05
   9.6832277e-10  -2.4041970e-05   4.8928840e+00   4.8837388e+00  -2.3357446e+05
   9.6898966e-10  -2.3886705e-05   4.8928590e+00   4.8837729e+00  -2.3206614e+05
   9.6965655e-10  -2.3732443e-05   4.8928342e+00   4.8838068e+00  -2.3056755e+05
   9.7032344e-10  -2.3579177e-05   4.8928096e+00   4.8838404e+00  -2.2907864e+05
   9.7099033e-10  -2.3426901e-05   4.8927852e+00   4.8838739e+00  -2.2759935e+05
   9.7165722e-10  -2.3275608e-05   4.8927609e+00   4.8839071e+00  -2.2612960e+05
   9.7232411e-10  -2.3125292e-05   4.8927367e+00   4.8839402e+00  -2.2466934e+05
   9.7299100e-10  -2.2975947e-05   4.8927127e+00   4.8839730e+00  -2.2321852e+05
   9.7365789e-10  -2.2827566e-05   4.8926889e+00   4.8840056e+00  -2.2177706e+05
   9.7432477e-10  -2.2680143e-05   4.8926652e+00   4.8840379e+00  -2.2034491e+05
   9.7499166e-10  -2.2533673e-05   4.8926416e+00   4.8840701e+00  -2.1892200e+05
