   0.0000000e+00  -1.1727934e-01   6.3822382e+00   6.9431285e-04  -5.2219029e+08
   1.1337112e-12  -1.1668822e-01   6.3819585e+00   7.2696399e-04  -5.2061862e+08
   2.2674225e-12  -1.1609889e-01   6.3816726e+00   7.6104433e-04  -5.1904694e+08
   3.4011337e-12  -1.1551133e-01   6.3813804e+00   7.9661111e-04  -5.1747524e+08
   4.5348449e-12  -1.1492555e-01   6.3810816e+00   8.3372362e-04  -5.1590354e+08
   5.6685562e-12  -1.1434156e-01   6.3807763e+00   8.7244324e-04  -5.1433183e+08
   6.8022674e-12  -1.1375935e-01   6.3804642e+00   9.1283352e-04  -5.1276011e+08
   7.9359787e-12  -1.1317892e-01   6.3801452e+00   9.5496024e-04  -5.1118839e+08
   9.0696899e-12  -1.1260027e-01   6.3798192e+00   9.9889146e-04  -5.0961667e+08
   1.0203401e-11  -1.1202341e-01   6.3794860e+00   1.0446976e-03  -5.0804495e+08
   1.1337112e-11  -1.1144832e-01   6.3791455e+00   1.0924516e-03  -5.0647323e+08
   1.2470824e-11  -1.1087502e-01   6.3787976e+00   1.1422287e-03  -5.0490151e+08
   1.3604535e-11  -1.1030350e-01   6.3784421e+00   1.1941068e-03  -5.0332979e+08
   1.4738246e-11  -1.0973376e-01   6.3780788e+00   1.2481666e-03  -5.0175808e+08
   1.5871957e-11  -1.0916581e-01   6.3777077e+00   1.3044913e-03  -5.0018638e+08
   1.7005669e-11  -1.0859963e-01   6.3773284e+00   1.3631669e-03  -4.9861469e+08
   1.8139380e-11  -1.0803524e-01   6.3769409e+00   1.4242824e-03  -4.9704301e+08
   1.9273091e-11  -1.0747263e-01   6.3765451e+00   1.4879297e-03  -4.9547135e+08
   2.0406802e-11  -1.0691180e-01   6.3761407e+00   1.5542035e-03  -4.9389970e+08
   2.1540514e-11  -1.0635275e-01   6.3757275e+00   1.6232020e-03  -4.9232807e+08
   2.2674225e-11  -1.0579549e-01   6.3753055e+00   1.6950262e-03  -4.9075646e+08
   2.3807936e-11  -1.0524000e-01   6.3748744e+00   1.7697806e-03  -4.8918488e+08
   2.4941647e-11  -1.0468630e-01   6.3744340e+00   1.8475730e-03  -4.8761332e+08
   2.6075358e-11  -1.0413438e-01   6.3739842e+00   1.9285146e-03  -4.8604179e+08
   2.7209070e-11  -1.0358424e-01   6.3735248e+00   2.0127201e-03  -4.8447030e+08
   2.8342781e-11  -1.0303589e-01   6.3730555e+00   2.1003078e-03  -4.8289884e+08
   2.9476492e-11  -1.0248931e-01   6.3725763e+00   2.1913999e-03  -4.8132742e+08
   3.0610203e-11  -1.0194452e-01   6.3720868e+00   2.2861220e-03  -4.7975604e+08
   3.1743915e-11  -1.0140151e-01   6.3715870e+00   2.3846040e-03  -4.7818470e+08
   3.2877626e-11  -1.0086027e-01   6.3710766e+00   2.4869795e-03  -4.7661342e+08
   3.4011337e-11  -1.0032083e-01   6.3705553e+00   2.5933862e-03  -4.7504218e+08
   3.5145048e-11  -9.9783157e-02   6.3700231e+00   2.7039661e-03  -4.7347100e+08
   3.6278760e-11  -9.9247270e-02   6.3694796e+00   2.8188652e-03  -4.7189988e+08
   3.7412471e-11  -9.8713164e-02   6.3689246e+00   2.9382342e-03  -4.7032882e+08
   3.8546182e-11  -9.8180839e-02   6.3683580e+00   3.0622280e-03  -4.6875783e+08
   3.9679893e-11  -9.7650295e-02   6.3677795e+00   3.1910060e-03  -4.6718691e+08
   4.0813605e-11  -9.7121532e-02   6.3671889e+00   3.3247325e-03  -4.6561606e+08
   4.1947316e-11  -9.6594550e-02   6.3665859e+00   3.4635764e-03  -4.6404530e+08
   4.3081027e-11  -9.6069349e-02   6.3659703e+00   3.6077114e-03  -4.6247462e+08
   4.4214738e-11  -9.5545928e-02   6.3653419e+00   3.7573162e-03  -4.6090403e+08
   4.5348449e-11  -9.5024288e-02   6.3647003e+00   3.9125746e-03  -4.5933353e+08
   4.6482161e-11  -9.4504429e-02   6.3640455e+00   4.0736756e-03  -4.5776313e+08
   4.7615872e-11  -9.3986349e-02   6.3633771e+00   4.2408132e-03  -4.5619283e+08
   4.8749583e-11  -9.3470050e-02   6.3626948e+00   4.4141872e-03  -4.5462265e+08
   4.9883294e-11  -9.2955531e-02   6.3619984e+00   4.5940024e-03  -4.5305257e+08
   5.1017006e-11  -9.2442792e-02   6.3612876e+00   4.7804695e-03  -4.5148262e+08
   5.2150717e-11  -9.1931832e-02   6.3605622e+00   4.9738047e-03  -4.4991279e+08
   5.3284428e-11  -9.1422653e-02   6.3598218e+00   5.1742301e-03  -4.4834310e+08
   5.4418139e-11  -9.0915253e-02   6.3590662e+00   5.3819736e-03  -4.4677354e+08
   5.5551851e-11  -9.0409632e-02   6.3582952e+00   5.5972693e-03  -4.4520413e+08
   5.6685562e-11  -8.9905790e-02   6.3575084e+00   5.8203569e-03  -4.4363487e+08
   5.7819273e-11  -8.9403727e-02   6.3567054e+00   6.0514830e-03  -4.4206576e+08
   5.8952984e-11  -8.8903443e-02   6.3558861e+00   6.2908998e-03  -4.4049682e+08
   6.0086696e-11  -8.8404938e-02   6.3550502e+00   6.5388665e-03  -4.3892805e+08
   6.1220407e-11  -8.7908211e-02   6.3541972e+00   6.7956484e-03  -4.3735946e+08
   6.2354118e-11  -8.7413263e-02   6.3533269e+00   7.0615175e-03  -4.3579105e+08
   6.3487829e-11  -8.6920092e-02   6.3524390e+00   7.3367528e-03  -4.3422283e+08
   6.4621541e-11  -8.6428699e-02   6.3515331e+00   7.6216397e-03  -4.3265482e+08
   6.5755252e-11  -8.5939084e-02   6.3506090e+00   7.9164707e-03  -4.3108702e+08
   6.6888963e-11  -8.5451246e-02   6.3496662e+00   8.2215454e-03  -4.2951943e+08
   6.8022674e-11  -8.4965185e-02   6.3487045e+00   8.5371704e-03  -4.2795207e+08
   6.9156385e-11  -8.4480901e-02   6.3477235e+00   8.8636594e-03  -4.2638494e+08
   7.0290097e-11  -8.3998394e-02   6.3467228e+00   9.2013337e-03  -4.2481805e+08
   7.1423808e-11  -8.3517662e-02   6.3457022e+00   9.5505217e-03  -4.2325142e+08
   7.2557519e-11  -8.3038707e-02   6.3446611e+00   9.9115593e-03  -4.2168504e+08
   7.3691230e-11  -8.2561527e-02   6.3435994e+00   1.0284790e-02  -4.2011894e+08
   7.4824942e-11  -8.2086123e-02   6.3425165e+00   1.0670565e-02  -4.1855312e+08
   7.5958653e-11  -8.1612493e-02   6.3414122e+00   1.1069244e-02  -4.1698758e+08
   7.7092364e-11  -8.1140639e-02   6.3402860e+00   1.1481193e-02  -4.1542235e+08
   7.8226075e-11  -8.0670558e-02   6.3391375e+00   1.1906786e-02  -4.1385743e+08
   7.9359787e-11  -8.0202252e-02   6.3379665e+00   1.2346406e-02  -4.1229283e+08
   8.0493498e-11  -7.9735719e-02   6.3367723e+00   1.2800445e-02  -4.1072856e+08
   8.1627209e-11  -7.9270960e-02   6.3355548e+00   1.3269300e-02  -4.0916464e+08
   8.2760920e-11  -7.8807973e-02   6.3343134e+00   1.3753378e-02  -4.0760107e+08
   8.3894632e-11  -7.8346759e-02   6.3330477e+00   1.4253095e-02  -4.0603786e+08
   8.5028343e-11  -7.7887317e-02   6.3317574e+00   1.4768874e-02  -4.0447504e+08
   8.6162054e-11  -7.7429646e-02   6.3304420e+00   1.5301147e-02  -4.0291261e+08
   8.7295765e-11  -7.6973746e-02   6.3291010e+00   1.5850354e-02  -4.0135058e+08
   8.8429476e-11  -7.6519617e-02   6.3277341e+00   1.6416944e-02  -3.9978896e+08
   8.9563188e-11  -7.6067259e-02   6.3263407e+00   1.7001373e-02  -3.9822778e+08
   9.0696899e-11  -7.5616669e-02   6.3249206e+00   1.7604107e-02  -3.9666704e+08
   9.1830610e-11  -7.5167850e-02   6.3234731e+00   1.8225621e-02  -3.9510675e+08
   9.2964321e-11  -7.4720798e-02   6.3219978e+00   1.8866396e-02  -3.9354693e+08
   9.4098033e-11  -7.4275515e-02   6.3204944e+00   1.9526925e-02  -3.9198760e+08
   9.5231744e-11  -7.3831999e-02   6.3189622e+00   2.0207707e-02  -3.9042877e+08
   9.6365455e-11  -7.3390251e-02   6.3174009e+00   2.0909251e-02  -3.8887045e+08
   9.7499166e-11  -7.2950268e-02   6.3158100e+00   2.1632074e-02  -3.8731266e+08
   9.8632878e-11  -7.2512052e-02   6.3141890e+00   2.2376701e-02  -3.8575541e+08
   9.9766589e-11  -7.2075600e-02   6.3125373e+00   2.3143667e-02  -3.8419872e+08
   1.0090030e-10  -7.1640913e-02   6.3108546e+00   2.3933516e-02  -3.8264261e+08
   1.0203401e-10  -7.1207990e-02   6.3091403e+00   2.4746798e-02  -3.8108709e+08
   1.0316772e-10  -7.0776830e-02   6.3073940e+00   2.5584073e-02  -3.7953218e+08
   1.0430143e-10  -7.0347433e-02   6.3056150e+00   2.6445911e-02  -3.7797789e+08
   1.0543515e-10  -6.9919797e-02   6.3038029e+00   2.7332888e-02  -3.7642425e+08
   1.0656886e-10  -6.9493922e-02   6.3019573e+00   2.8245590e-02  -3.7487126e+08
   1.0770257e-10  -6.9069808e-02   6.3000775e+00   2.9184610e-02  -3.7331896e+08
   1.0883628e-10  -6.8647453e-02   6.2981630e+00   3.0150552e-02  -3.7176735e+08
   1.0996999e-10  -6.8226856e-02   6.2962134e+00   3.1144024e-02  -3.7021646e+08
   1.1110370e-10  -6.7808018e-02   6.2942281e+00   3.2165646e-02  -3.6866630e+08
   1.1223741e-10  -6.7390936e-02   6.2922065e+00   3.3216044e-02  -3.6711689e+08
   1.1337112e-10  -6.6975611e-02   6.2901482e+00   3.4295852e-02  -3.6556825e+08
   1.1450483e-10  -6.6562041e-02   6.2880525e+00   3.5405714e-02  -3.6402041e+08
   1.1563855e-10  -6.6150225e-02   6.2859190e+00   3.6546278e-02  -3.6247338e+08
   1.1677226e-10  -6.5740162e-02   6.2837471e+00   3.7718204e-02  -3.6092718e+08
   1.1790597e-10  -6.5331852e-02   6.2815362e+00   3.8922155e-02  -3.5938184e+08
   1.1903968e-10  -6.4925294e-02   6.2792858e+00   4.0158804e-02  -3.5783737e+08
   1.2017339e-10  -6.4520486e-02   6.2769953e+00   4.1428832e-02  -3.5629380e+08
   1.2130710e-10  -6.4117427e-02   6.2746642e+00   4.2732924e-02  -3.5475114e+08
   1.2244081e-10  -6.3716117e-02   6.2722919e+00   4.4071774e-02  -3.5320943e+08
   1.2357452e-10  -6.3316554e-02   6.2698778e+00   4.5446083e-02  -3.5166868e+08
   1.2470824e-10  -6.2918737e-02   6.2674214e+00   4.6856556e-02  -3.5012892e+08
   1.2584195e-10  -6.2522666e-02   6.2649222e+00   4.8303907e-02  -3.4859017e+08
   1.2697566e-10  -6.2128338e-02   6.2623794e+00   4.9788855e-02  -3.4705244e+08
   1.2810937e-10  -6.1735753e-02   6.2597927e+00   5.1312125e-02  -3.4551578e+08
   1.2924308e-10  -6.1344909e-02   6.2571613e+00   5.2874446e-02  -3.4398020e+08
   1.3037679e-10  -6.0955806e-02   6.2544848e+00   5.4476556e-02  -3.4244572e+08
   1.3151050e-10  -6.0568442e-02   6.2517625e+00   5.6119194e-02  -3.4091238e+08
   1.3264421e-10  -6.0182815e-02   6.2489939e+00   5.7803107e-02  -3.3938019e+08
   1.3377793e-10  -5.9798925e-02   6.2461784e+00   5.9529044e-02  -3.3784918e+08
   1.3491164e-10  -5.9416770e-02   6.2433154e+00   6.1297761e-02  -3.3631938e+08
   1.3604535e-10  -5.9036348e-02   6.2404044e+00   6.3110017e-02  -3.3479082e+08
   1.3717906e-10  -5.8657659e-02   6.2374448e+00   6.4966573e-02  -3.3326351e+08
   1.3831277e-10  -5.8280700e-02   6.2344359e+00   6.6868196e-02  -3.3173750e+08
   1.3944648e-10  -5.7905471e-02   6.2313774e+00   6.8815654e-02  -3.3021280e+08
   1.4058019e-10  -5.7531970e-02   6.2282685e+00   7.0809720e-02  -3.2868944e+08
   1.4171390e-10  -5.7160194e-02   6.2251087e+00   7.2851167e-02  -3.2716745e+08
   1.4284762e-10  -5.6790144e-02   6.2218974e+00   7.4940771e-02  -3.2564687e+08
   1.4398133e-10  -5.6421817e-02   6.2186341e+00   7.7079311e-02  -3.2412771e+08
   1.4511504e-10  -5.6055211e-02   6.2153182e+00   7.9267565e-02  -3.2261001e+08
   1.4624875e-10  -5.5690324e-02   6.2119492e+00   8.1506315e-02  -3.2109379e+08
   1.4738246e-10  -5.5327156e-02   6.2085265e+00   8.3796340e-02  -3.1957909e+08
   1.4851617e-10  -5.4965705e-02   6.2050495e+00   8.6138421e-02  -3.1806594e+08
   1.4964988e-10  -5.4605967e-02   6.2015178e+00   8.8533341e-02  -3.1655436e+08
   1.5078359e-10  -5.4247943e-02   6.1979307e+00   9.0981877e-02  -3.1504439e+08
   1.5191731e-10  -5.3891630e-02   6.1942878e+00   9.3484811e-02  -3.1353606e+08
   1.5305102e-10  -5.3537025e-02   6.1905884e+00   9.6042919e-02  -3.1202939e+08
   1.5418473e-10  -5.3184128e-02   6.1868321e+00   9.8656976e-02  -3.1052443e+08
   1.5531844e-10  -5.2832936e-02   6.1830184e+00   1.0132776e-01  -3.0902120e+08
   1.5645215e-10  -5.2483447e-02   6.1791467e+00   1.0405603e-01  -3.0751973e+08
   1.5758586e-10  -5.2135659e-02   6.1752166e+00   1.0684257e-01  -3.0602006e+08
   1.5871957e-10  -5.1789571e-02   6.1712274e+00   1.0968813e-01  -3.0452221e+08
   1.5985328e-10  -5.1445179e-02   6.1671788e+00   1.1259347e-01  -3.0302623e+08
   1.6098700e-10  -5.1102483e-02   6.1630703e+00   1.1555936e-01  -3.0153215e+08
   1.6212071e-10  -5.0761479e-02   6.1589013e+00   1.1858653e-01  -3.0003999e+08
   1.6325442e-10  -5.0422166e-02   6.1546715e+00   1.2167573e-01  -2.9854979e+08
   1.6438813e-10  -5.0084541e-02   6.1503803e+00   1.2482770e-01  -2.9706159e+08
   1.6552184e-10  -4.9748602e-02   6.1460272e+00   1.2804317e-01  -2.9557542e+08
   1.6665555e-10  -4.9414347e-02   6.1416120e+00   1.3132287e-01  -2.9409132e+08
   1.6778926e-10  -4.9081773e-02   6.1371340e+00   1.3466751e-01  -2.9260931e+08
   1.6892297e-10  -4.8750879e-02   6.1325930e+00   1.3807780e-01  -2.9112944e+08
   1.7005669e-10  -4.8421660e-02   6.1279884e+00   1.4155443e-01  -2.8965173e+08
   1.7119040e-10  -4.8094116e-02   6.1233199e+00   1.4509810e-01  -2.8817623e+08
   1.7232411e-10  -4.7768243e-02   6.1185871e+00   1.4870950e-01  -2.8670297e+08
   1.7345782e-10  -4.7444039e-02   6.1137897e+00   1.5238928e-01  -2.8523198e+08
   1.7459153e-10  -4.7121502e-02   6.1089272e+00   1.5613811e-01  -2.8376331e+08
   1.7572524e-10  -4.6800628e-02   6.1039993e+00   1.5995664e-01  -2.8229698e+08
   1.7685895e-10  -4.6481415e-02   6.0990057e+00   1.6384550e-01  -2.8083303e+08
   1.7799266e-10  -4.6163861e-02   6.0939460e+00   1.6780532e-01  -2.7937150e+08
   1.7912638e-10  -4.5847962e-02   6.0888200e+00   1.7183672e-01  -2.7791243e+08
   1.8026009e-10  -4.5533716e-02   6.0836273e+00   1.7594028e-01  -2.7645585e+08
   1.8139380e-10  -4.5221120e-02   6.0783676e+00   1.8011660e-01  -2.7500180e+08
   1.8252751e-10  -4.4910171e-02   6.0730408e+00   1.8436624e-01  -2.7355031e+08
   1.8366122e-10  -4.4600866e-02   6.0676464e+00   1.8868976e-01  -2.7210143e+08
   1.8479493e-10  -4.4293202e-02   6.0621844e+00   1.9308770e-01  -2.7065518e+08
   1.8592864e-10  -4.3987176e-02   6.0566544e+00   1.9756059e-01  -2.6921161e+08
   1.8706235e-10  -4.3682785e-02   6.0510563e+00   2.0210893e-01  -2.6777076e+08
   1.8819607e-10  -4.3380026e-02   6.0453899e+00   2.0673322e-01  -2.6633266e+08
   1.8932978e-10  -4.3078896e-02   6.0396549e+00   2.1143392e-01  -2.6489734e+08
   1.9046349e-10  -4.2779391e-02   6.0338514e+00   2.1621151e-01  -2.6346485e+08
   1.9159720e-10  -4.2481509e-02   6.0279790e+00   2.2106641e-01  -2.6203522e+08
   1.9273091e-10  -4.2185246e-02   6.0220377e+00   2.2599904e-01  -2.6060850e+08
   1.9386462e-10  -4.1890599e-02   6.0160273e+00   2.3100982e-01  -2.5918471e+08
   1.9499833e-10  -4.1597565e-02   6.0099479e+00   2.3609912e-01  -2.5776390e+08
   1.9613204e-10  -4.1306139e-02   6.0037993e+00   2.4126729e-01  -2.5634610e+08
   1.9726576e-10  -4.1016319e-02   5.9975815e+00   2.4651469e-01  -2.5493135e+08
   1.9839947e-10  -4.0728102e-02   5.9912944e+00   2.5184164e-01  -2.5351969e+08
   1.9953318e-10  -4.0441482e-02   5.9849381e+00   2.5724844e-01  -2.5211116e+08
   2.0066689e-10  -4.0156458e-02   5.9785125e+00   2.6273536e-01  -2.5070579e+08
   2.0180060e-10  -3.9873026e-02   5.9720177e+00   2.6830266e-01  -2.4930362e+08
   2.0293431e-10  -3.9591181e-02   5.9654537e+00   2.7395058e-01  -2.4790468e+08
   2.0406802e-10  -3.9310920e-02   5.9588205e+00   2.7967933e-01  -2.4650902e+08
   2.0520173e-10  -3.9032240e-02   5.9521184e+00   2.8548910e-01  -2.4511668e+08
   2.0633545e-10  -3.8755137e-02   5.9453473e+00   2.9138006e-01  -2.4372768e+08
   2.0746916e-10  -3.8479606e-02   5.9385074e+00   2.9735235e-01  -2.4234207e+08
   2.0860287e-10  -3.8205644e-02   5.9315989e+00   3.0340610e-01  -2.4095988e+08
   2.0973658e-10  -3.7933247e-02   5.9246219e+00   3.0954139e-01  -2.3958115e+08
   2.1087029e-10  -3.7662411e-02   5.9175766e+00   3.1575831e-01  -2.3820591e+08
   2.1200400e-10  -3.7393133e-02   5.9104632e+00   3.2205689e-01  -2.3683421e+08
   2.1313771e-10  -3.7125407e-02   5.9032819e+00   3.2843717e-01  -2.3546608e+08
   2.1427142e-10  -3.6859231e-02   5.8960330e+00   3.3489914e-01  -2.3410155e+08
   2.1540514e-10  -3.6594599e-02   5.8887168e+00   3.4144278e-01  -2.3274066e+08
   2.1653885e-10  -3.6331508e-02   5.8813335e+00   3.4806804e-01  -2.3138345e+08
   2.1767256e-10  -3.6069954e-02   5.8738835e+00   3.5477484e-01  -2.3002995e+08
   2.1880627e-10  -3.5809932e-02   5.8663670e+00   3.6156307e-01  -2.2868020e+08
   2.1993998e-10  -3.5551438e-02   5.8587845e+00   3.6843262e-01  -2.2733423e+08
   2.2107369e-10  -3.5294468e-02   5.8511363e+00   3.7538333e-01  -2.2599208e+08
   2.2220740e-10  -3.5039018e-02   5.8434228e+00   3.8241503e-01  -2.2465377e+08
   2.2334111e-10  -3.4785082e-02   5.8356444e+00   3.8952751e-01  -2.2331936e+08
   2.2447482e-10  -3.4532657e-02   5.8278016e+00   3.9672054e-01  -2.2198886e+08
   2.2560854e-10  -3.4281738e-02   5.8198947e+00   4.0399388e-01  -2.2066232e+08
   2.2674225e-10  -3.4032321e-02   5.8119243e+00   4.1134723e-01  -2.1933977e+08
   2.2787596e-10  -3.3784401e-02   5.8038909e+00   4.1878030e-01  -2.1802123e+08
   2.2900967e-10  -3.3537974e-02   5.7957950e+00   4.2629276e-01  -2.1670675e+08
   2.3014338e-10  -3.3293034e-02   5.7876370e+00   4.3388425e-01  -2.1539636e+08
   2.3127709e-10  -3.3049578e-02   5.7794176e+00   4.4155439e-01  -2.1409008e+08
   2.3241080e-10  -3.2807600e-02   5.7711374e+00   4.4930277e-01  -2.1278795e+08
   2.3354451e-10  -3.2567096e-02   5.7627968e+00   4.5712897e-01  -2.1149001e+08
   2.3467823e-10  -3.2328062e-02   5.7543966e+00   4.6503252e-01  -2.1019628e+08
   2.3581194e-10  -3.2090491e-02   5.7459373e+00   4.7301296e-01  -2.0890679e+08
   2.3694565e-10  -3.1854380e-02   5.7374196e+00   4.8106976e-01  -2.0762158e+08
   2.3807936e-10  -3.1619724e-02   5.7288442e+00   4.8920242e-01  -2.0634067e+08
   2.3921307e-10  -3.1386517e-02   5.7202117e+00   4.9741036e-01  -2.0506410e+08
   2.4034678e-10  -3.1154755e-02   5.7115229e+00   5.0569302e-01  -2.0379189e+08
   2.4148049e-10  -3.0924433e-02   5.7027783e+00   5.1404979e-01  -2.0252407e+08
   2.4261420e-10  -3.0695546e-02   5.6939789e+00   5.2248006e-01  -2.0126068e+08
   2.4374792e-10  -3.0468089e-02   5.6851253e+00   5.3098317e-01  -2.0000174e+08
   2.4488163e-10  -3.0242056e-02   5.6762183e+00   5.3955845e-01  -1.9874727e+08
   2.4601534e-10  -3.0017443e-02   5.6672586e+00   5.4820522e-01  -1.9749731e+08
   2.4714905e-10  -2.9794245e-02   5.6582471e+00   5.5692276e-01  -1.9625188e+08
   2.4828276e-10  -2.9572456e-02   5.6491846e+00   5.6571033e-01  -1.9501100e+08
   2.4941647e-10  -2.9352071e-02   5.6400718e+00   5.7456718e-01  -1.9377472e+08
   2.5055018e-10  -2.9133085e-02   5.6309097e+00   5.8349253e-01  -1.9254304e+08
   2.5168389e-10  -2.8915493e-02   5.6216991e+00   5.9248559e-01  -1.9131600e+08
   2.5281761e-10  -2.8699289e-02   5.6124408e+00   6.0154553e-01  -1.9009361e+08
   2.5395132e-10  -2.8484469e-02   5.6031358e+00   6.1067152e-01  -1.8887592e+08
   2.5508503e-10  -2.8271026e-02   5.5937848e+00   6.1986270e-01  -1.8766293e+08
   2.5621874e-10  -2.8058956e-02   5.5843889e+00   6.2911819e-01  -1.8645466e+08
   2.5735245e-10  -2.7848253e-02   5.5749489e+00   6.3843711e-01  -1.8525116e+08
   2.5848616e-10  -2.7638912e-02   5.5654658e+00   6.4781853e-01  -1.8405243e+08
   2.5961987e-10  -2.7430927e-02   5.5559404e+00   6.5726154e-01  -1.8285850e+08
   2.6075358e-10  -2.7224292e-02   5.5463738e+00   6.6676518e-01  -1.8166938e+08
   2.6188730e-10  -2.7019004e-02   5.5367669e+00   6.7632850e-01  -1.8048511e+08
   2.6302101e-10  -2.6815055e-02   5.5271207e+00   6.8595051e-01  -1.7930569e+08
   2.6415472e-10  -2.6612440e-02   5.5174361e+00   6.9563022e-01  -1.7813116e+08
   2.6528843e-10  -2.6411154e-02   5.5077141e+00   7.0536662e-01  -1.7696153e+08
   2.6642214e-10  -2.6211192e-02   5.4979557e+00   7.1515870e-01  -1.7579681e+08
   2.6755585e-10  -2.6012547e-02   5.4881619e+00   7.2500541e-01  -1.7463703e+08
   2.6868956e-10  -2.5815214e-02   5.4783338e+00   7.3490570e-01  -1.7348221e+08
   2.6982327e-10  -2.5619188e-02   5.4684723e+00   7.4485852e-01  -1.7233235e+08
   2.7095699e-10  -2.5424462e-02   5.4585784e+00   7.5486279e-01  -1.7118749e+08
   2.7209070e-10  -2.5231031e-02   5.4486531e+00   7.6491743e-01  -1.7004762e+08
   2.7322441e-10  -2.5038890e-02   5.4386976e+00   7.7502133e-01  -1.6891278e+08
   2.7435812e-10  -2.4848033e-02   5.4287128e+00   7.8517339e-01  -1.6778297e+08
   2.7549183e-10  -2.4658453e-02   5.4186998e+00   7.9537250e-01  -1.6665821e+08
   2.7662554e-10  -2.4470146e-02   5.4086596e+00   8.0561752e-01  -1.6553852e+08
   2.7775925e-10  -2.4283106e-02   5.3985932e+00   8.1590733e-01  -1.6442390e+08
   2.7889296e-10  -2.4097326e-02   5.3885017e+00   8.2624078e-01  -1.6331437e+08
   2.8002668e-10  -2.3912801e-02   5.3783862e+00   8.3661672e-01  -1.6220995e+08
   2.8116039e-10  -2.3729526e-02   5.3682477e+00   8.4703400e-01  -1.6111064e+08
   2.8229410e-10  -2.3547493e-02   5.3580872e+00   8.5749144e-01  -1.6001645e+08
   2.8342781e-10  -2.3366699e-02   5.3479059e+00   8.6798789e-01  -1.5892741e+08
   2.8456152e-10  -2.3187136e-02   5.3377046e+00   8.7852216e-01  -1.5784351e+08
   2.8569523e-10  -2.3008799e-02   5.3274846e+00   8.8909308e-01  -1.5676477e+08
   2.8682894e-10  -2.2831682e-02   5.3172469e+00   8.9969946e-01  -1.5569119e+08
   2.8796265e-10  -2.2655779e-02   5.3069925e+00   9.1034012e-01  -1.5462279e+08
   2.8909637e-10  -2.2481085e-02   5.2967224e+00   9.2101386e-01  -1.5355958e+08
   2.9023008e-10  -2.2307593e-02   5.2864378e+00   9.3171949e-01  -1.5250155e+08
   2.9136379e-10  -2.2135298e-02   5.2761396e+00   9.4245583e-01  -1.5144873e+08
   2.9249750e-10  -2.1964193e-02   5.2658290e+00   9.5322166e-01  -1.5040111e+08
   2.9363121e-10  -2.1794273e-02   5.2555068e+00   9.6401580e-01  -1.4935870e+08
   2.9476492e-10  -2.1625532e-02   5.2451743e+00   9.7483705e-01  -1.4832151e+08
   2.9589863e-10  -2.1457963e-02   5.2348324e+00   9.8568421e-01  -1.4728954e+08
   2.9703234e-10  -2.1291562e-02   5.2244821e+00   9.9655608e-01  -1.4626280e+08
   2.9816606e-10  -2.1126322e-02   5.2141245e+00   1.0074515e+00  -1.4524130e+08
   2.9929977e-10  -2.0962237e-02   5.2037606e+00   1.0183692e+00  -1.4422502e+08
   3.0043348e-10  -2.0799301e-02   5.1933914e+00   1.0293080e+00  -1.4321399e+08
   3.0156719e-10  -2.0637508e-02   5.1830179e+00   1.0402668e+00  -1.4220820e+08
   3.0270090e-10  -2.0476853e-02   5.1726411e+00   1.0512444e+00  -1.4120765e+08
   3.0383461e-10  -2.0317329e-02   5.1622620e+00   1.0622395e+00  -1.4021235e+08
   3.0496832e-10  -2.0158930e-02   5.1518817e+00   1.0732510e+00  -1.3922229e+08
   3.0610203e-10  -2.0001651e-02   5.1415010e+00   1.0842778e+00  -1.3823748e+08
   3.0723575e-10  -1.9845485e-02   5.1311210e+00   1.0953186e+00  -1.3725792e+08
   3.0836946e-10  -1.9690427e-02   5.1207426e+00   1.1063723e+00  -1.3628361e+08
   3.0950317e-10  -1.9536471e-02   5.1103668e+00   1.1174377e+00  -1.3531454e+08
   3.1063688e-10  -1.9383610e-02   5.0999945e+00   1.1285137e+00  -1.3435072e+08
   3.1177059e-10  -1.9231839e-02   5.0896267e+00   1.1395991e+00  -1.3339215e+08
   3.1290430e-10  -1.9081152e-02   5.0792644e+00   1.1506929e+00  -1.3243882e+08
   3.1403801e-10  -1.8931542e-02   5.0689083e+00   1.1617938e+00  -1.3149072e+08
   3.1517172e-10  -1.8783004e-02   5.0585596e+00   1.1729007e+00  -1.3054787e+08
   3.1630544e-10  -1.8635533e-02   5.0482189e+00   1.1840126e+00  -1.2961024e+08
   3.1743915e-10  -1.8489121e-02   5.0378874e+00   1.1951283e+00  -1.2867785e+08
   3.1857286e-10  -1.8343764e-02   5.0275658e+00   1.2062467e+00  -1.2775069e+08
   3.1970657e-10  -1.8199455e-02   5.0172550e+00   1.2173668e+00  -1.2682874e+08
   3.2084028e-10  -1.8056187e-02   5.0069559e+00   1.2284874e+00  -1.2591201e+08
   3.2197399e-10  -1.7913957e-02   4.9966693e+00   1.2396075e+00  -1.2500049e+08
   3.2310770e-10  -1.7772757e-02   4.9863961e+00   1.2507260e+00  -1.2409418e+08
   3.2424141e-10  -1.7632581e-02   4.9761372e+00   1.2618419e+00  -1.2319306e+08
   3.2537513e-10  -1.7493424e-02   4.9658933e+00   1.2729541e+00  -1.2229714e+08
   3.2650884e-10  -1.7355280e-02   4.9556652e+00   1.2840616e+00  -1.2140640e+08
   3.2764255e-10  -1.7218142e-02   4.9454538e+00   1.2951634e+00  -1.2052084e+08
   3.2877626e-10  -1.7082006e-02   4.9352599e+00   1.3062585e+00  -1.1964045e+08
   3.2990997e-10  -1.6946865e-02   4.9250842e+00   1.3173458e+00  -1.1876521e+08
   3.3104368e-10  -1.6812713e-02   4.9149274e+00   1.3284245e+00  -1.1789513e+08
   3.3217739e-10  -1.6679545e-02   4.9047904e+00   1.3394934e+00  -1.1703020e+08
   3.3331110e-10  -1.6547354e-02   4.8946739e+00   1.3505518e+00  -1.1617040e+08
   3.3444481e-10  -1.6416135e-02   4.8845786e+00   1.3615985e+00  -1.1531572e+08
   3.3557853e-10  -1.6285883e-02   4.8745052e+00   1.3726328e+00  -1.1446616e+08
   3.3671224e-10  -1.6156590e-02   4.8644545e+00   1.3836535e+00  -1.1362170e+08
   3.3784595e-10  -1.6028252e-02   4.8544271e+00   1.3946600e+00  -1.1278234e+08
   3.3897966e-10  -1.5900863e-02   4.8444237e+00   1.4056511e+00  -1.1194805e+08
   3.4011337e-10  -1.5774417e-02   4.8344450e+00   1.4166262e+00  -1.1111884e+08
   3.4124708e-10  -1.5648908e-02   4.8244916e+00   1.4275842e+00  -1.1029469e+08
   3.4238079e-10  -1.5524330e-02   4.8145642e+00   1.4385244e+00  -1.0947559e+08
   3.4351450e-10  -1.5400679e-02   4.8046634e+00   1.4494458e+00  -1.0866152e+08
   3.4464822e-10  -1.5277947e-02   4.7947898e+00   1.4603477e+00  -1.0785247e+08
   3.4578193e-10  -1.5156129e-02   4.7849441e+00   1.4712292e+00  -1.0704843e+08
   3.4691564e-10  -1.5035221e-02   4.7751268e+00   1.4820896e+00  -1.0624939e+08
   3.4804935e-10  -1.4915215e-02   4.7653386e+00   1.4929279e+00  -1.0545533e+08
   3.4918306e-10  -1.4796107e-02   4.7555799e+00   1.5037436e+00  -1.0466624e+08
   3.5031677e-10  -1.4677891e-02   4.7458514e+00   1.5145357e+00  -1.0388211e+08
   3.5145048e-10  -1.4560561e-02   4.7361535e+00   1.5253036e+00  -1.0310291e+08
   3.5258419e-10  -1.4444111e-02   4.7264869e+00   1.5360465e+00  -1.0232864e+08
   3.5371791e-10  -1.4328536e-02   4.7168520e+00   1.5467636e+00  -1.0155929e+08
   3.5485162e-10  -1.4213831e-02   4.7072493e+00   1.5574544e+00  -1.0079482e+08
   3.5598533e-10  -1.4099990e-02   4.6976794e+00   1.5681180e+00  -1.0003524e+08
   3.5711904e-10  -1.3987007e-02   4.6881427e+00   1.5787538e+00  -9.9280527e+07
   3.5825275e-10  -1.3874877e-02   4.6786397e+00   1.5893611e+00  -9.8530659e+07
   3.5938646e-10  -1.3763595e-02   4.6691709e+00   1.5999393e+00  -9.7785627e+07
   3.6052017e-10  -1.3653154e-02   4.6597367e+00   1.6104877e+00  -9.7045410e+07
   3.6165388e-10  -1.3543550e-02   4.6503375e+00   1.6210057e+00  -9.6309993e+07
   3.6278760e-10  -1.3434777e-02   4.6409737e+00   1.6314927e+00  -9.5579361e+07
   3.6392131e-10  -1.3326829e-02   4.6316459e+00   1.6419481e+00  -9.4853495e+07
   3.6505502e-10  -1.3219702e-02   4.6223543e+00   1.6523713e+00  -9.4132378e+07
   3.6618873e-10  -1.3113390e-02   4.6130993e+00   1.6627617e+00  -9.3415995e+07
   3.6732244e-10  -1.3007887e-02   4.6038814e+00   1.6731188e+00  -9.2704325e+07
   3.6845615e-10  -1.2903188e-02   4.5947009e+00   1.6834420e+00  -9.1997353e+07
   3.6958986e-10  -1.2799288e-02   4.5855581e+00   1.6937307e+00  -9.1295060e+07
   3.7072357e-10  -1.2696182e-02   4.5764535e+00   1.7039846e+00  -9.0597428e+07
   3.7185729e-10  -1.2593864e-02   4.5673872e+00   1.7142030e+00  -8.9904439e+07
   3.7299100e-10  -1.2492329e-02   4.5583597e+00   1.7243855e+00  -8.9216075e+07
   3.7412471e-10  -1.2391571e-02   4.5493713e+00   1.7345316e+00  -8.8532316e+07
   3.7525842e-10  -1.2291587e-02   4.5404222e+00   1.7446407e+00  -8.7853145e+07
   3.7639213e-10  -1.2192369e-02   4.5315127e+00   1.7547126e+00  -8.7178542e+07
   3.7752584e-10  -1.2093914e-02   4.5226432e+00   1.7647467e+00  -8.6508488e+07
   3.7865955e-10  -1.1996216e-02   4.5138138e+00   1.7747425e+00  -8.5842965e+07
   3.7979326e-10  -1.1899270e-02   4.5050249e+00   1.7846998e+00  -8.5181953e+07
   3.8092698e-10  -1.1803071e-02   4.4962766e+00   1.7946180e+00  -8.4525432e+07
   3.8206069e-10  -1.1707614e-02   4.4875693e+00   1.8044968e+00  -8.3873383e+07
   3.8319440e-10  -1.1612893e-02   4.4789031e+00   1.8143358e+00  -8.3225787e+07
   3.8432811e-10  -1.1518904e-02   4.4702783e+00   1.8241347e+00  -8.2582622e+07
   3.8546182e-10  -1.1425642e-02   4.4616950e+00   1.8338930e+00  -8.1943871e+07
   3.8659553e-10  -1.1333101e-02   4.4531535e+00   1.8436104e+00  -8.1309512e+07
   3.8772924e-10  -1.1241277e-02   4.4446539e+00   1.8532867e+00  -8.0679526e+07
   3.8886295e-10  -1.1150165e-02   4.4361965e+00   1.8629214e+00  -8.0053892e+07
   3.8999667e-10  -1.1059759e-02   4.4277813e+00   1.8725143e+00  -7.9432590e+07
   3.9113038e-10  -1.0970056e-02   4.4194086e+00   1.8820651e+00  -7.8815600e+07
   3.9226409e-10  -1.0881049e-02   4.4110785e+00   1.8915735e+00  -7.8202900e+07
   3.9339780e-10  -1.0792735e-02   4.4027911e+00   1.9010392e+00  -7.7594472e+07
   3.9453151e-10  -1.0705108e-02   4.3945466e+00   1.9104619e+00  -7.6990293e+07
   3.9566522e-10  -1.0618164e-02   4.3863451e+00   1.9198414e+00  -7.6390343e+07
   3.9679893e-10  -1.0531897e-02   4.3781867e+00   1.9291775e+00  -7.5794603e+07
   3.9793264e-10  -1.0446304e-02   4.3700715e+00   1.9384699e+00  -7.5203049e+07
   3.9906636e-10  -1.0361379e-02   4.3619997e+00   1.9477184e+00  -7.4615662e+07
   4.0020007e-10  -1.0277117e-02   4.3539712e+00   1.9569228e+00  -7.4032422e+07
   4.0133378e-10  -1.0193514e-02   4.3459862e+00   1.9660828e+00  -7.3453305e+07
   4.0246749e-10  -1.0110566e-02   4.3380448e+00   1.9751983e+00  -7.2878292e+07
   4.0360120e-10  -1.0028267e-02   4.3301470e+00   1.9842692e+00  -7.2307362e+07
   4.0473491e-10  -9.9466128e-03   4.3222929e+00   1.9932952e+00  -7.1740493e+07
   4.0586862e-10  -9.8655992e-03   4.3144826e+00   2.0022761e+00  -7.1177664e+07
   4.0700233e-10  -9.7852214e-03   4.3067160e+00   2.0112119e+00  -7.0618855e+07
   4.0813605e-10  -9.7054749e-03   4.2989933e+00   2.0201023e+00  -7.0064042e+07
   4.0926976e-10  -9.6263551e-03   4.2913144e+00   2.0289472e+00  -6.9513206e+07
   4.1040347e-10  -9.5478575e-03   4.2836794e+00   2.0377466e+00  -6.8966325e+07
   4.1153718e-10  -9.4699777e-03   4.2760883e+00   2.0465003e+00  -6.8423377e+07
   4.1267089e-10  -9.3927113e-03   4.2685411e+00   2.0552081e+00  -6.7884342e+07
   4.1380460e-10  -9.3160538e-03   4.2610378e+00   2.0638700e+00  -6.7349197e+07
   4.1493831e-10  -9.2400007e-03   4.2535784e+00   2.0724859e+00  -6.6817922e+07
   4.1607202e-10  -9.1645478e-03   4.2461630e+00   2.0810557e+00  -6.6290495e+07
   4.1720574e-10  -9.0896907e-03   4.2387914e+00   2.0895793e+00  -6.5766894e+07
   4.1833945e-10  -9.0154250e-03   4.2314637e+00   2.0980567e+00  -6.5247099e+07
   4.1947316e-10  -8.9417465e-03   4.2241798e+00   2.1064878e+00  -6.4731087e+07
   4.2060687e-10  -8.8686508e-03   4.2169398e+00   2.1148725e+00  -6.4218837e+07
   4.2174058e-10  -8.7961338e-03   4.2097435e+00   2.1232108e+00  -6.3710328e+07
   4.2287429e-10  -8.7241911e-03   4.2025910e+00   2.1315027e+00  -6.3205539e+07
   4.2400800e-10  -8.6528187e-03   4.1954821e+00   2.1397481e+00  -6.2704447e+07
   4.2514171e-10  -8.5820122e-03   4.1884169e+00   2.1479470e+00  -6.2207032e+07
   4.2627543e-10  -8.5117676e-03   4.1813952e+00   2.1560993e+00  -6.1713272e+07
   4.2740914e-10  -8.4420808e-03   4.1744171e+00   2.1642052e+00  -6.1223146e+07
   4.2854285e-10  -8.3729475e-03   4.1674824e+00   2.1722645e+00  -6.0736632e+07
   4.2967656e-10  -8.3043638e-03   4.1605911e+00   2.1802773e+00  -6.0253710e+07
   4.3081027e-10  -8.2363255e-03   4.1537431e+00   2.1882435e+00  -5.9774357e+07
   4.3194398e-10  -8.1688287e-03   4.1469383e+00   2.1961633e+00  -5.9298552e+07
   4.3307769e-10  -8.1018693e-03   4.1401766e+00   2.2040366e+00  -5.8826275e+07
   4.3421140e-10  -8.0354433e-03   4.1334579e+00   2.2118634e+00  -5.8357504e+07
   4.3534512e-10  -7.9695468e-03   4.1267822e+00   2.2196438e+00  -5.7892218e+07
   4.3647883e-10  -7.9041758e-03   4.1201494e+00   2.2273778e+00  -5.7430395e+07
   4.3761254e-10  -7.8393265e-03   4.1135593e+00   2.2350654e+00  -5.6972015e+07
   4.3874625e-10  -7.7749949e-03   4.1070118e+00   2.2427068e+00  -5.6517055e+07
   4.3987996e-10  -7.7111771e-03   4.1005069e+00   2.2503019e+00  -5.6065497e+07
   4.4101367e-10  -7.6478694e-03   4.0940444e+00   2.2578509e+00  -5.5617318e+07
   4.4214738e-10  -7.5850679e-03   4.0876241e+00   2.2653537e+00  -5.5172497e+07
   4.4328109e-10  -7.5227688e-03   4.0812461e+00   2.2728105e+00  -5.4731013e+07
   4.4441480e-10  -7.4609683e-03   4.0749101e+00   2.2802213e+00  -5.4292846e+07
   4.4554852e-10  -7.3996627e-03   4.0686160e+00   2.2875863e+00  -5.3857975e+07
   4.4668223e-10  -7.3388482e-03   4.0623637e+00   2.2949054e+00  -5.3426379e+07
   4.4781594e-10  -7.2785212e-03   4.0561531e+00   2.3021788e+00  -5.2998037e+07
   4.4894965e-10  -7.2186780e-03   4.0499840e+00   2.3094066e+00  -5.2572929e+07
   4.5008336e-10  -7.1593149e-03   4.0438564e+00   2.3165889e+00  -5.2151033e+07
   4.5121707e-10  -7.1004284e-03   4.0377699e+00   2.3237257e+00  -5.1732330e+07
   4.5235078e-10  -7.0420147e-03   4.0317246e+00   2.3308173e+00  -5.1316799e+07
   4.5348449e-10  -6.9840703e-03   4.0257202e+00   2.3378636e+00  -5.0904420e+07
   4.5461821e-10  -6.9265916e-03   4.0197566e+00   2.3448648e+00  -5.0495171e+07
   4.5575192e-10  -6.8695752e-03   4.0138337e+00   2.3518211e+00  -5.0089034e+07
   4.5688563e-10  -6.8130174e-03   4.0079513e+00   2.3587325e+00  -4.9685987e+07
   4.5801934e-10  -6.7569149e-03   4.0021092e+00   2.3655992e+00  -4.9286010e+07
   4.5915305e-10  -6.7012640e-03   3.9963073e+00   2.3724213e+00  -4.8889084e+07
   4.6028676e-10  -6.6460615e-03   3.9905454e+00   2.3791989e+00  -4.8495188e+07
   4.6142047e-10  -6.5913038e-03   3.9848234e+00   2.3859321e+00  -4.8104302e+07
   4.6255418e-10  -6.5369876e-03   3.9791411e+00   2.3926212e+00  -4.7716406e+07
   4.6368790e-10  -6.4831094e-03   3.9734983e+00   2.3992662e+00  -4.7331481e+07
   4.6482161e-10  -6.4296660e-03   3.9678949e+00   2.4058673e+00  -4.6949507e+07
   4.6595532e-10  -6.3766539e-03   3.9623307e+00   2.4124246e+00  -4.6570464e+07
   4.6708903e-10  -6.3240699e-03   3.9568055e+00   2.4189383e+00  -4.6194332e+07
   4.6822274e-10  -6.2719107e-03   3.9513191e+00   2.4254085e+00  -4.5821092e+07
   4.6935645e-10  -6.2201730e-03   3.9458714e+00   2.4318354e+00  -4.5450724e+07
   4.7049016e-10  -6.1688536e-03   3.9404622e+00   2.4382192e+00  -4.5083210e+07
   4.7162387e-10  -6.1179492e-03   3.9350913e+00   2.4445599e+00  -4.4718529e+07
   4.7275759e-10  -6.0674567e-03   3.9297586e+00   2.4508578e+00  -4.4356663e+07
   4.7389130e-10  -6.0173729e-03   3.9244638e+00   2.4571131e+00  -4.3997592e+07
   4.7502501e-10  -5.9676945e-03   3.9192068e+00   2.4633258e+00  -4.3641297e+07
   4.7615872e-10  -5.9184185e-03   3.9139874e+00   2.4694962e+00  -4.3287760e+07
   4.7729243e-10  -5.8695418e-03   3.9088054e+00   2.4756245e+00  -4.2936961e+07
   4.7842614e-10  -5.8210613e-03   3.9036606e+00   2.4817107e+00  -4.2588881e+07
   4.7955985e-10  -5.7729738e-03   3.8985528e+00   2.4877551e+00  -4.2243502e+07
   4.8069356e-10  -5.7252764e-03   3.8934819e+00   2.4937579e+00  -4.1900806e+07
   4.8182728e-10  -5.6779659e-03   3.8884477e+00   2.4997192e+00  -4.1560772e+07
   4.8296099e-10  -5.6310395e-03   3.8834499e+00   2.5056392e+00  -4.1223384e+07
   4.8409470e-10  -5.5844941e-03   3.8784885e+00   2.5115181e+00  -4.0888623e+07
   4.8522841e-10  -5.5383267e-03   3.8735631e+00   2.5173561e+00  -4.0556470e+07
   4.8636212e-10  -5.4925344e-03   3.8686736e+00   2.5231534e+00  -4.0226907e+07
   4.8749583e-10  -5.4471143e-03   3.8638198e+00   2.5289101e+00  -3.9899915e+07
   4.8862954e-10  -5.4020635e-03   3.8590016e+00   2.5346264e+00  -3.9575478e+07
   4.8976325e-10  -5.3573790e-03   3.8542187e+00   2.5403026e+00  -3.9253576e+07
   4.9089697e-10  -5.3130581e-03   3.8494709e+00   2.5459387e+00  -3.8934193e+07
   4.9203068e-10  -5.2690978e-03   3.8447581e+00   2.5515351e+00  -3.8617310e+07
   4.9316439e-10  -5.2254954e-03   3.8400800e+00   2.5570919e+00  -3.8302909e+07
   4.9429810e-10  -5.1822480e-03   3.8354364e+00   2.5626092e+00  -3.7990973e+07
   4.9543181e-10  -5.1393528e-03   3.8308272e+00   2.5680873e+00  -3.7681484e+07
   4.9656552e-10  -5.0968072e-03   3.8262522e+00   2.5735264e+00  -3.7374426e+07
   4.9769923e-10  -5.0546083e-03   3.8217112e+00   2.5789267e+00  -3.7069779e+07
   4.9883294e-10  -5.0127534e-03   3.8172039e+00   2.5842883e+00  -3.6767528e+07
   4.9996666e-10  -4.9712398e-03   3.8127302e+00   2.5896115e+00  -3.6467655e+07
   5.0110037e-10  -4.9300649e-03   3.8082899e+00   2.5948965e+00  -3.6170144e+07
   5.0223408e-10  -4.8892259e-03   3.8038827e+00   2.6001434e+00  -3.5874976e+07
   5.0336779e-10  -4.8487203e-03   3.7995086e+00   2.6053525e+00  -3.5582135e+07
   5.0450150e-10  -4.8085453e-03   3.7951672e+00   2.6105239e+00  -3.5291605e+07
   5.0563521e-10  -4.7686984e-03   3.7908585e+00   2.6156579e+00  -3.5003368e+07
   5.0676892e-10  -4.7291770e-03   3.7865822e+00   2.6207546e+00  -3.4717408e+07
   5.0790263e-10  -4.6899785e-03   3.7823380e+00   2.6258144e+00  -3.4433709e+07
   5.0903635e-10  -4.6511004e-03   3.7781259e+00   2.6308372e+00  -3.4152253e+07
   5.1017006e-10  -4.6125401e-03   3.7739456e+00   2.6358235e+00  -3.3873026e+07
   5.1130377e-10  -4.5742951e-03   3.7697969e+00   2.6407733e+00  -3.3596009e+07
   5.1243748e-10  -4.5363629e-03   3.7656796e+00   2.6456869e+00  -3.3321188e+07
   5.1357119e-10  -4.4987410e-03   3.7615936e+00   2.6505644e+00  -3.3048546e+07
   5.1470490e-10  -4.4614270e-03   3.7575386e+00   2.6554061e+00  -3.2778068e+07
   5.1583861e-10  -4.4244185e-03   3.7535144e+00   2.6602123e+00  -3.2509736e+07
   5.1697232e-10  -4.3877129e-03   3.7495209e+00   2.6649829e+00  -3.2243536e+07
   5.1810604e-10  -4.3513079e-03   3.7455579e+00   2.6697184e+00  -3.1979452e+07
   5.1923975e-10  -4.3152012e-03   3.7416251e+00   2.6744189e+00  -3.1717468e+07
   5.2037346e-10  -4.2793902e-03   3.7377224e+00   2.6790846e+00  -3.1457568e+07
   5.2150717e-10  -4.2438728e-03   3.7338495e+00   2.6837156e+00  -3.1199738e+07
   5.2264088e-10  -4.2086464e-03   3.7300064e+00   2.6883123e+00  -3.0943962e+07
   5.2377459e-10  -4.1737089e-03   3.7261927e+00   2.6928748e+00  -3.0690224e+07
   5.2490830e-10  -4.1390579e-03   3.7224083e+00   2.6974032e+00  -3.0438510e+07
   5.2604201e-10  -4.1046912e-03   3.7186531e+00   2.7018979e+00  -3.0188804e+07
   5.2717573e-10  -4.0706064e-03   3.7149267e+00   2.7063590e+00  -2.9941092e+07
   5.2830944e-10  -4.0368013e-03   3.7112291e+00   2.7107868e+00  -2.9695358e+07
   5.2944315e-10  -4.0032737e-03   3.7075600e+00   2.7151813e+00  -2.9451587e+07
   5.3057686e-10  -3.9700214e-03   3.7039193e+00   2.7195429e+00  -2.9209766e+07
   5.3171057e-10  -3.9370421e-03   3.7003067e+00   2.7238717e+00  -2.8969880e+07
   5.3284428e-10  -3.9043337e-03   3.6967221e+00   2.7281679e+00  -2.8731913e+07
   5.3397799e-10  -3.8718940e-03   3.6931653e+00   2.7324318e+00  -2.8495852e+07
   5.3511170e-10  -3.8397208e-03   3.6896361e+00   2.7366635e+00  -2.8261682e+07
   5.3624542e-10  -3.8078121e-03   3.6861343e+00   2.7408632e+00  -2.8029389e+07
   5.3737913e-10  -3.7761656e-03   3.6826597e+00   2.7450312e+00  -2.7798958e+07
   5.3851284e-10  -3.7447794e-03   3.6792122e+00   2.7491676e+00  -2.7570377e+07
   5.3964655e-10  -3.7136512e-03   3.6757915e+00   2.7532726e+00  -2.7343630e+07
   5.4078026e-10  -3.6827791e-03   3.6723975e+00   2.7573465e+00  -2.7118704e+07
   5.4191397e-10  -3.6521610e-03   3.6690300e+00   2.7613894e+00  -2.6895585e+07
   5.4304768e-10  -3.6217948e-03   3.6656888e+00   2.7654015e+00  -2.6674259e+07
   5.4418139e-10  -3.5916785e-03   3.6623737e+00   2.7693831e+00  -2.6454713e+07
   5.4531511e-10  -3.5618101e-03   3.6590846e+00   2.7733343e+00  -2.6236933e+07
   5.4644882e-10  -3.5321876e-03   3.6558213e+00   2.7772553e+00  -2.6020905e+07
   5.4758253e-10  -3.5028090e-03   3.6525835e+00   2.7811464e+00  -2.5806617e+07
   5.4871624e-10  -3.4736724e-03   3.6493712e+00   2.7850077e+00  -2.5594056e+07
   5.4984995e-10  -3.4447758e-03   3.6461841e+00   2.7888393e+00  -2.5383207e+07
   5.5098366e-10  -3.4161173e-03   3.6430220e+00   2.7926416e+00  -2.5174057e+07
   5.5211737e-10  -3.3876949e-03   3.6398848e+00   2.7964147e+00  -2.4966595e+07
   5.5325108e-10  -3.3595068e-03   3.6367724e+00   2.8001588e+00  -2.4760806e+07
   5.5438479e-10  -3.3315511e-03   3.6336844e+00   2.8038741e+00  -2.4556679e+07
   5.5551851e-10  -3.3038258e-03   3.6306208e+00   2.8075608e+00  -2.4354200e+07
   5.5665222e-10  -3.2763292e-03   3.6275815e+00   2.8112190e+00  -2.4153356e+07
   5.5778593e-10  -3.2490593e-03   3.6245661e+00   2.8148490e+00  -2.3954136e+07
   5.5891964e-10  -3.2220144e-03   3.6215745e+00   2.8184510e+00  -2.3756526e+07
   5.6005335e-10  -3.1951926e-03   3.6186066e+00   2.8220251e+00  -2.3560513e+07
   5.6118706e-10  -3.1685922e-03   3.6156623e+00   2.8255715e+00  -2.3366087e+07
   5.6232077e-10  -3.1422112e-03   3.6127412e+00   2.8290904e+00  -2.3173235e+07
   5.6345448e-10  -3.1160481e-03   3.6098433e+00   2.8325821e+00  -2.2981943e+07
   5.6458820e-10  -3.0901009e-03   3.6069684e+00   2.8360467e+00  -2.2792201e+07
   5.6572191e-10  -3.0643679e-03   3.6041164e+00   2.8394843e+00  -2.2603996e+07
   5.6685562e-10  -3.0388475e-03   3.6012870e+00   2.8428952e+00  -2.2417317e+07
   5.6798933e-10  -3.0135378e-03   3.5984801e+00   2.8462796e+00  -2.2232151e+07
   5.6912304e-10  -2.9884372e-03   3.5956955e+00   2.8496376e+00  -2.2048487e+07
   5.7025675e-10  -2.9635440e-03   3.5929331e+00   2.8529694e+00  -2.1866313e+07
   5.7139046e-10  -2.9388565e-03   3.5901927e+00   2.8562752e+00  -2.1685618e+07
   5.7252417e-10  -2.9143730e-03   3.5874742e+00   2.8595552e+00  -2.1506389e+07
   5.7365789e-10  -2.8900918e-03   3.5847774e+00   2.8628096e+00  -2.1328616e+07
   5.7479160e-10  -2.8660114e-03   3.5821021e+00   2.8660385e+00  -2.1152288e+07
   5.7592531e-10  -2.8421301e-03   3.5794481e+00   2.8692421e+00  -2.0977393e+07
   5.7705902e-10  -2.8184463e-03   3.5768154e+00   2.8724206e+00  -2.0803919e+07
   5.7819273e-10  -2.7949583e-03   3.5742037e+00   2.8755742e+00  -2.0631856e+07
   5.7932644e-10  -2.7716646e-03   3.5716129e+00   2.8787031e+00  -2.0461192e+07
   5.8046015e-10  -2.7485636e-03   3.5690429e+00   2.8818073e+00  -2.0291917e+07
   5.8159386e-10  -2.7256537e-03   3.5664935e+00   2.8848872e+00  -2.0124021e+07
   5.8272758e-10  -2.7029334e-03   3.5639645e+00   2.8879429e+00  -1.9957491e+07
   5.8386129e-10  -2.6804011e-03   3.5614557e+00   2.8909745e+00  -1.9792317e+07
   5.8499500e-10  -2.6580553e-03   3.5589672e+00   2.8939822e+00  -1.9628489e+07
   5.8612871e-10  -2.6358945e-03   3.5564986e+00   2.8969662e+00  -1.9465997e+07
   5.8726242e-10  -2.6139172e-03   3.5540498e+00   2.8999267e+00  -1.9304828e+07
   5.8839613e-10  -2.5921218e-03   3.5516207e+00   2.9028638e+00  -1.9144974e+07
   5.8952984e-10  -2.5705069e-03   3.5492112e+00   2.9057777e+00  -1.8986424e+07
   5.9066355e-10  -2.5490711e-03   3.5468210e+00   2.9086685e+00  -1.8829167e+07
   5.9179727e-10  -2.5278127e-03   3.5444501e+00   2.9115365e+00  -1.8673194e+07
   5.9293098e-10  -2.5067305e-03   3.5420983e+00   2.9143818e+00  -1.8518494e+07
   5.9406469e-10  -2.4858230e-03   3.5397654e+00   2.9172046e+00  -1.8365057e+07
   5.9519840e-10  -2.4650887e-03   3.5374513e+00   2.9200050e+00  -1.8212873e+07
   5.9633211e-10  -2.4445262e-03   3.5351560e+00   2.9227832e+00  -1.8061932e+07
   5.9746582e-10  -2.4241342e-03   3.5328791e+00   2.9255393e+00  -1.7912225e+07
   5.9859953e-10  -2.4039112e-03   3.5306206e+00   2.9282736e+00  -1.7763742e+07
   5.9973324e-10  -2.3838558e-03   3.5283804e+00   2.9309861e+00  -1.7616473e+07
   6.0086696e-10  -2.3639667e-03   3.5261583e+00   2.9336771e+00  -1.7470408e+07
   6.0200067e-10  -2.3442425e-03   3.5239541e+00   2.9363466e+00  -1.7325538e+07
   6.0313438e-10  -2.3246819e-03   3.5217678e+00   2.9389949e+00  -1.7181853e+07
   6.0426809e-10  -2.3052836e-03   3.5195991e+00   2.9416221e+00  -1.7039345e+07
   6.0540180e-10  -2.2860461e-03   3.5174481e+00   2.9442284e+00  -1.6898003e+07
   6.0653551e-10  -2.2669682e-03   3.5153144e+00   2.9468139e+00  -1.6757818e+07
   6.0766922e-10  -2.2480486e-03   3.5131980e+00   2.9493788e+00  -1.6618781e+07
   6.0880293e-10  -2.2292860e-03   3.5110988e+00   2.9519232e+00  -1.6480884e+07
   6.0993665e-10  -2.2106790e-03   3.5090167e+00   2.9544473e+00  -1.6344116e+07
   6.1107036e-10  -2.1922265e-03   3.5069514e+00   2.9569512e+00  -1.6208470e+07
   6.1220407e-10  -2.1739271e-03   3.5049028e+00   2.9594350e+00  -1.6073935e+07
   6.1333778e-10  -2.1557797e-03   3.5028709e+00   2.9618991e+00  -1.5940504e+07
   6.1447149e-10  -2.1377829e-03   3.5008555e+00   2.9643434e+00  -1.5808166e+07
   6.1560520e-10  -2.1199355e-03   3.4988565e+00   2.9667681e+00  -1.5676915e+07
   6.1673891e-10  -2.1022362e-03   3.4968738e+00   2.9691734e+00  -1.5546740e+07
   6.1787262e-10  -2.0846840e-03   3.4949071e+00   2.9715594e+00  -1.5417634e+07
   6.1900634e-10  -2.0672775e-03   3.4929565e+00   2.9739263e+00  -1.5289588e+07
   6.2014005e-10  -2.0500156e-03   3.4910217e+00   2.9762741e+00  -1.5162593e+07
   6.2127376e-10  -2.0328971e-03   3.4891027e+00   2.9786032e+00  -1.5036641e+07
   6.2240747e-10  -2.0159208e-03   3.4871993e+00   2.9809135e+00  -1.4911723e+07
   6.2354118e-10  -1.9990856e-03   3.4853115e+00   2.9832053e+00  -1.4787832e+07
   6.2467489e-10  -1.9823902e-03   3.4834390e+00   2.9854786e+00  -1.4664959e+07
   6.2580860e-10  -1.9658335e-03   3.4815817e+00   2.9877337e+00  -1.4543095e+07
   6.2694231e-10  -1.9494144e-03   3.4797397e+00   2.9899706e+00  -1.4422234e+07
   6.2807603e-10  -1.9331318e-03   3.4779126e+00   2.9921895e+00  -1.4302366e+07
   6.2920974e-10  -1.9169845e-03   3.4761005e+00   2.9943905e+00  -1.4183484e+07
   6.3034345e-10  -1.9009715e-03   3.4743031e+00   2.9965738e+00  -1.4065580e+07
   6.3147716e-10  -1.8850915e-03   3.4725204e+00   2.9987395e+00  -1.3948646e+07
   6.3261087e-10  -1.8693436e-03   3.4707523e+00   3.0008878e+00  -1.3832674e+07
   6.3374458e-10  -1.8537267e-03   3.4689986e+00   3.0030187e+00  -1.3717656e+07
   6.3487829e-10  -1.8382395e-03   3.4672593e+00   3.0051324e+00  -1.3603585e+07
   6.3601200e-10  -1.8228812e-03   3.4655342e+00   3.0072290e+00  -1.3490454e+07
   6.3714572e-10  -1.8076506e-03   3.4638232e+00   3.0093087e+00  -1.3378254e+07
   6.3827943e-10  -1.7925467e-03   3.4621262e+00   3.0113716e+00  -1.3266978e+07
   6.3941314e-10  -1.7775684e-03   3.4604431e+00   3.0134178e+00  -1.3156619e+07
   6.4054685e-10  -1.7627147e-03   3.4587737e+00   3.0154475e+00  -1.3047169e+07
   6.4168056e-10  -1.7479846e-03   3.4571181e+00   3.0174608e+00  -1.2938621e+07
   6.4281427e-10  -1.7333770e-03   3.4554759e+00   3.0194577e+00  -1.2830968e+07
   6.4394798e-10  -1.7188910e-03   3.4538473e+00   3.0214385e+00  -1.2724202e+07
   6.4508169e-10  -1.7045256e-03   3.4522320e+00   3.0234032e+00  -1.2618316e+07
   6.4621541e-10  -1.6902796e-03   3.4506299e+00   3.0253521e+00  -1.2513304e+07
   6.4734912e-10  -1.6761523e-03   3.4490409e+00   3.0272851e+00  -1.2409157e+07
   6.4848283e-10  -1.6621425e-03   3.4474650e+00   3.0292024e+00  -1.2305870e+07
   6.4961654e-10  -1.6482493e-03   3.4459021e+00   3.0311042e+00  -1.2203435e+07
   6.5075025e-10  -1.6344718e-03   3.4443519e+00   3.0329906e+00  -1.2101845e+07
   6.5188396e-10  -1.6208090e-03   3.4428145e+00   3.0348617e+00  -1.2001093e+07
   6.5301767e-10  -1.6072599e-03   3.4412897e+00   3.0367175e+00  -1.1901173e+07
   6.5415138e-10  -1.5938237e-03   3.4397774e+00   3.0385583e+00  -1.1802078e+07
   6.5528510e-10  -1.5804993e-03   3.4382775e+00   3.0403841e+00  -1.1703801e+07
   6.5641881e-10  -1.5672859e-03   3.4367900e+00   3.0421951e+00  -1.1606336e+07
   6.5755252e-10  -1.5541825e-03   3.4353146e+00   3.0439914e+00  -1.1509676e+07
   6.5868623e-10  -1.5411883e-03   3.4338514e+00   3.0457730e+00  -1.1413814e+07
   6.5981994e-10  -1.5283023e-03   3.4324003e+00   3.0475402e+00  -1.1318744e+07
   6.6095365e-10  -1.5155236e-03   3.4309610e+00   3.0492930e+00  -1.1224459e+07
   6.6208736e-10  -1.5028514e-03   3.4295336e+00   3.0510315e+00  -1.1130954e+07
   6.6322107e-10  -1.4902847e-03   3.4281180e+00   3.0527558e+00  -1.1038222e+07
   6.6435478e-10  -1.4778228e-03   3.4267140e+00   3.0544661e+00  -1.0946256e+07
   6.6548850e-10  -1.4654646e-03   3.4253215e+00   3.0561625e+00  -1.0855051e+07
   6.6662221e-10  -1.4532095e-03   3.4239406e+00   3.0578450e+00  -1.0764599e+07
   6.6775592e-10  -1.4410564e-03   3.4225709e+00   3.0595138e+00  -1.0674896e+07
   6.6888963e-10  -1.4290047e-03   3.4212126e+00   3.0611690e+00  -1.0585935e+07
   6.7002334e-10  -1.4170534e-03   3.4198655e+00   3.0628107e+00  -1.0497709e+07
   6.7115705e-10  -1.4052017e-03   3.4185294e+00   3.0644390e+00  -1.0410214e+07
   6.7229076e-10  -1.3934487e-03   3.4172044e+00   3.0660540e+00  -1.0323442e+07
   6.7342447e-10  -1.3817938e-03   3.4158903e+00   3.0676558e+00  -1.0237389e+07
   6.7455819e-10  -1.3702360e-03   3.4145870e+00   3.0692446e+00  -1.0152048e+07
   6.7569190e-10  -1.3587745e-03   3.4132945e+00   3.0708203e+00  -1.0067413e+07
   6.7682561e-10  -1.3474086e-03   3.4120126e+00   3.0723832e+00  -9.9834785e+06
   6.7795932e-10  -1.3361375e-03   3.4107413e+00   3.0739333e+00  -9.9002392e+06
   6.7909303e-10  -1.3249603e-03   3.4094805e+00   3.0754707e+00  -9.8176893e+06
   6.8022674e-10  -1.3138763e-03   3.4082301e+00   3.0769956e+00  -9.7358229e+06
   6.8136045e-10  -1.3028848e-03   3.4069900e+00   3.0785080e+00  -9.6546347e+06
   6.8249416e-10  -1.2919849e-03   3.4057601e+00   3.0800080e+00  -9.5741189e+06
   6.8362788e-10  -1.2811760e-03   3.4045404e+00   3.0814957e+00  -9.4942703e+06
   6.8476159e-10  -1.2704571e-03   3.4033308e+00   3.0829712e+00  -9.4150832e+06
   6.8589530e-10  -1.2598277e-03   3.4021312e+00   3.0844347e+00  -9.3365523e+06
   6.8702901e-10  -1.2492870e-03   3.4009414e+00   3.0858862e+00  -9.2586723e+06
   6.8816272e-10  -1.2388342e-03   3.3997616e+00   3.0873258e+00  -9.1814377e+06
   6.8929643e-10  -1.2284685e-03   3.3985914e+00   3.0887535e+00  -9.1048434e+06
   6.9043014e-10  -1.2181894e-03   3.3974309e+00   3.0901696e+00  -9.0288841e+06
   6.9156385e-10  -1.2079960e-03   3.3962801e+00   3.0915741e+00  -8.9535546e+06
   6.9269757e-10  -1.1978876e-03   3.3951387e+00   3.0929670e+00  -8.8788498e+06
   6.9383128e-10  -1.1878636e-03   3.3940068e+00   3.0943486e+00  -8.8047645e+06
   6.9496499e-10  -1.1779233e-03   3.3928842e+00   3.0957187e+00  -8.7312937e+06
   6.9609870e-10  -1.1680659e-03   3.3917709e+00   3.0970777e+00  -8.6584323e+06
   6.9723241e-10  -1.1582907e-03   3.3906668e+00   3.0984255e+00  -8.5861753e+06
   6.9836612e-10  -1.1485971e-03   3.3895719e+00   3.0997622e+00  -8.5145179e+06
   6.9949983e-10  -1.1389845e-03   3.3884860e+00   3.1010880e+00  -8.4434550e+06
   7.0063354e-10  -1.1294520e-03   3.3874091e+00   3.1024028e+00  -8.3729818e+06
   7.0176726e-10  -1.1199991e-03   3.3863412e+00   3.1037069e+00  -8.3030936e+06
   7.0290097e-10  -1.1106252e-03   3.3852820e+00   3.1050002e+00  -8.2337854e+06
   7.0403468e-10  -1.1013294e-03   3.3842317e+00   3.1062829e+00  -8.1650525e+06
   7.0516839e-10  -1.0921113e-03   3.3831900e+00   3.1075551e+00  -8.0968902e+06
   7.0630210e-10  -1.0829701e-03   3.3821570e+00   3.1088168e+00  -8.0292939e+06
   7.0743581e-10  -1.0739053e-03   3.3811325e+00   3.1100681e+00  -7.9622588e+06
   7.0856952e-10  -1.0649161e-03   3.3801165e+00   3.1113092e+00  -7.8957805e+06
   7.0970323e-10  -1.0560020e-03   3.3791089e+00   3.1125400e+00  -7.8298542e+06
   7.1083695e-10  -1.0471623e-03   3.3781097e+00   3.1137607e+00  -7.7644755e+06
   7.1197066e-10  -1.0383964e-03   3.3771187e+00   3.1149714e+00  -7.6996398e+06
   7.1310437e-10  -1.0297038e-03   3.3761360e+00   3.1161720e+00  -7.6353428e+06
   7.1423808e-10  -1.0210837e-03   3.3751614e+00   3.1173628e+00  -7.5715800e+06
   7.1537179e-10  -1.0125356e-03   3.3741949e+00   3.1185438e+00  -7.5083469e+06
   7.1650550e-10  -1.0040589e-03   3.3732364e+00   3.1197151e+00  -7.4456393e+06
   7.1763921e-10  -9.9565296e-04   3.3722859e+00   3.1208767e+00  -7.3834528e+06
   7.1877292e-10  -9.8731726e-04   3.3713432e+00   3.1220288e+00  -7.3217832e+06
   7.1990664e-10  -9.7905118e-04   3.3704084e+00   3.1231713e+00  -7.2606261e+06
   7.2104035e-10  -9.7085415e-04   3.3694813e+00   3.1243045e+00  -7.1999774e+06
   7.2217406e-10  -9.6272559e-04   3.3685619e+00   3.1254283e+00  -7.1398329e+06
   7.2330777e-10  -9.5466493e-04   3.3676502e+00   3.1265428e+00  -7.0801885e+06
   7.2444148e-10  -9.4667161e-04   3.3667460e+00   3.1276481e+00  -7.0210399e+06
   7.2557519e-10  -9.3874507e-04   3.3658493e+00   3.1287444e+00  -6.9623832e+06
   7.2670890e-10  -9.3088475e-04   3.3649601e+00   3.1298315e+00  -6.9042143e+06
   7.2784261e-10  -9.2309011e-04   3.3640782e+00   3.1309097e+00  -6.8465292e+06
   7.2897633e-10  -9.1536059e-04   3.3632037e+00   3.1319791e+00  -6.7893238e+06
   7.3011004e-10  -9.0769565e-04   3.3623364e+00   3.1330395e+00  -6.7325943e+06
   7.3124375e-10  -9.0009477e-04   3.3614763e+00   3.1340913e+00  -6.6763367e+06
   7.3237746e-10  -8.9255739e-04   3.3606234e+00   3.1351343e+00  -6.6205472e+06
   7.3351117e-10  -8.8508300e-04   3.3597775e+00   3.1361688e+00  -6.5652218e+06
   7.3464488e-10  -8.7767108e-04   3.3589387e+00   3.1371947e+00  -6.5103567e+06
   7.3577859e-10  -8.7032109e-04   3.3581069e+00   3.1382121e+00  -6.4559482e+06
   7.3691230e-10  -8.6303254e-04   3.3572819e+00   3.1392211e+00  -6.4019925e+06
   7.3804602e-10  -8.5580489e-04   3.3564638e+00   3.1402218e+00  -6.3484858e+06
   7.3917973e-10  -8.4863766e-04   3.3556525e+00   3.1412142e+00  -6.2954245e+06
   7.4031344e-10  -8.4153033e-04   3.3548480e+00   3.1421984e+00  -6.2428048e+06
   7.4144715e-10  -8.3448241e-04   3.3540501e+00   3.1431745e+00  -6.1906231e+06
   7.4258086e-10  -8.2749340e-04   3.3532589e+00   3.1441425e+00  -6.1388759e+06
   7.4371457e-10  -8.2056282e-04   3.3524743e+00   3.1451025e+00  -6.0875595e+06
   7.4484828e-10  -8.1369016e-04   3.3516962e+00   3.1460545e+00  -6.0366704e+06
   7.4598199e-10  -8.0687497e-04   3.3509245e+00   3.1469987e+00  -5.9862050e+06
   7.4711571e-10  -8.0011674e-04   3.3501593e+00   3.1479351e+00  -5.9361598e+06
   7.4824942e-10  -7.9341502e-04   3.3494004e+00   3.1488637e+00  -5.8865315e+06
   7.4938313e-10  -7.8676933e-04   3.3486479e+00   3.1497847e+00  -5.8373164e+06
   7.5051684e-10  -7.8017920e-04   3.3479016e+00   3.1506980e+00  -5.7885113e+06
   7.5165055e-10  -7.7364417e-04   3.3471615e+00   3.1516037e+00  -5.7401127e+06
   7.5278426e-10  -7.6716378e-04   3.3464275e+00   3.1525020e+00  -5.6921172e+06
   7.5391797e-10  -7.6073758e-04   3.3456997e+00   3.1533928e+00  -5.6445216e+06
   7.5505168e-10  -7.5436511e-04   3.3449780e+00   3.1542763e+00  -5.5973225e+06
   7.5618540e-10  -7.4804593e-04   3.3442622e+00   3.1551524e+00  -5.5505167e+06
   7.5731911e-10  -7.4177959e-04   3.3435524e+00   3.1560213e+00  -5.5041008e+06
   7.5845282e-10  -7.3556565e-04   3.3428485e+00   3.1568830e+00  -5.4580718e+06
   7.5958653e-10  -7.2940368e-04   3.3421505e+00   3.1577376e+00  -5.4124263e+06
   7.6072024e-10  -7.2329325e-04   3.3414582e+00   3.1585850e+00  -5.3671612e+06
   7.6185395e-10  -7.1723392e-04   3.3407718e+00   3.1594255e+00  -5.3222734e+06
   7.6298766e-10  -7.1122526e-04   3.3400910e+00   3.1602590e+00  -5.2777597e+06
   7.6412137e-10  -7.0526686e-04   3.3394159e+00   3.1610855e+00  -5.2336170e+06
   7.6525509e-10  -6.9935830e-04   3.3387465e+00   3.1619053e+00  -5.1898424e+06
   7.6638880e-10  -6.9349915e-04   3.3380826e+00   3.1627182e+00  -5.1464326e+06
   7.6752251e-10  -6.8768902e-04   3.3374243e+00   3.1635244e+00  -5.1033847e+06
   7.6865622e-10  -6.8192749e-04   3.3367714e+00   3.1643239e+00  -5.0606958e+06
   7.6978993e-10  -6.7621415e-04   3.3361240e+00   3.1651168e+00  -5.0183627e+06
   7.7092364e-10  -6.7054860e-04   3.3354819e+00   3.1659031e+00  -4.9763827e+06
   7.7205735e-10  -6.6493045e-04   3.3348452e+00   3.1666829e+00  -4.9347527e+06
   7.7319106e-10  -6.5935930e-04   3.3342139e+00   3.1674562e+00  -4.8934699e+06
   7.7432477e-10  -6.5383475e-04   3.3335877e+00   3.1682231e+00  -4.8525313e+06
   7.7545849e-10  -6.4835643e-04   3.3329668e+00   3.1689836e+00  -4.8119342e+06
   7.7659220e-10  -6.4292394e-04   3.3323511e+00   3.1697378e+00  -4.7716757e+06
   7.7772591e-10  -6.3753689e-04   3.3317405e+00   3.1704858e+00  -4.7317530e+06
   7.7885962e-10  -6.3219493e-04   3.3311350e+00   3.1712276e+00  -4.6921633e+06
   7.7999333e-10  -6.2689765e-04   3.3305345e+00   3.1719632e+00  -4.6529039e+06
   7.8112704e-10  -6.2164470e-04   3.3299391e+00   3.1726926e+00  -4.6139720e+06
   7.8226075e-10  -6.1643570e-04   3.3293486e+00   3.1734161e+00  -4.5753649e+06
   7.8339446e-10  -6.1127029e-04   3.3287630e+00   3.1741335e+00  -4.5370799e+06
   7.8452818e-10  -6.0614811e-04   3.3281823e+00   3.1748450e+00  -4.4991143e+06
   7.8566189e-10  -6.0106878e-04   3.3276065e+00   3.1755506e+00  -4.4614655e+06
   7.8679560e-10  -5.9603196e-04   3.3270354e+00   3.1762503e+00  -4.4241309e+06
   7.8792931e-10  -5.9103729e-04   3.3264691e+00   3.1769442e+00  -4.3871078e+06
   7.8906302e-10  -5.8608442e-04   3.3259076e+00   3.1776323e+00  -4.3503937e+06
   7.9019673e-10  -5.8117299e-04   3.3253507e+00   3.1783147e+00  -4.3139860e+06
   7.9133044e-10  -5.7630268e-04   3.3247984e+00   3.1789914e+00  -4.2778822e+06
   7.9246415e-10  -5.7147312e-04   3.3242508e+00   3.1796626e+00  -4.2420797e+06
   7.9359787e-10  -5.6668398e-04   3.3237078e+00   3.1803281e+00  -4.2065760e+06
   7.9473158e-10  -5.6193492e-04   3.3231692e+00   3.1809881e+00  -4.1713687e+06
   7.9586529e-10  -5.5722561e-04   3.3226352e+00   3.1816426e+00  -4.1364553e+06
   7.9699900e-10  -5.5255572e-04   3.3221056e+00   3.1822917e+00  -4.1018334e+06
   7.9813271e-10  -5.4792492e-04   3.3215804e+00   3.1829354e+00  -4.0675005e+06
   7.9926642e-10  -5.4333287e-04   3.3210597e+00   3.1835738e+00  -4.0334542e+06
   8.0040013e-10  -5.3877927e-04   3.3205432e+00   3.1842068e+00  -3.9996922e+06
   8.0153384e-10  -5.3426378e-04   3.3200311e+00   3.1848346e+00  -3.9662121e+06
   8.0266756e-10  -5.2978609e-04   3.3195232e+00   3.1854571e+00  -3.9330116e+06
   8.0380127e-10  -5.2534588e-04   3.3190196e+00   3.1860745e+00  -3.9000882e+06
   8.0493498e-10  -5.2094284e-04   3.3185202e+00   3.1866867e+00  -3.8674399e+06
   8.0606869e-10  -5.1657666e-04   3.3180250e+00   3.1872939e+00  -3.8350641e+06
   8.0720240e-10  -5.1224703e-04   3.3175339e+00   3.1878960e+00  -3.8029588e+06
   8.0833611e-10  -5.0795365e-04   3.3170468e+00   3.1884930e+00  -3.7711215e+06
   8.0946982e-10  -5.0369621e-04   3.3165639e+00   3.1890852e+00  -3.7395502e+06
   8.1060353e-10  -4.9947441e-04   3.3160850e+00   3.1896724e+00  -3.7082426e+06
   8.1173725e-10  -4.9528796e-04   3.3156101e+00   3.1902547e+00  -3.6771965e+06
   8.1287096e-10  -4.9113656e-04   3.3151391e+00   3.1908321e+00  -3.6464097e+06
   8.1400467e-10  -4.8701992e-04   3.3146721e+00   3.1914048e+00  -3.6158801e+06
   8.1513838e-10  -4.8293774e-04   3.3142090e+00   3.1919727e+00  -3.5856055e+06
   8.1627209e-10  -4.7888974e-04   3.3137497e+00   3.1925358e+00  -3.5555839e+06
   8.1740580e-10  -4.7487564e-04   3.3132943e+00   3.1930943e+00  -3.5258130e+06
   8.1853951e-10  -4.7089515e-04   3.3128427e+00   3.1936481e+00  -3.4962909e+06
   8.1967322e-10  -4.6694799e-04   3.3123948e+00   3.1941973e+00  -3.4670154e+06
   8.2080694e-10  -4.6303387e-04   3.3119507e+00   3.1947420e+00  -3.4379846e+06
   8.2194065e-10  -4.5915254e-04   3.3115104e+00   3.1952821e+00  -3.4091963e+06
   8.2307436e-10  -4.5530370e-04   3.3110736e+00   3.1958177e+00  -3.3806485e+06
   8.2420807e-10  -4.5148710e-04   3.3106406e+00   3.1963488e+00  -3.3523394e+06
   8.2534178e-10  -4.4770245e-04   3.3102111e+00   3.1968756e+00  -3.3242667e+06
   8.2647549e-10  -4.4394950e-04   3.3097853e+00   3.1973979e+00  -3.2964287e+06
   8.2760920e-10  -4.4022797e-04   3.3093629e+00   3.1979159e+00  -3.2688234e+06
   8.2874291e-10  -4.3653761e-04   3.3089442e+00   3.1984296e+00  -3.2414487e+06
   8.2987663e-10  -4.3287816e-04   3.3085289e+00   3.1989390e+00  -3.2143028e+06
   8.3101034e-10  -4.2924935e-04   3.3081171e+00   3.1994441e+00  -3.1873839e+06
   8.3214405e-10  -4.2565094e-04   3.3077087e+00   3.1999450e+00  -3.1606899e+06
   8.3327776e-10  -4.2208266e-04   3.3073038e+00   3.2004418e+00  -3.1342190e+06
   8.3441147e-10  -4.1854426e-04   3.3069022e+00   3.2009344e+00  -3.1079694e+06
   8.3554518e-10  -4.1503551e-04   3.3065040e+00   3.2014230e+00  -3.0819393e+06
   8.3667889e-10  -4.1155613e-04   3.3061091e+00   3.2019074e+00  -3.0561267e+06
   8.3781260e-10  -4.0810590e-04   3.3057175e+00   3.2023878e+00  -3.0305299e+06
   8.3894632e-10  -4.0468457e-04   3.3053292e+00   3.2028642e+00  -3.0051471e+06
   8.4008003e-10  -4.0129189e-04   3.3049441e+00   3.2033367e+00  -2.9799765e+06
   8.4121374e-10  -3.9792764e-04   3.3045622e+00   3.2038052e+00  -2.9550164e+06
   8.4234745e-10  -3.9459156e-04   3.3041836e+00   3.2042698e+00  -2.9302649e+06
   8.4348116e-10  -3.9128342e-04   3.3038081e+00   3.2047305e+00  -2.9057204e+06
   8.4461487e-10  -3.8800299e-04   3.3034357e+00   3.2051874e+00  -2.8813811e+06
   8.4574858e-10  -3.8475004e-04   3.3030665e+00   3.2056405e+00  -2.8572454e+06
   8.4688229e-10  -3.8152434e-04   3.3027003e+00   3.2060897e+00  -2.8333114e+06
   8.4801601e-10  -3.7832567e-04   3.3023372e+00   3.2065353e+00  -2.8095776e+06
   8.4914972e-10  -3.7515378e-04   3.3019772e+00   3.2069771e+00  -2.7860422e+06
   8.5028343e-10  -3.7200847e-04   3.3016201e+00   3.2074153e+00  -2.7627037e+06
   8.5141714e-10  -3.6888950e-04   3.3012660e+00   3.2078498e+00  -2.7395604e+06
   8.5255085e-10  -3.6579667e-04   3.3009149e+00   3.2082806e+00  -2.7166106e+06
   8.5368456e-10  -3.6272974e-04   3.3005668e+00   3.2087079e+00  -2.6938527e+06
   8.5481827e-10  -3.5968850e-04   3.3002215e+00   3.2091316e+00  -2.6712852e+06
   8.5595198e-10  -3.5667275e-04   3.2998791e+00   3.2095518e+00  -2.6489064e+06
   8.5708570e-10  -3.5368226e-04   3.2995396e+00   3.2099685e+00  -2.6267148e+06
   8.5821941e-10  -3.5071682e-04   3.2992029e+00   3.2103817e+00  -2.6047088e+06
   8.5935312e-10  -3.4777622e-04   3.2988691e+00   3.2107914e+00  -2.5828869e+06
   8.6048683e-10  -3.4486027e-04   3.2985380e+00   3.2111978e+00  -2.5612475e+06
   8.6162054e-10  -3.4196874e-04   3.2982097e+00   3.2116007e+00  -2.5397891e+06
   8.6275425e-10  -3.3910144e-04   3.2978842e+00   3.2120003e+00  -2.5185103e+06
   8.6388796e-10  -3.3625816e-04   3.2975613e+00   3.2123965e+00  -2.4974094e+06
   8.6502167e-10  -3.3343870e-04   3.2972412e+00   3.2127894e+00  -2.4764851e+06
   8.6615539e-10  -3.3064287e-04   3.2969238e+00   3.2131791e+00  -2.4557358e+06
   8.6728910e-10  -3.2787046e-04   3.2966090e+00   3.2135655e+00  -2.4351601e+06
   8.6842281e-10  -3.2512128e-04   3.2962968e+00   3.2139487e+00  -2.4147565e+06
   8.6955652e-10  -3.2239513e-04   3.2959872e+00   3.2143287e+00  -2.3945237e+06
   8.7069023e-10  -3.1969183e-04   3.2956803e+00   3.2147055e+00  -2.3744601e+06
   8.7182394e-10  -3.1701118e-04   3.2953759e+00   3.2150792e+00  -2.3545644e+06
   8.7295765e-10  -3.1435299e-04   3.2950740e+00   3.2154497e+00  -2.3348352e+06
   8.7409136e-10  -3.1171707e-04   3.2947747e+00   3.2158171e+00  -2.3152710e+06
   8.7522508e-10  -3.0910325e-04   3.2944779e+00   3.2161815e+00  -2.2958706e+06
   8.7635879e-10  -3.0651132e-04   3.2941836e+00   3.2165429e+00  -2.2766325e+06
   8.7749250e-10  -3.0394111e-04   3.2938917e+00   3.2169012e+00  -2.2575553e+06
   8.7862621e-10  -3.0139244e-04   3.2936023e+00   3.2172565e+00  -2.2386379e+06
   8.7975992e-10  -2.9886513e-04   3.2933153e+00   3.2176089e+00  -2.2198787e+06
   8.8089363e-10  -2.9635900e-04   3.2930306e+00   3.2179583e+00  -2.2012765e+06
   8.8202734e-10  -2.9387386e-04   3.2927484e+00   3.2183048e+00  -2.1828300e+06
   8.8316105e-10  -2.9140956e-04   3.2924686e+00   3.2186484e+00  -2.1645378e+06
   8.8429476e-10  -2.8896590e-04   3.2921910e+00   3.2189892e+00  -2.1463988e+06
   8.8542848e-10  -2.8654272e-04   3.2919158e+00   3.2193271e+00  -2.1284115e+06
   8.8656219e-10  -2.8413985e-04   3.2916429e+00   3.2196622e+00  -2.1105748e+06
   8.8769590e-10  -2.8175712e-04   3.2913723e+00   3.2199944e+00  -2.0928874e+06
   8.8882961e-10  -2.7939435e-04   3.2911040e+00   3.2203239e+00  -2.0753480e+06
   8.8996332e-10  -2.7705139e-04   3.2908379e+00   3.2206507e+00  -2.0579555e+06
   8.9109703e-10  -2.7472806e-04   3.2905740e+00   3.2209747e+00  -2.0407085e+06
   8.9223074e-10  -2.7242420e-04   3.2903123e+00   3.2212960e+00  -2.0236059e+06
   8.9336445e-10  -2.7013965e-04   3.2900528e+00   3.2216146e+00  -2.0066464e+06
   8.9449817e-10  -2.6787425e-04   3.2897955e+00   3.2219306e+00  -1.9898289e+06
   8.9563188e-10  -2.6562783e-04   3.2895404e+00   3.2222439e+00  -1.9731522e+06
   8.9676559e-10  -2.6340024e-04   3.2892874e+00   3.2225546e+00  -1.9566150e+06
   8.9789930e-10  -2.6119132e-04   3.2890365e+00   3.2228627e+00  -1.9402163e+06
   8.9903301e-10  -2.5900092e-04   3.2887877e+00   3.2231683e+00  -1.9239549e+06
   9.0016672e-10  -2.5682887e-04   3.2885409e+00   3.2234713e+00  -1.9078296e+06
   9.0130043e-10  -2.5467503e-04   3.2882963e+00   3.2237717e+00  -1.8918394e+06
   9.0243414e-10  -2.5253924e-04   3.2880537e+00   3.2240697e+00  -1.8759829e+06
   9.0356786e-10  -2.5042135e-04   3.2878131e+00   3.2243651e+00  -1.8602593e+06
   9.0470157e-10  -2.4832121e-04   3.2875745e+00   3.2246581e+00  -1.8446673e+06
   9.0583528e-10  -2.4623868e-04   3.2873380e+00   3.2249486e+00  -1.8292058e+06
   9.0696899e-10  -2.4417360e-04   3.2871034e+00   3.2252367e+00  -1.8138738e+06
   9.0810270e-10  -2.4212583e-04   3.2868708e+00   3.2255224e+00  -1.7986701e+06
   9.0923641e-10  -2.4009522e-04   3.2866401e+00   3.2258057e+00  -1.7835937e+06
   9.1037012e-10  -2.3808164e-04   3.2864114e+00   3.2260867e+00  -1.7686436e+06
   9.1150383e-10  -2.3608493e-04   3.2861845e+00   3.2263653e+00  -1.7538187e+06
   9.1263755e-10  -2.3410496e-04   3.2859596e+00   3.2266415e+00  -1.7391178e+06
   9.1377126e-10  -2.3214159e-04   3.2857366e+00   3.2269155e+00  -1.7245401e+06
   9.1490497e-10  -2.3019467e-04   3.2855154e+00   3.2271872e+00  -1.7100845e+06
   9.1603868e-10  -2.2826407e-04   3.2852961e+00   3.2274565e+00  -1.6957499e+06
   9.1717239e-10  -2.2634966e-04   3.2850786e+00   3.2277237e+00  -1.6815353e+06
   9.1830610e-10  -2.2445130e-04   3.2848629e+00   3.2279886e+00  -1.6674398e+06
   9.1943981e-10  -2.2256884e-04   3.2846491e+00   3.2282513e+00  -1.6534623e+06
   9.2057352e-10  -2.2070217e-04   3.2844370e+00   3.2285118e+00  -1.6396018e+06
   9.2170724e-10  -2.1885115e-04   3.2842267e+00   3.2287701e+00  -1.6258574e+06
   9.2284095e-10  -2.1701564e-04   3.2840182e+00   3.2290263e+00  -1.6122282e+06
   9.2397466e-10  -2.1519552e-04   3.2838114e+00   3.2292803e+00  -1.5987130e+06
   9.2510837e-10  -2.1339066e-04   3.2836063e+00   3.2295322e+00  -1.5853111e+06
   9.2624208e-10  -2.1160093e-04   3.2834030e+00   3.2297820e+00  -1.5720214e+06
   9.2737579e-10  -2.0982620e-04   3.2832013e+00   3.2300296e+00  -1.5588430e+06
   9.2850950e-10  -2.0806635e-04   3.2830014e+00   3.2302753e+00  -1.5457750e+06
   9.2964321e-10  -2.0632125e-04   3.2828031e+00   3.2305188e+00  -1.5328164e+06
   9.3077693e-10  -2.0459078e-04   3.2826065e+00   3.2307604e+00  -1.5199664e+06
   9.3191064e-10  -2.0287482e-04   3.2824116e+00   3.2309999e+00  -1.5072239e+06
   9.3304435e-10  -2.0117325e-04   3.2822182e+00   3.2312374e+00  -1.4945883e+06
   9.3417806e-10  -1.9948594e-04   3.2820265e+00   3.2314729e+00  -1.4820584e+06
   9.3531177e-10  -1.9781277e-04   3.2818364e+00   3.2317065e+00  -1.4696335e+06
   9.3644548e-10  -1.9615364e-04   3.2816479e+00   3.2319381e+00  -1.4573127e+06
   9.3757919e-10  -1.9450841e-04   3.2814610e+00   3.2321677e+00  -1.4450950e+06
   9.3871290e-10  -1.9287697e-04   3.2812756e+00   3.2323955e+00  -1.4329798e+06
   9.3984662e-10  -1.9125922e-04   3.2810918e+00   3.2326213e+00  -1.4209660e+06
   9.4098033e-10  -1.8965502e-04   3.2809095e+00   3.2328453e+00  -1.4090528e+06
   9.4211404e-10  -1.8806428e-04   3.2807287e+00   3.2330673e+00  -1.3972394e+06
   9.4324775e-10  -1.8648687e-04   3.2805495e+00   3.2332876e+00  -1.3855250e+06
   9.4438146e-10  -1.8492269e-04   3.2803718e+00   3.2335059e+00  -1.3739087e+06
   9.4551517e-10  -1.8337162e-04   3.2801955e+00   3.2337225e+00  -1.3623897e+06
   9.4664888e-10  -1.8183356e-04   3.2800207e+00   3.2339372e+00  -1.3509673e+06
   9.4778259e-10  -1.8030839e-04   3.2798474e+00   3.2341501e+00  -1.3396405e+06
   9.4891631e-10  -1.7879601e-04   3.2796756e+00   3.2343613e+00  -1.3284086e+06
   9.5005002e-10  -1.7729631e-04   3.2795052e+00   3.2345707e+00  -1.3172708e+06
   9.5118373e-10  -1.7580918e-04   3.2793362e+00   3.2347783e+00  -1.3062263e+06
   9.5231744e-10  -1.7433453e-04   3.2791686e+00   3.2349842e+00  -1.2952743e+06
   9.5345115e-10  -1.7287223e-04   3.2790024e+00   3.2351884e+00  -1.2844141e+06
   9.5458486e-10  -1.7142220e-04   3.2788377e+00   3.2353909e+00  -1.2736449e+06
   9.5571857e-10  -1.6998433e-04   3.2786743e+00   3.2355917e+00  -1.2629659e+06
   9.5685228e-10  -1.6855851e-04   3.2785122e+00   3.2357907e+00  -1.2523764e+06
   9.5798600e-10  -1.6714464e-04   3.2783516e+00   3.2359882e+00  -1.2418756e+06
   9.5911971e-10  -1.6574264e-04   3.2781922e+00   3.2361840e+00  -1.2314627e+06
   9.6025342e-10  -1.6435238e-04   3.2780343e+00   3.2363781e+00  -1.2211372e+06
   9.6138713e-10  -1.6297379e-04   3.2778776e+00   3.2365706e+00  -1.2108981e+06
   9.6252084e-10  -1.6160675e-04   3.2777222e+00   3.2367615e+00  -1.2007448e+06
   9.6365455e-10  -1.6025118e-04   3.2775682e+00   3.2369508e+00  -1.1906766e+06
   9.6478826e-10  -1.5890697e-04   3.2774154e+00   3.2371385e+00  -1.1806928e+06
   9.6592197e-10  -1.5757403e-04   3.2772640e+00   3.2373247e+00  -1.1707926e+06
   9.6705569e-10  -1.5625228e-04   3.2771137e+00   3.2375093e+00  -1.1609753e+06
   9.6818940e-10  -1.5494160e-04   3.2769648e+00   3.2376923e+00  -1.1512404e+06
   9.6932311e-10  -1.5364191e-04   3.2768171e+00   3.2378738e+00  -1.1415870e+06
   9.7045682e-10  -1.5235313e-04   3.2766706e+00   3.2380538e+00  -1.1320145e+06
   9.7159053e-10  -1.5107515e-04   3.2765254e+00   3.2382323e+00  -1.1225222e+06
   9.7272424e-10  -1.4980788e-04   3.2763814e+00   3.2384093e+00  -1.1131094e+06
   9.7385795e-10  -1.4855124e-04   3.2762385e+00   3.2385848e+00  -1.1037755e+06
   9.7499166e-10  -1.4730514e-04   3.2760969e+00   3.2387588e+00  -1.0945199e+06
   9.7612538e-10  -1.4606949e-04   3.2759565e+00   3.2389314e+00  -1.0853418e+06
   9.7725909e-10  -1.4484420e-04   3.2758172e+00   3.2391026e+00  -1.0762406e+06
   9.7839280e-10  -1.4362919e-04   3.2756792e+00   3.2392723e+00  -1.0672157e+06
   9.7952651e-10  -1.4242436e-04   3.2755422e+00   3.2394406e+00  -1.0582664e+06
   9.8066022e-10  -1.4122964e-04   3.2754064e+00   3.2396074e+00  -1.0493921e+06
   9.8179393e-10  -1.4004494e-04   3.2752718e+00   3.2397729e+00  -1.0405922e+06
   9.8292764e-10  -1.3887017e-04   3.2751383e+00   3.2399370e+00  -1.0318660e+06
   9.8406135e-10  -1.3770525e-04   3.2750059e+00   3.2400997e+00  -1.0232129e+06
   9.8519507e-10  -1.3655010e-04   3.2748746e+00   3.2402611e+00  -1.0146324e+06
   9.8632878e-10  -1.3540464e-04   3.2747444e+00   3.2404211e+00  -1.0061238e+06
   9.8746249e-10  -1.3426878e-04   3.2746153e+00   3.2405798e+00  -9.9768648e+05
   9.8859620e-10  -1.3314245e-04   3.2744873e+00   3.2407371e+00  -9.8931988e+05
   9.8972991e-10  -1.3202557e-04   3.2743603e+00   3.2408931e+00  -9.8102340e+05
   9.9086362e-10  -1.3091805e-04   3.2742345e+00   3.2410478e+00  -9.7279646e+05
   9.9199733e-10  -1.2981982e-04   3.2741096e+00   3.2412013e+00  -9.6463847e+05
   9.9313104e-10  -1.2873080e-04   3.2739859e+00   3.2413534e+00  -9.5654885e+05
   9.9426475e-10  -1.2765091e-04   3.2738631e+00   3.2415043e+00  -9.4852703e+05
   9.9539847e-10  -1.2658008e-04   3.2737414e+00   3.2416539e+00  -9.4057244e+05
   9.9653218e-10  -1.2551822e-04   3.2736207e+00   3.2418022e+00  -9.3268453e+05
   9.9766589e-10  -1.2446528e-04   3.2735010e+00   3.2419493e+00  -9.2486273e+05
   9.9879960e-10  -1.2342116e-04   3.2733824e+00   3.2420952e+00  -9.1710654e+05
   9.9993331e-10  -1.2238580e-04   3.2732647e+00   3.2422398e+00  -9.0941520e+05
   1.0010670e-09  -1.2135912e-04   3.2731480e+00   3.2423833e+00  -9.0178848e+05
   1.0022007e-09  -1.2034106e-04   3.2730323e+00   3.2425255e+00  -8.9422570e+05
   1.0033344e-09  -1.1933153e-04   3.2729175e+00   3.2426665e+00  -8.8672614e+05
   1.0044682e-09  -1.1833046e-04   3.2728037e+00   3.2428064e+00  -8.7928960e+05
   1.0056019e-09  -1.1733780e-04   3.2726909e+00   3.2429451e+00  -8.7191540e+05
   1.0067356e-09  -1.1635345e-04   3.2725790e+00   3.2430826e+00  -8.6460285e+05
   1.0078693e-09  -1.1537737e-04   3.2724681e+00   3.2432190e+00  -8.5735176e+05
   1.0090030e-09  -1.1440947e-04   3.2723581e+00   3.2433542e+00  -8.5016143e+05
   1.0101367e-09  -1.1344969e-04   3.2722490e+00   3.2434883e+00  -8.4303124e+05
   1.0112704e-09  -1.1249795e-04   3.2721408e+00   3.2436213e+00  -8.3596096e+05
   1.0124041e-09  -1.1155420e-04   3.2720335e+00   3.2437532e+00  -8.2894994e+05
   1.0135378e-09  -1.1061837e-04   3.2719271e+00   3.2438840e+00  -8.2199756e+05
   1.0146716e-09  -1.0969038e-04   3.2718216e+00   3.2440136e+00  -8.1510359e+05
   1.0158053e-09  -1.0877018e-04   3.2717170e+00   3.2441422e+00  -8.0826741e+05
   1.0169390e-09  -1.0785769e-04   3.2716133e+00   3.2442697e+00  -8.0148840e+05
   1.0180727e-09  -1.0695285e-04   3.2715105e+00   3.2443961e+00  -7.9476636e+05
   1.0192064e-09  -1.0605561e-04   3.2714085e+00   3.2445215e+00  -7.8810066e+05
   1.0203401e-09  -1.0516589e-04   3.2713073e+00   3.2446458e+00  -7.8149071e+05
   1.0214738e-09  -1.0428363e-04   3.2712070e+00   3.2447691e+00  -7.7493631e+05
   1.0226075e-09  -1.0340878e-04   3.2711076e+00   3.2448914e+00  -7.6843684e+05
   1.0237412e-09  -1.0254126e-04   3.2710090e+00   3.2450126e+00  -7.6199174e+05
   1.0248750e-09  -1.0168101e-04   3.2709112e+00   3.2451328e+00  -7.5560079e+05
   1.0260087e-09  -1.0082798e-04   3.2708142e+00   3.2452520e+00  -7.4926342e+05
   1.0271424e-09  -9.9982108e-05   3.2707181e+00   3.2453702e+00  -7.4297906e+05
   1.0282761e-09  -9.9143329e-05   3.2706227e+00   3.2454874e+00  -7.3674750e+05
   1.0294098e-09  -9.8311586e-05   3.2705282e+00   3.2456037e+00  -7.3056818e+05
   1.0305435e-09  -9.7486816e-05   3.2704344e+00   3.2457189e+00  -7.2444055e+05
   1.0316772e-09  -9.6668966e-05   3.2703415e+00   3.2458332e+00  -7.1836441e+05
   1.0328109e-09  -9.5857975e-05   3.2702493e+00   3.2459466e+00  -7.1233921e+05
   1.0339446e-09  -9.5053785e-05   3.2701578e+00   3.2460590e+00  -7.0636441e+05
   1.0350784e-09  -9.4256342e-05   3.2700672e+00   3.2461704e+00  -7.0043981e+05
   1.0362121e-09  -9.3465588e-05   3.2699773e+00   3.2462809e+00  -6.9456488e+05
   1.0373458e-09  -9.2681464e-05   3.2698882e+00   3.2463905e+00  -6.8873910e+05
   1.0384795e-09  -9.1903918e-05   3.2697998e+00   3.2464992e+00  -6.8296227e+05
   1.0396132e-09  -9.1132895e-05   3.2697121e+00   3.2466069e+00  -6.7723387e+05
   1.0407469e-09  -9.0368337e-05   3.2696252e+00   3.2467138e+00  -6.7155339e+05
   1.0418806e-09  -8.9610193e-05   3.2695390e+00   3.2468197e+00  -6.6592065e+05
   1.0430143e-09  -8.8858409e-05   3.2694536e+00   3.2469248e+00  -6.6033513e+05
   1.0441480e-09  -8.8112929e-05   3.2693688e+00   3.2470290e+00  -6.5479634e+05
   1.0452818e-09  -8.7373703e-05   3.2692848e+00   3.2471323e+00  -6.4930408e+05
   1.0464155e-09  -8.6640678e-05   3.2692014e+00   3.2472348e+00  -6.4385788e+05
   1.0475492e-09  -8.5913799e-05   3.2691188e+00   3.2473364e+00  -6.3845724e+05
   1.0486829e-09  -8.5193019e-05   3.2690369e+00   3.2474371e+00  -6.3310198e+05
   1.0498166e-09  -8.4478285e-05   3.2689556e+00   3.2475370e+00  -6.2779162e+05
   1.0509503e-09  -8.3769545e-05   3.2688750e+00   3.2476361e+00  -6.2252570e+05
   1.0520840e-09  -8.3066751e-05   3.2687951e+00   3.2477343e+00  -6.1730401e+05
   1.0532177e-09  -8.2369852e-05   3.2687159e+00   3.2478317e+00  -6.1212611e+05
   1.0543515e-09  -8.1678796e-05   3.2686374e+00   3.2479283e+00  -6.0699154e+05
   1.0554852e-09  -8.0993540e-05   3.2685595e+00   3.2480241e+00  -6.0190011e+05
   1.0566189e-09  -8.0314031e-05   3.2684822e+00   3.2481190e+00  -5.9685136e+05
   1.0577526e-09  -7.9640220e-05   3.2684056e+00   3.2482132e+00  -5.9184487e+05
   1.0588863e-09  -7.8972063e-05   3.2683296e+00   3.2483066e+00  -5.8688043e+05
   1.0600200e-09  -7.8309510e-05   3.2682543e+00   3.2483992e+00  -5.8195763e+05
   1.0611537e-09  -7.7652513e-05   3.2681796e+00   3.2484911e+00  -5.7707602e+05
   1.0622874e-09  -7.7001029e-05   3.2681056e+00   3.2485821e+00  -5.7223542e+05
   1.0634211e-09  -7.6355010e-05   3.2680321e+00   3.2486724e+00  -5.6743541e+05
   1.0645549e-09  -7.5714408e-05   3.2679593e+00   3.2487620e+00  -5.6267558e+05
   1.0656886e-09  -7.5079181e-05   3.2678871e+00   3.2488508e+00  -5.5795573e+05
   1.0668223e-09  -7.4449283e-05   3.2678155e+00   3.2489388e+00  -5.5327546e+05
   1.0679560e-09  -7.3824667e-05   3.2677444e+00   3.2490261e+00  -5.4863437e+05
   1.0690897e-09  -7.3205292e-05   3.2676740e+00   3.2491127e+00  -5.4403226e+05
   1.0702234e-09  -7.2591112e-05   3.2676042e+00   3.2491986e+00  -5.3946874e+05
   1.0713571e-09  -7.1982083e-05   3.2675350e+00   3.2492837e+00  -5.3494342e+05
   1.0724908e-09  -7.1378164e-05   3.2674663e+00   3.2493681e+00  -5.3045612e+05
   1.0736245e-09  -7.0779311e-05   3.2673982e+00   3.2494518e+00  -5.2600644e+05
   1.0747583e-09  -7.0185480e-05   3.2673307e+00   3.2495348e+00  -5.2159401e+05
   1.0758920e-09  -6.9596632e-05   3.2672638e+00   3.2496172e+00  -5.1721865e+05
   1.0770257e-09  -6.9012723e-05   3.2671974e+00   3.2496988e+00  -5.1287998e+05
   1.0781594e-09  -6.8433711e-05   3.2671315e+00   3.2497797e+00  -5.0857762e+05
   1.0792931e-09  -6.7859558e-05   3.2670663e+00   3.2498600e+00  -5.0431141e+05
   1.0804268e-09  -6.7290221e-05   3.2670015e+00   3.2499396e+00  -5.0008098e+05
   1.0815605e-09  -6.6725658e-05   3.2669374e+00   3.2500185e+00  -4.9588596e+05
   1.0826942e-09  -6.6165833e-05   3.2668737e+00   3.2500968e+00  -4.9172618e+05
   1.0838279e-09  -6.5610704e-05   3.2668106e+00   3.2501744e+00  -4.8760128e+05
   1.0849617e-09  -6.5060230e-05   3.2667480e+00   3.2502513e+00  -4.8351092e+05
   1.0860954e-09  -6.4514375e-05   3.2666859e+00   3.2503276e+00  -4.7945491e+05
   1.0872291e-09  -6.3973100e-05   3.2666244e+00   3.2504033e+00  -4.7543292e+05
   1.0883628e-09  -6.3436363e-05   3.2665634e+00   3.2504784e+00  -4.7144460e+05
   1.0894965e-09  -6.2904131e-05   3.2665029e+00   3.2505528e+00  -4.6748979e+05
   1.0906302e-09  -6.2376363e-05   3.2664429e+00   3.2506265e+00  -4.6356814e+05
   1.0917639e-09  -6.1853021e-05   3.2663834e+00   3.2506997e+00  -4.5967932e+05
   1.0928976e-09  -6.1334071e-05   3.2663244e+00   3.2507723e+00  -4.5582317e+05
   1.0940313e-09  -6.0819474e-05   3.2662659e+00   3.2508442e+00  -4.5199936e+05
   1.0951651e-09  -6.0309193e-05   3.2662078e+00   3.2509155e+00  -4.4820757e+05
   1.0962988e-09  -5.9803193e-05   3.2661503e+00   3.2509863e+00  -4.4444763e+05
   1.0974325e-09  -5.9301439e-05   3.2660933e+00   3.2510564e+00  -4.4071921e+05
   1.0985662e-09  -5.8803892e-05   3.2660367e+00   3.2511260e+00  -4.3702202e+05
   1.0996999e-09  -5.8310520e-05   3.2659806e+00   3.2511950e+00  -4.3335589e+05
   1.1008336e-09  -5.7821288e-05   3.2659250e+00   3.2512634e+00  -4.2972050e+05
   1.1019673e-09  -5.7336158e-05   3.2658698e+00   3.2513312e+00  -4.2611555e+05
   1.1031010e-09  -5.6855099e-05   3.2658151e+00   3.2513985e+00  -4.2254088e+05
   1.1042347e-09  -5.6378076e-05   3.2657609e+00   3.2514652e+00  -4.1899619e+05
   1.1053685e-09  -5.5905053e-05   3.2657071e+00   3.2515313e+00  -4.1548118e+05
   1.1065022e-09  -5.5436000e-05   3.2656538e+00   3.2515969e+00  -4.1199570e+05
   1.1076359e-09  -5.4970881e-05   3.2656009e+00   3.2516619e+00  -4.0853945e+05
   1.1087696e-09  -5.4509664e-05   3.2655484e+00   3.2517264e+00  -4.0511215e+05
   1.1099033e-09  -5.4052317e-05   3.2654964e+00   3.2517903e+00  -4.0171363e+05
   1.1110370e-09  -5.3598806e-05   3.2654449e+00   3.2518537e+00  -3.9834361e+05
   1.1121707e-09  -5.3149099e-05   3.2653938e+00   3.2519166e+00  -3.9500182e+05
   1.1133044e-09  -5.2703165e-05   3.2653430e+00   3.2519790e+00  -3.9168809e+05
   1.1144381e-09  -5.2260973e-05   3.2652928e+00   3.2520408e+00  -3.8840216e+05
   1.1155719e-09  -5.1822489e-05   3.2652429e+00   3.2521021e+00  -3.8514375e+05
   1.1167056e-09  -5.1387685e-05   3.2651935e+00   3.2521629e+00  -3.8191270e+05
   1.1178393e-09  -5.0956528e-05   3.2651445e+00   3.2522232e+00  -3.7870876e+05
   1.1189730e-09  -5.0528988e-05   3.2650958e+00   3.2522830e+00  -3.7553165e+05
   1.1201067e-09  -5.0105035e-05   3.2650476e+00   3.2523422e+00  -3.7238122e+05
   1.1212404e-09  -4.9684639e-05   3.2649998e+00   3.2524010e+00  -3.6925721e+05
   1.1223741e-09  -4.9267769e-05   3.2649524e+00   3.2524593e+00  -3.6615938e+05
   1.1235078e-09  -4.8854397e-05   3.2649054e+00   3.2525171e+00  -3.6308756e+05
   1.1246415e-09  -4.8444492e-05   3.2648588e+00   3.2525744e+00  -3.6004150e+05
   1.1257753e-09  -4.8038026e-05   3.2648126e+00   3.2526313e+00  -3.5702096e+05
   1.1269090e-09  -4.7634971e-05   3.2647668e+00   3.2526876e+00  -3.5402579e+05
   1.1280427e-09  -4.7235297e-05   3.2647213e+00   3.2527435e+00  -3.5105573e+05
   1.1291764e-09  -4.6838975e-05   3.2646763e+00   3.2527989e+00  -3.4811056e+05
   1.1303101e-09  -4.6445979e-05   3.2646316e+00   3.2528539e+00  -3.4519012e+05
   1.1314438e-09  -4.6056280e-05   3.2645873e+00   3.2529084e+00  -3.4229418e+05
   1.1325775e-09  -4.5669849e-05   3.2645434e+00   3.2529624e+00  -3.3942250e+05
   1.1337112e-09  -4.5286661e-05   3.2644998e+00   3.2530160e+00  -3.3657493e+05
   1.1348449e-09  -4.4906688e-05   3.2644566e+00   3.2530691e+00  -3.3375125e+05
   1.1359787e-09  -4.4529902e-05   3.2644137e+00   3.2531218e+00  -3.3095122e+05
   1.1371124e-09  -4.4156278e-05   3.2643713e+00   3.2531740e+00  -3.2817470e+05
   1.1382461e-09  -4.3785788e-05   3.2643291e+00   3.2532258e+00  -3.2542148e+05
   1.1393798e-09  -4.3418406e-05   3.2642874e+00   3.2532772e+00  -3.2269132e+05
   1.1405135e-09  -4.3054106e-05   3.2642459e+00   3.2533282e+00  -3.1998409e+05
   1.1416472e-09  -4.2692863e-05   3.2642049e+00   3.2533787e+00  -3.1729956e+05
   1.1427809e-09  -4.2334650e-05   3.2641641e+00   3.2534288e+00  -3.1463753e+05
   1.1439146e-09  -4.1979443e-05   3.2641237e+00   3.2534784e+00  -3.1199785e+05
   1.1450483e-09  -4.1627216e-05   3.2640837e+00   3.2535277e+00  -3.0938031e+05
   1.1461821e-09  -4.1277943e-05   3.2640440e+00   3.2535765e+00  -3.0678471e+05
   1.1473158e-09  -4.0931601e-05   3.2640046e+00   3.2536250e+00  -3.0421090e+05
   1.1484495e-09  -4.0588165e-05   3.2639655e+00   3.2536730e+00  -3.0165867e+05
   1.1495832e-09  -4.0247609e-05   3.2639268e+00   3.2537206e+00  -2.9912784e+05
   1.1507169e-09  -3.9909912e-05   3.2638884e+00   3.2537678e+00  -2.9661825e+05
   1.1518506e-09  -3.9575047e-05   3.2638503e+00   3.2538147e+00  -2.9412972e+05
   1.1529843e-09  -3.9242991e-05   3.2638126e+00   3.2538611e+00  -2.9166203e+05
   1.1541180e-09  -3.8913722e-05   3.2637751e+00   3.2539071e+00  -2.8921507e+05
   1.1552518e-09  -3.8587215e-05   3.2637380e+00   3.2539528e+00  -2.8678864e+05
   1.1563855e-09  -3.8263447e-05   3.2637012e+00   3.2539981e+00  -2.8438253e+05
   1.1575192e-09  -3.7942396e-05   3.2636647e+00   3.2540430e+00  -2.8199663e+05
   1.1586529e-09  -3.7624039e-05   3.2636285e+00   3.2540875e+00  -2.7963074e+05
   1.1597866e-09  -3.7308351e-05   3.2635926e+00   3.2541316e+00  -2.7728468e+05
   1.1609203e-09  -3.6995313e-05   3.2635570e+00   3.2541754e+00  -2.7495832e+05
   1.1620540e-09  -3.6684901e-05   3.2635217e+00   3.2542188e+00  -2.7265147e+05
   1.1631877e-09  -3.6377093e-05   3.2634867e+00   3.2542619e+00  -2.7036396e+05
   1.1643214e-09  -3.6071868e-05   3.2634520e+00   3.2543045e+00  -2.6809565e+05
   1.1654552e-09  -3.5769204e-05   3.2634176e+00   3.2543469e+00  -2.6584636e+05
   1.1665889e-09  -3.5469078e-05   3.2633835e+00   3.2543888e+00  -2.6361593e+05
   1.1677226e-09  -3.5171471e-05   3.2633496e+00   3.2544305e+00  -2.6140423e+05
   1.1688563e-09  -3.4876361e-05   3.2633161e+00   3.2544717e+00  -2.5921108e+05
   1.1699900e-09  -3.4583726e-05   3.2632828e+00   3.2545127e+00  -2.5703630e+05
   1.1711237e-09  -3.4293547e-05   3.2632498e+00   3.2545532e+00  -2.5487979e+05
   1.1722574e-09  -3.4005803e-05   3.2632171e+00   3.2545935e+00  -2.5274137e+05
   1.1733911e-09  -3.3720472e-05   3.2631846e+00   3.2546334e+00  -2.5062087e+05
   1.1745248e-09  -3.3437536e-05   3.2631525e+00   3.2546729e+00  -2.4851817e+05
   1.1756586e-09  -3.3156973e-05   3.2631206e+00   3.2547122e+00  -2.4643312e+05
   1.1767923e-09  -3.2878764e-05   3.2630889e+00   3.2547511e+00  -2.4436553e+05
   1.1779260e-09  -3.2602890e-05   3.2630575e+00   3.2547897e+00  -2.4231531e+05
   1.1790597e-09  -3.2329330e-05   3.2630264e+00   3.2548279e+00  -2.4028229e+05
   1.1801934e-09  -3.2058065e-05   3.2629956e+00   3.2548659e+00  -2.3826630e+05
   1.1813271e-09  -3.1789076e-05   3.2629650e+00   3.2549035e+00  -2.3626724e+05
   1.1824608e-09  -3.1522344e-05   3.2629347e+00   3.2549408e+00  -2.3428495e+05
   1.1835945e-09  -3.1257849e-05   3.2629046e+00   3.2549778e+00  -2.3231928e+05
   1.1847282e-09  -3.0995574e-05   3.2628748e+00   3.2550145e+00  -2.3037011e+05
   1.1858620e-09  -3.0735500e-05   3.2628452e+00   3.2550508e+00  -2.2843729e+05
   1.1869957e-09  -3.0477607e-05   3.2628159e+00   3.2550869e+00  -2.2652067e+05
   1.1881294e-09  -3.0221878e-05   3.2627868e+00   3.2551227e+00  -2.2462014e+05
   1.1892631e-09  -2.9968295e-05   3.2627580e+00   3.2551581e+00  -2.2273556e+05
   1.1903968e-09  -2.9716839e-05   3.2627294e+00   3.2551933e+00  -2.2086677e+05
   1.1915305e-09  -2.9467493e-05   3.2627010e+00   3.2552282e+00  -2.1901367e+05
   1.1926642e-09  -2.9220239e-05   3.2626729e+00   3.2552627e+00  -2.1717612e+05
   1.1937979e-09  -2.8975060e-05   3.2626450e+00   3.2552970e+00  -2.1535397e+05
   1.1949316e-09  -2.8731937e-05   3.2626174e+00   3.2553310e+00  -2.1354712e+05
   1.1960654e-09  -2.8490855e-05   3.2625900e+00   3.2553648e+00  -2.1175542e+05
   1.1971991e-09  -2.8251795e-05   3.2625628e+00   3.2553982e+00  -2.0997875e+05
   1.1983328e-09  -2.8014741e-05   3.2625358e+00   3.2554313e+00  -2.0821699e+05
   1.1994665e-09  -2.7779676e-05   3.2625091e+00   3.2554642e+00  -2.0647001e+05
   1.2006002e-09  -2.7546583e-05   3.2624826e+00   3.2554968e+00  -2.0473768e+05
   1.2017339e-09  -2.7315446e-05   3.2624563e+00   3.2555291e+00  -2.0301988e+05
   1.2028676e-09  -2.7086248e-05   3.2624302e+00   3.2555612e+00  -2.0131650e+05
   1.2040013e-09  -2.6858973e-05   3.2624044e+00   3.2555930e+00  -1.9962740e+05
   1.2051350e-09  -2.6633605e-05   3.2623788e+00   3.2556245e+00  -1.9795248e+05
   1.2062688e-09  -2.6410128e-05   3.2623534e+00   3.2556558e+00  -1.9629161e+05
   1.2074025e-09  -2.6188525e-05   3.2623282e+00   3.2556868e+00  -1.9464466e+05
   1.2085362e-09  -2.5968783e-05   3.2623032e+00   3.2557175e+00  -1.9301154e+05
   1.2096699e-09  -2.5750884e-05   3.2622784e+00   3.2557480e+00  -1.9139212e+05
   1.2108036e-09  -2.5534813e-05   3.2622538e+00   3.2557782e+00  -1.8978628e+05
   1.2119373e-09  -2.5320555e-05   3.2622295e+00   3.2558081e+00  -1.8819392e+05
   1.2130710e-09  -2.5108095e-05   3.2622053e+00   3.2558379e+00  -1.8661491e+05
   1.2142047e-09  -2.4897417e-05   3.2621813e+00   3.2558673e+00  -1.8504915e+05
   1.2153384e-09  -2.4688507e-05   3.2621576e+00   3.2558965e+00  -1.8349653e+05
   1.2164722e-09  -2.4481350e-05   3.2621340e+00   3.2559255e+00  -1.8195693e+05
   1.2176059e-09  -2.4275930e-05   3.2621107e+00   3.2559542e+00  -1.8043024e+05
   1.2187396e-09  -2.4072235e-05   3.2620875e+00   3.2559827e+00  -1.7891637e+05
   1.2198733e-09  -2.3870248e-05   3.2620645e+00   3.2560110e+00  -1.7741520e+05
   1.2210070e-09  -2.3669956e-05   3.2620418e+00   3.2560390e+00  -1.7592661e+05
   1.2221407e-09  -2.3471345e-05   3.2620192e+00   3.2560668e+00  -1.7445052e+05
   1.2232744e-09  -2.3274401e-05   3.2619968e+00   3.2560943e+00  -1.7298682e+05
   1.2244081e-09  -2.3079108e-05   3.2619746e+00   3.2561216e+00  -1.7153538e+05
   1.2255418e-09  -2.2885454e-05   3.2619526e+00   3.2561487e+00  -1.7009613e+05
   1.2266756e-09  -2.2693425e-05   3.2619307e+00   3.2561756e+00  -1.6866896e+05
   1.2278093e-09  -2.2503007e-05   3.2619091e+00   3.2562022e+00  -1.6725375e+05
   1.2289430e-09  -2.2314187e-05   3.2618876e+00   3.2562286e+00  -1.6585042e+05
   1.2300767e-09  -2.2126952e-05   3.2618663e+00   3.2562548e+00  -1.6445886e+05
   1.2312104e-09  -2.1941287e-05   3.2618452e+00   3.2562808e+00  -1.6307897e+05
   1.2323441e-09  -2.1757180e-05   3.2618243e+00   3.2563065e+00  -1.6171067e+05
   1.2334778e-09  -2.1574618e-05   3.2618035e+00   3.2563321e+00  -1.6035384e+05
   1.2346115e-09  -2.1393587e-05   3.2617829e+00   3.2563574e+00  -1.5900839e+05
   1.2357452e-09  -2.1214075e-05   3.2617625e+00   3.2563825e+00  -1.5767424e+05
   1.2368790e-09  -2.1036070e-05   3.2617422e+00   3.2564074e+00  -1.5635128e+05
   1.2380127e-09  -2.0859558e-05   3.2617222e+00   3.2564321e+00  -1.5503941e+05
   1.2391464e-09  -2.0684527e-05   3.2617023e+00   3.2564566e+00  -1.5373855e+05
   1.2402801e-09  -2.0510965e-05   3.2616825e+00   3.2564808e+00  -1.5244861e+05
   1.2414138e-09  -2.0338859e-05   3.2616630e+00   3.2565049e+00  -1.5116948e+05
   1.2425475e-09  -2.0168197e-05   3.2616436e+00   3.2565288e+00  -1.4990109e+05
   1.2436812e-09  -1.9998967e-05   3.2616243e+00   3.2565524e+00  -1.4864334e+05
   1.2448149e-09  -1.9831157e-05   3.2616052e+00   3.2565759e+00  -1.4739614e+05
   1.2459486e-09  -1.9664755e-05   3.2615863e+00   3.2565992e+00  -1.4615941e+05
   1.2470824e-09  -1.9499749e-05   3.2615675e+00   3.2566223e+00  -1.4493305e+05
   1.2482161e-09  -1.9336128e-05   3.2615489e+00   3.2566452e+00  -1.4371698e+05
   1.2493498e-09  -1.9173879e-05   3.2615305e+00   3.2566679e+00  -1.4251112e+05
   1.2504835e-09  -1.9012992e-05   3.2615122e+00   3.2566904e+00  -1.4131537e+05
   1.2516172e-09  -1.8853455e-05   3.2614941e+00   3.2567127e+00  -1.4012965e+05
   1.2527509e-09  -1.8695256e-05   3.2614761e+00   3.2567348e+00  -1.3895388e+05
   1.2538846e-09  -1.8538385e-05   3.2614582e+00   3.2567567e+00  -1.3778798e+05
   1.2550183e-09  -1.8382830e-05   3.2614405e+00   3.2567785e+00  -1.3663185e+05
   1.2561521e-09  -1.8228580e-05   3.2614230e+00   3.2568001e+00  -1.3548543e+05
   1.2572858e-09  -1.8075625e-05   3.2614056e+00   3.2568215e+00  -1.3434862e+05
   1.2584195e-09  -1.7923953e-05   3.2613883e+00   3.2568427e+00  -1.3322135e+05
   1.2595532e-09  -1.7773553e-05   3.2613712e+00   3.2568637e+00  -1.3210354e+05
   1.2606869e-09  -1.7624416e-05   3.2613543e+00   3.2568846e+00  -1.3099511e+05
   1.2618206e-09  -1.7476529e-05   3.2613375e+00   3.2569053e+00  -1.2989598e+05
   1.2629543e-09  -1.7329884e-05   3.2613208e+00   3.2569258e+00  -1.2880607e+05
   1.2640880e-09  -1.7184469e-05   3.2613043e+00   3.2569461e+00  -1.2772530e+05
   1.2652217e-09  -1.7040274e-05   3.2612879e+00   3.2569663e+00  -1.2665360e+05
   1.2663555e-09  -1.6897289e-05   3.2612716e+00   3.2569863e+00  -1.2559089e+05
   1.2674892e-09  -1.6755504e-05   3.2612555e+00   3.2570061e+00  -1.2453710e+05
   1.2686229e-09  -1.6614909e-05   3.2612395e+00   3.2570258e+00  -1.2349215e+05
   1.2697566e-09  -1.6475493e-05   3.2612236e+00   3.2570453e+00  -1.2245597e+05
   1.2708903e-09  -1.6337247e-05   3.2612079e+00   3.2570646e+00  -1.2142848e+05
   1.2720240e-09  -1.6200161e-05   3.2611923e+00   3.2570838e+00  -1.2040961e+05
   1.2731577e-09  -1.6064225e-05   3.2611769e+00   3.2571028e+00  -1.1939929e+05
   1.2742914e-09  -1.5929430e-05   3.2611615e+00   3.2571217e+00  -1.1839745e+05
   1.2754251e-09  -1.5795765e-05   3.2611463e+00   3.2571404e+00  -1.1740401e+05
   1.2765589e-09  -1.5663223e-05   3.2611313e+00   3.2571589e+00  -1.1641890e+05
   1.2776926e-09  -1.5531792e-05   3.2611163e+00   3.2571773e+00  -1.1544207e+05
   1.2788263e-09  -1.5401464e-05   3.2611015e+00   3.2571955e+00  -1.1447342e+05
   1.2799600e-09  -1.5272230e-05   3.2610868e+00   3.2572136e+00  -1.1351291e+05
   1.2810937e-09  -1.5144080e-05   3.2610722e+00   3.2572315e+00  -1.1256045e+05
   1.2822274e-09  -1.5017006e-05   3.2610578e+00   3.2572493e+00  -1.1161599e+05
   1.2833611e-09  -1.4890997e-05   3.2610434e+00   3.2572669e+00  -1.1067945e+05
   1.2844948e-09  -1.4766046e-05   3.2610292e+00   3.2572844e+00  -1.0975076e+05
   1.2856285e-09  -1.4642144e-05   3.2610151e+00   3.2573017e+00  -1.0882987e+05
   1.2867623e-09  -1.4519281e-05   3.2610012e+00   3.2573189e+00  -1.0791670e+05
   1.2878960e-09  -1.4397449e-05   3.2609873e+00   3.2573360e+00  -1.0701120e+05
   1.2890297e-09  -1.4276639e-05   3.2609736e+00   3.2573529e+00  -1.0611329e+05
   1.2901634e-09  -1.4156843e-05   3.2609600e+00   3.2573696e+00  -1.0522292e+05
   1.2912971e-09  -1.4038052e-05   3.2609465e+00   3.2573862e+00  -1.0434002e+05
   1.2924308e-09  -1.3920258e-05   3.2609331e+00   3.2574027e+00  -1.0346452e+05
   1.2935645e-09  -1.3803452e-05   3.2609198e+00   3.2574190e+00  -1.0259637e+05
   1.2946982e-09  -1.3687626e-05   3.2609066e+00   3.2574352e+00  -1.0173551e+05
   1.2958319e-09  -1.3572772e-05   3.2608935e+00   3.2574513e+00  -1.0088187e+05
   1.2969657e-09  -1.3458882e-05   3.2608806e+00   3.2574672e+00  -1.0003539e+05
   1.2980994e-09  -1.3345948e-05   3.2608677e+00   3.2574830e+00  -9.9196010e+04
   1.2992331e-09  -1.3233961e-05   3.2608550e+00   3.2574987e+00  -9.8363673e+04
   1.3003668e-09  -1.3122914e-05   3.2608424e+00   3.2575142e+00  -9.7538322e+04
   1.3015005e-09  -1.3012798e-05   3.2608299e+00   3.2575296e+00  -9.6719896e+04
   1.3026342e-09  -1.2903607e-05   3.2608174e+00   3.2575449e+00  -9.5908335e+04
   1.3037679e-09  -1.2795332e-05   3.2608051e+00   3.2575601e+00  -9.5103585e+04
   1.3049016e-09  -1.2687965e-05   3.2607929e+00   3.2575751e+00  -9.4305587e+04
   1.3060353e-09  -1.2581499e-05   3.2607808e+00   3.2575900e+00  -9.3514282e+04
   1.3071691e-09  -1.2475926e-05   3.2607688e+00   3.2576047e+00  -9.2729619e+04
   1.3083028e-09  -1.2371240e-05   3.2607569e+00   3.2576194e+00  -9.1951539e+04
   1.3094365e-09  -1.2267431e-05   3.2607451e+00   3.2576339e+00  -9.1179986e+04
   1.3105702e-09  -1.2164494e-05   3.2607334e+00   3.2576483e+00  -9.0414908e+04
   1.3117039e-09  -1.2062421e-05   3.2607218e+00   3.2576626e+00  -8.9656250e+04
   1.3128376e-09  -1.1961204e-05   3.2607103e+00   3.2576767e+00  -8.8903955e+04
   1.3139713e-09  -1.1860836e-05   3.2606989e+00   3.2576908e+00  -8.8157974e+04
   1.3151050e-09  -1.1761310e-05   3.2606875e+00   3.2577047e+00  -8.7418252e+04
   1.3162387e-09  -1.1662620e-05   3.2606763e+00   3.2577185e+00  -8.6684735e+04
   1.3173725e-09  -1.1564757e-05   3.2606652e+00   3.2577322e+00  -8.5957374e+04
   1.3185062e-09  -1.1467716e-05   3.2606542e+00   3.2577458e+00  -8.5236116e+04
   1.3196399e-09  -1.1371489e-05   3.2606432e+00   3.2577592e+00  -8.4520908e+04
   1.3207736e-09  -1.1276070e-05   3.2606324e+00   3.2577726e+00  -8.3811702e+04
   1.3219073e-09  -1.1181451e-05   3.2606216e+00   3.2577858e+00  -8.3108447e+04
   1.3230410e-09  -1.1087626e-05   3.2606109e+00   3.2577989e+00  -8.2411091e+04
   1.3241747e-09  -1.0994588e-05   3.2606003e+00   3.2578119e+00  -8.1719588e+04
   1.3253084e-09  -1.0902331e-05   3.2605899e+00   3.2578249e+00  -8.1033886e+04
   1.3264421e-09  -1.0810848e-05   3.2605795e+00   3.2578377e+00  -8.0353937e+04
   1.3275759e-09  -1.0720133e-05   3.2605691e+00   3.2578503e+00  -7.9679694e+04
   1.3287096e-09  -1.0630179e-05   3.2605589e+00   3.2578629e+00  -7.9011109e+04
   1.3298433e-09  -1.0540980e-05   3.2605488e+00   3.2578754e+00  -7.8348131e+04
   1.3309770e-09  -1.0452529e-05   3.2605387e+00   3.2578878e+00  -7.7690718e+04
   1.3321107e-09  -1.0364820e-05   3.2605287e+00   3.2579000e+00  -7.7038821e+04
   1.3332444e-09  -1.0277848e-05   3.2605188e+00   3.2579122e+00  -7.6392392e+04
   1.3343781e-09  -1.0191605e-05   3.2605090e+00   3.2579243e+00  -7.5751389e+04
   1.3355118e-09  -1.0106086e-05   3.2604993e+00   3.2579362e+00  -7.5115763e+04
   1.3366455e-09  -1.0021284e-05   3.2604897e+00   3.2579481e+00  -7.4485470e+04
   1.3377793e-09  -9.9371938e-06   3.2604801e+00   3.2579599e+00  -7.3860467e+04
   1.3389130e-09  -9.8538094e-06   3.2604706e+00   3.2579715e+00  -7.3240707e+04
   1.3400467e-09  -9.7711245e-06   3.2604612e+00   3.2579831e+00  -7.2626147e+04
   1.3411804e-09  -9.6891335e-06   3.2604519e+00   3.2579946e+00  -7.2016744e+04
   1.3423141e-09  -9.6078305e-06   3.2604426e+00   3.2580059e+00  -7.1412454e+04
   1.3434478e-09  -9.5272097e-06   3.2604335e+00   3.2580172e+00  -7.0813234e+04
   1.3445815e-09  -9.4472654e-06   3.2604244e+00   3.2580284e+00  -7.0219042e+04
   1.3457152e-09  -9.3679919e-06   3.2604154e+00   3.2580395e+00  -6.9629837e+04
   1.3468489e-09  -9.2893835e-06   3.2604064e+00   3.2580505e+00  -6.9045573e+04
   1.3479827e-09  -9.2114348e-06   3.2603976e+00   3.2580614e+00  -6.8466214e+04
   1.3491164e-09  -9.1341401e-06   3.2603888e+00   3.2580722e+00  -6.7891715e+04
   1.3502501e-09  -9.0574940e-06   3.2603801e+00   3.2580829e+00  -6.7322036e+04
   1.3513838e-09  -8.9814910e-06   3.2603714e+00   3.2580936e+00  -6.6757138e+04
   1.3525175e-09  -8.9061258e-06   3.2603628e+00   3.2581041e+00  -6.6196979e+04
   1.3536512e-09  -8.8313930e-06   3.2603543e+00   3.2581145e+00  -6.5641520e+04
   1.3547849e-09  -8.7572872e-06   3.2603459e+00   3.2581249e+00  -6.5090722e+04
   1.3559186e-09  -8.6838033e-06   3.2603376e+00   3.2581352e+00  -6.4544546e+04
   1.3570524e-09  -8.6109360e-06   3.2603293e+00   3.2581454e+00  -6.4002952e+04
   1.3581861e-09  -8.5386801e-06   3.2603211e+00   3.2581555e+00  -6.3465903e+04
   1.3593198e-09  -8.4670305e-06   3.2603129e+00   3.2581655e+00  -6.2933360e+04
   1.3604535e-09  -8.3959821e-06   3.2603048e+00   3.2581755e+00  -6.2405285e+04
   1.3615872e-09  -8.3255299e-06   3.2602968e+00   3.2581853e+00  -6.1881641e+04
   1.3627209e-09  -8.2556688e-06   3.2602889e+00   3.2581951e+00  -6.1362391e+04
   1.3638546e-09  -8.1863940e-06   3.2602810e+00   3.2582048e+00  -6.0847498e+04
   1.3649883e-09  -8.1177004e-06   3.2602732e+00   3.2582144e+00  -6.0336925e+04
   1.3661220e-09  -8.0495833e-06   3.2602654e+00   3.2582239e+00  -5.9830636e+04
   1.3672558e-09  -7.9820377e-06   3.2602578e+00   3.2582334e+00  -5.9328595e+04
   1.3683895e-09  -7.9150589e-06   3.2602501e+00   3.2582427e+00  -5.8830767e+04
   1.3695232e-09  -7.8486421e-06   3.2602426e+00   3.2582520e+00  -5.8337116e+04
   1.3706569e-09  -7.7827826e-06   3.2602351e+00   3.2582612e+00  -5.7847606e+04
   1.3717906e-09  -7.7174758e-06   3.2602277e+00   3.2582704e+00  -5.7362205e+04
   1.3729243e-09  -7.6527169e-06   3.2602203e+00   3.2582794e+00  -5.6880876e+04
   1.3740580e-09  -7.5885014e-06   3.2602130e+00   3.2582884e+00  -5.6403586e+04
   1.3751917e-09  -7.5248248e-06   3.2602058e+00   3.2582973e+00  -5.5930301e+04
   1.3763254e-09  -7.4616825e-06   3.2601986e+00   3.2583062e+00  -5.5460987e+04
   1.3774592e-09  -7.3990700e-06   3.2601915e+00   3.2583149e+00  -5.4995610e+04
   1.3785929e-09  -7.3369829e-06   3.2601844e+00   3.2583236e+00  -5.4534139e+04
   1.3797266e-09  -7.2754168e-06   3.2601774e+00   3.2583322e+00  -5.4076540e+04
   1.3808603e-09  -7.2143672e-06   3.2601705e+00   3.2583407e+00  -5.3622780e+04
   1.3819940e-09  -7.1538300e-06   3.2601636e+00   3.2583492e+00  -5.3172828e+04
   1.3831277e-09  -7.0938007e-06   3.2601567e+00   3.2583576e+00  -5.2726651e+04
   1.3842614e-09  -7.0342751e-06   3.2601500e+00   3.2583659e+00  -5.2284217e+04
   1.3853951e-09  -6.9752490e-06   3.2601433e+00   3.2583742e+00  -5.1845497e+04
   1.3865288e-09  -6.9167183e-06   3.2601366e+00   3.2583824e+00  -5.1410458e+04
   1.3876626e-09  -6.8586786e-06   3.2601300e+00   3.2583905e+00  -5.0979068e+04
   1.3887963e-09  -6.8011259e-06   3.2601235e+00   3.2583986e+00  -5.0551299e+04
   1.3899300e-09  -6.7440562e-06   3.2601170e+00   3.2584065e+00  -5.0127119e+04
   1.3910637e-09  -6.6874654e-06   3.2601105e+00   3.2584145e+00  -4.9706498e+04
   1.3921974e-09  -6.6313494e-06   3.2601041e+00   3.2584223e+00  -4.9289406e+04
   1.3933311e-09  -6.5757043e-06   3.2600978e+00   3.2584301e+00  -4.8875815e+04
   1.3944648e-09  -6.5205261e-06   3.2600915e+00   3.2584378e+00  -4.8465693e+04
   1.3955985e-09  -6.4658109e-06   3.2600853e+00   3.2584455e+00  -4.8059013e+04
   1.3967322e-09  -6.4115548e-06   3.2600792e+00   3.2584531e+00  -4.7655745e+04
   1.3978660e-09  -6.3577540e-06   3.2600730e+00   3.2584606e+00  -4.7255861e+04
   1.3989997e-09  -6.3044047e-06   3.2600670e+00   3.2584680e+00  -4.6859332e+04
   1.4001334e-09  -6.2515030e-06   3.2600610e+00   3.2584754e+00  -4.6466131e+04
   1.4012671e-09  -6.1990452e-06   3.2600550e+00   3.2584828e+00  -4.6076228e+04
   1.4024008e-09  -6.1470276e-06   3.2600491e+00   3.2584901e+00  -4.5689598e+04
   1.4035345e-09  -6.0954465e-06   3.2600432e+00   3.2584973e+00  -4.5306212e+04
   1.4046682e-09  -6.0442982e-06   3.2600374e+00   3.2585044e+00  -4.4926042e+04
   1.4058019e-09  -5.9935791e-06   3.2600316e+00   3.2585115e+00  -4.4549062e+04
   1.4069356e-09  -5.9432856e-06   3.2600259e+00   3.2585186e+00  -4.4175246e+04
   1.4080694e-09  -5.8934140e-06   3.2600202e+00   3.2585255e+00  -4.3804566e+04
   1.4092031e-09  -5.8439610e-06   3.2600146e+00   3.2585325e+00  -4.3436997e+04
   1.4103368e-09  -5.7949230e-06   3.2600090e+00   3.2585393e+00  -4.3072512e+04
   1.4114705e-09  -5.7462964e-06   3.2600035e+00   3.2585461e+00  -4.2711085e+04
   1.4126042e-09  -5.6980778e-06   3.2599980e+00   3.2585529e+00  -4.2352691e+04
   1.4137379e-09  -5.6502639e-06   3.2599926e+00   3.2585596e+00  -4.1997304e+04
   1.4148716e-09  -5.6028512e-06   3.2599872e+00   3.2585662e+00  -4.1644899e+04
   1.4160053e-09  -5.5558363e-06   3.2599818e+00   3.2585728e+00  -4.1295451e+04
   1.4171390e-09  -5.5092159e-06   3.2599765e+00   3.2585793e+00  -4.0948936e+04
   1.4182728e-09  -5.4629868e-06   3.2599713e+00   3.2585858e+00  -4.0605328e+04
   1.4194065e-09  -5.4171455e-06   3.2599661e+00   3.2585922e+00  -4.0264603e+04
   1.4205402e-09  -5.3716889e-06   3.2599609e+00   3.2585985e+00  -3.9926737e+04
   1.4216739e-09  -5.3266137e-06   3.2599558e+00   3.2586048e+00  -3.9591706e+04
   1.4228076e-09  -5.2819168e-06   3.2599507e+00   3.2586111e+00  -3.9259486e+04
   1.4239413e-09  -5.2375949e-06   3.2599456e+00   3.2586173e+00  -3.8930054e+04
   1.4250750e-09  -5.1936450e-06   3.2599406e+00   3.2586234e+00  -3.8603386e+04
   1.4262087e-09  -5.1500638e-06   3.2599357e+00   3.2586295e+00  -3.8279460e+04
   1.4273424e-09  -5.1068483e-06   3.2599308e+00   3.2586356e+00  -3.7958251e+04
   1.4284762e-09  -5.0639955e-06   3.2599259e+00   3.2586416e+00  -3.7639738e+04
   1.4296099e-09  -5.0215022e-06   3.2599211e+00   3.2586475e+00  -3.7323897e+04
   1.4307436e-09  -4.9793655e-06   3.2599163e+00   3.2586534e+00  -3.7010706e+04
   1.4318773e-09  -4.9375824e-06   3.2599115e+00   3.2586593e+00  -3.6700143e+04
   1.4330110e-09  -4.8961498e-06   3.2599068e+00   3.2586650e+00  -3.6392187e+04
   1.4341447e-09  -4.8550650e-06   3.2599021e+00   3.2586708e+00  -3.6086814e+04
   1.4352784e-09  -4.8143249e-06   3.2598975e+00   3.2586765e+00  -3.5784004e+04
   1.4364121e-09  -4.7739267e-06   3.2598929e+00   3.2586821e+00  -3.5483734e+04
   1.4375458e-09  -4.7338674e-06   3.2598884e+00   3.2586877e+00  -3.5185985e+04
   1.4386796e-09  -4.6941443e-06   3.2598838e+00   3.2586933e+00  -3.4890733e+04
   1.4398133e-09  -4.6547545e-06   3.2598794e+00   3.2586988e+00  -3.4597959e+04
   1.4409470e-09  -4.6156952e-06   3.2598749e+00   3.2587043e+00  -3.4307642e+04
   1.4420807e-09  -4.5769637e-06   3.2598705e+00   3.2587097e+00  -3.4019760e+04
   1.4432144e-09  -4.5385572e-06   3.2598661e+00   3.2587151e+00  -3.3734295e+04
   1.4443481e-09  -4.5004730e-06   3.2598618e+00   3.2587204e+00  -3.3451224e+04
   1.4454818e-09  -4.4627083e-06   3.2598575e+00   3.2587257e+00  -3.3170529e+04
   1.4466155e-09  -4.4252606e-06   3.2598533e+00   3.2587309e+00  -3.2892189e+04
   1.4477492e-09  -4.3881270e-06   3.2598490e+00   3.2587361e+00  -3.2616185e+04
   1.4488830e-09  -4.3513051e-06   3.2598449e+00   3.2587413e+00  -3.2342497e+04
   1.4500167e-09  -4.3147921e-06   3.2598407e+00   3.2587464e+00  -3.2071105e+04
   1.4511504e-09  -4.2785855e-06   3.2598366e+00   3.2587514e+00  -3.1801990e+04
   1.4522841e-09  -4.2426827e-06   3.2598325e+00   3.2587565e+00  -3.1535134e+04
   1.4534178e-09  -4.2070813e-06   3.2598285e+00   3.2587614e+00  -3.1270517e+04
   1.4545515e-09  -4.1717785e-06   3.2598244e+00   3.2587664e+00  -3.1008120e+04
   1.4556852e-09  -4.1367720e-06   3.2598205e+00   3.2587713e+00  -3.0747925e+04
   1.4568189e-09  -4.1020592e-06   3.2598165e+00   3.2587761e+00  -3.0489913e+04
   1.4579527e-09  -4.0676377e-06   3.2598126e+00   3.2587809e+00  -3.0234066e+04
   1.4590864e-09  -4.0335050e-06   3.2598087e+00   3.2587857e+00  -2.9980366e+04
   1.4602201e-09  -3.9996588e-06   3.2598049e+00   3.2587905e+00  -2.9728795e+04
   1.4613538e-09  -3.9660965e-06   3.2598010e+00   3.2587952e+00  -2.9479335e+04
   1.4624875e-09  -3.9328159e-06   3.2597973e+00   3.2587998e+00  -2.9231968e+04
   1.4636212e-09  -3.8998146e-06   3.2597935e+00   3.2588044e+00  -2.8986677e+04
   1.4647549e-09  -3.8670901e-06   3.2597898e+00   3.2588090e+00  -2.8743444e+04
   1.4658886e-09  -3.8346403e-06   3.2597861e+00   3.2588135e+00  -2.8502252e+04
   1.4670223e-09  -3.8024628e-06   3.2597824e+00   3.2588180e+00  -2.8263084e+04
   1.4681561e-09  -3.7705553e-06   3.2597788e+00   3.2588225e+00  -2.8025922e+04
   1.4692898e-09  -3.7389155e-06   3.2597752e+00   3.2588269e+00  -2.7790751e+04
   1.4704235e-09  -3.7075412e-06   3.2597716e+00   3.2588313e+00  -2.7557553e+04
   1.4715572e-09  -3.6764302e-06   3.2597681e+00   3.2588357e+00  -2.7326312e+04
   1.4726909e-09  -3.6455802e-06   3.2597646e+00   3.2588400e+00  -2.7097011e+04
   1.4738246e-09  -3.6149891e-06   3.2597611e+00   3.2588443e+00  -2.6869634e+04
   1.4749583e-09  -3.5846547e-06   3.2597577e+00   3.2588485e+00  -2.6644165e+04
   1.4760920e-09  -3.5545748e-06   3.2597542e+00   3.2588527e+00  -2.6420588e+04
   1.4772257e-09  -3.5247474e-06   3.2597509e+00   3.2588569e+00  -2.6198888e+04
   1.4783595e-09  -3.4951702e-06   3.2597475e+00   3.2588610e+00  -2.5979047e+04
   1.4794932e-09  -3.4658413e-06   3.2597442e+00   3.2588651e+00  -2.5761051e+04
   1.4806269e-09  -3.4367584e-06   3.2597408e+00   3.2588692e+00  -2.5544885e+04
   1.4817606e-09  -3.4079196e-06   3.2597376e+00   3.2588732e+00  -2.5330532e+04
   1.4828943e-09  -3.3793227e-06   3.2597343e+00   3.2588772e+00  -2.5117978e+04
   1.4840280e-09  -3.3509659e-06   3.2597311e+00   3.2588812e+00  -2.4907207e+04
   1.4851617e-09  -3.3228469e-06   3.2597279e+00   3.2588851e+00  -2.4698205e+04
   1.4862954e-09  -3.2949640e-06   3.2597247e+00   3.2588890e+00  -2.4490957e+04
   1.4874291e-09  -3.2673150e-06   3.2597216e+00   3.2588929e+00  -2.4285448e+04
   1.4885629e-09  -3.2398980e-06   3.2597185e+00   3.2588967e+00  -2.4081663e+04
   1.4896966e-09  -3.2127110e-06   3.2597154e+00   3.2589005e+00  -2.3879588e+04
   1.4908303e-09  -3.1857522e-06   3.2597123e+00   3.2589043e+00  -2.3679209e+04
   1.4919640e-09  -3.1590197e-06   3.2597093e+00   3.2589081e+00  -2.3480512e+04
   1.4930977e-09  -3.1325114e-06   3.2597062e+00   3.2589118e+00  -2.3283481e+04
   1.4942314e-09  -3.1062256e-06   3.2597033e+00   3.2589154e+00  -2.3088104e+04
   1.4953651e-09  -3.0801603e-06   3.2597003e+00   3.2589191e+00  -2.2894367e+04
   1.4964988e-09  -3.0543138e-06   3.2596974e+00   3.2589227e+00  -2.2702254e+04
   1.4976325e-09  -3.0286841e-06   3.2596944e+00   3.2589263e+00  -2.2511755e+04
   1.4987663e-09  -3.0032696e-06   3.2596915e+00   3.2589298e+00  -2.2322853e+04
   1.4999000e-09  -2.9780682e-06   3.2596887e+00   3.2589334e+00  -2.2135537e+04
   1.5010337e-09  -2.9530784e-06   3.2596858e+00   3.2589369e+00  -2.1949792e+04
   1.5021674e-09  -2.9282982e-06   3.2596830e+00   3.2589403e+00  -2.1765606e+04
   1.5033011e-09  -2.9037260e-06   3.2596802e+00   3.2589438e+00  -2.1582966e+04
   1.5044348e-09  -2.8793600e-06   3.2596775e+00   3.2589472e+00  -2.1401858e+04
   1.5055685e-09  -2.8551984e-06   3.2596747e+00   3.2589506e+00  -2.1222270e+04
   1.5067022e-09  -2.8312396e-06   3.2596720e+00   3.2589539e+00  -2.1044188e+04
   1.5078359e-09  -2.8074818e-06   3.2596693e+00   3.2589572e+00  -2.0867601e+04
   1.5089697e-09  -2.7839234e-06   3.2596666e+00   3.2589605e+00  -2.0692496e+04
   1.5101034e-09  -2.7605626e-06   3.2596639e+00   3.2589638e+00  -2.0518860e+04
   1.5112371e-09  -2.7373979e-06   3.2596613e+00   3.2589670e+00  -2.0346682e+04
   1.5123708e-09  -2.7144276e-06   3.2596587e+00   3.2589703e+00  -2.0175948e+04
   1.5135045e-09  -2.6916500e-06   3.2596561e+00   3.2589734e+00  -2.0006646e+04
   1.5146382e-09  -2.6690635e-06   3.2596535e+00   3.2589766e+00  -1.9838765e+04
   1.5157719e-09  -2.6466666e-06   3.2596510e+00   3.2589797e+00  -1.9672293e+04
   1.5169056e-09  -2.6244576e-06   3.2596485e+00   3.2589828e+00  -1.9507218e+04
   1.5180393e-09  -2.6024350e-06   3.2596460e+00   3.2589859e+00  -1.9343528e+04
   1.5191731e-09  -2.5805972e-06   3.2596435e+00   3.2589890e+00  -1.9181212e+04
   1.5203068e-09  -2.5589426e-06   3.2596410e+00   3.2589920e+00  -1.9020257e+04
   1.5214405e-09  -2.5374697e-06   3.2596386e+00   3.2589950e+00  -1.8860653e+04
   1.5225742e-09  -2.5161770e-06   3.2596362e+00   3.2589980e+00  -1.8702389e+04
   1.5237079e-09  -2.4950630e-06   3.2596338e+00   3.2590009e+00  -1.8545452e+04
   1.5248416e-09  -2.4741262e-06   3.2596314e+00   3.2590039e+00  -1.8389833e+04
   1.5259753e-09  -2.4533650e-06   3.2596290e+00   3.2590068e+00  -1.8235519e+04
   1.5271090e-09  -2.4327781e-06   3.2596267e+00   3.2590097e+00  -1.8082500e+04
   1.5282427e-09  -2.4123639e-06   3.2596243e+00   3.2590125e+00  -1.7930765e+04
   1.5293765e-09  -2.3921210e-06   3.2596220e+00   3.2590153e+00  -1.7780303e+04
   1.5305102e-09  -2.3720480e-06   3.2596198e+00   3.2590182e+00  -1.7631104e+04
   1.5316439e-09  -2.3521434e-06   3.2596175e+00   3.2590209e+00  -1.7483157e+04
   1.5327776e-09  -2.3324058e-06   3.2596153e+00   3.2590237e+00  -1.7336451e+04
   1.5339113e-09  -2.3128339e-06   3.2596130e+00   3.2590264e+00  -1.7190976e+04
   1.5350450e-09  -2.2934262e-06   3.2596108e+00   3.2590292e+00  -1.7046722e+04
   1.5361787e-09  -2.2741813e-06   3.2596086e+00   3.2590318e+00  -1.6903678e+04
   1.5373124e-09  -2.2550980e-06   3.2596065e+00   3.2590345e+00  -1.6761835e+04
   1.5384461e-09  -2.2361747e-06   3.2596043e+00   3.2590372e+00  -1.6621182e+04
   1.5395799e-09  -2.2174103e-06   3.2596022e+00   3.2590398e+00  -1.6481709e+04
   1.5407136e-09  -2.1988033e-06   3.2596001e+00   3.2590424e+00  -1.6343407e+04
   1.5418473e-09  -2.1803525e-06   3.2595980e+00   3.2590450e+00  -1.6206265e+04
   1.5429810e-09  -2.1620564e-06   3.2595959e+00   3.2590475e+00  -1.6070274e+04
   1.5441147e-09  -2.1439139e-06   3.2595938e+00   3.2590501e+00  -1.5935424e+04
   1.5452484e-09  -2.1259237e-06   3.2595918e+00   3.2590526e+00  -1.5801705e+04
   1.5463821e-09  -2.1080844e-06   3.2595897e+00   3.2590551e+00  -1.5669109e+04
   1.5475158e-09  -2.0903948e-06   3.2595877e+00   3.2590576e+00  -1.5537625e+04
   1.5486495e-09  -2.0728536e-06   3.2595857e+00   3.2590600e+00  -1.5407244e+04
   1.5497833e-09  -2.0554597e-06   3.2595838e+00   3.2590624e+00  -1.5277958e+04
   1.5509170e-09  -2.0382116e-06   3.2595818e+00   3.2590649e+00  -1.5149756e+04
   1.5520507e-09  -2.0211084e-06   3.2595799e+00   3.2590672e+00  -1.5022631e+04
   1.5531844e-09  -2.0041486e-06   3.2595779e+00   3.2590696e+00  -1.4896572e+04
   1.5543181e-09  -1.9873312e-06   3.2595760e+00   3.2590720e+00  -1.4771570e+04
   1.5554518e-09  -1.9706548e-06   3.2595741e+00   3.2590743e+00  -1.4647618e+04
   1.5565855e-09  -1.9541184e-06   3.2595722e+00   3.2590766e+00  -1.4524706e+04
   1.5577192e-09  -1.9377208e-06   3.2595704e+00   3.2590789e+00  -1.4402825e+04
   1.5588530e-09  -1.9214608e-06   3.2595685e+00   3.2590812e+00  -1.4281967e+04
   1.5599867e-09  -1.9053372e-06   3.2595667e+00   3.2590834e+00  -1.4162123e+04
   1.5611204e-09  -1.8893489e-06   3.2595649e+00   3.2590857e+00  -1.4043284e+04
   1.5622541e-09  -1.8734948e-06   3.2595631e+00   3.2590879e+00  -1.3925443e+04
   1.5633878e-09  -1.8577737e-06   3.2595613e+00   3.2590901e+00  -1.3808591e+04
   1.5645215e-09  -1.8421845e-06   3.2595595e+00   3.2590923e+00  -1.3692719e+04
   1.5656552e-09  -1.8267261e-06   3.2595577e+00   3.2590944e+00  -1.3577819e+04
   1.5667889e-09  -1.8113975e-06   3.2595560e+00   3.2590966e+00  -1.3463884e+04
   1.5679226e-09  -1.7961975e-06   3.2595543e+00   3.2590987e+00  -1.3350905e+04
   1.5690564e-09  -1.7811250e-06   3.2595526e+00   3.2591008e+00  -1.3238873e+04
   1.5701901e-09  -1.7661790e-06   3.2595509e+00   3.2591029e+00  -1.3127782e+04
   1.5713238e-09  -1.7513584e-06   3.2595492e+00   3.2591050e+00  -1.3017623e+04
   1.5724575e-09  -1.7366622e-06   3.2595475e+00   3.2591070e+00  -1.2908389e+04
   1.5735912e-09  -1.7220893e-06   3.2595458e+00   3.2591091e+00  -1.2800071e+04
   1.5747249e-09  -1.7076387e-06   3.2595442e+00   3.2591111e+00  -1.2692662e+04
   1.5758586e-09  -1.6933093e-06   3.2595426e+00   3.2591131e+00  -1.2586154e+04
   1.5769923e-09  -1.6791002e-06   3.2595410e+00   3.2591151e+00  -1.2480540e+04
   1.5781260e-09  -1.6650104e-06   3.2595394e+00   3.2591171e+00  -1.2375812e+04
   1.5792598e-09  -1.6510387e-06   3.2595378e+00   3.2591190e+00  -1.2271963e+04
   1.5803935e-09  -1.6371843e-06   3.2595362e+00   3.2591210e+00  -1.2168985e+04
   1.5815272e-09  -1.6234462e-06   3.2595346e+00   3.2591229e+00  -1.2066872e+04
   1.5826609e-09  -1.6098233e-06   3.2595331e+00   3.2591248e+00  -1.1965615e+04
   1.5837946e-09  -1.5963148e-06   3.2595315e+00   3.2591267e+00  -1.1865208e+04
   1.5849283e-09  -1.5829196e-06   3.2595300e+00   3.2591286e+00  -1.1765643e+04
   1.5860620e-09  -1.5696368e-06   3.2595285e+00   3.2591304e+00  -1.1666914e+04
   1.5871957e-09  -1.5564654e-06   3.2595270e+00   3.2591323e+00  -1.1569014e+04
   1.5883294e-09  -1.5434046e-06   3.2595255e+00   3.2591341e+00  -1.1471935e+04
   1.5894632e-09  -1.5304534e-06   3.2595241e+00   3.2591359e+00  -1.1375671e+04
   1.5905969e-09  -1.5176109e-06   3.2595226e+00   3.2591377e+00  -1.1280214e+04
   1.5917306e-09  -1.5048761e-06   3.2595211e+00   3.2591395e+00  -1.1185558e+04
   1.5928643e-09  -1.4922482e-06   3.2595197e+00   3.2591412e+00  -1.1091697e+04
   1.5939980e-09  -1.4797262e-06   3.2595183e+00   3.2591430e+00  -1.0998623e+04
   1.5951317e-09  -1.4673094e-06   3.2595169e+00   3.2591447e+00  -1.0906330e+04
   1.5962654e-09  -1.4549967e-06   3.2595155e+00   3.2591464e+00  -1.0814812e+04
   1.5973991e-09  -1.4427873e-06   3.2595141e+00   3.2591482e+00  -1.0724062e+04
   1.5985328e-09  -1.4306804e-06   3.2595127e+00   3.2591498e+00  -1.0634073e+04
   1.5996666e-09  -1.4186751e-06   3.2595113e+00   3.2591515e+00  -1.0544839e+04
   1.6008003e-09  -1.4067706e-06   3.2595100e+00   3.2591532e+00  -1.0456354e+04
   1.6019340e-09  -1.3949659e-06   3.2595086e+00   3.2591548e+00  -1.0368612e+04
   1.6030677e-09  -1.3832603e-06   3.2595073e+00   3.2591565e+00  -1.0281606e+04
   1.6042014e-09  -1.3716529e-06   3.2595060e+00   3.2591581e+00  -1.0195330e+04
   1.6053351e-09  -1.3601429e-06   3.2595047e+00   3.2591597e+00  -1.0109777e+04
   1.6064688e-09  -1.3487295e-06   3.2595034e+00   3.2591613e+00  -1.0024943e+04
   1.6076025e-09  -1.3374118e-06   3.2595021e+00   3.2591629e+00  -9.9408209e+03
   1.6087362e-09  -1.3261892e-06   3.2595008e+00   3.2591645e+00  -9.8574044e+03
   1.6098700e-09  -1.3150607e-06   3.2594996e+00   3.2591660e+00  -9.7746879e+03
   1.6110037e-09  -1.3040256e-06   3.2594983e+00   3.2591676e+00  -9.6926655e+03
   1.6121374e-09  -1.2930830e-06   3.2594971e+00   3.2591691e+00  -9.6113314e+03
   1.6132711e-09  -1.2822324e-06   3.2594958e+00   3.2591706e+00  -9.5306798e+03
   1.6144048e-09  -1.2714727e-06   3.2594946e+00   3.2591721e+00  -9.4507049e+03
   1.6155385e-09  -1.2608034e-06   3.2594934e+00   3.2591736e+00  -9.3714011e+03
   1.6166722e-09  -1.2502235e-06   3.2594922e+00   3.2591751e+00  -9.2927628e+03
   1.6178059e-09  -1.2397325e-06   3.2594910e+00   3.2591766e+00  -9.2147844e+03
   1.6189396e-09  -1.2293295e-06   3.2594898e+00   3.2591780e+00  -9.1374602e+03
   1.6200734e-09  -1.2190138e-06   3.2594886e+00   3.2591795e+00  -9.0607850e+03
   1.6212071e-09  -1.2087846e-06   3.2594875e+00   3.2591809e+00  -8.9847531e+03
   1.6223408e-09  -1.1986413e-06   3.2594863e+00   3.2591823e+00  -8.9093593e+03
   1.6234745e-09  -1.1885831e-06   3.2594852e+00   3.2591837e+00  -8.8345981e+03
   1.6246082e-09  -1.1786093e-06   3.2594840e+00   3.2591851e+00  -8.7604642e+03
   1.6257419e-09  -1.1687192e-06   3.2594829e+00   3.2591865e+00  -8.6869524e+03
   1.6268756e-09  -1.1589121e-06   3.2594818e+00   3.2591879e+00  -8.6140575e+03
   1.6280093e-09  -1.1491873e-06   3.2594807e+00   3.2591892e+00  -8.5417742e+03
   1.6291430e-09  -1.1395441e-06   3.2594796e+00   3.2591906e+00  -8.4700975e+03
   1.6302768e-09  -1.1299818e-06   3.2594785e+00   3.2591919e+00  -8.3990223e+03
   1.6314105e-09  -1.1204997e-06   3.2594774e+00   3.2591932e+00  -8.3285435e+03
   1.6325442e-09  -1.1110972e-06   3.2594764e+00   3.2591946e+00  -8.2586560e+03
   1.6336779e-09  -1.1017736e-06   3.2594753e+00   3.2591959e+00  -8.1893550e+03
   1.6348116e-09  -1.0925283e-06   3.2594742e+00   3.2591972e+00  -8.1206356e+03
   1.6359453e-09  -1.0833605e-06   3.2594732e+00   3.2591984e+00  -8.0524928e+03
   1.6370790e-09  -1.0742697e-06   3.2594722e+00   3.2591997e+00  -7.9849218e+03
   1.6382127e-09  -1.0652551e-06   3.2594711e+00   3.2592010e+00  -7.9179178e+03
   1.6393464e-09  -1.0563162e-06   3.2594701e+00   3.2592022e+00  -7.8514760e+03
   1.6404802e-09  -1.0474523e-06   3.2594691e+00   3.2592035e+00  -7.7855918e+03
   1.6416139e-09  -1.0386627e-06   3.2594681e+00   3.2592047e+00  -7.7202604e+03
   1.6427476e-09  -1.0299470e-06   3.2594671e+00   3.2592059e+00  -7.6554772e+03
   1.6438813e-09  -1.0213043e-06   3.2594661e+00   3.2592071e+00  -7.5912377e+03
   1.6450150e-09  -1.0127342e-06   3.2594652e+00   3.2592083e+00  -7.5275372e+03
   1.6461487e-09  -1.0042360e-06   3.2594642e+00   3.2592095e+00  -7.4643712e+03
   1.6472824e-09  -9.9580915e-07   3.2594632e+00   3.2592107e+00  -7.4017353e+03
   1.6484161e-09  -9.8745298e-07   3.2594623e+00   3.2592119e+00  -7.3396250e+03
   1.6495498e-09  -9.7916693e-07   3.2594614e+00   3.2592130e+00  -7.2780359e+03
   1.6506836e-09  -9.7095040e-07   3.2594604e+00   3.2592142e+00  -7.2169635e+03
   1.6518173e-09  -9.6280283e-07   3.2594595e+00   3.2592153e+00  -7.1564037e+03
   1.6529510e-09  -9.5472362e-07   3.2594586e+00   3.2592164e+00  -7.0963520e+03
   1.6540847e-09  -9.4671221e-07   3.2594577e+00   3.2592176e+00  -7.0368042e+03
   1.6552184e-09  -9.3876803e-07   3.2594568e+00   3.2592187e+00  -6.9777561e+03
   1.6563521e-09  -9.3089051e-07   3.2594559e+00   3.2592198e+00  -6.9192035e+03
   1.6574858e-09  -9.2307909e-07   3.2594550e+00   3.2592209e+00  -6.8611423e+03
