   0.0000000e+00  -1.2603787e-01   6.3243849e+00   3.4802377e-04  -5.2062203e+08
   1.0003334e-12  -1.2551779e-01   6.3229777e+00   3.6231669e-04  -5.1922031e+08
   2.0006669e-12  -1.2499910e-01   6.3215460e+00   3.7715398e-04  -5.1781844e+08
   3.0010003e-12  -1.2448182e-01   6.3200895e+00   3.9255446e-04  -5.1641644e+08
   4.0013338e-12  -1.2396595e-01   6.3186080e+00   4.0853756e-04  -5.1501430e+08
   5.0016672e-12  -1.2345147e-01   6.3171010e+00   4.2512329e-04  -5.1361203e+08
   6.0020007e-12  -1.2293840e-01   6.3155682e+00   4.4233224e-04  -5.1220962e+08
   7.0023341e-12  -1.2242673e-01   6.3140093e+00   4.6018563e-04  -5.1080709e+08
   8.0026676e-12  -1.2191647e-01   6.3124240e+00   4.7870532e-04  -5.0940443e+08
   9.0030010e-12  -1.2140761e-01   6.3108119e+00   4.9791380e-04  -5.0800164e+08
   1.0003334e-11  -1.2090015e-01   6.3091727e+00   5.1783423e-04  -5.0659873e+08
   1.1003668e-11  -1.2039409e-01   6.3075060e+00   5.3849043e-04  -5.0519571e+08
   1.2004001e-11  -1.1988944e-01   6.3058115e+00   5.5990694e-04  -5.0379257e+08
   1.3004335e-11  -1.1938619e-01   6.3040889e+00   5.8210899e-04  -5.0238932e+08
   1.4004668e-11  -1.1888435e-01   6.3023377e+00   6.0512252e-04  -5.0098596e+08
   1.5005002e-11  -1.1838391e-01   6.3005577e+00   6.2897425e-04  -4.9958249e+08
   1.6005335e-11  -1.1788487e-01   6.2987485e+00   6.5369162e-04  -4.9817893e+08
   1.7005669e-11  -1.1738724e-01   6.2969098e+00   6.7930286e-04  -4.9677526e+08
   1.8006002e-11  -1.1689101e-01   6.2950411e+00   7.0583699e-04  -4.9537150e+08
   1.9006335e-11  -1.1639619e-01   6.2931422e+00   7.3332384e-04  -4.9396765e+08
   2.0006669e-11  -1.1590277e-01   6.2912127e+00   7.6179405e-04  -4.9256371e+08
   2.1007002e-11  -1.1541075e-01   6.2892521e+00   7.9127912e-04  -4.9115970e+08
   2.2007336e-11  -1.1492014e-01   6.2872603e+00   8.2181140e-04  -4.8975560e+08
   2.3007669e-11  -1.1443094e-01   6.2852367e+00   8.5342413e-04  -4.8835144e+08
   2.4008003e-11  -1.1394313e-01   6.2831811e+00   8.8615142e-04  -4.8694720e+08
   2.5008336e-11  -1.1345674e-01   6.2810931e+00   9.2002833e-04  -4.8554290e+08
   2.6008670e-11  -1.1297175e-01   6.2789722e+00   9.5509082e-04  -4.8413855e+08
   2.7009003e-11  -1.1248816e-01   6.2768183e+00   9.9137582e-04  -4.8273414e+08
   2.8009336e-11  -1.1200598e-01   6.2746308e+00   1.0289212e-03  -4.8132969e+08
   2.9009670e-11  -1.1152520e-01   6.2724094e+00   1.0677659e-03  -4.7992519e+08
   3.0010003e-11  -1.1104583e-01   6.2701538e+00   1.1079498e-03  -4.7852066e+08
   3.1010337e-11  -1.1056786e-01   6.2678636e+00   1.1495137e-03  -4.7711610e+08
   3.2010670e-11  -1.1009130e-01   6.2655384e+00   1.1924997e-03  -4.7571151e+08
   3.3011004e-11  -1.0961614e-01   6.2631778e+00   1.2369507e-03  -4.7430691e+08
   3.4011337e-11  -1.0914239e-01   6.2607816e+00   1.2829109e-03  -4.7290230e+08
   3.5011671e-11  -1.0867004e-01   6.2583492e+00   1.3304254e-03  -4.7149768e+08
   3.6012004e-11  -1.0819910e-01   6.2558804e+00   1.3795406e-03  -4.7009307e+08
   3.7012337e-11  -1.0772957e-01   6.2533748e+00   1.4303040e-03  -4.6868847e+08
   3.8012671e-11  -1.0726143e-01   6.2508321e+00   1.4827641e-03  -4.6728388e+08
   3.9013004e-11  -1.0679471e-01   6.2482517e+00   1.5369708e-03  -4.6587932e+08
   4.0013338e-11  -1.0632939e-01   6.2456335e+00   1.5929751e-03  -4.6447479e+08
   4.1013671e-11  -1.0586547e-01   6.2429769e+00   1.6508292e-03  -4.6307030e+08
   4.2014005e-11  -1.0540296e-01   6.2402817e+00   1.7105865e-03  -4.6166586e+08
   4.3014338e-11  -1.0494185e-01   6.2375475e+00   1.7723017e-03  -4.6026148e+08
   4.4014672e-11  -1.0448215e-01   6.2347739e+00   1.8360309e-03  -4.5885716e+08
   4.5015005e-11  -1.0402385e-01   6.2319606e+00   1.9018312e-03  -4.5745291e+08
   4.6015338e-11  -1.0356696e-01   6.2291072e+00   1.9697613e-03  -4.5604875e+08
   4.7015672e-11  -1.0311147e-01   6.2262133e+00   2.0398811e-03  -4.5464468e+08
   4.8016005e-11  -1.0265739e-01   6.2232785e+00   2.1122519e-03  -4.5324071e+08
   4.9016339e-11  -1.0220471e-01   6.2203026e+00   2.1869363e-03  -4.5183685e+08
   5.0016672e-11  -1.0175344e-01   6.2172851e+00   2.2639983e-03  -4.5043311e+08
   5.1017006e-11  -1.0130356e-01   6.2142257e+00   2.3435033e-03  -4.4902950e+08
   5.2017339e-11  -1.0085510e-01   6.2111241e+00   2.4255182e-03  -4.4762604e+08
   5.3017673e-11  -1.0040803e-01   6.2079798e+00   2.5101113e-03  -4.4622272e+08
   5.4018006e-11  -9.9962376e-02   6.2047926e+00   2.5973523e-03  -4.4481956e+08
   5.5018339e-11  -9.9518120e-02   6.2015620e+00   2.6873125e-03  -4.4341658e+08
   5.6018673e-11  -9.9075268e-02   6.1982878e+00   2.7800645e-03  -4.4201378e+08
   5.7019006e-11  -9.8633818e-02   6.1949696e+00   2.8756826e-03  -4.4061117e+08
   5.8019340e-11  -9.8193772e-02   6.1916070e+00   2.9742425e-03  -4.3920877e+08
   5.9019673e-11  -9.7755129e-02   6.1881998e+00   3.0758215e-03  -4.3780659e+08
   6.0020007e-11  -9.7317887e-02   6.1847475e+00   3.1804985e-03  -4.3640464e+08
   6.1020340e-11  -9.6882049e-02   6.1812498e+00   3.2883539e-03  -4.3500293e+08
   6.2020674e-11  -9.6447612e-02   6.1777064e+00   3.3994697e-03  -4.3360147e+08
   6.3021007e-11  -9.6014577e-02   6.1741170e+00   3.5139296e-03  -4.3220028e+08
   6.4021340e-11  -9.5582943e-02   6.1704813e+00   3.6318186e-03  -4.3079937e+08
   6.5021674e-11  -9.5152711e-02   6.1667988e+00   3.7532238e-03  -4.2939876e+08
   6.6022007e-11  -9.4723879e-02   6.1630694e+00   3.8782335e-03  -4.2799845e+08
   6.7022341e-11  -9.4296448e-02   6.1592926e+00   4.0069381e-03  -4.2659847e+08
   6.8022674e-11  -9.3870418e-02   6.1554682e+00   4.1394292e-03  -4.2519881e+08
   6.9023008e-11  -9.3445787e-02   6.1515958e+00   4.2758004e-03  -4.2379951e+08
   7.0023341e-11  -9.3022556e-02   6.1476752e+00   4.4161469e-03  -4.2240057e+08
   7.1023675e-11  -9.2600723e-02   6.1437061e+00   4.5605655e-03  -4.2100200e+08
   7.2024008e-11  -9.2180290e-02   6.1396880e+00   4.7091550e-03  -4.1960383e+08
   7.3024341e-11  -9.1761255e-02   6.1356209e+00   4.8620156e-03  -4.1820607e+08
   7.4024675e-11  -9.1343618e-02   6.1315043e+00   5.0192493e-03  -4.1680873e+08
   7.5025008e-11  -9.0927379e-02   6.1273379e+00   5.1809601e-03  -4.1541183e+08
   7.6025342e-11  -9.0512536e-02   6.1231216e+00   5.3472533e-03  -4.1401538e+08
   7.7025675e-11  -9.0099091e-02   6.1188549e+00   5.5182364e-03  -4.1261941e+08
   7.8026009e-11  -8.9687041e-02   6.1145377e+00   5.6940183e-03  -4.1122392e+08
   7.9026342e-11  -8.9276387e-02   6.1101697e+00   5.8747098e-03  -4.0982893e+08
   8.0026676e-11  -8.8867128e-02   6.1057506e+00   6.0604236e-03  -4.0843446e+08
   8.1027009e-11  -8.8459264e-02   6.1012802e+00   6.2512738e-03  -4.0704054e+08
   8.2027342e-11  -8.8052794e-02   6.0967581e+00   6.4473768e-03  -4.0564716e+08
   8.3027676e-11  -8.7647717e-02   6.0921843e+00   6.6488502e-03  -4.0425436e+08
   8.4028009e-11  -8.7244034e-02   6.0875583e+00   6.8558138e-03  -4.0286215e+08
   8.5028343e-11  -8.6841742e-02   6.0828800e+00   7.0683890e-03  -4.0147055e+08
   8.6028676e-11  -8.6440843e-02   6.0781492e+00   7.2866989e-03  -4.0007957e+08
   8.7029010e-11  -8.6041334e-02   6.0733656e+00   7.5108686e-03  -3.9868924e+08
   8.8029343e-11  -8.5643216e-02   6.0685290e+00   7.7410246e-03  -3.9729957e+08
   8.9029677e-11  -8.5246487e-02   6.0636392e+00   7.9772956e-03  -3.9591059e+08
   9.0030010e-11  -8.4851147e-02   6.0586960e+00   8.2198117e-03  -3.9452231e+08
   9.1030343e-11  -8.4457196e-02   6.0536993e+00   8.4687049e-03  -3.9313475e+08
   9.2030677e-11  -8.4064633e-02   6.0486487e+00   8.7241090e-03  -3.9174793e+08
   9.3031010e-11  -8.3673456e-02   6.0435441e+00   8.9861593e-03  -3.9036187e+08
   9.4031344e-11  -8.3283665e-02   6.0383854e+00   9.2549930e-03  -3.8897659e+08
   9.5031677e-11  -8.2895259e-02   6.0331723e+00   9.5307491e-03  -3.8759212e+08
   9.6032011e-11  -8.2508238e-02   6.0279047e+00   9.8135681e-03  -3.8620847e+08
   9.7032344e-11  -8.2122601e-02   6.0225825e+00   1.0103592e-02  -3.8482566e+08
   9.8032678e-11  -8.1738346e-02   6.0172055e+00   1.0400966e-02  -3.8344371e+08
   9.9033011e-11  -8.1355474e-02   6.0117735e+00   1.0705834e-02  -3.8206266e+08
   1.0003334e-10  -8.0973982e-02   6.0062865e+00   1.1018344e-02  -3.8068250e+08
   1.0103368e-10  -8.0593870e-02   6.0007442e+00   1.1338644e-02  -3.7930328e+08
   1.0203401e-10  -8.0215138e-02   5.9951466e+00   1.1666887e-02  -3.7792501e+08
   1.0303434e-10  -7.9837783e-02   5.9894935e+00   1.2003222e-02  -3.7654771e+08
   1.0403468e-10  -7.9461806e-02   5.9837849e+00   1.2347804e-02  -3.7517141e+08
   1.0503501e-10  -7.9087205e-02   5.9780206e+00   1.2700789e-02  -3.7379613e+08
   1.0603535e-10  -7.8713979e-02   5.9722005e+00   1.3062332e-02  -3.7242189e+08
   1.0703568e-10  -7.8342127e-02   5.9663247e+00   1.3432592e-02  -3.7104871e+08
   1.0803601e-10  -7.7971648e-02   5.9603929e+00   1.3811729e-02  -3.6967662e+08
   1.0903635e-10  -7.7602542e-02   5.9544052e+00   1.4199904e-02  -3.6830564e+08
   1.1003668e-10  -7.7234806e-02   5.9483614e+00   1.4597278e-02  -3.6693579e+08
   1.1103701e-10  -7.6868439e-02   5.9422616e+00   1.5004017e-02  -3.6556710e+08
   1.1203735e-10  -7.6503441e-02   5.9361056e+00   1.5420284e-02  -3.6419959e+08
   1.1303768e-10  -7.6139811e-02   5.9298935e+00   1.5846248e-02  -3.6283329e+08
   1.1403801e-10  -7.5777546e-02   5.9236253e+00   1.6282074e-02  -3.6146822e+08
   1.1503835e-10  -7.5416646e-02   5.9173008e+00   1.6727933e-02  -3.6010440e+08
   1.1603868e-10  -7.5057110e-02   5.9109201e+00   1.7183995e-02  -3.5874187e+08
   1.1703901e-10  -7.4698936e-02   5.9044833e+00   1.7650432e-02  -3.5738063e+08
   1.1803935e-10  -7.4342123e-02   5.8979902e+00   1.8127414e-02  -3.5602073e+08
   1.1903968e-10  -7.3986670e-02   5.8914410e+00   1.8615118e-02  -3.5466218e+08
   1.2004001e-10  -7.3632574e-02   5.8848357e+00   1.9113716e-02  -3.5330501e+08
   1.2104035e-10  -7.3279836e-02   5.8781742e+00   1.9623385e-02  -3.5194924e+08
   1.2204068e-10  -7.2928453e-02   5.8714568e+00   2.0144301e-02  -3.5059491e+08
   1.2304101e-10  -7.2578424e-02   5.8646833e+00   2.0676642e-02  -3.4924203e+08
   1.2404135e-10  -7.2229748e-02   5.8578539e+00   2.1220587e-02  -3.4789063e+08
   1.2504168e-10  -7.1882422e-02   5.8509686e+00   2.1776314e-02  -3.4654074e+08
   1.2604201e-10  -7.1536446e-02   5.8440276e+00   2.2344004e-02  -3.4519239e+08
   1.2704235e-10  -7.1191818e-02   5.8370308e+00   2.2923838e-02  -3.4384559e+08
   1.2804268e-10  -7.0848537e-02   5.8299785e+00   2.3515997e-02  -3.4250038e+08
   1.2904301e-10  -7.0506600e-02   5.8228708e+00   2.4120662e-02  -3.4115678e+08
   1.3004335e-10  -7.0166006e-02   5.8157077e+00   2.4738018e-02  -3.3981482e+08
   1.3104368e-10  -6.9826754e-02   5.8084893e+00   2.5368246e-02  -3.3847453e+08
   1.3204401e-10  -6.9488842e-02   5.8012159e+00   2.6011531e-02  -3.3713593e+08
   1.3304435e-10  -6.9152268e-02   5.7938876e+00   2.6668057e-02  -3.3579904e+08
   1.3404468e-10  -6.8817030e-02   5.7865044e+00   2.7338007e-02  -3.3446391e+08
   1.3504502e-10  -6.8483127e-02   5.7790667e+00   2.8021567e-02  -3.3313054e+08
   1.3604535e-10  -6.8150556e-02   5.7715745e+00   2.8718922e-02  -3.3179898e+08
   1.3704568e-10  -6.7819317e-02   5.7640281e+00   2.9430256e-02  -3.3046924e+08
   1.3804602e-10  -6.7489407e-02   5.7564277e+00   3.0155755e-02  -3.2914135e+08
   1.3904635e-10  -6.7160824e-02   5.7487733e+00   3.0895604e-02  -3.2781535e+08
   1.4004668e-10  -6.6833567e-02   5.7410654e+00   3.1649989e-02  -3.2649125e+08
   1.4104702e-10  -6.6507633e-02   5.7333040e+00   3.2419094e-02  -3.2516909e+08
   1.4204735e-10  -6.6183020e-02   5.7254894e+00   3.3203104e-02  -3.2384889e+08
   1.4304768e-10  -6.5859727e-02   5.7176219e+00   3.4002205e-02  -3.2253068e+08
   1.4404802e-10  -6.5537752e-02   5.7097017e+00   3.4816580e-02  -3.2121449e+08
   1.4504835e-10  -6.5217093e-02   5.7017290e+00   3.5646415e-02  -3.1990034e+08
   1.4604868e-10  -6.4897746e-02   5.6937042e+00   3.6491893e-02  -3.1858826e+08
   1.4704902e-10  -6.4579712e-02   5.6856275e+00   3.7353196e-02  -3.1727828e+08
   1.4804935e-10  -6.4262986e-02   5.6774991e+00   3.8230509e-02  -3.1597042e+08
   1.4904968e-10  -6.3947568e-02   5.6693195e+00   3.9124013e-02  -3.1466472e+08
   1.5005002e-10  -6.3633455e-02   5.6610888e+00   4.0033890e-02  -3.1336120e+08
   1.5105035e-10  -6.3320644e-02   5.6528074e+00   4.0960320e-02  -3.1205988e+08
   1.5205068e-10  -6.3009134e-02   5.6444756e+00   4.1903485e-02  -3.1076080e+08
   1.5305102e-10  -6.2698922e-02   5.6360938e+00   4.2863561e-02  -3.0946398e+08
   1.5405135e-10  -6.2390007e-02   5.6276622e+00   4.3840729e-02  -3.0816945e+08
   1.5505168e-10  -6.2082385e-02   5.6191813e+00   4.4835165e-02  -3.0687723e+08
   1.5605202e-10  -6.1776055e-02   5.6106514e+00   4.5847045e-02  -3.0558736e+08
   1.5705235e-10  -6.1471013e-02   5.6020727e+00   4.6876544e-02  -3.0429985e+08
   1.5805268e-10  -6.1167259e-02   5.5934458e+00   4.7923835e-02  -3.0301474e+08
   1.5905302e-10  -6.0864788e-02   5.5847710e+00   4.8989092e-02  -3.0173206e+08
   1.6005335e-10  -6.0563600e-02   5.5760487e+00   5.0072485e-02  -3.0045182e+08
   1.6105368e-10  -6.0263690e-02   5.5672792e+00   5.1174184e-02  -2.9917406e+08
   1.6205402e-10  -5.9965058e-02   5.5584630e+00   5.2294357e-02  -2.9789880e+08
   1.6305435e-10  -5.9667700e-02   5.5496005e+00   5.3433170e-02  -2.9662607e+08
   1.6405468e-10  -5.9371614e-02   5.5406921e+00   5.4590789e-02  -2.9535589e+08
   1.6505502e-10  -5.9076797e-02   5.5317382e+00   5.5767377e-02  -2.9408829e+08
   1.6605535e-10  -5.8783247e-02   5.5227393e+00   5.6963094e-02  -2.9282330e+08
   1.6705569e-10  -5.8490961e-02   5.5136958e+00   5.8178101e-02  -2.9156094e+08
   1.6805602e-10  -5.8199936e-02   5.5046081e+00   5.9412555e-02  -2.9030125e+08
   1.6905635e-10  -5.7910171e-02   5.4954767e+00   6.0666612e-02  -2.8904423e+08
   1.7005669e-10  -5.7621661e-02   5.4863020e+00   6.1940426e-02  -2.8778992e+08
   1.7105702e-10  -5.7334404e-02   5.4770846e+00   6.3234147e-02  -2.8653835e+08
   1.7205735e-10  -5.7048398e-02   5.4678249e+00   6.4547926e-02  -2.8528954e+08
   1.7305769e-10  -5.6763640e-02   5.4585234e+00   6.5881910e-02  -2.8404351e+08
   1.7405802e-10  -5.6480127e-02   5.4491805e+00   6.7236243e-02  -2.8280029e+08
   1.7505835e-10  -5.6197856e-02   5.4397968e+00   6.8611068e-02  -2.8155990e+08
   1.7605869e-10  -5.5916824e-02   5.4303728e+00   7.0006525e-02  -2.8032237e+08
   1.7705902e-10  -5.5637029e-02   5.4209089e+00   7.1422751e-02  -2.7908772e+08
   1.7805935e-10  -5.5358467e-02   5.4114057e+00   7.2859881e-02  -2.7785598e+08
   1.7905969e-10  -5.5081136e-02   5.4018637e+00   7.4318048e-02  -2.7662717e+08
   1.8006002e-10  -5.4805033e-02   5.3922834e+00   7.5797382e-02  -2.7540131e+08
   1.8106035e-10  -5.4530155e-02   5.3826654e+00   7.7298008e-02  -2.7417843e+08
   1.8206069e-10  -5.4256498e-02   5.3730101e+00   7.8820053e-02  -2.7295855e+08
   1.8306102e-10  -5.3984060e-02   5.3633182e+00   8.0363636e-02  -2.7174169e+08
   1.8406135e-10  -5.3712838e-02   5.3535901e+00   8.1928876e-02  -2.7052787e+08
   1.8506169e-10  -5.3442828e-02   5.3438264e+00   8.3515890e-02  -2.6931713e+08
   1.8606202e-10  -5.3174028e-02   5.3340277e+00   8.5124789e-02  -2.6810947e+08
   1.8706235e-10  -5.2906435e-02   5.3241946e+00   8.6755682e-02  -2.6690492e+08
   1.8806269e-10  -5.2640045e-02   5.3143275e+00   8.8408677e-02  -2.6570351e+08
   1.8906302e-10  -5.2374855e-02   5.3044270e+00   9.0083876e-02  -2.6450525e+08
   1.9006335e-10  -5.2110862e-02   5.2944938e+00   9.1781380e-02  -2.6331017e+08
   1.9106369e-10  -5.1848063e-02   5.2845284e+00   9.3501285e-02  -2.6211829e+08
   1.9206402e-10  -5.1586455e-02   5.2745314e+00   9.5243685e-02  -2.6092962e+08
   1.9306435e-10  -5.1326034e-02   5.2645033e+00   9.7008670e-02  -2.5974419e+08
   1.9406469e-10  -5.1066797e-02   5.2544447e+00   9.8796327e-02  -2.5856202e+08
   1.9506502e-10  -5.0808742e-02   5.2443563e+00   1.0060674e-01  -2.5738313e+08
   1.9606536e-10  -5.0551864e-02   5.2342386e+00   1.0243999e-01  -2.5620753e+08
   1.9706569e-10  -5.0296160e-02   5.2240922e+00   1.0429615e-01  -2.5503525e+08
   1.9806602e-10  -5.0041627e-02   5.2139178e+00   1.0617529e-01  -2.5386631e+08
   1.9906636e-10  -4.9788262e-02   5.2037158e+00   1.0807749e-01  -2.5270072e+08
   2.0006669e-10  -4.9536061e-02   5.1934870e+00   1.1000281e-01  -2.5153851e+08
   2.0106702e-10  -4.9285021e-02   5.1832319e+00   1.1195131e-01  -2.5037968e+08
   2.0206736e-10  -4.9035139e-02   5.1729511e+00   1.1392305e-01  -2.4922426e+08
   2.0306769e-10  -4.8786410e-02   5.1626453e+00   1.1591809e-01  -2.4807227e+08
   2.0406802e-10  -4.8538833e-02   5.1523150e+00   1.1793647e-01  -2.4692373e+08
   2.0506836e-10  -4.8292402e-02   5.1419608e+00   1.1997825e-01  -2.4577864e+08
   2.0606869e-10  -4.8047116e-02   5.1315835e+00   1.2204347e-01  -2.4463703e+08
   2.0706902e-10  -4.7802969e-02   5.1211835e+00   1.2413217e-01  -2.4349891e+08
   2.0806936e-10  -4.7559959e-02   5.1107616e+00   1.2624438e-01  -2.4236430e+08
   2.0906969e-10  -4.7318083e-02   5.1003182e+00   1.2838014e-01  -2.4123322e+08
   2.1007002e-10  -4.7077336e-02   5.0898541e+00   1.3053948e-01  -2.4010567e+08
   2.1107036e-10  -4.6837715e-02   5.0793699e+00   1.3272242e-01  -2.3898168e+08
   2.1207069e-10  -4.6599217e-02   5.0688662e+00   1.3492898e-01  -2.3786126e+08
   2.1307102e-10  -4.6361838e-02   5.0583435e+00   1.3715918e-01  -2.3674442e+08
   2.1407136e-10  -4.6125575e-02   5.0478026e+00   1.3941303e-01  -2.3563118e+08
   2.1507169e-10  -4.5890423e-02   5.0372441e+00   1.4169055e-01  -2.3452155e+08
   2.1607202e-10  -4.5656379e-02   5.0266685e+00   1.4399173e-01  -2.3341554e+08
   2.1707236e-10  -4.5423440e-02   5.0160764e+00   1.4631659e-01  -2.3231317e+08
   2.1807269e-10  -4.5191602e-02   5.0054686e+00   1.4866511e-01  -2.3121445e+08
   2.1907302e-10  -4.4960861e-02   4.9948456e+00   1.5103729e-01  -2.3011940e+08
   2.2007336e-10  -4.4731214e-02   4.9842081e+00   1.5343313e-01  -2.2902801e+08
   2.2107369e-10  -4.4502657e-02   4.9735566e+00   1.5585260e-01  -2.2794032e+08
   2.2207402e-10  -4.4275186e-02   4.9628918e+00   1.5829570e-01  -2.2685632e+08
   2.2307436e-10  -4.4048797e-02   4.9522143e+00   1.6076239e-01  -2.2577602e+08
   2.2407469e-10  -4.3823488e-02   4.9415248e+00   1.6325266e-01  -2.2469945e+08
   2.2507503e-10  -4.3599253e-02   4.9308237e+00   1.6576648e-01  -2.2362661e+08
   2.2607536e-10  -4.3376090e-02   4.9201118e+00   1.6830381e-01  -2.2255750e+08
   2.2707569e-10  -4.3153994e-02   4.9093896e+00   1.7086461e-01  -2.2149214e+08
   2.2807603e-10  -4.2932962e-02   4.8986578e+00   1.7344885e-01  -2.2043054e+08
   2.2907636e-10  -4.2712991e-02   4.8879170e+00   1.7605648e-01  -2.1937271e+08
   2.3007669e-10  -4.2494075e-02   4.8771677e+00   1.7868745e-01  -2.1831865e+08
   2.3107703e-10  -4.2276212e-02   4.8664106e+00   1.8134172e-01  -2.1726837e+08
   2.3207736e-10  -4.2059398e-02   4.8556463e+00   1.8401922e-01  -2.1622189e+08
   2.3307769e-10  -4.1843629e-02   4.8448754e+00   1.8671990e-01  -2.1517920e+08
   2.3407803e-10  -4.1628901e-02   4.8340984e+00   1.8944369e-01  -2.1414032e+08
   2.3507836e-10  -4.1415210e-02   4.8233160e+00   1.9219053e-01  -2.1310525e+08
   2.3607869e-10  -4.1202553e-02   4.8125288e+00   1.9496034e-01  -2.1207400e+08
   2.3707903e-10  -4.0990926e-02   4.8017373e+00   1.9775306e-01  -2.1104658e+08
   2.3807936e-10  -4.0780324e-02   4.7909422e+00   2.0056861e-01  -2.1002299e+08
   2.3907969e-10  -4.0570745e-02   4.7801439e+00   2.0340690e-01  -2.0900324e+08
   2.4008003e-10  -4.0362183e-02   4.7693432e+00   2.0626785e-01  -2.0798733e+08
   2.4108036e-10  -4.0154636e-02   4.7585405e+00   2.0915137e-01  -2.0697526e+08
   2.4208069e-10  -3.9948100e-02   4.7477365e+00   2.1205738e-01  -2.0596705e+08
   2.4308103e-10  -3.9742570e-02   4.7369316e+00   2.1498577e-01  -2.0496270e+08
   2.4408136e-10  -3.9538043e-02   4.7261266e+00   2.1793645e-01  -2.0396220e+08
   2.4508169e-10  -3.9334515e-02   4.7153219e+00   2.2090932e-01  -2.0296557e+08
   2.4608203e-10  -3.9131982e-02   4.7045181e+00   2.2390427e-01  -2.0197281e+08
   2.4708236e-10  -3.8930440e-02   4.6937158e+00   2.2692120e-01  -2.0098391e+08
   2.4808269e-10  -3.8729885e-02   4.6829154e+00   2.2995998e-01  -1.9999889e+08
   2.4908303e-10  -3.8530314e-02   4.6721176e+00   2.3302052e-01  -1.9901775e+08
   2.5008336e-10  -3.8331723e-02   4.6613230e+00   2.3610269e-01  -1.9804048e+08
   2.5108369e-10  -3.8134107e-02   4.6505319e+00   2.3920636e-01  -1.9706709e+08
   2.5208403e-10  -3.7937463e-02   4.6397450e+00   2.4233143e-01  -1.9609758e+08
   2.5308436e-10  -3.7741786e-02   4.6289628e+00   2.4547775e-01  -1.9513196e+08
   2.5408469e-10  -3.7547074e-02   4.6181859e+00   2.4864520e-01  -1.9417022e+08
   2.5508503e-10  -3.7353322e-02   4.6074147e+00   2.5183365e-01  -1.9321236e+08
   2.5608536e-10  -3.7160526e-02   4.5966498e+00   2.5504297e-01  -1.9225838e+08
   2.5708570e-10  -3.6968683e-02   4.5858916e+00   2.5827300e-01  -1.9130829e+08
   2.5808603e-10  -3.6777788e-02   4.5751407e+00   2.6152362e-01  -1.9036208e+08
   2.5908636e-10  -3.6587838e-02   4.5643977e+00   2.6479467e-01  -1.8941976e+08
   2.6008670e-10  -3.6398828e-02   4.5536629e+00   2.6808602e-01  -1.8848132e+08
   2.6108703e-10  -3.6210755e-02   4.5429369e+00   2.7139750e-01  -1.8754676e+08
   2.6208736e-10  -3.6023616e-02   4.5322202e+00   2.7472898e-01  -1.8661608e+08
   2.6308770e-10  -3.5837405e-02   4.5215132e+00   2.7808029e-01  -1.8568927e+08
   2.6408803e-10  -3.5652119e-02   4.5108165e+00   2.8145128e-01  -1.8476635e+08
   2.6508836e-10  -3.5467755e-02   4.5001305e+00   2.8484179e-01  -1.8384730e+08
   2.6608870e-10  -3.5284308e-02   4.4894556e+00   2.8825166e-01  -1.8293212e+08
   2.6708903e-10  -3.5101775e-02   4.4787925e+00   2.9168071e-01  -1.8202081e+08
   2.6808936e-10  -3.4920152e-02   4.4681414e+00   2.9512880e-01  -1.8111336e+08
   2.6908970e-10  -3.4739434e-02   4.4575029e+00   2.9859574e-01  -1.8020978e+08
   2.7009003e-10  -3.4559618e-02   4.4468774e+00   3.0208138e-01  -1.7931006e+08
   2.7109036e-10  -3.4380701e-02   4.4362653e+00   3.0558552e-01  -1.7841419e+08
   2.7209070e-10  -3.4202677e-02   4.4256672e+00   3.0910801e-01  -1.7752218e+08
   2.7309103e-10  -3.4025544e-02   4.4150834e+00   3.1264865e-01  -1.7663401e+08
   2.7409136e-10  -3.3849298e-02   4.4045143e+00   3.1620728e-01  -1.7574969e+08
   2.7509170e-10  -3.3673934e-02   4.3939605e+00   3.1978372e-01  -1.7486920e+08
   2.7609203e-10  -3.3499449e-02   4.3834222e+00   3.2337777e-01  -1.7399255e+08
   2.7709236e-10  -3.3325840e-02   4.3728999e+00   3.2698926e-01  -1.7311973e+08
   2.7809270e-10  -3.3153101e-02   4.3623941e+00   3.3061799e-01  -1.7225073e+08
   2.7909303e-10  -3.2981230e-02   4.3519050e+00   3.3426379e-01  -1.7138555e+08
   2.8009336e-10  -3.2810222e-02   4.3414332e+00   3.3792646e-01  -1.7052419e+08
   2.8109370e-10  -3.2640074e-02   4.3309790e+00   3.4160580e-01  -1.6966663e+08
   2.8209403e-10  -3.2470783e-02   4.3205428e+00   3.4530164e-01  -1.6881287e+08
   2.8309436e-10  -3.2302343e-02   4.3101250e+00   3.4901376e-01  -1.6796290e+08
   2.8409470e-10  -3.2134752e-02   4.2997259e+00   3.5274198e-01  -1.6711672e+08
   2.8509503e-10  -3.1968005e-02   4.2893459e+00   3.5648611e-01  -1.6627433e+08
   2.8609537e-10  -3.1802099e-02   4.2789854e+00   3.6024593e-01  -1.6543570e+08
   2.8709570e-10  -3.1637030e-02   4.2686448e+00   3.6402126e-01  -1.6460084e+08
   2.8809603e-10  -3.1472794e-02   4.2583243e+00   3.6781188e-01  -1.6376975e+08
   2.8909637e-10  -3.1309388e-02   4.2480244e+00   3.7161761e-01  -1.6294240e+08
   2.9009670e-10  -3.1146808e-02   4.2377454e+00   3.7543823e-01  -1.6211880e+08
   2.9109703e-10  -3.0985049e-02   4.2274876e+00   3.7927354e-01  -1.6129894e+08
   2.9209737e-10  -3.0824109e-02   4.2172513e+00   3.8312334e-01  -1.6048280e+08
   2.9309770e-10  -3.0663983e-02   4.2070369e+00   3.8698741e-01  -1.5967039e+08
   2.9409803e-10  -3.0504669e-02   4.1968447e+00   3.9086557e-01  -1.5886169e+08
   2.9509837e-10  -3.0346161e-02   4.1866750e+00   3.9475758e-01  -1.5805669e+08
   2.9609870e-10  -3.0188457e-02   4.1765282e+00   3.9866325e-01  -1.5725538e+08
   2.9709903e-10  -3.0031552e-02   4.1664045e+00   4.0258237e-01  -1.5645777e+08
   2.9809937e-10  -2.9875444e-02   4.1563042e+00   4.0651473e-01  -1.5566383e+08
   2.9909970e-10  -2.9720128e-02   4.1462276e+00   4.1046011e-01  -1.5487355e+08
   3.0010003e-10  -2.9565601e-02   4.1361750e+00   4.1441830e-01  -1.5408694e+08
   3.0110037e-10  -2.9411858e-02   4.1261468e+00   4.1838910e-01  -1.5330398e+08
   3.0210070e-10  -2.9258897e-02   4.1161431e+00   4.2237229e-01  -1.5252466e+08
   3.0310103e-10  -2.9106714e-02   4.1061642e+00   4.2636765e-01  -1.5174896e+08
   3.0410137e-10  -2.8955305e-02   4.0962105e+00   4.3037498e-01  -1.5097689e+08
   3.0510170e-10  -2.8804667e-02   4.0862821e+00   4.3439406e-01  -1.5020843e+08
   3.0610203e-10  -2.8654795e-02   4.0763793e+00   4.3842467e-01  -1.4944357e+08
   3.0710237e-10  -2.8505687e-02   4.0665025e+00   4.4246660e-01  -1.4868231e+08
   3.0810270e-10  -2.8357338e-02   4.0566517e+00   4.4651965e-01  -1.4792462e+08
   3.0910303e-10  -2.8209746e-02   4.0468274e+00   4.5058358e-01  -1.4717050e+08
   3.1010337e-10  -2.8062906e-02   4.0370296e+00   4.5465819e-01  -1.4641994e+08
   3.1110370e-10  -2.7916815e-02   4.0272587e+00   4.5874327e-01  -1.4567293e+08
   3.1210403e-10  -2.7771470e-02   4.0175148e+00   4.6283859e-01  -1.4492946e+08
   3.1310437e-10  -2.7626867e-02   4.0077982e+00   4.6694395e-01  -1.4418952e+08
   3.1410470e-10  -2.7483002e-02   3.9981092e+00   4.7105912e-01  -1.4345310e+08
   3.1510504e-10  -2.7339872e-02   3.9884478e+00   4.7518390e-01  -1.4272018e+08
   3.1610537e-10  -2.7197473e-02   3.9788144e+00   4.7931806e-01  -1.4199075e+08
   3.1710570e-10  -2.7055803e-02   3.9692090e+00   4.8346140e-01  -1.4126481e+08
   3.1810604e-10  -2.6914856e-02   3.9596320e+00   4.8761370e-01  -1.4054234e+08
   3.1910637e-10  -2.6774631e-02   3.9500836e+00   4.9177474e-01  -1.3982334e+08
   3.2010670e-10  -2.6635123e-02   3.9405638e+00   4.9594431e-01  -1.3910778e+08
   3.2110704e-10  -2.6496330e-02   3.9310729e+00   5.0012221e-01  -1.3839566e+08
   3.2210737e-10  -2.6358247e-02   3.9216110e+00   5.0430820e-01  -1.3768697e+08
   3.2310770e-10  -2.6220871e-02   3.9121784e+00   5.0850209e-01  -1.3698169e+08
   3.2410804e-10  -2.6084199e-02   3.9027752e+00   5.1270366e-01  -1.3627981e+08
   3.2510837e-10  -2.5948227e-02   3.8934016e+00   5.1691269e-01  -1.3558133e+08
   3.2610870e-10  -2.5812952e-02   3.8840576e+00   5.2112898e-01  -1.3488623e+08
   3.2710904e-10  -2.5678371e-02   3.8747436e+00   5.2535232e-01  -1.3419449e+08
   3.2810937e-10  -2.5544481e-02   3.8654596e+00   5.2958249e-01  -1.3350611e+08
   3.2910970e-10  -2.5411277e-02   3.8562058e+00   5.3381929e-01  -1.3282108e+08
   3.3011004e-10  -2.5278756e-02   3.8469823e+00   5.3806250e-01  -1.3213937e+08
   3.3111037e-10  -2.5146916e-02   3.8377892e+00   5.4231192e-01  -1.3146099e+08
   3.3211070e-10  -2.5015753e-02   3.8286268e+00   5.4656733e-01  -1.3078591e+08
   3.3311104e-10  -2.4885264e-02   3.8194950e+00   5.5082855e-01  -1.3011413e+08
   3.3411137e-10  -2.4755445e-02   3.8103941e+00   5.5509534e-01  -1.2944563e+08
   3.3511170e-10  -2.4626293e-02   3.8013242e+00   5.5936752e-01  -1.2878040e+08
   3.3611204e-10  -2.4497805e-02   3.7922854e+00   5.6364487e-01  -1.2811843e+08
   3.3711237e-10  -2.4369977e-02   3.7832777e+00   5.6792720e-01  -1.2745971e+08
   3.3811270e-10  -2.4242807e-02   3.7743014e+00   5.7221429e-01  -1.2680422e+08
   3.3911304e-10  -2.4116290e-02   3.7653564e+00   5.7650595e-01  -1.2615195e+08
   3.4011337e-10  -2.3990425e-02   3.7564430e+00   5.8080198e-01  -1.2550289e+08
   3.4111370e-10  -2.3865207e-02   3.7475612e+00   5.8510217e-01  -1.2485703e+08
   3.4211404e-10  -2.3740634e-02   3.7387111e+00   5.8940633e-01  -1.2421434e+08
   3.4311437e-10  -2.3616702e-02   3.7298927e+00   5.9371425e-01  -1.2357483e+08
   3.4411470e-10  -2.3493408e-02   3.7211063e+00   5.9802575e-01  -1.2293848e+08
   3.4511504e-10  -2.3370749e-02   3.7123518e+00   6.0234062e-01  -1.2230528e+08
   3.4611537e-10  -2.3248722e-02   3.7036293e+00   6.0665866e-01  -1.2167520e+08
   3.4711571e-10  -2.3127324e-02   3.6949389e+00   6.1097969e-01  -1.2104825e+08
   3.4811604e-10  -2.3006551e-02   3.6862807e+00   6.1530351e-01  -1.2042441e+08
   3.4911637e-10  -2.2886401e-02   3.6776548e+00   6.1962993e-01  -1.1980366e+08
   3.5011671e-10  -2.2766870e-02   3.6690612e+00   6.2395876e-01  -1.1918599e+08
   3.5111704e-10  -2.2647955e-02   3.6604999e+00   6.2828981e-01  -1.1857139e+08
   3.5211737e-10  -2.2529654e-02   3.6519710e+00   6.3262288e-01  -1.1795985e+08
   3.5311771e-10  -2.2411963e-02   3.6434747e+00   6.3695780e-01  -1.1735135e+08
   3.5411804e-10  -2.2294879e-02   3.6350108e+00   6.4129437e-01  -1.1674588e+08
   3.5511837e-10  -2.2178399e-02   3.6265796e+00   6.4563242e-01  -1.1614344e+08
   3.5611871e-10  -2.2062520e-02   3.6181809e+00   6.4997175e-01  -1.1554399e+08
   3.5711904e-10  -2.1947240e-02   3.6098149e+00   6.5431219e-01  -1.1494755e+08
   3.5811937e-10  -2.1832554e-02   3.6014816e+00   6.5865355e-01  -1.1435408e+08
   3.5911971e-10  -2.1718461e-02   3.5931811e+00   6.6299565e-01  -1.1376358e+08
   3.6012004e-10  -2.1604957e-02   3.5849132e+00   6.6733832e-01  -1.1317603e+08
   3.6112037e-10  -2.1492039e-02   3.5766782e+00   6.7168138e-01  -1.1259143e+08
   3.6212071e-10  -2.1379705e-02   3.5684760e+00   6.7602465e-01  -1.1200975e+08
   3.6312104e-10  -2.1267950e-02   3.5603066e+00   6.8036795e-01  -1.1143099e+08
   3.6412137e-10  -2.1156774e-02   3.5521701e+00   6.8471112e-01  -1.1085514e+08
   3.6512171e-10  -2.1046172e-02   3.5440665e+00   6.8905398e-01  -1.1028218e+08
   3.6612204e-10  -2.0936141e-02   3.5359957e+00   6.9339636e-01  -1.0971209e+08
   3.6712237e-10  -2.0826680e-02   3.5279578e+00   6.9773810e-01  -1.0914487e+08
   3.6812271e-10  -2.0717784e-02   3.5199529e+00   7.0207901e-01  -1.0858050e+08
   3.6912304e-10  -2.0609451e-02   3.5119808e+00   7.0641895e-01  -1.0801898e+08
   3.7012337e-10  -2.0501679e-02   3.5040417e+00   7.1075774e-01  -1.0746028e+08
   3.7112371e-10  -2.0394464e-02   3.4961354e+00   7.1509521e-01  -1.0690439e+08
   3.7212404e-10  -2.0287804e-02   3.4882621e+00   7.1943122e-01  -1.0635131e+08
   3.7312437e-10  -2.0181696e-02   3.4804217e+00   7.2376559e-01  -1.0580102e+08
   3.7412471e-10  -2.0076137e-02   3.4726141e+00   7.2809816e-01  -1.0525351e+08
   3.7512504e-10  -1.9971124e-02   3.4648395e+00   7.3242879e-01  -1.0470875e+08
   3.7612538e-10  -1.9866654e-02   3.4570977e+00   7.3675731e-01  -1.0416676e+08
   3.7712571e-10  -1.9762725e-02   3.4493888e+00   7.4108356e-01  -1.0362750e+08
   3.7812604e-10  -1.9659335e-02   3.4417127e+00   7.4540740e-01  -1.0309096e+08
   3.7912638e-10  -1.9556480e-02   3.4340694e+00   7.4972867e-01  -1.0255715e+08
   3.8012671e-10  -1.9454157e-02   3.4264589e+00   7.5404722e-01  -1.0202603e+08
   3.8112704e-10  -1.9352364e-02   3.4188812e+00   7.5836290e-01  -1.0149760e+08
   3.8212738e-10  -1.9251099e-02   3.4113363e+00   7.6267557e-01  -1.0097185e+08
   3.8312771e-10  -1.9150358e-02   3.4038241e+00   7.6698508e-01  -1.0044877e+08
   3.8412804e-10  -1.9050139e-02   3.3963445e+00   7.7129128e-01  -9.9928334e+07
   3.8512838e-10  -1.8950439e-02   3.3888977e+00   7.7559402e-01  -9.9410540e+07
   3.8612871e-10  -1.8851256e-02   3.3814834e+00   7.7989318e-01  -9.8895375e+07
   3.8712904e-10  -1.8752587e-02   3.3741018e+00   7.8418861e-01  -9.8382825e+07
   3.8812938e-10  -1.8654429e-02   3.3667526e+00   7.8848016e-01  -9.7872877e+07
   3.8912971e-10  -1.8556780e-02   3.3594360e+00   7.9276771e-01  -9.7365521e+07
   3.9013004e-10  -1.8459637e-02   3.3521519e+00   7.9705112e-01  -9.6860743e+07
   3.9113038e-10  -1.8362998e-02   3.3449002e+00   8.0133025e-01  -9.6358532e+07
   3.9213071e-10  -1.8266860e-02   3.3376808e+00   8.0560496e-01  -9.5858875e+07
   3.9313104e-10  -1.8171221e-02   3.3304938e+00   8.0987514e-01  -9.5361760e+07
   3.9413138e-10  -1.8076077e-02   3.3233391e+00   8.1414064e-01  -9.4867176e+07
   3.9513171e-10  -1.7981427e-02   3.3162166e+00   8.1840135e-01  -9.4375109e+07
   3.9613204e-10  -1.7887268e-02   3.3091263e+00   8.2265712e-01  -9.3885549e+07
   3.9713238e-10  -1.7793597e-02   3.3020681e+00   8.2690785e-01  -9.3398484e+07
   3.9813271e-10  -1.7700413e-02   3.2950419e+00   8.3115340e-01  -9.2913900e+07
   3.9913304e-10  -1.7607711e-02   3.2880478e+00   8.3539365e-01  -9.2431787e+07
   4.0013338e-10  -1.7515491e-02   3.2810856e+00   8.3962848e-01  -9.1952133e+07
   4.0113371e-10  -1.7423750e-02   3.2741554e+00   8.4385778e-01  -9.1474925e+07
   4.0213404e-10  -1.7332484e-02   3.2672569e+00   8.4808142e-01  -9.1000153e+07
   4.0313438e-10  -1.7241692e-02   3.2603902e+00   8.5229929e-01  -9.0527804e+07
   4.0413471e-10  -1.7151372e-02   3.2535552e+00   8.5651126e-01  -9.0057866e+07
   4.0513505e-10  -1.7061520e-02   3.2467519e+00   8.6071724e-01  -8.9590328e+07
   4.0613538e-10  -1.6972135e-02   3.2399801e+00   8.6491711e-01  -8.9125179e+07
   4.0713571e-10  -1.6883214e-02   3.2332398e+00   8.6911075e-01  -8.8662406e+07
   4.0813605e-10  -1.6794754e-02   3.2265309e+00   8.7329806e-01  -8.8201999e+07
   4.0913638e-10  -1.6706754e-02   3.2198534e+00   8.7747893e-01  -8.7743946e+07
   4.1013671e-10  -1.6619211e-02   3.2132072e+00   8.8165325e-01  -8.7288234e+07
   4.1113705e-10  -1.6532123e-02   3.2065922e+00   8.8582092e-01  -8.6834854e+07
   4.1213738e-10  -1.6445487e-02   3.2000083e+00   8.8998184e-01  -8.6383793e+07
   4.1313771e-10  -1.6359301e-02   3.1934555e+00   8.9413589e-01  -8.5935040e+07
   4.1413805e-10  -1.6273563e-02   3.1869336e+00   8.9828300e-01  -8.5488584e+07
   4.1513838e-10  -1.6188270e-02   3.1804427e+00   9.0242304e-01  -8.5044414e+07
   4.1613871e-10  -1.6103421e-02   3.1739826e+00   9.0655594e-01  -8.4602518e+07
   4.1713905e-10  -1.6019012e-02   3.1675532e+00   9.1068158e-01  -8.4162886e+07
   4.1813938e-10  -1.5935042e-02   3.1611545e+00   9.1479988e-01  -8.3725505e+07
   4.1913971e-10  -1.5851508e-02   3.1547864e+00   9.1891074e-01  -8.3290366e+07
   4.2014005e-10  -1.5768409e-02   3.1484487e+00   9.2301407e-01  -8.2857457e+07
   4.2114038e-10  -1.5685741e-02   3.1421415e+00   9.2710978e-01  -8.2426766e+07
   4.2214071e-10  -1.5603503e-02   3.1358646e+00   9.3119778e-01  -8.1998284e+07
   4.2314105e-10  -1.5521692e-02   3.1296179e+00   9.3527798e-01  -8.1571999e+07
   4.2414138e-10  -1.5440307e-02   3.1234014e+00   9.3935029e-01  -8.1147900e+07
   4.2514171e-10  -1.5359345e-02   3.1172150e+00   9.4341464e-01  -8.0725977e+07
   4.2614205e-10  -1.5278804e-02   3.1110585e+00   9.4747093e-01  -8.0306218e+07
   4.2714238e-10  -1.5198682e-02   3.1049320e+00   9.5151909e-01  -7.9888614e+07
   4.2814271e-10  -1.5118977e-02   3.0988352e+00   9.5555903e-01  -7.9473152e+07
   4.2914305e-10  -1.5039685e-02   3.0927681e+00   9.5959067e-01  -7.9059824e+07
   4.3014338e-10  -1.4960807e-02   3.0867306e+00   9.6361393e-01  -7.8648617e+07
   4.3114371e-10  -1.4882338e-02   3.0807227e+00   9.6762875e-01  -7.8239522e+07
   4.3214405e-10  -1.4804278e-02   3.0747442e+00   9.7163503e-01  -7.7832528e+07
   4.3314438e-10  -1.4726624e-02   3.0687950e+00   9.7563271e-01  -7.7427624e+07
   4.3414471e-10  -1.4649374e-02   3.0628751e+00   9.7962172e-01  -7.7024800e+07
   4.3514505e-10  -1.4572525e-02   3.0569843e+00   9.8360197e-01  -7.6624046e+07
   4.3614538e-10  -1.4496077e-02   3.0511225e+00   9.8757341e-01  -7.6225352e+07
   4.3714572e-10  -1.4420026e-02   3.0452898e+00   9.9153595e-01  -7.5828706e+07
   4.3814605e-10  -1.4344371e-02   3.0394858e+00   9.9548954e-01  -7.5434100e+07
   4.3914638e-10  -1.4269110e-02   3.0337106e+00   9.9943410e-01  -7.5041522e+07
   4.4014672e-10  -1.4194240e-02   3.0279641e+00   1.0033696e+00  -7.4650962e+07
   4.4114705e-10  -1.4119760e-02   3.0222462e+00   1.0072959e+00  -7.4262411e+07
   4.4214738e-10  -1.4045668e-02   3.0165567e+00   1.0112130e+00  -7.3875858e+07
   4.4314772e-10  -1.3971962e-02   3.0108956e+00   1.0151208e+00  -7.3491293e+07
   4.4414805e-10  -1.3898639e-02   3.0052627e+00   1.0190193e+00  -7.3108707e+07
   4.4514838e-10  -1.3825698e-02   2.9996580e+00   1.0229084e+00  -7.2728089e+07
   4.4614872e-10  -1.3753136e-02   2.9940814e+00   1.0267880e+00  -7.2349430e+07
   4.4714905e-10  -1.3680952e-02   2.9885327e+00   1.0306581e+00  -7.1972719e+07
   4.4814938e-10  -1.3609145e-02   2.9830119e+00   1.0345186e+00  -7.1597946e+07
   4.4914972e-10  -1.3537711e-02   2.9775188e+00   1.0383695e+00  -7.1225103e+07
   4.5015005e-10  -1.3466649e-02   2.9720534e+00   1.0422107e+00  -7.0854180e+07
   4.5115038e-10  -1.3395957e-02   2.9666156e+00   1.0460422e+00  -7.0485166e+07
   4.5215072e-10  -1.3325633e-02   2.9612052e+00   1.0498639e+00  -7.0118052e+07
   4.5315105e-10  -1.3255676e-02   2.9558222e+00   1.0536757e+00  -6.9752828e+07
   4.5415138e-10  -1.3186083e-02   2.9504664e+00   1.0574777e+00  -6.9389485e+07
   4.5515172e-10  -1.3116853e-02   2.9451377e+00   1.0612697e+00  -6.9028014e+07
   4.5615205e-10  -1.3047983e-02   2.9398361e+00   1.0650518e+00  -6.8668405e+07
   4.5715238e-10  -1.2979472e-02   2.9345614e+00   1.0688238e+00  -6.8310649e+07
   4.5815272e-10  -1.2911318e-02   2.9293136e+00   1.0725858e+00  -6.7954735e+07
   4.5915305e-10  -1.2843519e-02   2.9240924e+00   1.0763376e+00  -6.7600656e+07
   4.6015338e-10  -1.2776073e-02   2.9188979e+00   1.0800793e+00  -6.7248401e+07
   4.6115372e-10  -1.2708978e-02   2.9137299e+00   1.0838107e+00  -6.6897961e+07
   4.6215405e-10  -1.2642234e-02   2.9085883e+00   1.0875319e+00  -6.6549328e+07
   4.6315438e-10  -1.2575837e-02   2.9034730e+00   1.0912429e+00  -6.6202492e+07
   4.6415472e-10  -1.2509786e-02   2.8983840e+00   1.0949435e+00  -6.5857444e+07
   4.6515505e-10  -1.2444080e-02   2.8933210e+00   1.0986337e+00  -6.5514175e+07
   4.6615539e-10  -1.2378716e-02   2.8882840e+00   1.1023136e+00  -6.5172675e+07
   4.6715572e-10  -1.2313692e-02   2.8832728e+00   1.1059830e+00  -6.4832937e+07
   4.6815605e-10  -1.2249008e-02   2.8782875e+00   1.1096420e+00  -6.4494950e+07
   4.6915639e-10  -1.2184661e-02   2.8733278e+00   1.1132904e+00  -6.4158707e+07
   4.7015672e-10  -1.2120649e-02   2.8683937e+00   1.1169283e+00  -6.3824198e+07
   4.7115705e-10  -1.2056971e-02   2.8634850e+00   1.1205557e+00  -6.3491414e+07
   4.7215739e-10  -1.1993625e-02   2.8586017e+00   1.1241724e+00  -6.3160347e+07
   4.7315772e-10  -1.1930610e-02   2.8537436e+00   1.1277786e+00  -6.2830988e+07
   4.7415805e-10  -1.1867923e-02   2.8489107e+00   1.1313740e+00  -6.2503329e+07
   4.7515839e-10  -1.1805563e-02   2.8441028e+00   1.1349588e+00  -6.2177360e+07
   4.7615872e-10  -1.1743528e-02   2.8393198e+00   1.1385329e+00  -6.1853073e+07
   4.7715905e-10  -1.1681816e-02   2.8345617e+00   1.1420962e+00  -6.1530460e+07
   4.7815939e-10  -1.1620427e-02   2.8298283e+00   1.1456487e+00  -6.1209511e+07
   4.7915972e-10  -1.1559358e-02   2.8251194e+00   1.1491905e+00  -6.0890220e+07
   4.8016005e-10  -1.1498607e-02   2.8204351e+00   1.1527214e+00  -6.0572576e+07
   4.8116039e-10  -1.1438173e-02   2.8157751e+00   1.1562416e+00  -6.0256572e+07
   4.8216072e-10  -1.1378055e-02   2.8111395e+00   1.1597508e+00  -5.9942200e+07
   4.8316105e-10  -1.1318250e-02   2.8065280e+00   1.1632492e+00  -5.9629450e+07
   4.8416139e-10  -1.1258757e-02   2.8019406e+00   1.1667366e+00  -5.9318316e+07
   4.8516172e-10  -1.1199575e-02   2.7973772e+00   1.1702132e+00  -5.9008788e+07
   4.8616205e-10  -1.1140701e-02   2.7928376e+00   1.1736788e+00  -5.8700859e+07
   4.8716239e-10  -1.1082135e-02   2.7883218e+00   1.1771334e+00  -5.8394519e+07
   4.8816272e-10  -1.1023874e-02   2.7838296e+00   1.1805771e+00  -5.8089763e+07
   4.8916305e-10  -1.0965918e-02   2.7793610e+00   1.1840098e+00  -5.7786580e+07
   4.9016339e-10  -1.0908264e-02   2.7749158e+00   1.1874315e+00  -5.7484963e+07
   4.9116372e-10  -1.0850910e-02   2.7704940e+00   1.1908421e+00  -5.7184904e+07
   4.9216405e-10  -1.0793856e-02   2.7660954e+00   1.1942417e+00  -5.6886396e+07
   4.9316439e-10  -1.0737100e-02   2.7617199e+00   1.1976303e+00  -5.6589430e+07
   4.9416472e-10  -1.0680641e-02   2.7573674e+00   1.2010078e+00  -5.6293998e+07
   4.9516506e-10  -1.0624476e-02   2.7530379e+00   1.2043742e+00  -5.6000093e+07
   4.9616539e-10  -1.0568604e-02   2.7487311e+00   1.2077295e+00  -5.5707707e+07
   4.9716572e-10  -1.0513024e-02   2.7444471e+00   1.2110737e+00  -5.5416832e+07
   4.9816606e-10  -1.0457734e-02   2.7401856e+00   1.2144069e+00  -5.5127460e+07
   4.9916639e-10  -1.0402733e-02   2.7359467e+00   1.2177289e+00  -5.4839584e+07
   5.0016672e-10  -1.0348019e-02   2.7317301e+00   1.2210397e+00  -5.4553196e+07
   5.0116706e-10  -1.0293591e-02   2.7275358e+00   1.2243395e+00  -5.4268288e+07
   5.0216739e-10  -1.0239447e-02   2.7233637e+00   1.2276281e+00  -5.3984853e+07
   5.0316772e-10  -1.0185586e-02   2.7192137e+00   1.2309056e+00  -5.3702884e+07
   5.0416806e-10  -1.0132006e-02   2.7150857e+00   1.2341719e+00  -5.3422372e+07
   5.0516839e-10  -1.0078706e-02   2.7109795e+00   1.2374270e+00  -5.3143311e+07
   5.0616872e-10  -1.0025685e-02   2.7068952e+00   1.2406710e+00  -5.2865693e+07
   5.0716906e-10  -9.9729404e-03   2.7028324e+00   1.2439038e+00  -5.2589511e+07
   5.0816939e-10  -9.9204714e-03   2.6987913e+00   1.2471255e+00  -5.2314757e+07
   5.0916972e-10  -9.8682766e-03   2.6947716e+00   1.2503360e+00  -5.2041424e+07
   5.1017006e-10  -9.8163545e-03   2.6907733e+00   1.2535353e+00  -5.1769505e+07
   5.1117039e-10  -9.7647036e-03   2.6867962e+00   1.2567234e+00  -5.1498992e+07
   5.1217072e-10  -9.7133227e-03   2.6828403e+00   1.2599003e+00  -5.1229879e+07
   5.1317106e-10  -9.6622103e-03   2.6789054e+00   1.2630661e+00  -5.0962158e+07
   5.1417139e-10  -9.6113649e-03   2.6749915e+00   1.2662207e+00  -5.0695822e+07
   5.1517172e-10  -9.5607853e-03   2.6710985e+00   1.2693641e+00  -5.0430864e+07
   5.1617206e-10  -9.5104701e-03   2.6672262e+00   1.2724964e+00  -5.0167277e+07
   5.1717239e-10  -9.4604178e-03   2.6633745e+00   1.2756175e+00  -4.9905054e+07
   5.1817272e-10  -9.4106272e-03   2.6595434e+00   1.2787274e+00  -4.9644188e+07
   5.1917306e-10  -9.3610968e-03   2.6557328e+00   1.2818261e+00  -4.9384672e+07
   5.2017339e-10  -9.3118254e-03   2.6519425e+00   1.2849137e+00  -4.9126499e+07
   5.2117372e-10  -9.2628115e-03   2.6481725e+00   1.2879901e+00  -4.8869663e+07
   5.2217406e-10  -9.2140539e-03   2.6444226e+00   1.2910554e+00  -4.8614156e+07
   5.2317439e-10  -9.1655512e-03   2.6406928e+00   1.2941095e+00  -4.8359971e+07
   5.2417472e-10  -9.1173021e-03   2.6369829e+00   1.2971524e+00  -4.8107103e+07
   5.2517506e-10  -9.0693053e-03   2.6332929e+00   1.3001843e+00  -4.7855544e+07
   5.2617539e-10  -9.0215595e-03   2.6296227e+00   1.3032050e+00  -4.7605287e+07
   5.2717573e-10  -8.9740634e-03   2.6259721e+00   1.3062146e+00  -4.7356326e+07
   5.2817606e-10  -8.9268157e-03   2.6223411e+00   1.3092130e+00  -4.7108654e+07
   5.2917639e-10  -8.8798150e-03   2.6187296e+00   1.3122004e+00  -4.6862265e+07
   5.3017673e-10  -8.8330602e-03   2.6151375e+00   1.3151766e+00  -4.6617151e+07
   5.3117706e-10  -8.7865500e-03   2.6115646e+00   1.3181418e+00  -4.6373308e+07
   5.3217739e-10  -8.7402830e-03   2.6080109e+00   1.3210959e+00  -4.6130727e+07
   5.3317773e-10  -8.6942581e-03   2.6044763e+00   1.3240389e+00  -4.5889402e+07
   5.3417806e-10  -8.6484739e-03   2.6009607e+00   1.3269709e+00  -4.5649328e+07
   5.3517839e-10  -8.6029293e-03   2.5974640e+00   1.3298918e+00  -4.5410498e+07
   5.3617873e-10  -8.5576229e-03   2.5939861e+00   1.3328016e+00  -4.5172905e+07
   5.3717906e-10  -8.5125536e-03   2.5905268e+00   1.3357005e+00  -4.4936542e+07
   5.3817939e-10  -8.4677201e-03   2.5870863e+00   1.3385883e+00  -4.4701405e+07
   5.3917973e-10  -8.4231213e-03   2.5836642e+00   1.3414651e+00  -4.4467486e+07
   5.4018006e-10  -8.3787558e-03   2.5802605e+00   1.3443309e+00  -4.4234779e+07
   5.4118039e-10  -8.3346225e-03   2.5768752e+00   1.3471858e+00  -4.4003278e+07
   5.4218073e-10  -8.2907201e-03   2.5735081e+00   1.3500297e+00  -4.3772977e+07
   5.4318106e-10  -8.2470475e-03   2.5701592e+00   1.3528626e+00  -4.3543869e+07
   5.4418139e-10  -8.2036035e-03   2.5668283e+00   1.3556846e+00  -4.3315949e+07
   5.4518173e-10  -8.1603870e-03   2.5635154e+00   1.3584957e+00  -4.3089211e+07
   5.4618206e-10  -8.1173966e-03   2.5602204e+00   1.3612959e+00  -4.2863648e+07
   5.4718239e-10  -8.0746313e-03   2.5569431e+00   1.3640852e+00  -4.2639254e+07
   5.4818273e-10  -8.0320898e-03   2.5536836e+00   1.3668636e+00  -4.2416024e+07
   5.4918306e-10  -7.9897711e-03   2.5504416e+00   1.3696312e+00  -4.2193951e+07
   5.5018339e-10  -7.9476740e-03   2.5472172e+00   1.3723879e+00  -4.1973030e+07
   5.5118373e-10  -7.9057972e-03   2.5440101e+00   1.3751338e+00  -4.1753254e+07
   5.5218406e-10  -7.8641398e-03   2.5408204e+00   1.3778689e+00  -4.1534618e+07
   5.5318439e-10  -7.8227004e-03   2.5376480e+00   1.3805932e+00  -4.1317116e+07
   5.5418473e-10  -7.7814781e-03   2.5344926e+00   1.3833067e+00  -4.1100742e+07
   5.5518506e-10  -7.7404717e-03   2.5313544e+00   1.3860095e+00  -4.0885491e+07
   5.5618540e-10  -7.6996800e-03   2.5282331e+00   1.3887015e+00  -4.0671356e+07
   5.5718573e-10  -7.6591020e-03   2.5251288e+00   1.3913828e+00  -4.0458331e+07
   5.5818606e-10  -7.6187365e-03   2.5220412e+00   1.3940534e+00  -4.0246412e+07
   5.5918640e-10  -7.5785824e-03   2.5189703e+00   1.3967134e+00  -4.0035593e+07
   5.6018673e-10  -7.5386387e-03   2.5159161e+00   1.3993626e+00  -3.9825867e+07
   5.6118706e-10  -7.4989042e-03   2.5128784e+00   1.4020013e+00  -3.9617229e+07
   5.6218740e-10  -7.4593779e-03   2.5098572e+00   1.4046293e+00  -3.9409675e+07
   5.6318773e-10  -7.4200587e-03   2.5068523e+00   1.4072467e+00  -3.9203197e+07
   5.6418806e-10  -7.3809454e-03   2.5038637e+00   1.4098536e+00  -3.8997791e+07
   5.6518840e-10  -7.3420372e-03   2.5008913e+00   1.4124498e+00  -3.8793451e+07
   5.6618873e-10  -7.3033327e-03   2.4979351e+00   1.4150356e+00  -3.8590171e+07
   5.6718906e-10  -7.2648311e-03   2.4949948e+00   1.4176108e+00  -3.8387947e+07
   5.6818940e-10  -7.2265313e-03   2.4920706e+00   1.4201755e+00  -3.8186773e+07
   5.6918973e-10  -7.1884322e-03   2.4891621e+00   1.4227298e+00  -3.7986643e+07
   5.7019006e-10  -7.1505327e-03   2.4862695e+00   1.4252736e+00  -3.7787552e+07
   5.7119040e-10  -7.1128319e-03   2.4833926e+00   1.4278070e+00  -3.7589494e+07
   5.7219073e-10  -7.0753287e-03   2.4805312e+00   1.4303300e+00  -3.7392466e+07
   5.7319106e-10  -7.0380221e-03   2.4776855e+00   1.4328426e+00  -3.7196460e+07
   5.7419140e-10  -7.0009110e-03   2.4748551e+00   1.4353448e+00  -3.7001472e+07
   5.7519173e-10  -6.9639945e-03   2.4720402e+00   1.4378367e+00  -3.6807497e+07
   5.7619206e-10  -6.9272715e-03   2.4692405e+00   1.4403183e+00  -3.6614529e+07
   5.7719240e-10  -6.8907410e-03   2.4664560e+00   1.4427896e+00  -3.6422564e+07
   5.7819273e-10  -6.8544021e-03   2.4636867e+00   1.4452506e+00  -3.6231596e+07
   5.7919306e-10  -6.8182537e-03   2.4609324e+00   1.4477014e+00  -3.6041620e+07
   5.8019340e-10  -6.7822948e-03   2.4581931e+00   1.4501420e+00  -3.5852631e+07
   5.8119373e-10  -6.7465245e-03   2.4554687e+00   1.4525723e+00  -3.5664623e+07
   5.8219406e-10  -6.7109418e-03   2.4527591e+00   1.4549925e+00  -3.5477593e+07
   5.8319440e-10  -6.6755456e-03   2.4500642e+00   1.4574026e+00  -3.5291534e+07
   5.8419473e-10  -6.6403351e-03   2.4473840e+00   1.4598025e+00  -3.5106443e+07
   5.8519507e-10  -6.6053093e-03   2.4447183e+00   1.4621924e+00  -3.4922313e+07
   5.8619540e-10  -6.5704672e-03   2.4420672e+00   1.4645722e+00  -3.4739140e+07
   5.8719573e-10  -6.5358078e-03   2.4394304e+00   1.4669419e+00  -3.4556919e+07
   5.8819607e-10  -6.5013303e-03   2.4368081e+00   1.4693016e+00  -3.4375646e+07
   5.8919640e-10  -6.4670336e-03   2.4342000e+00   1.4716513e+00  -3.4195315e+07
   5.9019673e-10  -6.4329168e-03   2.4316061e+00   1.4739911e+00  -3.4015921e+07
   5.9119707e-10  -6.3989790e-03   2.4290263e+00   1.4763209e+00  -3.3837460e+07
   5.9219740e-10  -6.3652193e-03   2.4264605e+00   1.4786408e+00  -3.3659926e+07
   5.9319773e-10  -6.3316367e-03   2.4239088e+00   1.4809508e+00  -3.3483316e+07
   5.9419807e-10  -6.2982303e-03   2.4213709e+00   1.4832510e+00  -3.3307624e+07
   5.9519840e-10  -6.2649992e-03   2.4188468e+00   1.4855413e+00  -3.3132846e+07
   5.9619873e-10  -6.2319424e-03   2.4163365e+00   1.4878218e+00  -3.2958977e+07
   5.9719907e-10  -6.1990592e-03   2.4138398e+00   1.4900925e+00  -3.2786012e+07
   5.9819940e-10  -6.1663485e-03   2.4113568e+00   1.4923535e+00  -3.2613946e+07
   5.9919973e-10  -6.1338095e-03   2.4088873e+00   1.4946047e+00  -3.2442776e+07
   6.0020007e-10  -6.1014412e-03   2.4064312e+00   1.4968463e+00  -3.2272496e+07
   6.0120040e-10  -6.0692429e-03   2.4039885e+00   1.4990782e+00  -3.2103102e+07
   6.0220073e-10  -6.0372135e-03   2.4015592e+00   1.5013004e+00  -3.1934589e+07
   6.0320107e-10  -6.0053523e-03   2.3991430e+00   1.5035130e+00  -3.1766953e+07
   6.0420140e-10  -5.9736584e-03   2.3967401e+00   1.5057160e+00  -3.1600190e+07
   6.0520173e-10  -5.9421308e-03   2.3943502e+00   1.5079095e+00  -3.1434294e+07
   6.0620207e-10  -5.9107687e-03   2.3919733e+00   1.5100934e+00  -3.1269261e+07
   6.0720240e-10  -5.8795713e-03   2.3896094e+00   1.5122678e+00  -3.1105087e+07
   6.0820273e-10  -5.8485377e-03   2.3872584e+00   1.5144327e+00  -3.0941768e+07
   6.0920307e-10  -5.8176671e-03   2.3849203e+00   1.5165882e+00  -3.0779299e+07
   6.1020340e-10  -5.7869585e-03   2.3825948e+00   1.5187342e+00  -3.0617676e+07
   6.1120373e-10  -5.7564112e-03   2.3802821e+00   1.5208709e+00  -3.0456894e+07
   6.1220407e-10  -5.7260243e-03   2.3779819e+00   1.5229982e+00  -3.0296948e+07
   6.1320440e-10  -5.6957970e-03   2.3756943e+00   1.5251162e+00  -3.0137836e+07
   6.1420473e-10  -5.6657284e-03   2.3734192e+00   1.5272248e+00  -2.9979552e+07
   6.1520507e-10  -5.6358178e-03   2.3711564e+00   1.5293242e+00  -2.9822093e+07
   6.1620540e-10  -5.6060642e-03   2.3689061e+00   1.5314143e+00  -2.9665453e+07
   6.1720574e-10  -5.5764670e-03   2.3666679e+00   1.5334952e+00  -2.9509629e+07
   6.1820607e-10  -5.5470252e-03   2.3644420e+00   1.5355669e+00  -2.9354617e+07
   6.1920640e-10  -5.5177381e-03   2.3622283e+00   1.5376294e+00  -2.9200412e+07
   6.2020674e-10  -5.4886048e-03   2.3600266e+00   1.5396828e+00  -2.9047010e+07
   6.2120707e-10  -5.4596246e-03   2.3578369e+00   1.5417271e+00  -2.8894407e+07
   6.2220740e-10  -5.4307966e-03   2.3556592e+00   1.5437623e+00  -2.8742599e+07
   6.2320774e-10  -5.4021201e-03   2.3534933e+00   1.5457884e+00  -2.8591582e+07
   6.2420807e-10  -5.3735942e-03   2.3513393e+00   1.5478056e+00  -2.8441352e+07
   6.2520840e-10  -5.3452183e-03   2.3491970e+00   1.5498137e+00  -2.8291905e+07
   6.2620874e-10  -5.3169914e-03   2.3470664e+00   1.5518129e+00  -2.8143237e+07
   6.2720907e-10  -5.2889129e-03   2.3449474e+00   1.5538031e+00  -2.7995343e+07
   6.2820940e-10  -5.2609820e-03   2.3428400e+00   1.5557845e+00  -2.7848220e+07
   6.2920974e-10  -5.2331978e-03   2.3407441e+00   1.5577570e+00  -2.7701864e+07
   6.3021007e-10  -5.2055596e-03   2.3386596e+00   1.5597206e+00  -2.7556270e+07
   6.3121040e-10  -5.1780667e-03   2.3365865e+00   1.5616754e+00  -2.7411436e+07
   6.3221074e-10  -5.1507184e-03   2.3345247e+00   1.5636214e+00  -2.7267356e+07
   6.3321107e-10  -5.1235137e-03   2.3324742e+00   1.5655587e+00  -2.7124028e+07
   6.3421140e-10  -5.0964521e-03   2.3304348e+00   1.5674872e+00  -2.6981447e+07
   6.3521174e-10  -5.0695327e-03   2.3284066e+00   1.5694070e+00  -2.6839609e+07
   6.3621207e-10  -5.0427548e-03   2.3263895e+00   1.5713182e+00  -2.6698511e+07
   6.3721240e-10  -5.0161177e-03   2.3243833e+00   1.5732207e+00  -2.6558148e+07
   6.3821274e-10  -4.9896207e-03   2.3223881e+00   1.5751146e+00  -2.6418518e+07
   6.3921307e-10  -4.9632630e-03   2.3204038e+00   1.5770000e+00  -2.6279616e+07
   6.4021340e-10  -4.9370438e-03   2.3184303e+00   1.5788768e+00  -2.6141438e+07
   6.4121374e-10  -4.9109625e-03   2.3164676e+00   1.5807450e+00  -2.6003981e+07
   6.4221407e-10  -4.8850184e-03   2.3145156e+00   1.5826048e+00  -2.5867241e+07
   6.4321440e-10  -4.8592106e-03   2.3125742e+00   1.5844561e+00  -2.5731214e+07
   6.4421474e-10  -4.8335386e-03   2.3106435e+00   1.5862990e+00  -2.5595897e+07
   6.4521507e-10  -4.8080016e-03   2.3087233e+00   1.5881335e+00  -2.5461286e+07
   6.4621541e-10  -4.7825989e-03   2.3068135e+00   1.5899596e+00  -2.5327377e+07
   6.4721574e-10  -4.7573298e-03   2.3049142e+00   1.5917774e+00  -2.5194167e+07
   6.4821607e-10  -4.7321937e-03   2.3030252e+00   1.5935868e+00  -2.5061652e+07
   6.4921641e-10  -4.7071897e-03   2.3011466e+00   1.5953880e+00  -2.4929829e+07
   6.5021674e-10  -4.6823172e-03   2.2992782e+00   1.5971809e+00  -2.4798694e+07
   6.5121707e-10  -4.6575756e-03   2.2974200e+00   1.5989656e+00  -2.4668243e+07
   6.5221741e-10  -4.6329641e-03   2.2955719e+00   1.6007421e+00  -2.4538473e+07
   6.5321774e-10  -4.6084822e-03   2.2937339e+00   1.6025104e+00  -2.4409380e+07
   6.5421807e-10  -4.5841290e-03   2.2919060e+00   1.6042706e+00  -2.4280962e+07
   6.5521841e-10  -4.5599039e-03   2.2900880e+00   1.6060227e+00  -2.4153213e+07
   6.5621874e-10  -4.5358063e-03   2.2882799e+00   1.6077667e+00  -2.4026132e+07
   6.5721907e-10  -4.5118355e-03   2.2864818e+00   1.6095027e+00  -2.3899714e+07
   6.5821941e-10  -4.4879908e-03   2.2846934e+00   1.6112306e+00  -2.3773957e+07
   6.5921974e-10  -4.4642715e-03   2.2829147e+00   1.6129506e+00  -2.3648856e+07
   6.6022007e-10  -4.4406771e-03   2.2811458e+00   1.6146626e+00  -2.3524408e+07
   6.6122041e-10  -4.4172069e-03   2.2793866e+00   1.6163667e+00  -2.3400610e+07
   6.6222074e-10  -4.3938602e-03   2.2776369e+00   1.6180629e+00  -2.3277459e+07
   6.6322107e-10  -4.3706363e-03   2.2758968e+00   1.6197512e+00  -2.3154951e+07
   6.6422141e-10  -4.3475347e-03   2.2741661e+00   1.6214317e+00  -2.3033083e+07
   6.6522174e-10  -4.3245546e-03   2.2724449e+00   1.6231043e+00  -2.2911852e+07
   6.6622207e-10  -4.3016955e-03   2.2707331e+00   1.6247692e+00  -2.2791254e+07
   6.6722241e-10  -4.2789568e-03   2.2690307e+00   1.6264263e+00  -2.2671286e+07
   6.6822274e-10  -4.2563377e-03   2.2673375e+00   1.6280757e+00  -2.2551945e+07
   6.6922307e-10  -4.2338377e-03   2.2656535e+00   1.6297174e+00  -2.2433227e+07
   6.7022341e-10  -4.2114561e-03   2.2639788e+00   1.6313515e+00  -2.2315130e+07
   6.7122374e-10  -4.1891924e-03   2.2623132e+00   1.6329779e+00  -2.2197650e+07
   6.7222407e-10  -4.1670459e-03   2.2606566e+00   1.6345967e+00  -2.2080784e+07
   6.7322441e-10  -4.1450159e-03   2.2590091e+00   1.6362080e+00  -2.1964529e+07
   6.7422474e-10  -4.1231020e-03   2.2573706e+00   1.6378116e+00  -2.1848882e+07
   6.7522508e-10  -4.1013035e-03   2.2557410e+00   1.6394078e+00  -2.1733839e+07
   6.7622541e-10  -4.0796197e-03   2.2541203e+00   1.6409965e+00  -2.1619397e+07
   6.7722574e-10  -4.0580501e-03   2.2525085e+00   1.6425777e+00  -2.1505554e+07
   6.7822608e-10  -4.0365941e-03   2.2509054e+00   1.6441515e+00  -2.1392306e+07
   6.7922641e-10  -4.0152511e-03   2.2493111e+00   1.6457179e+00  -2.1279650e+07
   6.8022674e-10  -3.9940204e-03   2.2477254e+00   1.6472769e+00  -2.1167583e+07
   6.8122708e-10  -3.9729016e-03   2.2461484e+00   1.6488286e+00  -2.1056102e+07
   6.8222741e-10  -3.9518940e-03   2.2445800e+00   1.6503730e+00  -2.0945204e+07
   6.8322774e-10  -3.9309971e-03   2.2430202e+00   1.6519101e+00  -2.0834886e+07
   6.8422808e-10  -3.9102102e-03   2.2414688e+00   1.6534399e+00  -2.0725145e+07
   6.8522841e-10  -3.8895328e-03   2.2399260e+00   1.6549625e+00  -2.0615978e+07
   6.8622874e-10  -3.8689644e-03   2.2383915e+00   1.6564779e+00  -2.0507382e+07
   6.8722908e-10  -3.8485043e-03   2.2368654e+00   1.6579861e+00  -2.0399354e+07
   6.8822941e-10  -3.8281519e-03   2.2353476e+00   1.6594872e+00  -2.0291891e+07
   6.8922974e-10  -3.8079068e-03   2.2338381e+00   1.6609811e+00  -2.0184990e+07
   6.9023008e-10  -3.7877683e-03   2.2323368e+00   1.6624680e+00  -2.0078649e+07
   6.9123041e-10  -3.7677359e-03   2.2308437e+00   1.6639478e+00  -1.9972864e+07
   6.9223074e-10  -3.7478091e-03   2.2293587e+00   1.6654206e+00  -1.9867633e+07
   6.9323108e-10  -3.7279873e-03   2.2278818e+00   1.6668864e+00  -1.9762952e+07
   6.9423141e-10  -3.7082699e-03   2.2264130e+00   1.6683453e+00  -1.9658819e+07
   6.9523174e-10  -3.6886564e-03   2.2249521e+00   1.6697971e+00  -1.9555231e+07
   6.9623208e-10  -3.6691462e-03   2.2234993e+00   1.6712421e+00  -1.9452186e+07
   6.9723241e-10  -3.6497389e-03   2.2220543e+00   1.6726802e+00  -1.9349679e+07
   6.9823274e-10  -3.6304338e-03   2.2206172e+00   1.6741114e+00  -1.9247709e+07
   6.9923308e-10  -3.6112305e-03   2.2191880e+00   1.6755358e+00  -1.9146273e+07
   7.0023341e-10  -3.5921284e-03   2.2177665e+00   1.6769534e+00  -1.9045369e+07
   7.0123374e-10  -3.5731269e-03   2.2163528e+00   1.6783642e+00  -1.8944992e+07
   7.0223408e-10  -3.5542256e-03   2.2149467e+00   1.6797683e+00  -1.8845141e+07
   7.0323441e-10  -3.5354239e-03   2.2135484e+00   1.6811656e+00  -1.8745812e+07
   7.0423474e-10  -3.5167213e-03   2.2121576e+00   1.6825563e+00  -1.8647004e+07
   7.0523508e-10  -3.4981173e-03   2.2107744e+00   1.6839403e+00  -1.8548713e+07
   7.0623541e-10  -3.4796114e-03   2.2093988e+00   1.6853176e+00  -1.8450937e+07
   7.0723575e-10  -3.4612030e-03   2.2080306e+00   1.6866883e+00  -1.8353673e+07
   7.0823608e-10  -3.4428916e-03   2.2066699e+00   1.6880525e+00  -1.8256919e+07
   7.0923641e-10  -3.4246768e-03   2.2053166e+00   1.6894101e+00  -1.8160671e+07
   7.1023675e-10  -3.4065580e-03   2.2039707e+00   1.6907612e+00  -1.8064928e+07
   7.1123708e-10  -3.3885348e-03   2.2026320e+00   1.6921058e+00  -1.7969686e+07
   7.1223741e-10  -3.3706065e-03   2.2013007e+00   1.6934439e+00  -1.7874943e+07
   7.1323775e-10  -3.3527728e-03   2.1999766e+00   1.6947755e+00  -1.7780696e+07
   7.1423808e-10  -3.3350331e-03   2.1986598e+00   1.6961008e+00  -1.7686943e+07
   7.1523841e-10  -3.3173870e-03   2.1973501e+00   1.6974196e+00  -1.7593681e+07
   7.1623875e-10  -3.2998339e-03   2.1960475e+00   1.6987321e+00  -1.7500908e+07
   7.1723908e-10  -3.2823734e-03   2.1947520e+00   1.7000383e+00  -1.7408621e+07
   7.1823941e-10  -3.2650049e-03   2.1934636e+00   1.7013381e+00  -1.7316818e+07
   7.1923975e-10  -3.2477280e-03   2.1921821e+00   1.7026317e+00  -1.7225496e+07
   7.2024008e-10  -3.2305423e-03   2.1909077e+00   1.7039190e+00  -1.7134653e+07
   7.2124041e-10  -3.2134472e-03   2.1896402e+00   1.7052000e+00  -1.7044285e+07
   7.2224075e-10  -3.1964422e-03   2.1883795e+00   1.7064749e+00  -1.6954392e+07
   7.2324108e-10  -3.1795269e-03   2.1871258e+00   1.7077436e+00  -1.6864969e+07
   7.2424141e-10  -3.1627009e-03   2.1858788e+00   1.7090061e+00  -1.6776016e+07
   7.2524175e-10  -3.1459636e-03   2.1846387e+00   1.7102625e+00  -1.6687528e+07
   7.2624208e-10  -3.1293145e-03   2.1834052e+00   1.7115129e+00  -1.6599505e+07
   7.2724241e-10  -3.1127533e-03   2.1821785e+00   1.7127571e+00  -1.6511943e+07
   7.2824275e-10  -3.0962795e-03   2.1809585e+00   1.7139953e+00  -1.6424841e+07
   7.2924308e-10  -3.0798926e-03   2.1797451e+00   1.7152275e+00  -1.6338195e+07
   7.3024341e-10  -3.0635921e-03   2.1785383e+00   1.7164536e+00  -1.6252003e+07
   7.3124375e-10  -3.0473776e-03   2.1773380e+00   1.7176739e+00  -1.6166263e+07
   7.3224408e-10  -3.0312486e-03   2.1761443e+00   1.7188881e+00  -1.6080974e+07
   7.3324441e-10  -3.0152048e-03   2.1749570e+00   1.7200965e+00  -1.5996131e+07
   7.3424475e-10  -2.9992456e-03   2.1737763e+00   1.7212989e+00  -1.5911733e+07
   7.3524508e-10  -2.9833706e-03   2.1726019e+00   1.7224955e+00  -1.5827779e+07
   7.3624542e-10  -2.9675793e-03   2.1714339e+00   1.7236863e+00  -1.5744264e+07
   7.3724575e-10  -2.9518714e-03   2.1702723e+00   1.7248712e+00  -1.5661188e+07
   7.3824608e-10  -2.9362464e-03   2.1691170e+00   1.7260504e+00  -1.5578547e+07
   7.3924642e-10  -2.9207038e-03   2.1679679e+00   1.7272238e+00  -1.5496340e+07
   7.4024675e-10  -2.9052432e-03   2.1668251e+00   1.7283914e+00  -1.5414565e+07
   7.4124708e-10  -2.8898642e-03   2.1656885e+00   1.7295533e+00  -1.5333218e+07
   7.4224742e-10  -2.8745664e-03   2.1645581e+00   1.7307096e+00  -1.5252299e+07
   7.4324775e-10  -2.8593493e-03   2.1634338e+00   1.7318602e+00  -1.5171804e+07
   7.4424808e-10  -2.8442126e-03   2.1623157e+00   1.7330051e+00  -1.5091731e+07
   7.4524842e-10  -2.8291557e-03   2.1612036e+00   1.7341444e+00  -1.5012079e+07
   7.4624875e-10  -2.8141783e-03   2.1600975e+00   1.7352782e+00  -1.4932845e+07
   7.4724908e-10  -2.7992799e-03   2.1589975e+00   1.7364064e+00  -1.4854026e+07
   7.4824942e-10  -2.7844602e-03   2.1579034e+00   1.7375290e+00  -1.4775622e+07
   7.4924975e-10  -2.7697187e-03   2.1568153e+00   1.7386461e+00  -1.4697629e+07
   7.5025008e-10  -2.7550550e-03   2.1557331e+00   1.7397578e+00  -1.4620045e+07
   7.5125042e-10  -2.7404687e-03   2.1546567e+00   1.7408639e+00  -1.4542869e+07
   7.5225075e-10  -2.7259594e-03   2.1535862e+00   1.7419646e+00  -1.4466097e+07
   7.5325108e-10  -2.7115267e-03   2.1525215e+00   1.7430600e+00  -1.4389729e+07
   7.5425142e-10  -2.6971702e-03   2.1514626e+00   1.7441499e+00  -1.4313762e+07
   7.5525175e-10  -2.6828895e-03   2.1504094e+00   1.7452344e+00  -1.4238194e+07
   7.5625208e-10  -2.6686842e-03   2.1493620e+00   1.7463136e+00  -1.4163023e+07
   7.5725242e-10  -2.6545539e-03   2.1483202e+00   1.7473875e+00  -1.4088246e+07
   7.5825275e-10  -2.6404982e-03   2.1472841e+00   1.7484561e+00  -1.4013862e+07
   7.5925308e-10  -2.6265167e-03   2.1462536e+00   1.7495194e+00  -1.3939869e+07
   7.6025342e-10  -2.6126090e-03   2.1452287e+00   1.7505774e+00  -1.3866264e+07
   7.6125375e-10  -2.5987748e-03   2.1442094e+00   1.7516302e+00  -1.3793046e+07
   7.6225408e-10  -2.5850136e-03   2.1431956e+00   1.7526779e+00  -1.3720213e+07
   7.6325442e-10  -2.5713251e-03   2.1421873e+00   1.7537203e+00  -1.3647762e+07
   7.6425475e-10  -2.5577089e-03   2.1411844e+00   1.7547576e+00  -1.3575692e+07
   7.6525509e-10  -2.5441645e-03   2.1401870e+00   1.7557897e+00  -1.3504000e+07
   7.6625542e-10  -2.5306917e-03   2.1391951e+00   1.7568168e+00  -1.3432685e+07
   7.6725575e-10  -2.5172901e-03   2.1382084e+00   1.7578387e+00  -1.3361745e+07
   7.6825609e-10  -2.5039592e-03   2.1372272e+00   1.7588556e+00  -1.3291177e+07
   7.6925642e-10  -2.4906988e-03   2.1362513e+00   1.7598675e+00  -1.3220981e+07
   7.7025675e-10  -2.4775083e-03   2.1352806e+00   1.7608743e+00  -1.3151153e+07
   7.7125709e-10  -2.4643876e-03   2.1343152e+00   1.7618762e+00  -1.3081692e+07
   7.7225742e-10  -2.4513361e-03   2.1333551e+00   1.7628730e+00  -1.3012596e+07
   7.7325775e-10  -2.4383536e-03   2.1324001e+00   1.7638649e+00  -1.2943863e+07
   7.7425809e-10  -2.4254396e-03   2.1314504e+00   1.7648519e+00  -1.2875492e+07
   7.7525842e-10  -2.4125939e-03   2.1305058e+00   1.7658340e+00  -1.2807480e+07
   7.7625875e-10  -2.3998160e-03   2.1295663e+00   1.7668112e+00  -1.2739825e+07
   7.7725909e-10  -2.3871056e-03   2.1286319e+00   1.7677836e+00  -1.2672526e+07
   7.7825942e-10  -2.3744624e-03   2.1277025e+00   1.7687511e+00  -1.2605581e+07
   7.7925975e-10  -2.3618859e-03   2.1267782e+00   1.7697137e+00  -1.2538988e+07
   7.8026009e-10  -2.3493759e-03   2.1258589e+00   1.7706716e+00  -1.2472745e+07
   7.8126042e-10  -2.3369320e-03   2.1249446e+00   1.7716248e+00  -1.2406850e+07
   7.8226075e-10  -2.3245538e-03   2.1240352e+00   1.7725731e+00  -1.2341301e+07
   7.8326109e-10  -2.3122411e-03   2.1231308e+00   1.7735168e+00  -1.2276098e+07
   7.8426142e-10  -2.2999933e-03   2.1222312e+00   1.7744557e+00  -1.2211237e+07
   7.8526175e-10  -2.2878103e-03   2.1213366e+00   1.7753900e+00  -1.2146717e+07
   7.8626209e-10  -2.2756917e-03   2.1204468e+00   1.7763196e+00  -1.2082536e+07
   7.8726242e-10  -2.2636371e-03   2.1195618e+00   1.7772445e+00  -1.2018693e+07
   7.8826275e-10  -2.2516462e-03   2.1186815e+00   1.7781649e+00  -1.1955186e+07
   7.8926309e-10  -2.2397186e-03   2.1178061e+00   1.7790806e+00  -1.1892013e+07
   7.9026342e-10  -2.2278541e-03   2.1169354e+00   1.7799918e+00  -1.1829172e+07
   7.9126375e-10  -2.2160523e-03   2.1160694e+00   1.7808984e+00  -1.1766661e+07
   7.9226409e-10  -2.2043128e-03   2.1152081e+00   1.7818004e+00  -1.1704480e+07
   7.9326442e-10  -2.1926354e-03   2.1143515e+00   1.7826980e+00  -1.1642625e+07
   7.9426475e-10  -2.1810197e-03   2.1134995e+00   1.7835910e+00  -1.1581096e+07
   7.9526509e-10  -2.1694654e-03   2.1126521e+00   1.7844796e+00  -1.1519890e+07
   7.9626542e-10  -2.1579721e-03   2.1118093e+00   1.7853638e+00  -1.1459007e+07
   7.9726576e-10  -2.1465396e-03   2.1109710e+00   1.7862435e+00  -1.1398444e+07
   7.9826609e-10  -2.1351675e-03   2.1101373e+00   1.7871188e+00  -1.1338199e+07
   7.9926642e-10  -2.1238555e-03   2.1093081e+00   1.7879897e+00  -1.1278272e+07
   8.0026676e-10  -2.1126034e-03   2.1084834e+00   1.7888562e+00  -1.1218660e+07
   8.0126709e-10  -2.1014106e-03   2.1076632e+00   1.7897184e+00  -1.1159361e+07
   8.0226742e-10  -2.0902771e-03   2.1068474e+00   1.7905763e+00  -1.1100375e+07
   8.0326776e-10  -2.0792024e-03   2.1060360e+00   1.7914299e+00  -1.1041699e+07
   8.0426809e-10  -2.0681862e-03   2.1052290e+00   1.7922791e+00  -1.0983332e+07
   8.0526842e-10  -2.0572283e-03   2.1044263e+00   1.7931241e+00  -1.0925272e+07
   8.0626876e-10  -2.0463283e-03   2.1036280e+00   1.7939649e+00  -1.0867518e+07
   8.0726909e-10  -2.0354859e-03   2.1028340e+00   1.7948014e+00  -1.0810067e+07
   8.0826942e-10  -2.0247008e-03   2.1020444e+00   1.7956338e+00  -1.0752919e+07
   8.0926976e-10  -2.0139728e-03   2.1012589e+00   1.7964619e+00  -1.0696072e+07
   8.1027009e-10  -2.0033015e-03   2.1004778e+00   1.7972859e+00  -1.0639524e+07
   8.1127042e-10  -1.9926865e-03   2.0997008e+00   1.7981057e+00  -1.0583274e+07
   8.1227076e-10  -1.9821278e-03   2.0989281e+00   1.7989214e+00  -1.0527320e+07
   8.1327109e-10  -1.9716248e-03   2.0981595e+00   1.7997330e+00  -1.0471660e+07
   8.1427142e-10  -1.9611773e-03   2.0973951e+00   1.8005405e+00  -1.0416294e+07
   8.1527176e-10  -1.9507852e-03   2.0966348e+00   1.8013439e+00  -1.0361219e+07
   8.1627209e-10  -1.9404479e-03   2.0958786e+00   1.8021433e+00  -1.0306434e+07
   8.1727242e-10  -1.9301653e-03   2.0951265e+00   1.8029386e+00  -1.0251938e+07
   8.1827276e-10  -1.9199371e-03   2.0943785e+00   1.8037299e+00  -1.0197728e+07
   8.1927309e-10  -1.9097630e-03   2.0936345e+00   1.8045173e+00  -1.0143804e+07
   8.2027342e-10  -1.8996426e-03   2.0928946e+00   1.8053006e+00  -1.0090164e+07
   8.2127376e-10  -1.8895758e-03   2.0921586e+00   1.8060800e+00  -1.0036807e+07
   8.2227409e-10  -1.8795622e-03   2.0914266e+00   1.8068555e+00  -9.9837305e+06
   8.2327442e-10  -1.8696016e-03   2.0906986e+00   1.8076271e+00  -9.9309336e+06
   8.2427476e-10  -1.8596936e-03   2.0899745e+00   1.8083947e+00  -9.8784147e+06
   8.2527509e-10  -1.8498381e-03   2.0892543e+00   1.8091585e+00  -9.8261726e+06
   8.2627543e-10  -1.8400346e-03   2.0885380e+00   1.8099184e+00  -9.7742056e+06
   8.2727576e-10  -1.8302830e-03   2.0878255e+00   1.8106745e+00  -9.7225123e+06
   8.2827609e-10  -1.8205830e-03   2.0871170e+00   1.8114267e+00  -9.6710914e+06
   8.2927643e-10  -1.8109343e-03   2.0864122e+00   1.8121751e+00  -9.6199414e+06
   8.3027676e-10  -1.8013366e-03   2.0857112e+00   1.8129198e+00  -9.5690609e+06
   8.3127709e-10  -1.7917897e-03   2.0850141e+00   1.8136607e+00  -9.5184484e+06
   8.3227743e-10  -1.7822933e-03   2.0843207e+00   1.8143978e+00  -9.4681026e+06
   8.3327776e-10  -1.7728471e-03   2.0836310e+00   1.8151312e+00  -9.4180221e+06
   8.3427809e-10  -1.7634509e-03   2.0829451e+00   1.8158608e+00  -9.3682054e+06
   8.3527843e-10  -1.7541044e-03   2.0822628e+00   1.8165868e+00  -9.3186513e+06
   8.3627876e-10  -1.7448073e-03   2.0815843e+00   1.8173091e+00  -9.2693583e+06
   8.3727909e-10  -1.7355594e-03   2.0809094e+00   1.8180277e+00  -9.2203251e+06
   8.3827943e-10  -1.7263604e-03   2.0802381e+00   1.8187427e+00  -9.1715502e+06
   8.3927976e-10  -1.7172101e-03   2.0795705e+00   1.8194540e+00  -9.1230324e+06
   8.4028009e-10  -1.7081082e-03   2.0789065e+00   1.8201618e+00  -9.0747704e+06
   8.4128043e-10  -1.6990544e-03   2.0782460e+00   1.8208659e+00  -9.0267627e+06
   8.4228076e-10  -1.6900485e-03   2.0775892e+00   1.8215665e+00  -8.9790080e+06
   8.4328109e-10  -1.6810903e-03   2.0769358e+00   1.8222635e+00  -8.9315051e+06
   8.4428143e-10  -1.6721795e-03   2.0762860e+00   1.8229569e+00  -8.8842525e+06
   8.4528176e-10  -1.6633158e-03   2.0756397e+00   1.8236469e+00  -8.8372490e+06
   8.4628209e-10  -1.6544990e-03   2.0749969e+00   1.8243333e+00  -8.7904933e+06
   8.4728243e-10  -1.6457288e-03   2.0743575e+00   1.8250163e+00  -8.7439841e+06
   8.4828276e-10  -1.6370051e-03   2.0737216e+00   1.8256957e+00  -8.6977201e+06
   8.4928309e-10  -1.6283275e-03   2.0730892e+00   1.8263717e+00  -8.6517000e+06
   8.5028343e-10  -1.6196959e-03   2.0724601e+00   1.8270443e+00  -8.6059226e+06
   8.5128376e-10  -1.6111099e-03   2.0718344e+00   1.8277134e+00  -8.5603865e+06
   8.5228409e-10  -1.6025693e-03   2.0712121e+00   1.8283792e+00  -8.5150904e+06
   8.5328443e-10  -1.5940739e-03   2.0705932e+00   1.8290415e+00  -8.4700333e+06
   8.5428476e-10  -1.5856235e-03   2.0699776e+00   1.8297005e+00  -8.4252137e+06
   8.5528510e-10  -1.5772178e-03   2.0693653e+00   1.8303561e+00  -8.3806305e+06
   8.5628543e-10  -1.5688566e-03   2.0687563e+00   1.8310084e+00  -8.3362823e+06
   8.5728576e-10  -1.5605396e-03   2.0681506e+00   1.8316573e+00  -8.2921681e+06
   8.5828610e-10  -1.5522666e-03   2.0675482e+00   1.8323030e+00  -8.2482864e+06
   8.5928643e-10  -1.5440374e-03   2.0669490e+00   1.8329453e+00  -8.2046363e+06
   8.6028676e-10  -1.5358518e-03   2.0663530e+00   1.8335844e+00  -8.1612163e+06
   8.6128710e-10  -1.5277095e-03   2.0657603e+00   1.8342202e+00  -8.1180253e+06
   8.6228743e-10  -1.5196102e-03   2.0651707e+00   1.8348527e+00  -8.0750622e+06
   8.6328776e-10  -1.5115539e-03   2.0645843e+00   1.8354821e+00  -8.0323257e+06
   8.6428810e-10  -1.5035402e-03   2.0640011e+00   1.8361082e+00  -7.9898146e+06
   8.6528843e-10  -1.4955688e-03   2.0634210e+00   1.8367311e+00  -7.9475277e+06
   8.6628876e-10  -1.4876397e-03   2.0628441e+00   1.8373508e+00  -7.9054639e+06
   8.6728910e-10  -1.4797526e-03   2.0622702e+00   1.8379674e+00  -7.8636220e+06
   8.6828943e-10  -1.4719072e-03   2.0616995e+00   1.8385808e+00  -7.8220009e+06
   8.6928976e-10  -1.4641033e-03   2.0611318e+00   1.8391911e+00  -7.7805993e+06
   8.7029010e-10  -1.4563407e-03   2.0605672e+00   1.8397983e+00  -7.7394162e+06
   8.7129043e-10  -1.4486192e-03   2.0600056e+00   1.8404023e+00  -7.6984503e+06
   8.7229076e-10  -1.4409386e-03   2.0594470e+00   1.8410033e+00  -7.6577006e+06
   8.7329110e-10  -1.4332986e-03   2.0588915e+00   1.8416012e+00  -7.6171659e+06
   8.7429143e-10  -1.4256991e-03   2.0583389e+00   1.8421960e+00  -7.5768451e+06
   8.7529176e-10  -1.4181398e-03   2.0577893e+00   1.8427878e+00  -7.5367371e+06
   8.7629210e-10  -1.4106205e-03   2.0572427e+00   1.8433766e+00  -7.4968407e+06
   8.7729243e-10  -1.4031410e-03   2.0566990e+00   1.8439623e+00  -7.4571548e+06
   8.7829276e-10  -1.3957012e-03   2.0561583e+00   1.8445450e+00  -7.4176784e+06
   8.7929310e-10  -1.3883007e-03   2.0556204e+00   1.8451248e+00  -7.3784103e+06
   8.8029343e-10  -1.3809394e-03   2.0550855e+00   1.8457016e+00  -7.3393494e+06
   8.8129376e-10  -1.3736170e-03   2.0545534e+00   1.8462754e+00  -7.3004947e+06
   8.8229410e-10  -1.3663334e-03   2.0540242e+00   1.8468463e+00  -7.2618450e+06
   8.8329443e-10  -1.3590884e-03   2.0534978e+00   1.8474143e+00  -7.2233994e+06
   8.8429476e-10  -1.3518817e-03   2.0529743e+00   1.8479793e+00  -7.1851567e+06
   8.8529510e-10  -1.3447132e-03   2.0524536e+00   1.8485414e+00  -7.1471158e+06
   8.8629543e-10  -1.3375827e-03   2.0519357e+00   1.8491007e+00  -7.1092757e+06
   8.8729577e-10  -1.3304899e-03   2.0514206e+00   1.8496571e+00  -7.0716354e+06
   8.8829610e-10  -1.3234346e-03   2.0509082e+00   1.8502106e+00  -7.0341938e+06
   8.8929643e-10  -1.3164167e-03   2.0503986e+00   1.8507613e+00  -6.9969498e+06
   8.9029677e-10  -1.3094360e-03   2.0498918e+00   1.8513092e+00  -6.9599025e+06
   8.9129710e-10  -1.3024922e-03   2.0493876e+00   1.8518543e+00  -6.9230507e+06
   8.9229743e-10  -1.2955852e-03   2.0488862e+00   1.8523965e+00  -6.8863935e+06
   8.9329777e-10  -1.2887148e-03   2.0483875e+00   1.8529360e+00  -6.8499298e+06
   8.9429810e-10  -1.2818807e-03   2.0478915e+00   1.8534727e+00  -6.8136586e+06
   8.9529843e-10  -1.2750828e-03   2.0473981e+00   1.8540066e+00  -6.7775790e+06
   8.9629877e-10  -1.2683209e-03   2.0469074e+00   1.8545378e+00  -6.7416898e+06
   8.9729910e-10  -1.2615949e-03   2.0464193e+00   1.8550663e+00  -6.7059902e+06
   8.9829943e-10  -1.2549044e-03   2.0459339e+00   1.8555920e+00  -6.6704791e+06
   8.9929977e-10  -1.2482494e-03   2.0454510e+00   1.8561151e+00  -6.6351555e+06
   9.0030010e-10  -1.2416296e-03   2.0449708e+00   1.8566354e+00  -6.6000184e+06
   9.0130043e-10  -1.2350449e-03   2.0444931e+00   1.8571531e+00  -6.5650668e+06
   9.0230077e-10  -1.2284951e-03   2.0440180e+00   1.8576681e+00  -6.5302999e+06
   9.0330110e-10  -1.2219799e-03   2.0435455e+00   1.8581805e+00  -6.4957165e+06
   9.0430143e-10  -1.2154992e-03   2.0430755e+00   1.8586902e+00  -6.4613159e+06
   9.0530177e-10  -1.2090529e-03   2.0426080e+00   1.8591973e+00  -6.4270968e+06
   9.0630210e-10  -1.2026407e-03   2.0421430e+00   1.8597018e+00  -6.3930586e+06
   9.0730243e-10  -1.1962624e-03   2.0416806e+00   1.8602036e+00  -6.3592001e+06
   9.0830277e-10  -1.1899180e-03   2.0412206e+00   1.8607029e+00  -6.3255204e+06
   9.0930310e-10  -1.1836071e-03   2.0407631e+00   1.8611997e+00  -6.2920186e+06
   9.1030343e-10  -1.1773297e-03   2.0403080e+00   1.8616938e+00  -6.2586938e+06
   9.1130377e-10  -1.1710855e-03   2.0398554e+00   1.8621855e+00  -6.2255450e+06
   9.1230410e-10  -1.1648744e-03   2.0394053e+00   1.8626746e+00  -6.1925714e+06
   9.1330443e-10  -1.1586962e-03   2.0389575e+00   1.8631611e+00  -6.1597719e+06
   9.1430477e-10  -1.1525507e-03   2.0385122e+00   1.8636452e+00  -6.1271457e+06
   9.1530510e-10  -1.1464377e-03   2.0380692e+00   1.8641267e+00  -6.0946918e+06
   9.1630544e-10  -1.1403572e-03   2.0376286e+00   1.8646058e+00  -6.0624094e+06
   9.1730577e-10  -1.1343088e-03   2.0371904e+00   1.8650824e+00  -6.0302976e+06
   9.1830610e-10  -1.1282925e-03   2.0367546e+00   1.8655566e+00  -5.9983554e+06
   9.1930644e-10  -1.1223080e-03   2.0363211e+00   1.8660283e+00  -5.9665819e+06
   9.2030677e-10  -1.1163553e-03   2.0358899e+00   1.8664975e+00  -5.9349764e+06
   9.2130710e-10  -1.1104341e-03   2.0354610e+00   1.8669644e+00  -5.9035378e+06
   9.2230744e-10  -1.1045442e-03   2.0350345e+00   1.8674288e+00  -5.8722654e+06
   9.2330777e-10  -1.0986856e-03   2.0346102e+00   1.8678908e+00  -5.8411582e+06
   9.2430810e-10  -1.0928579e-03   2.0341882e+00   1.8683505e+00  -5.8102154e+06
   9.2530844e-10  -1.0870612e-03   2.0337685e+00   1.8688077e+00  -5.7794361e+06
   9.2630877e-10  -1.0812952e-03   2.0333510e+00   1.8692626e+00  -5.7488194e+06
   9.2730910e-10  -1.0755597e-03   2.0329357e+00   1.8697152e+00  -5.7183645e+06
   9.2830944e-10  -1.0698546e-03   2.0325227e+00   1.8701654e+00  -5.6880706e+06
   9.2930977e-10  -1.0641797e-03   2.0321119e+00   1.8706133e+00  -5.6579367e+06
   9.3031010e-10  -1.0585349e-03   2.0317034e+00   1.8710589e+00  -5.6279622e+06
   9.3131044e-10  -1.0529199e-03   2.0312970e+00   1.8715021e+00  -5.5981460e+06
   9.3231077e-10  -1.0473348e-03   2.0308928e+00   1.8719431e+00  -5.5684874e+06
   9.3331110e-10  -1.0417792e-03   2.0304907e+00   1.8723818e+00  -5.5389856e+06
   9.3431144e-10  -1.0362531e-03   2.0300908e+00   1.8728182e+00  -5.5096397e+06
   9.3531177e-10  -1.0307562e-03   2.0296931e+00   1.8732524e+00  -5.4804489e+06
   9.3631210e-10  -1.0252884e-03   2.0292975e+00   1.8736843e+00  -5.4514124e+06
   9.3731244e-10  -1.0198497e-03   2.0289040e+00   1.8741140e+00  -5.4225294e+06
   9.3831277e-10  -1.0144397e-03   2.0285127e+00   1.8745415e+00  -5.3937991e+06
   9.3931310e-10  -1.0090584e-03   2.0281234e+00   1.8749667e+00  -5.3652206e+06
   9.4031344e-10  -1.0037056e-03   2.0277362e+00   1.8753898e+00  -5.3367932e+06
   9.4131377e-10  -9.9838123e-04   2.0273511e+00   1.8758106e+00  -5.3085161e+06
   9.4231410e-10  -9.9308502e-04   2.0269681e+00   1.8762293e+00  -5.2803884e+06
   9.4331444e-10  -9.8781688e-04   2.0265871e+00   1.8766458e+00  -5.2524095e+06
   9.4431477e-10  -9.8257665e-04   2.0262082e+00   1.8770602e+00  -5.2245785e+06
   9.4531511e-10  -9.7736418e-04   2.0258313e+00   1.8774724e+00  -5.1968946e+06
   9.4631544e-10  -9.7217934e-04   2.0254564e+00   1.8778825e+00  -5.1693570e+06
   9.4731577e-10  -9.6702197e-04   2.0250835e+00   1.8782904e+00  -5.1419651e+06
   9.4831611e-10  -9.6189193e-04   2.0247126e+00   1.8786962e+00  -5.1147180e+06
   9.4931644e-10  -9.5678907e-04   2.0243437e+00   1.8790999e+00  -5.0876150e+06
   9.5031677e-10  -9.5171326e-04   2.0239768e+00   1.8795016e+00  -5.0606552e+06
   9.5131711e-10  -9.4666434e-04   2.0236119e+00   1.8799011e+00  -5.0338380e+06
   9.5231744e-10  -9.4164217e-04   2.0232489e+00   1.8802986e+00  -5.0071626e+06
   9.5331777e-10  -9.3664662e-04   2.0228879e+00   1.8806940e+00  -4.9806283e+06
   9.5431811e-10  -9.3167755e-04   2.0225288e+00   1.8810874e+00  -4.9542343e+06
   9.5531844e-10  -9.2673480e-04   2.0221716e+00   1.8814787e+00  -4.9279798e+06
   9.5631877e-10  -9.2181825e-04   2.0218164e+00   1.8818680e+00  -4.9018642e+06
   9.5731911e-10  -9.1692776e-04   2.0214630e+00   1.8822553e+00  -4.8758867e+06
   9.5831944e-10  -9.1206318e-04   2.0211116e+00   1.8826405e+00  -4.8500465e+06
   9.5931977e-10  -9.0722438e-04   2.0207620e+00   1.8830238e+00  -4.8243430e+06
   9.6032011e-10  -9.0241123e-04   2.0204143e+00   1.8834051e+00  -4.7987755e+06
   9.6132044e-10  -8.9762358e-04   2.0200684e+00   1.8837843e+00  -4.7733432e+06
   9.6232077e-10  -8.9286131e-04   2.0197245e+00   1.8841617e+00  -4.7480453e+06
   9.6332111e-10  -8.8812428e-04   2.0193823e+00   1.8845370e+00  -4.7228813e+06
   9.6432144e-10  -8.8341235e-04   2.0190420e+00   1.8849104e+00  -4.6978504e+06
   9.6532177e-10  -8.7872540e-04   2.0187035e+00   1.8852819e+00  -4.6729518e+06
   9.6632211e-10  -8.7406329e-04   2.0183669e+00   1.8856515e+00  -4.6481850e+06
   9.6732244e-10  -8.6942588e-04   2.0180320e+00   1.8860191e+00  -4.6235491e+06
   9.6832277e-10  -8.6481306e-04   2.0176989e+00   1.8863848e+00  -4.5990436e+06
   9.6932311e-10  -8.6022468e-04   2.0173677e+00   1.8867486e+00  -4.5746677e+06
   9.7032344e-10  -8.5566063e-04   2.0170382e+00   1.8871105e+00  -4.5504207e+06
   9.7132377e-10  -8.5112076e-04   2.0167104e+00   1.8874706e+00  -4.5263020e+06
   9.7232411e-10  -8.4660496e-04   2.0163844e+00   1.8878287e+00  -4.5023109e+06
   9.7332444e-10  -8.4211309e-04   2.0160602e+00   1.8881850e+00  -4.4784467e+06
   9.7432477e-10  -8.3764503e-04   2.0157377e+00   1.8885395e+00  -4.4547087e+06
   9.7532511e-10  -8.3320066e-04   2.0154169e+00   1.8888921e+00  -4.4310963e+06
   9.7632544e-10  -8.2877984e-04   2.0150978e+00   1.8892429e+00  -4.4076088e+06
   9.7732578e-10  -8.2438246e-04   2.0147805e+00   1.8895918e+00  -4.3842456e+06
   9.7832611e-10  -8.2000839e-04   2.0144649e+00   1.8899389e+00  -4.3610060e+06
   9.7932644e-10  -8.1565750e-04   2.0141509e+00   1.8902843e+00  -4.3378893e+06
   9.8032678e-10  -8.1132967e-04   2.0138386e+00   1.8906278e+00  -4.3148950e+06
   9.8132711e-10  -8.0702479e-04   2.0135280e+00   1.8909695e+00  -4.2920223e+06
   9.8232744e-10  -8.0274272e-04   2.0132191e+00   1.8913095e+00  -4.2692706e+06
   9.8332778e-10  -7.9848336e-04   2.0129118e+00   1.8916477e+00  -4.2466393e+06
   9.8432811e-10  -7.9424657e-04   2.0126062e+00   1.8919841e+00  -4.2241278e+06
   9.8532844e-10  -7.9003224e-04   2.0123021e+00   1.8923188e+00  -4.2017353e+06
   9.8632878e-10  -7.8584025e-04   2.0119998e+00   1.8926517e+00  -4.1794614e+06
   9.8732911e-10  -7.8167049e-04   2.0116990e+00   1.8929829e+00  -4.1573053e+06
   9.8832944e-10  -7.7752283e-04   2.0113999e+00   1.8933124e+00  -4.1352664e+06
   9.8932978e-10  -7.7339716e-04   2.0111023e+00   1.8936402e+00  -4.1133442e+06
   9.9033011e-10  -7.6929336e-04   2.0108064e+00   1.8939662e+00  -4.0915380e+06
   9.9133044e-10  -7.6521131e-04   2.0105120e+00   1.8942906e+00  -4.0698471e+06
   9.9233078e-10  -7.6115091e-04   2.0102192e+00   1.8946133e+00  -4.0482711e+06
   9.9333111e-10  -7.5711203e-04   2.0099280e+00   1.8949342e+00  -4.0268092e+06
   9.9433144e-10  -7.5309457e-04   2.0096383e+00   1.8952535e+00  -4.0054610e+06
   9.9533178e-10  -7.4909840e-04   2.0093502e+00   1.8955712e+00  -3.9842257e+06
   9.9633211e-10  -7.4512342e-04   2.0090636e+00   1.8958872e+00  -3.9631028e+06
   9.9733244e-10  -7.4116951e-04   2.0087786e+00   1.8962015e+00  -3.9420916e+06
   9.9833278e-10  -7.3723657e-04   2.0084951e+00   1.8965142e+00  -3.9211917e+06
   9.9933311e-10  -7.3332447e-04   2.0082131e+00   1.8968253e+00  -3.9004024e+06
   1.0003334e-09  -7.2943312e-04   2.0079326e+00   1.8971347e+00  -3.8797231e+06
   1.0013338e-09  -7.2556240e-04   2.0076536e+00   1.8974426e+00  -3.8591533e+06
   1.0023341e-09  -7.2171220e-04   2.0073761e+00   1.8977488e+00  -3.8386924e+06
   1.0033344e-09  -7.1788242e-04   2.0071001e+00   1.8980534e+00  -3.8183397e+06
   1.0043348e-09  -7.1407294e-04   2.0068256e+00   1.8983565e+00  -3.7980948e+06
   1.0053351e-09  -7.1028366e-04   2.0065525e+00   1.8986579e+00  -3.7779570e+06
   1.0063354e-09  -7.0651447e-04   2.0062809e+00   1.8989578e+00  -3.7579258e+06
   1.0073358e-09  -7.0276527e-04   2.0060108e+00   1.8992561e+00  -3.7380007e+06
   1.0083361e-09  -6.9903594e-04   2.0057421e+00   1.8995529e+00  -3.7181810e+06
   1.0093364e-09  -6.9532639e-04   2.0054748e+00   1.8998481e+00  -3.6984663e+06
   1.0103368e-09  -6.9163650e-04   2.0052090e+00   1.9001418e+00  -3.6788559e+06
   1.0113371e-09  -6.8796619e-04   2.0049446e+00   1.9004339e+00  -3.6593493e+06
   1.0123374e-09  -6.8431533e-04   2.0046816e+00   1.9007246e+00  -3.6399460e+06
   1.0133378e-09  -6.8068383e-04   2.0044200e+00   1.9010137e+00  -3.6206454e+06
   1.0143381e-09  -6.7707159e-04   2.0041598e+00   1.9013013e+00  -3.6014470e+06
   1.0153384e-09  -6.7347850e-04   2.0039010e+00   1.9015873e+00  -3.5823503e+06
   1.0163388e-09  -6.6990446e-04   2.0036436e+00   1.9018719e+00  -3.5633546e+06
   1.0173391e-09  -6.6634938e-04   2.0033876e+00   1.9021550e+00  -3.5444595e+06
   1.0183394e-09  -6.6281315e-04   2.0031329e+00   1.9024367e+00  -3.5256644e+06
   1.0193398e-09  -6.5929566e-04   2.0028796e+00   1.9027168e+00  -3.5069689e+06
   1.0203401e-09  -6.5579683e-04   2.0026276e+00   1.9029955e+00  -3.4883723e+06
   1.0213404e-09  -6.5231656e-04   2.0023770e+00   1.9032727e+00  -3.4698742e+06
   1.0223408e-09  -6.4885474e-04   2.0021278e+00   1.9035485e+00  -3.4514740e+06
   1.0233411e-09  -6.4541127e-04   2.0018798e+00   1.9038229e+00  -3.4331712e+06
   1.0243414e-09  -6.4198607e-04   2.0016332e+00   1.9040958e+00  -3.4149654e+06
   1.0253418e-09  -6.3857903e-04   2.0013880e+00   1.9043673e+00  -3.3968560e+06
   1.0263421e-09  -6.3519006e-04   2.0011440e+00   1.9046373e+00  -3.3788424e+06
   1.0273424e-09  -6.3181906e-04   2.0009013e+00   1.9049060e+00  -3.3609242e+06
   1.0283428e-09  -6.2846594e-04   2.0006599e+00   1.9051732e+00  -3.3431009e+06
   1.0293431e-09  -6.2513060e-04   2.0004199e+00   1.9054391e+00  -3.3253720e+06
   1.0303434e-09  -6.2181294e-04   2.0001811e+00   1.9057035e+00  -3.3077370e+06
   1.0313438e-09  -6.1851288e-04   1.9999435e+00   1.9059666e+00  -3.2901954e+06
   1.0323441e-09  -6.1523033e-04   1.9997073e+00   1.9062283e+00  -3.2727466e+06
   1.0333444e-09  -6.1196518e-04   1.9994723e+00   1.9064887e+00  -3.2553903e+06
   1.0343448e-09  -6.0871734e-04   1.9992386e+00   1.9067476e+00  -3.2381258e+06
   1.0353451e-09  -6.0548673e-04   1.9990061e+00   1.9070052e+00  -3.2209528e+06
   1.0363454e-09  -6.0227326e-04   1.9987748e+00   1.9072615e+00  -3.2038708e+06
   1.0373458e-09  -5.9907682e-04   1.9985448e+00   1.9075164e+00  -3.1868791e+06
   1.0383461e-09  -5.9589734e-04   1.9983161e+00   1.9077700e+00  -3.1699775e+06
   1.0393464e-09  -5.9273472e-04   1.9980885e+00   1.9080223e+00  -3.1531654e+06
   1.0403468e-09  -5.8958888e-04   1.9978622e+00   1.9082732e+00  -3.1364424e+06
   1.0413471e-09  -5.8645972e-04   1.9976370e+00   1.9085229e+00  -3.1198079e+06
   1.0423474e-09  -5.8334715e-04   1.9974131e+00   1.9087712e+00  -3.1032615e+06
   1.0433478e-09  -5.8025109e-04   1.9971904e+00   1.9090182e+00  -3.0868027e+06
   1.0443481e-09  -5.7717146e-04   1.9969689e+00   1.9092639e+00  -3.0704311e+06
   1.0453484e-09  -5.7410815e-04   1.9967485e+00   1.9095084e+00  -3.0541463e+06
   1.0463488e-09  -5.7106110e-04   1.9965293e+00   1.9097515e+00  -3.0379477e+06
   1.0473491e-09  -5.6803020e-04   1.9963113e+00   1.9099934e+00  -3.0218348e+06
   1.0483494e-09  -5.6501538e-04   1.9960945e+00   1.9102340e+00  -3.0058074e+06
   1.0493498e-09  -5.6201655e-04   1.9958788e+00   1.9104734e+00  -2.9898648e+06
   1.0503501e-09  -5.5903363e-04   1.9956643e+00   1.9107115e+00  -2.9740066e+06
   1.0513505e-09  -5.5606653e-04   1.9954509e+00   1.9109484e+00  -2.9582325e+06
   1.0523508e-09  -5.5311516e-04   1.9952386e+00   1.9111840e+00  -2.9425419e+06
   1.0533511e-09  -5.5017945e-04   1.9950275e+00   1.9114184e+00  -2.9269345e+06
   1.0543515e-09  -5.4725931e-04   1.9948176e+00   1.9116515e+00  -2.9114097e+06
   1.0553518e-09  -5.4435466e-04   1.9946087e+00   1.9118835e+00  -2.8959671e+06
   1.0563521e-09  -5.4146542e-04   1.9944010e+00   1.9121142e+00  -2.8806064e+06
   1.0573525e-09  -5.3859150e-04   1.9941943e+00   1.9123437e+00  -2.8653270e+06
   1.0583528e-09  -5.3573283e-04   1.9939888e+00   1.9125720e+00  -2.8501286e+06
   1.0593531e-09  -5.3288932e-04   1.9937844e+00   1.9127991e+00  -2.8350107e+06
   1.0603535e-09  -5.3006089e-04   1.9935810e+00   1.9130250e+00  -2.8199728e+06
   1.0613538e-09  -5.2724746e-04   1.9933788e+00   1.9132498e+00  -2.8050147e+06
   1.0623541e-09  -5.2444896e-04   1.9931776e+00   1.9134733e+00  -2.7901357e+06
   1.0633545e-09  -5.2166530e-04   1.9929775e+00   1.9136957e+00  -2.7753357e+06
   1.0643548e-09  -5.1889641e-04   1.9927785e+00   1.9139169e+00  -2.7606140e+06
   1.0653551e-09  -5.1614221e-04   1.9925805e+00   1.9141370e+00  -2.7459703e+06
   1.0663555e-09  -5.1340261e-04   1.9923836e+00   1.9143559e+00  -2.7314042e+06
   1.0673558e-09  -5.1067755e-04   1.9921877e+00   1.9145737e+00  -2.7169152e+06
   1.0683561e-09  -5.0796694e-04   1.9919929e+00   1.9147903e+00  -2.7025031e+06
   1.0693565e-09  -5.0527071e-04   1.9917992e+00   1.9150057e+00  -2.6881672e+06
   1.0703568e-09  -5.0258879e-04   1.9916064e+00   1.9152201e+00  -2.6739074e+06
   1.0713571e-09  -4.9992109e-04   1.9914147e+00   1.9154333e+00  -2.6597231e+06
   1.0723575e-09  -4.9726754e-04   1.9912240e+00   1.9156454e+00  -2.6456139e+06
   1.0733578e-09  -4.9462807e-04   1.9910344e+00   1.9158564e+00  -2.6315795e+06
   1.0743581e-09  -4.9200260e-04   1.9908457e+00   1.9160663e+00  -2.6176195e+06
   1.0753585e-09  -4.8939106e-04   1.9906581e+00   1.9162751e+00  -2.6037335e+06
   1.0763588e-09  -4.8679337e-04   1.9904714e+00   1.9164828e+00  -2.5899210e+06
   1.0773591e-09  -4.8420947e-04   1.9902858e+00   1.9166894e+00  -2.5761817e+06
   1.0783595e-09  -4.8163927e-04   1.9901011e+00   1.9168949e+00  -2.5625152e+06
   1.0793598e-09  -4.7908270e-04   1.9899174e+00   1.9170993e+00  -2.5489211e+06
   1.0803601e-09  -4.7653970e-04   1.9897347e+00   1.9173027e+00  -2.5353991e+06
   1.0813605e-09  -4.7401019e-04   1.9895530e+00   1.9175050e+00  -2.5219487e+06
   1.0823608e-09  -4.7149410e-04   1.9893723e+00   1.9177062e+00  -2.5085696e+06
   1.0833611e-09  -4.6899135e-04   1.9891925e+00   1.9179064e+00  -2.4952613e+06
   1.0843615e-09  -4.6650189e-04   1.9890137e+00   1.9181055e+00  -2.4820236e+06
   1.0853618e-09  -4.6402563e-04   1.9888358e+00   1.9183036e+00  -2.4688561e+06
   1.0863621e-09  -4.6156250e-04   1.9886589e+00   1.9185006e+00  -2.4557583e+06
   1.0873625e-09  -4.5911245e-04   1.9884829e+00   1.9186966e+00  -2.4427300e+06
   1.0883628e-09  -4.5667539e-04   1.9883079e+00   1.9188916e+00  -2.4297707e+06
   1.0893631e-09  -4.5425126e-04   1.9881338e+00   1.9190855e+00  -2.4168800e+06
   1.0903635e-09  -4.5184000e-04   1.9879606e+00   1.9192785e+00  -2.4040577e+06
   1.0913638e-09  -4.4944152e-04   1.9877884e+00   1.9194704e+00  -2.3913033e+06
   1.0923641e-09  -4.4705577e-04   1.9876171e+00   1.9196613e+00  -2.3786166e+06
   1.0933645e-09  -4.4468268e-04   1.9874466e+00   1.9198512e+00  -2.3659970e+06
   1.0943648e-09  -4.4232218e-04   1.9872771e+00   1.9200401e+00  -2.3534444e+06
   1.0953651e-09  -4.3997420e-04   1.9871085e+00   1.9202280e+00  -2.3409582e+06
   1.0963655e-09  -4.3763867e-04   1.9869409e+00   1.9204150e+00  -2.3285383e+06
   1.0973658e-09  -4.3531554e-04   1.9867740e+00   1.9206009e+00  -2.3161842e+06
   1.0983661e-09  -4.3300474e-04   1.9866081e+00   1.9207859e+00  -2.3038955e+06
   1.0993665e-09  -4.3070619e-04   1.9864431e+00   1.9209699e+00  -2.2916720e+06
   1.1003668e-09  -4.2841984e-04   1.9862790e+00   1.9211529e+00  -2.2795133e+06
   1.1013671e-09  -4.2614563e-04   1.9861157e+00   1.9213350e+00  -2.2674190e+06
   1.1023675e-09  -4.2388347e-04   1.9859533e+00   1.9215161e+00  -2.2553888e+06
   1.1033678e-09  -4.2163332e-04   1.9857918e+00   1.9216962e+00  -2.2434223e+06
   1.1043681e-09  -4.1939511e-04   1.9856311e+00   1.9218755e+00  -2.2315193e+06
   1.1053685e-09  -4.1716877e-04   1.9854713e+00   1.9220537e+00  -2.2196794e+06
   1.1063688e-09  -4.1495425e-04   1.9853123e+00   1.9222311e+00  -2.2079023e+06
   1.1073691e-09  -4.1275147e-04   1.9851542e+00   1.9224075e+00  -2.1961876e+06
   1.1083695e-09  -4.1056039e-04   1.9849969e+00   1.9225829e+00  -2.1845349e+06
   1.1093698e-09  -4.0838093e-04   1.9848405e+00   1.9227575e+00  -2.1729441e+06
   1.1103701e-09  -4.0621303e-04   1.9846849e+00   1.9229311e+00  -2.1614146e+06
   1.1113705e-09  -4.0405664e-04   1.9845301e+00   1.9231038e+00  -2.1499463e+06
   1.1123708e-09  -4.0191168e-04   1.9843762e+00   1.9232756e+00  -2.1385388e+06
   1.1133711e-09  -3.9977811e-04   1.9842231e+00   1.9234465e+00  -2.1271918e+06
   1.1143715e-09  -3.9765586e-04   1.9840708e+00   1.9236166e+00  -2.1159049e+06
   1.1153718e-09  -3.9554487e-04   1.9839193e+00   1.9237857e+00  -2.1046778e+06
   1.1163721e-09  -3.9344508e-04   1.9837686e+00   1.9239539e+00  -2.0935102e+06
   1.1173725e-09  -3.9135643e-04   1.9836187e+00   1.9241212e+00  -2.0824019e+06
   1.1183728e-09  -3.8927887e-04   1.9834696e+00   1.9242877e+00  -2.0713524e+06
   1.1193731e-09  -3.8721233e-04   1.9833213e+00   1.9244533e+00  -2.0603615e+06
   1.1203735e-09  -3.8515675e-04   1.9831739e+00   1.9246180e+00  -2.0494289e+06
   1.1213738e-09  -3.8311208e-04   1.9830271e+00   1.9247818e+00  -2.0385542e+06
   1.1223741e-09  -3.8107826e-04   1.9828812e+00   1.9249448e+00  -2.0277372e+06
   1.1233745e-09  -3.7905523e-04   1.9827361e+00   1.9251069e+00  -2.0169775e+06
   1.1243748e-09  -3.7704294e-04   1.9825917e+00   1.9252682e+00  -2.0062749e+06
   1.1253751e-09  -3.7504133e-04   1.9824481e+00   1.9254286e+00  -1.9956290e+06
   1.1263755e-09  -3.7305033e-04   1.9823053e+00   1.9255882e+00  -1.9850396e+06
   1.1273758e-09  -3.7106991e-04   1.9821632e+00   1.9257470e+00  -1.9745062e+06
   1.1283761e-09  -3.6909999e-04   1.9820219e+00   1.9259049e+00  -1.9640288e+06
   1.1293765e-09  -3.6714052e-04   1.9818813e+00   1.9260619e+00  -1.9536069e+06
   1.1303768e-09  -3.6519145e-04   1.9817415e+00   1.9262182e+00  -1.9432402e+06
   1.1313771e-09  -3.6325272e-04   1.9816024e+00   1.9263736e+00  -1.9329285e+06
   1.1323775e-09  -3.6132429e-04   1.9814641e+00   1.9265282e+00  -1.9226715e+06
   1.1333778e-09  -3.5940608e-04   1.9813265e+00   1.9266820e+00  -1.9124688e+06
   1.1343781e-09  -3.5749805e-04   1.9811897e+00   1.9268350e+00  -1.9023202e+06
   1.1353785e-09  -3.5560015e-04   1.9810535e+00   1.9269872e+00  -1.8922255e+06
   1.1363788e-09  -3.5371232e-04   1.9809181e+00   1.9271385e+00  -1.8821843e+06
   1.1373791e-09  -3.5183451e-04   1.9807835e+00   1.9272891e+00  -1.8721963e+06
   1.1383795e-09  -3.4996666e-04   1.9806495e+00   1.9274389e+00  -1.8622612e+06
   1.1393798e-09  -3.4810873e-04   1.9805162e+00   1.9275879e+00  -1.8523789e+06
   1.1403801e-09  -3.4626065e-04   1.9803837e+00   1.9277361e+00  -1.8425489e+06
   1.1413805e-09  -3.4442238e-04   1.9802519e+00   1.9278835e+00  -1.8327711e+06
   1.1423808e-09  -3.4259387e-04   1.9801208e+00   1.9280302e+00  -1.8230451e+06
   1.1433811e-09  -3.4077506e-04   1.9799903e+00   1.9281761e+00  -1.8133707e+06
   1.1443815e-09  -3.3896590e-04   1.9798606e+00   1.9283212e+00  -1.8037476e+06
   1.1453818e-09  -3.3716634e-04   1.9797316e+00   1.9284655e+00  -1.7941755e+06
   1.1463821e-09  -3.3537634e-04   1.9796032e+00   1.9286091e+00  -1.7846541e+06
   1.1473825e-09  -3.3359583e-04   1.9794755e+00   1.9287519e+00  -1.7751833e+06
   1.1483828e-09  -3.3182477e-04   1.9793486e+00   1.9288940e+00  -1.7657626e+06
   1.1493831e-09  -3.3006311e-04   1.9792222e+00   1.9290353e+00  -1.7563920e+06
   1.1503835e-09  -3.2831080e-04   1.9790966e+00   1.9291759e+00  -1.7470710e+06
   1.1513838e-09  -3.2656778e-04   1.9789716e+00   1.9293158e+00  -1.7377994e+06
   1.1523841e-09  -3.2483402e-04   1.9788473e+00   1.9294549e+00  -1.7285770e+06
   1.1533845e-09  -3.2310946e-04   1.9787237e+00   1.9295933e+00  -1.7194035e+06
   1.1543848e-09  -3.2139405e-04   1.9786007e+00   1.9297309e+00  -1.7102787e+06
   1.1553851e-09  -3.1968775e-04   1.9784784e+00   1.9298678e+00  -1.7012022e+06
   1.1563855e-09  -3.1799050e-04   1.9783567e+00   1.9300040e+00  -1.6921739e+06
   1.1573858e-09  -3.1630225e-04   1.9782357e+00   1.9301395e+00  -1.6831934e+06
   1.1583861e-09  -3.1462297e-04   1.9781153e+00   1.9302743e+00  -1.6742606e+06
   1.1593865e-09  -3.1295260e-04   1.9779956e+00   1.9304083e+00  -1.6653751e+06
   1.1603868e-09  -3.1129109e-04   1.9778765e+00   1.9305417e+00  -1.6565368e+06
   1.1613871e-09  -3.0963841e-04   1.9777580e+00   1.9306743e+00  -1.6477453e+06
   1.1623875e-09  -3.0799449e-04   1.9776402e+00   1.9308063e+00  -1.6390005e+06
   1.1633878e-09  -3.0635930e-04   1.9775230e+00   1.9309375e+00  -1.6303020e+06
   1.1643881e-09  -3.0473278e-04   1.9774064e+00   1.9310681e+00  -1.6216497e+06
   1.1653885e-09  -3.0311490e-04   1.9772904e+00   1.9311980e+00  -1.6130432e+06
   1.1663888e-09  -3.0150560e-04   1.9771751e+00   1.9313271e+00  -1.6044824e+06
   1.1673891e-09  -2.9990485e-04   1.9770604e+00   1.9314557e+00  -1.5959670e+06
   1.1683895e-09  -2.9831259e-04   1.9769462e+00   1.9315835e+00  -1.5874968e+06
   1.1693898e-09  -2.9672878e-04   1.9768327e+00   1.9317106e+00  -1.5790714e+06
   1.1703901e-09  -2.9515338e-04   1.9767198e+00   1.9318371e+00  -1.5706908e+06
   1.1713905e-09  -2.9358634e-04   1.9766075e+00   1.9319629e+00  -1.5623546e+06
   1.1723908e-09  -2.9202761e-04   1.9764958e+00   1.9320881e+00  -1.5540626e+06
   1.1733911e-09  -2.9047716e-04   1.9763847e+00   1.9322126e+00  -1.5458146e+06
   1.1743915e-09  -2.8893494e-04   1.9762742e+00   1.9323364e+00  -1.5376104e+06
   1.1753918e-09  -2.8740090e-04   1.9761643e+00   1.9324596e+00  -1.5294496e+06
   1.1763921e-09  -2.8587500e-04   1.9760549e+00   1.9325821e+00  -1.5213321e+06
   1.1773925e-09  -2.8435721e-04   1.9759462e+00   1.9327040e+00  -1.5132577e+06
   1.1783928e-09  -2.8284746e-04   1.9758380e+00   1.9328253e+00  -1.5052261e+06
   1.1793931e-09  -2.8134574e-04   1.9757304e+00   1.9329459e+00  -1.4972372e+06
   1.1803935e-09  -2.7985198e-04   1.9756234e+00   1.9330658e+00  -1.4892905e+06
   1.1813938e-09  -2.7836615e-04   1.9755169e+00   1.9331852e+00  -1.4813861e+06
   1.1823941e-09  -2.7688820e-04   1.9754110e+00   1.9333039e+00  -1.4735235e+06
   1.1833945e-09  -2.7541810e-04   1.9753057e+00   1.9334220e+00  -1.4657027e+06
   1.1843948e-09  -2.7395581e-04   1.9752009e+00   1.9335394e+00  -1.4579233e+06
   1.1853951e-09  -2.7250127e-04   1.9750967e+00   1.9336563e+00  -1.4501852e+06
   1.1863955e-09  -2.7105445e-04   1.9749931e+00   1.9337725e+00  -1.4424882e+06
   1.1873958e-09  -2.6961532e-04   1.9748900e+00   1.9338881e+00  -1.4348320e+06
   1.1883961e-09  -2.6818382e-04   1.9747874e+00   1.9340031e+00  -1.4272164e+06
   1.1893965e-09  -2.6675992e-04   1.9746854e+00   1.9341175e+00  -1.4196411e+06
   1.1903968e-09  -2.6534358e-04   1.9745839e+00   1.9342313e+00  -1.4121061e+06
   1.1913971e-09  -2.6393475e-04   1.9744830e+00   1.9343445e+00  -1.4046110e+06
   1.1923975e-09  -2.6253340e-04   1.9743826e+00   1.9344570e+00  -1.3971557e+06
   1.1933978e-09  -2.6113950e-04   1.9742828e+00   1.9345690e+00  -1.3897400e+06
   1.1943981e-09  -2.5975298e-04   1.9741835e+00   1.9346804e+00  -1.3823635e+06
   1.1953985e-09  -2.5837383e-04   1.9740847e+00   1.9347913e+00  -1.3750262e+06
   1.1963988e-09  -2.5700200e-04   1.9739864e+00   1.9349015e+00  -1.3677278e+06
   1.1973991e-09  -2.5563745e-04   1.9738887e+00   1.9350111e+00  -1.3604682e+06
   1.1983995e-09  -2.5428015e-04   1.9737915e+00   1.9351202e+00  -1.3532470e+06
   1.1993998e-09  -2.5293004e-04   1.9736948e+00   1.9352287e+00  -1.3460642e+06
   1.2004001e-09  -2.5158711e-04   1.9735986e+00   1.9353366e+00  -1.3389194e+06
   1.2014005e-09  -2.5025130e-04   1.9735029e+00   1.9354440e+00  -1.3318126e+06
   1.2024008e-09  -2.4892258e-04   1.9734077e+00   1.9355508e+00  -1.3247434e+06
   1.2034011e-09  -2.4760092e-04   1.9733131e+00   1.9356570e+00  -1.3177117e+06
   1.2044015e-09  -2.4628627e-04   1.9732189e+00   1.9357626e+00  -1.3107174e+06
   1.2054018e-09  -2.4497859e-04   1.9731253e+00   1.9358678e+00  -1.3037602e+06
   1.2064021e-09  -2.4367786e-04   1.9730321e+00   1.9359723e+00  -1.2968398e+06
   1.2074025e-09  -2.4238404e-04   1.9729395e+00   1.9360763e+00  -1.2899562e+06
   1.2084028e-09  -2.4109708e-04   1.9728473e+00   1.9361797e+00  -1.2831091e+06
   1.2094031e-09  -2.3981695e-04   1.9727556e+00   1.9362826e+00  -1.2762983e+06
   1.2104035e-09  -2.3854362e-04   1.9726644e+00   1.9363850e+00  -1.2695236e+06
   1.2114038e-09  -2.3727704e-04   1.9725737e+00   1.9364868e+00  -1.2627849e+06
   1.2124041e-09  -2.3601719e-04   1.9724835e+00   1.9365881e+00  -1.2560819e+06
   1.2134045e-09  -2.3476403e-04   1.9723938e+00   1.9366888e+00  -1.2494145e+06
   1.2144048e-09  -2.3351752e-04   1.9723045e+00   1.9367891e+00  -1.2427825e+06
   1.2154051e-09  -2.3227763e-04   1.9722157e+00   1.9368887e+00  -1.2361856e+06
   1.2164055e-09  -2.3104431e-04   1.9721274e+00   1.9369879e+00  -1.2296238e+06
   1.2174058e-09  -2.2981755e-04   1.9720396e+00   1.9370865e+00  -1.2230967e+06
   1.2184061e-09  -2.2859729e-04   1.9719522e+00   1.9371846e+00  -1.2166043e+06
   1.2194065e-09  -2.2738351e-04   1.9718653e+00   1.9372822e+00  -1.2101463e+06
   1.2204068e-09  -2.2617618e-04   1.9717789e+00   1.9373793e+00  -1.2037226e+06
   1.2214071e-09  -2.2497525e-04   1.9716929e+00   1.9374759e+00  -1.1973330e+06
   1.2224075e-09  -2.2378070e-04   1.9716074e+00   1.9375719e+00  -1.1909773e+06
   1.2234078e-09  -2.2259249e-04   1.9715223e+00   1.9376675e+00  -1.1846553e+06
   1.2244081e-09  -2.2141059e-04   1.9714377e+00   1.9377625e+00  -1.1783668e+06
   1.2254085e-09  -2.2023496e-04   1.9713535e+00   1.9378571e+00  -1.1721117e+06
   1.2264088e-09  -2.1906558e-04   1.9712698e+00   1.9379511e+00  -1.1658897e+06
   1.2274091e-09  -2.1790240e-04   1.9711865e+00   1.9380446e+00  -1.1597008e+06
   1.2284095e-09  -2.1674539e-04   1.9711037e+00   1.9381377e+00  -1.1535448e+06
   1.2294098e-09  -2.1559453e-04   1.9710213e+00   1.9382303e+00  -1.1474213e+06
   1.2304101e-09  -2.1444977e-04   1.9709393e+00   1.9383223e+00  -1.1413304e+06
   1.2314105e-09  -2.1331109e-04   1.9708578e+00   1.9384139e+00  -1.1352718e+06
   1.2324108e-09  -2.1217846e-04   1.9707768e+00   1.9385050e+00  -1.1292453e+06
   1.2334111e-09  -2.1105184e-04   1.9706961e+00   1.9385956e+00  -1.1232508e+06
   1.2344115e-09  -2.0993120e-04   1.9706159e+00   1.9386858e+00  -1.1172881e+06
   1.2354118e-09  -2.0881651e-04   1.9705361e+00   1.9387754e+00  -1.1113571e+06
   1.2364121e-09  -2.0770773e-04   1.9704567e+00   1.9388646e+00  -1.1054575e+06
   1.2374125e-09  -2.0660484e-04   1.9703778e+00   1.9389533e+00  -1.0995892e+06
   1.2384128e-09  -2.0550781e-04   1.9702993e+00   1.9390416e+00  -1.0937521e+06
   1.2394131e-09  -2.0441660e-04   1.9702211e+00   1.9391294e+00  -1.0879459e+06
   1.2404135e-09  -2.0333118e-04   1.9701435e+00   1.9392167e+00  -1.0821705e+06
   1.2414138e-09  -2.0225153e-04   1.9700662e+00   1.9393035e+00  -1.0764258e+06
   1.2424141e-09  -2.0117760e-04   1.9699893e+00   1.9393899e+00  -1.0707116e+06
   1.2434145e-09  -2.0010938e-04   1.9699129e+00   1.9394759e+00  -1.0650276e+06
   1.2444148e-09  -1.9904683e-04   1.9698368e+00   1.9395614e+00  -1.0593739e+06
   1.2454151e-09  -1.9798991e-04   1.9697612e+00   1.9396464e+00  -1.0537501e+06
   1.2464155e-09  -1.9693861e-04   1.9696859e+00   1.9397310e+00  -1.0481562e+06
   1.2474158e-09  -1.9589289e-04   1.9696111e+00   1.9398151e+00  -1.0425919e+06
   1.2484161e-09  -1.9485272e-04   1.9695366e+00   1.9398988e+00  -1.0370572e+06
   1.2494165e-09  -1.9381808e-04   1.9694626e+00   1.9399821e+00  -1.0315519e+06
   1.2504168e-09  -1.9278892e-04   1.9693889e+00   1.9400649e+00  -1.0260757e+06
   1.2514171e-09  -1.9176523e-04   1.9693157e+00   1.9401473e+00  -1.0206286e+06
   1.2524175e-09  -1.9074697e-04   1.9692428e+00   1.9402292e+00  -1.0152105e+06
   1.2534178e-09  -1.8973412e-04   1.9691703e+00   1.9403107e+00  -1.0098210e+06
   1.2544181e-09  -1.8872665e-04   1.9690982e+00   1.9403918e+00  -1.0044602e+06
   1.2554185e-09  -1.8772452e-04   1.9690265e+00   1.9404724e+00  -9.9912780e+05
   1.2564188e-09  -1.8672772e-04   1.9689552e+00   1.9405526e+00  -9.9382371e+05
   1.2574191e-09  -1.8573620e-04   1.9688842e+00   1.9406324e+00  -9.8854777e+05
   1.2584195e-09  -1.8474995e-04   1.9688137e+00   1.9407118e+00  -9.8329981e+05
   1.2594198e-09  -1.8376894e-04   1.9687435e+00   1.9407908e+00  -9.7807971e+05
   1.2604201e-09  -1.8279313e-04   1.9686736e+00   1.9408693e+00  -9.7288731e+05
   1.2614205e-09  -1.8182251e-04   1.9686042e+00   1.9409474e+00  -9.6772246e+05
   1.2624208e-09  -1.8085703e-04   1.9685351e+00   1.9410251e+00  -9.6258501e+05
   1.2634211e-09  -1.7989669e-04   1.9684664e+00   1.9411024e+00  -9.5747483e+05
   1.2644215e-09  -1.7894144e-04   1.9683980e+00   1.9411793e+00  -9.5239177e+05
   1.2654218e-09  -1.7799126e-04   1.9683300e+00   1.9412558e+00  -9.4733568e+05
   1.2664221e-09  -1.7704612e-04   1.9682624e+00   1.9413319e+00  -9.4230642e+05
   1.2674225e-09  -1.7610601e-04   1.9681951e+00   1.9414075e+00  -9.3730384e+05
   1.2684228e-09  -1.7517088e-04   1.9681282e+00   1.9414828e+00  -9.3232782e+05
   1.2694231e-09  -1.7424072e-04   1.9680617e+00   1.9415577e+00  -9.2737820e+05
   1.2704235e-09  -1.7331550e-04   1.9679955e+00   1.9416322e+00  -9.2245484e+05
   1.2714238e-09  -1.7239519e-04   1.9679296e+00   1.9417062e+00  -9.1755761e+05
   1.2724241e-09  -1.7147976e-04   1.9678641e+00   1.9417799e+00  -9.1268637e+05
   1.2734245e-09  -1.7056920e-04   1.9677990e+00   1.9418532e+00  -9.0784099e+05
   1.2744248e-09  -1.6966347e-04   1.9677342e+00   1.9419262e+00  -9.0302131e+05
   1.2754251e-09  -1.6876254e-04   1.9676697e+00   1.9419987e+00  -8.9822721e+05
   1.2764255e-09  -1.6786640e-04   1.9676056e+00   1.9420708e+00  -8.9345855e+05
   1.2774258e-09  -1.6697502e-04   1.9675419e+00   1.9421426e+00  -8.8871520e+05
   1.2784261e-09  -1.6608837e-04   1.9674784e+00   1.9422140e+00  -8.8399702e+05
   1.2794265e-09  -1.6520643e-04   1.9674153e+00   1.9422850e+00  -8.7930388e+05
   1.2804268e-09  -1.6432917e-04   1.9673526e+00   1.9423556e+00  -8.7463564e+05
   1.2814271e-09  -1.6345657e-04   1.9672902e+00   1.9424259e+00  -8.6999218e+05
   1.2824275e-09  -1.6258860e-04   1.9672281e+00   1.9424958e+00  -8.6537336e+05
   1.2834278e-09  -1.6172524e-04   1.9671663e+00   1.9425653e+00  -8.6077905e+05
   1.2844281e-09  -1.6086646e-04   1.9671049e+00   1.9426344e+00  -8.5620913e+05
   1.2854285e-09  -1.6001224e-04   1.9670438e+00   1.9427032e+00  -8.5166345e+05
   1.2864288e-09  -1.5916255e-04   1.9669830e+00   1.9427716e+00  -8.4714191e+05
   1.2874291e-09  -1.5831738e-04   1.9669225e+00   1.9428397e+00  -8.4264435e+05
   1.2884295e-09  -1.5747670e-04   1.9668624e+00   1.9429074e+00  -8.3817067e+05
   1.2894298e-09  -1.5664047e-04   1.9668026e+00   1.9429747e+00  -8.3372073e+05
   1.2904301e-09  -1.5580869e-04   1.9667431e+00   1.9430417e+00  -8.2929440e+05
   1.2914305e-09  -1.5498132e-04   1.9666839e+00   1.9431083e+00  -8.2489156e+05
   1.2924308e-09  -1.5415835e-04   1.9666250e+00   1.9431746e+00  -8.2051209e+05
   1.2934311e-09  -1.5333974e-04   1.9665665e+00   1.9432405e+00  -8.1615587e+05
   1.2944315e-09  -1.5252548e-04   1.9665082e+00   1.9433061e+00  -8.1182276e+05
   1.2954318e-09  -1.5171555e-04   1.9664503e+00   1.9433714e+00  -8.0751265e+05
   1.2964321e-09  -1.5090991e-04   1.9663927e+00   1.9434362e+00  -8.0322542e+05
   1.2974325e-09  -1.5010855e-04   1.9663354e+00   1.9435008e+00  -7.9896093e+05
   1.2984328e-09  -1.4931145e-04   1.9662784e+00   1.9435650e+00  -7.9471908e+05
   1.2994331e-09  -1.4851858e-04   1.9662216e+00   1.9436288e+00  -7.9049975e+05
   1.3004335e-09  -1.4772992e-04   1.9661652e+00   1.9436924e+00  -7.8630280e+05
   1.3014338e-09  -1.4694544e-04   1.9661091e+00   1.9437555e+00  -7.8212813e+05
   1.3024341e-09  -1.4616513e-04   1.9660533e+00   1.9438184e+00  -7.7797562e+05
   1.3034345e-09  -1.4538896e-04   1.9659978e+00   1.9438809e+00  -7.7384515e+05
   1.3044348e-09  -1.4461692e-04   1.9659426e+00   1.9439431e+00  -7.6973659e+05
   1.3054351e-09  -1.4384897e-04   1.9658877e+00   1.9440050e+00  -7.6564985e+05
   1.3064355e-09  -1.4308510e-04   1.9658330e+00   1.9440665e+00  -7.6158479e+05
   1.3074358e-09  -1.4232529e-04   1.9657787e+00   1.9441277e+00  -7.5754131e+05
   1.3084361e-09  -1.4156951e-04   1.9657246e+00   1.9441886e+00  -7.5351929e+05
   1.3094365e-09  -1.4081774e-04   1.9656709e+00   1.9442491e+00  -7.4951862e+05
   1.3104368e-09  -1.4006996e-04   1.9656174e+00   1.9443094e+00  -7.4553918e+05
   1.3114371e-09  -1.3932615e-04   1.9655642e+00   1.9443693e+00  -7.4158086e+05
   1.3124375e-09  -1.3858630e-04   1.9655113e+00   1.9444289e+00  -7.3764355e+05
   1.3134378e-09  -1.3785037e-04   1.9654587e+00   1.9444882e+00  -7.3372713e+05
   1.3144381e-09  -1.3711835e-04   1.9654063e+00   1.9445472e+00  -7.2983151e+05
   1.3154385e-09  -1.3639021e-04   1.9653543e+00   1.9446058e+00  -7.2595656e+05
   1.3164388e-09  -1.3566594e-04   1.9653025e+00   1.9446642e+00  -7.2210217e+05
   1.3174391e-09  -1.3494552e-04   1.9652509e+00   1.9447222e+00  -7.1826825e+05
   1.3184395e-09  -1.3422892e-04   1.9651997e+00   1.9447799e+00  -7.1445467e+05
   1.3194398e-09  -1.3351613e-04   1.9651487e+00   1.9448374e+00  -7.1066134e+05
   1.3204401e-09  -1.3280712e-04   1.9650980e+00   1.9448945e+00  -7.0688814e+05
   1.3214405e-09  -1.3210187e-04   1.9650476e+00   1.9449513e+00  -7.0313496e+05
   1.3224408e-09  -1.3140037e-04   1.9649974e+00   1.9450078e+00  -6.9940171e+05
   1.3234411e-09  -1.3070260e-04   1.9649475e+00   1.9450641e+00  -6.9568827e+05
   1.3244415e-09  -1.3000852e-04   1.9648979e+00   1.9451200e+00  -6.9199454e+05
   1.3254418e-09  -1.2931814e-04   1.9648486e+00   1.9451756e+00  -6.8832042e+05
   1.3264421e-09  -1.2863142e-04   1.9647995e+00   1.9452309e+00  -6.8466580e+05
   1.3274425e-09  -1.2794834e-04   1.9647506e+00   1.9452860e+00  -6.8103057e+05
   1.3284428e-09  -1.2726890e-04   1.9647020e+00   1.9453407e+00  -6.7741465e+05
   1.3294431e-09  -1.2659306e-04   1.9646537e+00   1.9453952e+00  -6.7381791e+05
   1.3304435e-09  -1.2592080e-04   1.9646056e+00   1.9454494e+00  -6.7024027e+05
   1.3314438e-09  -1.2525212e-04   1.9645578e+00   1.9455033e+00  -6.6668161e+05
   1.3324441e-09  -1.2458699e-04   1.9645103e+00   1.9455569e+00  -6.6314185e+05
   1.3334445e-09  -1.2392539e-04   1.9644630e+00   1.9456102e+00  -6.5962087e+05
   1.3344448e-09  -1.2326730e-04   1.9644159e+00   1.9456632e+00  -6.5611858e+05
   1.3354451e-09  -1.2261271e-04   1.9643691e+00   1.9457160e+00  -6.5263488e+05
   1.3364455e-09  -1.2196159e-04   1.9643226e+00   1.9457684e+00  -6.4916968e+05
   1.3374458e-09  -1.2131393e-04   1.9642763e+00   1.9458206e+00  -6.4572286e+05
   1.3384461e-09  -1.2066971e-04   1.9642302e+00   1.9458725e+00  -6.4229435e+05
   1.3394465e-09  -1.2002891e-04   1.9641844e+00   1.9459242e+00  -6.3888403e+05
   1.3404468e-09  -1.1939151e-04   1.9641388e+00   1.9459755e+00  -6.3549181e+05
   1.3414471e-09  -1.1875749e-04   1.9640935e+00   1.9460266e+00  -6.3211760e+05
   1.3424475e-09  -1.1812685e-04   1.9640484e+00   1.9460775e+00  -6.2876130e+05
   1.3434478e-09  -1.1749955e-04   1.9640035e+00   1.9461280e+00  -6.2542281e+05
   1.3444481e-09  -1.1687558e-04   1.9639589e+00   1.9461783e+00  -6.2210205e+05
   1.3454485e-09  -1.1625492e-04   1.9639146e+00   1.9462283e+00  -6.1879891e+05
   1.3464488e-09  -1.1563756e-04   1.9638704e+00   1.9462781e+00  -6.1551331e+05
   1.3474491e-09  -1.1502348e-04   1.9638265e+00   1.9463276e+00  -6.1224515e+05
   1.3484495e-09  -1.1441266e-04   1.9637829e+00   1.9463768e+00  -6.0899433e+05
   1.3494498e-09  -1.1380508e-04   1.9637394e+00   1.9464258e+00  -6.0576077e+05
   1.3504502e-09  -1.1320073e-04   1.9636962e+00   1.9464745e+00  -6.0254438e+05
   1.3514505e-09  -1.1259958e-04   1.9636532e+00   1.9465230e+00  -5.9934506e+05
   1.3524508e-09  -1.1200163e-04   1.9636105e+00   1.9465712e+00  -5.9616272e+05
   1.3534512e-09  -1.1140685e-04   1.9635680e+00   1.9466191e+00  -5.9299727e+05
   1.3544515e-09  -1.1081523e-04   1.9635257e+00   1.9466668e+00  -5.8984863e+05
   1.3554518e-09  -1.1022676e-04   1.9634836e+00   1.9467142e+00  -5.8671670e+05
   1.3564522e-09  -1.0964140e-04   1.9634418e+00   1.9467614e+00  -5.8360140e+05
   1.3574525e-09  -1.0905916e-04   1.9634002e+00   1.9468084e+00  -5.8050263e+05
   1.3584528e-09  -1.0848001e-04   1.9633588e+00   1.9468550e+00  -5.7742031e+05
   1.3594532e-09  -1.0790393e-04   1.9633176e+00   1.9469015e+00  -5.7435436e+05
   1.3604535e-09  -1.0733091e-04   1.9632766e+00   1.9469477e+00  -5.7130468e+05
   1.3614538e-09  -1.0676093e-04   1.9632359e+00   1.9469936e+00  -5.6827118e+05
   1.3624542e-09  -1.0619398e-04   1.9631953e+00   1.9470393e+00  -5.6525380e+05
   1.3634545e-09  -1.0563004e-04   1.9631550e+00   1.9470848e+00  -5.6225242e+05
   1.3644548e-09  -1.0506910e-04   1.9631149e+00   1.9471300e+00  -5.5926698e+05
   1.3654552e-09  -1.0451113e-04   1.9630751e+00   1.9471750e+00  -5.5629739e+05
   1.3664555e-09  -1.0395613e-04   1.9630354e+00   1.9472197e+00  -5.5334357e+05
   1.3674558e-09  -1.0340407e-04   1.9629959e+00   1.9472642e+00  -5.5040542e+05
   1.3684562e-09  -1.0285494e-04   1.9629567e+00   1.9473085e+00  -5.4748287e+05
   1.3694565e-09  -1.0230873e-04   1.9629176e+00   1.9473526e+00  -5.4457583e+05
   1.3704568e-09  -1.0176542e-04   1.9628788e+00   1.9473964e+00  -5.4168423e+05
   1.3714572e-09  -1.0122500e-04   1.9628402e+00   1.9474399e+00  -5.3880798e+05
   1.3724575e-09  -1.0068744e-04   1.9628017e+00   1.9474833e+00  -5.3594699e+05
   1.3734578e-09  -1.0015274e-04   1.9627635e+00   1.9475264e+00  -5.3310120e+05
   1.3744582e-09  -9.9620879e-05   1.9627255e+00   1.9475693e+00  -5.3027051e+05
   1.3754585e-09  -9.9091841e-05   1.9626877e+00   1.9476119e+00  -5.2745484e+05
   1.3764588e-09  -9.8565613e-05   1.9626501e+00   1.9476543e+00  -5.2465413e+05
   1.3774592e-09  -9.8042178e-05   1.9626127e+00   1.9476966e+00  -5.2186828e+05
   1.3784595e-09  -9.7521523e-05   1.9625755e+00   1.9477385e+00  -5.1909722e+05
   1.3794598e-09  -9.7003633e-05   1.9625384e+00   1.9477803e+00  -5.1634087e+05
   1.3804602e-09  -9.6488492e-05   1.9625016e+00   1.9478218e+00  -5.1359915e+05
   1.3814605e-09  -9.5976087e-05   1.9624650e+00   1.9478631e+00  -5.1087199e+05
   1.3824608e-09  -9.5466403e-05   1.9624286e+00   1.9479042e+00  -5.0815931e+05
   1.3834612e-09  -9.4959425e-05   1.9623923e+00   1.9479451e+00  -5.0546103e+05
   1.3844615e-09  -9.4455139e-05   1.9623563e+00   1.9479858e+00  -5.0277707e+05
   1.3854618e-09  -9.3953530e-05   1.9623205e+00   1.9480262e+00  -5.0010736e+05
   1.3864622e-09  -9.3454586e-05   1.9622848e+00   1.9480665e+00  -4.9745182e+05
   1.3874625e-09  -9.2958290e-05   1.9622493e+00   1.9481065e+00  -4.9481038e+05
   1.3884628e-09  -9.2464630e-05   1.9622140e+00   1.9481463e+00  -4.9218296e+05
   1.3894632e-09  -9.1973591e-05   1.9621790e+00   1.9481859e+00  -4.8956949e+05
   1.3904635e-09  -9.1485160e-05   1.9621440e+00   1.9482253e+00  -4.8696990e+05
   1.3914638e-09  -9.0999322e-05   1.9621093e+00   1.9482645e+00  -4.8438410e+05
   1.3924642e-09  -9.0516064e-05   1.9620748e+00   1.9483034e+00  -4.8181204e+05
   1.3934645e-09  -9.0035372e-05   1.9620404e+00   1.9483422e+00  -4.7925362e+05
   1.3944648e-09  -8.9557233e-05   1.9620063e+00   1.9483808e+00  -4.7670879e+05
   1.3954652e-09  -8.9081632e-05   1.9619723e+00   1.9484191e+00  -4.7417747e+05
   1.3964655e-09  -8.8608557e-05   1.9619385e+00   1.9484573e+00  -4.7165959e+05
   1.3974658e-09  -8.8137994e-05   1.9619048e+00   1.9484952e+00  -4.6915508e+05
   1.3984662e-09  -8.7669930e-05   1.9618714e+00   1.9485330e+00  -4.6666386e+05
   1.3994665e-09  -8.7204351e-05   1.9618381e+00   1.9485705e+00  -4.6418586e+05
   1.4004668e-09  -8.6741244e-05   1.9618050e+00   1.9486079e+00  -4.6172103e+05
   1.4014672e-09  -8.6280596e-05   1.9617721e+00   1.9486450e+00  -4.5926927e+05
   1.4024675e-09  -8.5822395e-05   1.9617394e+00   1.9486820e+00  -4.5683054e+05
   1.4034678e-09  -8.5366626e-05   1.9617068e+00   1.9487187e+00  -4.5440475e+05
   1.4044682e-09  -8.4913278e-05   1.9616744e+00   1.9487553e+00  -4.5199184e+05
   1.4054685e-09  -8.4462337e-05   1.9616422e+00   1.9487917e+00  -4.4959174e+05
   1.4064688e-09  -8.4013790e-05   1.9616101e+00   1.9488278e+00  -4.4720438e+05
   1.4074692e-09  -8.3567626e-05   1.9615782e+00   1.9488638e+00  -4.4482970e+05
   1.4084695e-09  -8.3123830e-05   1.9615465e+00   1.9488996e+00  -4.4246762e+05
   1.4094698e-09  -8.2682391e-05   1.9615150e+00   1.9489352e+00  -4.4011808e+05
   1.4104702e-09  -8.2243296e-05   1.9614836e+00   1.9489706e+00  -4.3778102e+05
   1.4114705e-09  -8.1806533e-05   1.9614524e+00   1.9490059e+00  -4.3545636e+05
   1.4124708e-09  -8.1372089e-05   1.9614213e+00   1.9490409e+00  -4.3314405e+05
   1.4134712e-09  -8.0939952e-05   1.9613905e+00   1.9490758e+00  -4.3084401e+05
   1.4144715e-09  -8.0510110e-05   1.9613598e+00   1.9491104e+00  -4.2855619e+05
   1.4154718e-09  -8.0082550e-05   1.9613292e+00   1.9491449e+00  -4.2628050e+05
   1.4164722e-09  -7.9657260e-05   1.9612988e+00   1.9491792e+00  -4.2401691e+05
   1.4174725e-09  -7.9234229e-05   1.9612686e+00   1.9492133e+00  -4.2176532e+05
   1.4184728e-09  -7.8813444e-05   1.9612385e+00   1.9492473e+00  -4.1952570e+05
   1.4194732e-09  -7.8394894e-05   1.9612086e+00   1.9492810e+00  -4.1729796e+05
   1.4204735e-09  -7.7978566e-05   1.9611789e+00   1.9493146e+00  -4.1508205e+05
   1.4214738e-09  -7.7564449e-05   1.9611493e+00   1.9493480e+00  -4.1287791e+05
   1.4224742e-09  -7.7152531e-05   1.9611198e+00   1.9493813e+00  -4.1068546e+05
   1.4234745e-09  -7.6742800e-05   1.9610906e+00   1.9494143e+00  -4.0850466e+05
   1.4244748e-09  -7.6335245e-05   1.9610614e+00   1.9494472e+00  -4.0633544e+05
   1.4254752e-09  -7.5929855e-05   1.9610325e+00   1.9494799e+00  -4.0417773e+05
   1.4264755e-09  -7.5526617e-05   1.9610037e+00   1.9495124e+00  -4.0203148e+05
   1.4274758e-09  -7.5125520e-05   1.9609750e+00   1.9495448e+00  -3.9989662e+05
   1.4284762e-09  -7.4726553e-05   1.9609465e+00   1.9495770e+00  -3.9777309e+05
   1.4294765e-09  -7.4329705e-05   1.9609181e+00   1.9496090e+00  -3.9566085e+05
   1.4304768e-09  -7.3934964e-05   1.9608899e+00   1.9496408e+00  -3.9355981e+05
   1.4314772e-09  -7.3542319e-05   1.9608619e+00   1.9496725e+00  -3.9146993e+05
   1.4324775e-09  -7.3151759e-05   1.9608340e+00   1.9497040e+00  -3.8939115e+05
   1.4334778e-09  -7.2763273e-05   1.9608062e+00   1.9497353e+00  -3.8732340e+05
   1.4344782e-09  -7.2376850e-05   1.9607786e+00   1.9497665e+00  -3.8526663e+05
   1.4354785e-09  -7.1992479e-05   1.9607511e+00   1.9497975e+00  -3.8322078e+05
   1.4364788e-09  -7.1610149e-05   1.9607238e+00   1.9498284e+00  -3.8118580e+05
   1.4374792e-09  -7.1229850e-05   1.9606967e+00   1.9498591e+00  -3.7916161e+05
   1.4384795e-09  -7.0851570e-05   1.9606696e+00   1.9498896e+00  -3.7714818e+05
   1.4394798e-09  -7.0475298e-05   1.9606428e+00   1.9499199e+00  -3.7514543e+05
   1.4404802e-09  -7.0101025e-05   1.9606160e+00   1.9499501e+00  -3.7315332e+05
   1.4414805e-09  -6.9728739e-05   1.9605894e+00   1.9499802e+00  -3.7117178e+05
   1.4424808e-09  -6.9358431e-05   1.9605630e+00   1.9500100e+00  -3.6920077e+05
   1.4434812e-09  -6.8990088e-05   1.9605366e+00   1.9500398e+00  -3.6724022e+05
   1.4444815e-09  -6.8623702e-05   1.9605105e+00   1.9500693e+00  -3.6529008e+05
   1.4454818e-09  -6.8259261e-05   1.9604844e+00   1.9500987e+00  -3.6335029e+05
   1.4464822e-09  -6.7896755e-05   1.9604585e+00   1.9501280e+00  -3.6142080e+05
   1.4474825e-09  -6.7536175e-05   1.9604328e+00   1.9501571e+00  -3.5950156e+05
   1.4484828e-09  -6.7177509e-05   1.9604071e+00   1.9501860e+00  -3.5759251e+05
   1.4494832e-09  -6.6820748e-05   1.9603817e+00   1.9502148e+00  -3.5569359e+05
   1.4504835e-09  -6.6465881e-05   1.9603563e+00   1.9502434e+00  -3.5380475e+05
   1.4514838e-09  -6.6112899e-05   1.9603311e+00   1.9502719e+00  -3.5192595e+05
   1.4524842e-09  -6.5761791e-05   1.9603060e+00   1.9503002e+00  -3.5005712e+05
   1.4534845e-09  -6.5412548e-05   1.9602810e+00   1.9503284e+00  -3.4819821e+05
   1.4544848e-09  -6.5065159e-05   1.9602562e+00   1.9503564e+00  -3.4634917e+05
   1.4554852e-09  -6.4719616e-05   1.9602315e+00   1.9503843e+00  -3.4450995e+05
   1.4564855e-09  -6.4375907e-05   1.9602070e+00   1.9504120e+00  -3.4268049e+05
   1.4574858e-09  -6.4034023e-05   1.9601826e+00   1.9504396e+00  -3.4086075e+05
   1.4584862e-09  -6.3693955e-05   1.9601583e+00   1.9504671e+00  -3.3905067e+05
   1.4594865e-09  -6.3355692e-05   1.9601341e+00   1.9504944e+00  -3.3725019e+05
   1.4604868e-09  -6.3019226e-05   1.9601101e+00   1.9505215e+00  -3.3545928e+05
   1.4614872e-09  -6.2684547e-05   1.9600862e+00   1.9505485e+00  -3.3367788e+05
   1.4624875e-09  -6.2351645e-05   1.9600624e+00   1.9505754e+00  -3.3190594e+05
