   0.0000000e+00  -1.2206193e-01   6.3483697e+00   4.7601245e-04  -5.2127278e+08
   1.0003334e-12  -1.2154119e-01   6.3474405e+00   4.9562490e-04  -5.1987717e+08
   2.0006669e-12  -1.2102184e-01   6.3464947e+00   5.1598801e-04  -5.1848148e+08
   3.0010003e-12  -1.2050389e-01   6.3455322e+00   5.3712797e-04  -5.1708570e+08
   4.0013338e-12  -1.1998733e-01   6.3445528e+00   5.5907177e-04  -5.1568983e+08
   5.0016672e-12  -1.1947217e-01   6.3435561e+00   5.8184724e-04  -5.1429388e+08
   6.0020007e-12  -1.1895841e-01   6.3425420e+00   6.0548306e-04  -5.1289785e+08
   7.0023341e-12  -1.1844605e-01   6.3415102e+00   6.3000878e-04  -5.1150174e+08
   8.0026676e-12  -1.1793508e-01   6.3404605e+00   6.5545483e-04  -5.1010554e+08
   9.0030010e-12  -1.1742550e-01   6.3393926e+00   6.8185256e-04  -5.0870927e+08
   1.0003334e-11  -1.1691733e-01   6.3383062e+00   7.0923426e-04  -5.0731293e+08
   1.1003668e-11  -1.1641055e-01   6.3372012e+00   7.3763318e-04  -5.0591651e+08
   1.2004001e-11  -1.1590516e-01   6.3360773e+00   7.6708353e-04  -5.0452002e+08
   1.3004335e-11  -1.1540118e-01   6.3349342e+00   7.9762054e-04  -5.0312347e+08
   1.4004668e-11  -1.1489859e-01   6.3337716e+00   8.2928049e-04  -5.0172684e+08
   1.5005002e-11  -1.1439740e-01   6.3325894e+00   8.6210068e-04  -5.0033016e+08
   1.6005335e-11  -1.1389760e-01   6.3313872e+00   8.9611949e-04  -4.9893341e+08
   1.7005669e-11  -1.1339921e-01   6.3301648e+00   9.3137642e-04  -4.9753661e+08
   1.8006002e-11  -1.1290221e-01   6.3289219e+00   9.6791208e-04  -4.9613975e+08
   1.9006335e-11  -1.1240660e-01   6.3276582e+00   1.0057683e-03  -4.9474283e+08
   2.0006669e-11  -1.1191240e-01   6.3263736e+00   1.0449879e-03  -4.9334587e+08
   2.1007002e-11  -1.1141959e-01   6.3250676e+00   1.0856151e-03  -4.9194886e+08
   2.2007336e-11  -1.1092818e-01   6.3237402e+00   1.1276953e-03  -4.9055181e+08
   2.3007669e-11  -1.1043817e-01   6.3223909e+00   1.1712751e-03  -4.8915471e+08
   2.4008003e-11  -1.0994955e-01   6.3210194e+00   1.2164025e-03  -4.8775758e+08
   2.5008336e-11  -1.0946233e-01   6.3196257e+00   1.2631267e-03  -4.8636042e+08
   2.6008670e-11  -1.0897651e-01   6.3182092e+00   1.3114982e-03  -4.8496323e+08
   2.7009003e-11  -1.0849209e-01   6.3167699e+00   1.3615690e-03  -4.8356601e+08
   2.8009336e-11  -1.0800907e-01   6.3153073e+00   1.4133924e-03  -4.8216877e+08
   2.9009670e-11  -1.0752744e-01   6.3138213e+00   1.4670232e-03  -4.8077151e+08
   3.0010003e-11  -1.0704721e-01   6.3123114e+00   1.5225176e-03  -4.7937424e+08
   3.1010337e-11  -1.0656838e-01   6.3107776e+00   1.5799332e-03  -4.7797696e+08
   3.2010670e-11  -1.0609094e-01   6.3092193e+00   1.6393294e-03  -4.7657968e+08
   3.3011004e-11  -1.0561491e-01   6.3076365e+00   1.7007667e-03  -4.7518239e+08
   3.4011337e-11  -1.0514027e-01   6.3060287e+00   1.7643076e-03  -4.7378512e+08
   3.5011671e-11  -1.0466703e-01   6.3043957e+00   1.8300158e-03  -4.7238784e+08
   3.6012004e-11  -1.0419518e-01   6.3027372e+00   1.8979570e-03  -4.7099059e+08
   3.7012337e-11  -1.0372474e-01   6.3010529e+00   1.9681983e-03  -4.6959335e+08
   3.8012671e-11  -1.0325569e-01   6.2993425e+00   2.0408087e-03  -4.6819614e+08
   3.9013004e-11  -1.0278804e-01   6.2976058e+00   2.1158585e-03  -4.6679896e+08
   4.0013338e-11  -1.0232179e-01   6.2958423e+00   2.1934203e-03  -4.6540181e+08
   4.1013671e-11  -1.0185693e-01   6.2940519e+00   2.2735682e-03  -4.6400471e+08
   4.2014005e-11  -1.0139347e-01   6.2922342e+00   2.3563779e-03  -4.6260765e+08
   4.3014338e-11  -1.0093141e-01   6.2903889e+00   2.4419274e-03  -4.6121065e+08
   4.4014672e-11  -1.0047075e-01   6.2885157e+00   2.5302962e-03  -4.5981371e+08
   4.5015005e-11  -1.0001149e-01   6.2866144e+00   2.6215658e-03  -4.5841683e+08
   4.6015338e-11  -9.9553617e-02   6.2846845e+00   2.7158198e-03  -4.5702002e+08
   4.7015672e-11  -9.9097146e-02   6.2827259e+00   2.8131434e-03  -4.5562330e+08
   4.8016005e-11  -9.8642072e-02   6.2807382e+00   2.9136242e-03  -4.5422666e+08
   4.9016339e-11  -9.8188395e-02   6.2787212e+00   3.0173516e-03  -4.5283011e+08
   5.0016672e-11  -9.7736114e-02   6.2766744e+00   3.1244169e-03  -4.5143366e+08
   5.1017006e-11  -9.7285231e-02   6.2745976e+00   3.2349139e-03  -4.5003732e+08
   5.2017339e-11  -9.6835744e-02   6.2724905e+00   3.3489381e-03  -4.4864110e+08
   5.3017673e-11  -9.6387654e-02   6.2703528e+00   3.4665874e-03  -4.4724500e+08
   5.4018006e-11  -9.5940960e-02   6.2681841e+00   3.5879617e-03  -4.4584902e+08
   5.5018339e-11  -9.5495662e-02   6.2659843e+00   3.7131632e-03  -4.4445319e+08
   5.6018673e-11  -9.5051761e-02   6.2637528e+00   3.8422963e-03  -4.4305750e+08
   5.7019006e-11  -9.4609256e-02   6.2614896e+00   3.9754677e-03  -4.4166197e+08
   5.8019340e-11  -9.4168146e-02   6.2591942e+00   4.1127863e-03  -4.4026660e+08
   5.9019673e-11  -9.3728432e-02   6.2568663e+00   4.2543634e-03  -4.3887141e+08
   6.0020007e-11  -9.3290114e-02   6.2545057e+00   4.4003125e-03  -4.3747639e+08
   6.1020340e-11  -9.2853191e-02   6.2521119e+00   4.5507497e-03  -4.3608157e+08
   6.2020674e-11  -9.2417663e-02   6.2496848e+00   4.7057933e-03  -4.3468695e+08
   6.3021007e-11  -9.1983530e-02   6.2472240e+00   4.8655641e-03  -4.3329253e+08
   6.4021340e-11  -9.1550792e-02   6.2447292e+00   5.0301853e-03  -4.3189834e+08
   6.5021674e-11  -9.1119448e-02   6.2422001e+00   5.1997826e-03  -4.3050437e+08
   6.6022007e-11  -9.0689498e-02   6.2396364e+00   5.3744841e-03  -4.2911064e+08
   6.7022341e-11  -9.0260943e-02   6.2370377e+00   5.5544207e-03  -4.2771716e+08
   6.8022674e-11  -8.9833781e-02   6.2344038e+00   5.7397256e-03  -4.2632395e+08
   6.9023008e-11  -8.9408013e-02   6.2317344e+00   5.9305346e-03  -4.2493100e+08
   7.0023341e-11  -8.8983637e-02   6.2290291e+00   6.1269861e-03  -4.2353833e+08
   7.1023675e-11  -8.8560655e-02   6.2262877e+00   6.3292212e-03  -4.2214596e+08
   7.2024008e-11  -8.8139065e-02   6.2235099e+00   6.5373834e-03  -4.2075389e+08
   7.3024341e-11  -8.7718868e-02   6.2206953e+00   6.7516192e-03  -4.1936213e+08
   7.4024675e-11  -8.7300062e-02   6.2178436e+00   6.9720774e-03  -4.1797071e+08
   7.5025008e-11  -8.6882649e-02   6.2149546e+00   7.1989098e-03  -4.1657962e+08
   7.6025342e-11  -8.6466626e-02   6.2120279e+00   7.4322707e-03  -4.1518888e+08
   7.7025675e-11  -8.6051994e-02   6.2090633e+00   7.6723172e-03  -4.1379851e+08
   7.8026009e-11  -8.5638753e-02   6.2060605e+00   7.9192092e-03  -4.1240851e+08
   7.9026342e-11  -8.5226903e-02   6.2030191e+00   8.1731091e-03  -4.1101890e+08
   8.0026676e-11  -8.4816442e-02   6.1999388e+00   8.4341823e-03  -4.0962969e+08
   8.1027009e-11  -8.4407370e-02   6.1968195e+00   8.7025969e-03  -4.0824090e+08
   8.2027342e-11  -8.3999687e-02   6.1936607e+00   8.9785239e-03  -4.0685253e+08
   8.3027676e-11  -8.3593393e-02   6.1904623e+00   9.2621368e-03  -4.0546461e+08
   8.4028009e-11  -8.3188487e-02   6.1872238e+00   9.5536123e-03  -4.0407715e+08
   8.5028343e-11  -8.2784968e-02   6.1839451e+00   9.8531294e-03  -4.0269015e+08
   8.6028676e-11  -8.2382837e-02   6.1806258e+00   1.0160870e-02  -4.0130364e+08
   8.7029010e-11  -8.1982092e-02   6.1772656e+00   1.0477020e-02  -3.9991762e+08
   8.8029343e-11  -8.1582733e-02   6.1738644e+00   1.0801767e-02  -3.9853212e+08
   8.9029677e-11  -8.1184760e-02   6.1704217e+00   1.1135300e-02  -3.9714715e+08
   9.0030010e-11  -8.0788173e-02   6.1669374e+00   1.1477814e-02  -3.9576272e+08
   9.1030343e-11  -8.0392969e-02   6.1634111e+00   1.1829504e-02  -3.9437885e+08
   9.2030677e-11  -7.9999150e-02   6.1598427e+00   1.2190571e-02  -3.9299556e+08
   9.3031010e-11  -7.9606714e-02   6.1562318e+00   1.2561214e-02  -3.9161285e+08
   9.4031344e-11  -7.9215660e-02   6.1525781e+00   1.2941640e-02  -3.9023075e+08
   9.5031677e-11  -7.8825989e-02   6.1488814e+00   1.3332056e-02  -3.8884927e+08
   9.6032011e-11  -7.8437699e-02   6.1451415e+00   1.3732671e-02  -3.8746844e+08
   9.7032344e-11  -7.8050791e-02   6.1413581e+00   1.4143699e-02  -3.8608825e+08
   9.8032678e-11  -7.7665262e-02   6.1375309e+00   1.4565355e-02  -3.8470874e+08
   9.9033011e-11  -7.7281113e-02   6.1336597e+00   1.4997859e-02  -3.8332992e+08
   1.0003334e-10  -7.6898343e-02   6.1297442e+00   1.5441430e-02  -3.8195181e+08
   1.0103368e-10  -7.6516951e-02   6.1257843e+00   1.5896294e-02  -3.8057442e+08
   1.0203401e-10  -7.6136936e-02   6.1217796e+00   1.6362677e-02  -3.7919777e+08
   1.0303434e-10  -7.5758298e-02   6.1177300e+00   1.6840808e-02  -3.7782188e+08
   1.0403468e-10  -7.5381036e-02   6.1136351e+00   1.7330919e-02  -3.7644677e+08
   1.0503501e-10  -7.5005149e-02   6.1094949e+00   1.7833244e-02  -3.7507245e+08
   1.0603535e-10  -7.4630637e-02   6.1053090e+00   1.8348021e-02  -3.7369896e+08
   1.0703568e-10  -7.4257497e-02   6.1010772e+00   1.8875490e-02  -3.7232629e+08
   1.0803601e-10  -7.3885731e-02   6.0967994e+00   1.9415892e-02  -3.7095448e+08
   1.0903635e-10  -7.3515336e-02   6.0924753e+00   1.9969473e-02  -3.6958354e+08
   1.1003668e-10  -7.3146312e-02   6.0881047e+00   2.0536479e-02  -3.6821349e+08
   1.1103701e-10  -7.2778658e-02   6.0836874e+00   2.1117160e-02  -3.6684435e+08
   1.1203735e-10  -7.2412373e-02   6.0792232e+00   2.1711768e-02  -3.6547614e+08
   1.1303768e-10  -7.2047456e-02   6.0747119e+00   2.2320557e-02  -3.6410889e+08
   1.1403801e-10  -7.1683906e-02   6.0701534e+00   2.2943785e-02  -3.6274260e+08
   1.1503835e-10  -7.1321723e-02   6.0655474e+00   2.3581709e-02  -3.6137731e+08
   1.1603868e-10  -7.0960904e-02   6.0608938e+00   2.4234591e-02  -3.6001302e+08
   1.1703901e-10  -7.0601450e-02   6.0561924e+00   2.4902693e-02  -3.5864977e+08
   1.1803935e-10  -7.0243359e-02   6.0514430e+00   2.5586282e-02  -3.5728758e+08
   1.1903968e-10  -6.9886630e-02   6.0466455e+00   2.6285623e-02  -3.5592646e+08
   1.2004001e-10  -6.9531262e-02   6.0417997e+00   2.7000988e-02  -3.5456643e+08
   1.2104035e-10  -6.9177254e-02   6.0369055e+00   2.7732645e-02  -3.5320753e+08
   1.2204068e-10  -6.8824604e-02   6.0319627e+00   2.8480869e-02  -3.5184976e+08
   1.2304101e-10  -6.8473312e-02   6.0269712e+00   2.9245935e-02  -3.5049315e+08
   1.2404135e-10  -6.8123377e-02   6.0219308e+00   3.0028118e-02  -3.4913773e+08
   1.2504168e-10  -6.7774796e-02   6.0168415e+00   3.0827697e-02  -3.4778352e+08
   1.2604201e-10  -6.7427570e-02   6.0117030e+00   3.1644951e-02  -3.4643053e+08
   1.2704235e-10  -6.7081696e-02   6.0065154e+00   3.2480162e-02  -3.4507879e+08
   1.2804268e-10  -6.6737174e-02   6.0012784e+00   3.3333612e-02  -3.4372833e+08
   1.2904301e-10  -6.6394003e-02   5.9959919e+00   3.4205586e-02  -3.4237916e+08
   1.3004335e-10  -6.6052180e-02   5.9906560e+00   3.5096367e-02  -3.4103131e+08
   1.3104368e-10  -6.5711704e-02   5.9852703e+00   3.6006244e-02  -3.3968480e+08
   1.3204401e-10  -6.5372575e-02   5.9798350e+00   3.6935502e-02  -3.3833966e+08
   1.3304435e-10  -6.5034791e-02   5.9743499e+00   3.7884431e-02  -3.3699591e+08
   1.3404468e-10  -6.4698350e-02   5.9688150e+00   3.8853320e-02  -3.3565357e+08
   1.3504502e-10  -6.4363251e-02   5.9632301e+00   3.9842460e-02  -3.3431267e+08
   1.3604535e-10  -6.4029493e-02   5.9575952e+00   4.0852140e-02  -3.3297323e+08
   1.3704568e-10  -6.3697074e-02   5.9519103e+00   4.1882654e-02  -3.3163527e+08
   1.3804602e-10  -6.3365993e-02   5.9461753e+00   4.2934293e-02  -3.3029882e+08
   1.3904635e-10  -6.3036247e-02   5.9403902e+00   4.4007350e-02  -3.2896391e+08
   1.4004668e-10  -6.2707837e-02   5.9345549e+00   4.5102118e-02  -3.2763055e+08
   1.4104702e-10  -6.2380759e-02   5.9286694e+00   4.6218890e-02  -3.2629877e+08
   1.4204735e-10  -6.2055013e-02   5.9227338e+00   4.7357959e-02  -3.2496860e+08
   1.4304768e-10  -6.1730596e-02   5.9167479e+00   4.8519620e-02  -3.2364006e+08
   1.4404802e-10  -6.1407507e-02   5.9107118e+00   4.9704165e-02  -3.2231318e+08
   1.4504835e-10  -6.1085745e-02   5.9046256e+00   5.0911888e-02  -3.2098798e+08
   1.4604868e-10  -6.0765308e-02   5.8984891e+00   5.2143081e-02  -3.1966448e+08
   1.4704902e-10  -6.0446194e-02   5.8923025e+00   5.3398038e-02  -3.1834272e+08
   1.4804935e-10  -6.0128401e-02   5.8860657e+00   5.4677050e-02  -3.1702271e+08
   1.4904968e-10  -5.9811928e-02   5.8797788e+00   5.5980410e-02  -3.1570448e+08
   1.5005002e-10  -5.9496773e-02   5.8734419e+00   5.7308407e-02  -3.1438806e+08
   1.5105035e-10  -5.9182933e-02   5.8670549e+00   5.8661332e-02  -3.1307347e+08
   1.5205068e-10  -5.8870408e-02   5.8606180e+00   6.0039474e-02  -3.1176073e+08
   1.5305102e-10  -5.8559195e-02   5.8541312e+00   6.1443120e-02  -3.1044988e+08
   1.5405135e-10  -5.8249292e-02   5.8475945e+00   6.2872558e-02  -3.0914094e+08
   1.5505168e-10  -5.7940697e-02   5.8410081e+00   6.4328072e-02  -3.0783393e+08
   1.5605202e-10  -5.7633410e-02   5.8343721e+00   6.5809947e-02  -3.0652888e+08
   1.5705235e-10  -5.7327426e-02   5.8276865e+00   6.7318466e-02  -3.0522582e+08
   1.5805268e-10  -5.7022745e-02   5.8209515e+00   6.8853909e-02  -3.0392476e+08
   1.5905302e-10  -5.6719365e-02   5.8141671e+00   7.0416554e-02  -3.0262575e+08
   1.6005335e-10  -5.6417283e-02   5.8073335e+00   7.2006680e-02  -3.0132879e+08
   1.6105368e-10  -5.6116498e-02   5.8004508e+00   7.3624561e-02  -3.0003392e+08
   1.6205402e-10  -5.5817006e-02   5.7935192e+00   7.5270470e-02  -2.9874117e+08
   1.6305435e-10  -5.5518807e-02   5.7865388e+00   7.6944678e-02  -2.9745055e+08
   1.6405468e-10  -5.5221898e-02   5.7795097e+00   7.8647453e-02  -2.9616210e+08
   1.6505502e-10  -5.4926277e-02   5.7724321e+00   8.0379060e-02  -2.9487584e+08
   1.6605535e-10  -5.4631942e-02   5.7653062e+00   8.2139762e-02  -2.9359179e+08
   1.6705569e-10  -5.4338889e-02   5.7581321e+00   8.3929820e-02  -2.9230999e+08
   1.6805602e-10  -5.4047119e-02   5.7509101e+00   8.5749491e-02  -2.9103045e+08
   1.6905635e-10  -5.3756626e-02   5.7436403e+00   8.7599030e-02  -2.8975321e+08
   1.7005669e-10  -5.3467411e-02   5.7363229e+00   8.9478686e-02  -2.8847828e+08
   1.7105702e-10  -5.3179470e-02   5.7289582e+00   9.1388709e-02  -2.8720570e+08
   1.7205735e-10  -5.2892800e-02   5.7215463e+00   9.3329343e-02  -2.8593549e+08
   1.7305769e-10  -5.2607400e-02   5.7140875e+00   9.5300828e-02  -2.8466767e+08
   1.7405802e-10  -5.2323268e-02   5.7065820e+00   9.7303402e-02  -2.8340227e+08
   1.7505835e-10  -5.2040400e-02   5.6990301e+00   9.9337299e-02  -2.8213932e+08
   1.7605869e-10  -5.1758794e-02   5.6914319e+00   1.0140275e-01  -2.8087883e+08
   1.7705902e-10  -5.1478448e-02   5.6837879e+00   1.0349998e-01  -2.7962085e+08
   1.7805935e-10  -5.1199359e-02   5.6760981e+00   1.0562920e-01  -2.7836538e+08
   1.7905969e-10  -5.0921525e-02   5.6683630e+00   1.0779065e-01  -2.7711246e+08
   1.8006002e-10  -5.0644943e-02   5.6605827e+00   1.0998452e-01  -2.7586210e+08
   1.8106035e-10  -5.0369610e-02   5.6527575e+00   1.1221103e-01  -2.7461435e+08
   1.8206069e-10  -5.0095525e-02   5.6448879e+00   1.1447038e-01  -2.7336921e+08
   1.8306102e-10  -4.9822684e-02   5.6369740e+00   1.1676278e-01  -2.7212671e+08
   1.8406135e-10  -4.9551084e-02   5.6290161e+00   1.1908841e-01  -2.7088689e+08
   1.8506169e-10  -4.9280724e-02   5.6210147e+00   1.2144747e-01  -2.6964975e+08
   1.8606202e-10  -4.9011600e-02   5.6129700e+00   1.2384014e-01  -2.6841533e+08
   1.8706235e-10  -4.8743709e-02   5.6048823e+00   1.2626660e-01  -2.6718366e+08
   1.8806269e-10  -4.8477049e-02   5.5967520e+00   1.2872703e-01  -2.6595474e+08
   1.8906302e-10  -4.8211618e-02   5.5885794e+00   1.3122159e-01  -2.6472862e+08
   1.9006335e-10  -4.7947411e-02   5.5803650e+00   1.3375044e-01  -2.6350530e+08
   1.9106369e-10  -4.7684427e-02   5.5721089e+00   1.3631376e-01  -2.6228482e+08
   1.9206402e-10  -4.7422663e-02   5.5638118e+00   1.3891168e-01  -2.6106720e+08
   1.9306435e-10  -4.7162115e-02   5.5554738e+00   1.4154436e-01  -2.5985246e+08
   1.9406469e-10  -4.6902781e-02   5.5470954e+00   1.4421193e-01  -2.5864062e+08
   1.9506502e-10  -4.6644658e-02   5.5386769e+00   1.4691454e-01  -2.5743170e+08
   1.9606536e-10  -4.6387743e-02   5.5302188e+00   1.4965231e-01  -2.5622574e+08
   1.9706569e-10  -4.6132033e-02   5.5217215e+00   1.5242536e-01  -2.5502275e+08
   1.9806602e-10  -4.5877526e-02   5.5131854e+00   1.5523382e-01  -2.5382274e+08
   1.9906636e-10  -4.5624217e-02   5.5046109e+00   1.5807779e-01  -2.5262576e+08
   2.0006669e-10  -4.5372104e-02   5.4959984e+00   1.6095739e-01  -2.5143181e+08
   2.0106702e-10  -4.5121184e-02   5.4873484e+00   1.6387270e-01  -2.5024092e+08
   2.0206736e-10  -4.4871454e-02   5.4786612e+00   1.6682382e-01  -2.4905310e+08
   2.0306769e-10  -4.4622911e-02   5.4699374e+00   1.6981084e-01  -2.4786839e+08
   2.0406802e-10  -4.4375551e-02   5.4611773e+00   1.7283383e-01  -2.4668680e+08
   2.0506836e-10  -4.4129372e-02   5.4523815e+00   1.7589288e-01  -2.4550835e+08
   2.0606869e-10  -4.3884371e-02   5.4435504e+00   1.7898804e-01  -2.4433306e+08
   2.0706902e-10  -4.3640544e-02   5.4346844e+00   1.8211938e-01  -2.4316095e+08
   2.0806936e-10  -4.3397887e-02   5.4257840e+00   1.8528695e-01  -2.4199204e+08
   2.0906969e-10  -4.3156399e-02   5.4168497e+00   1.8849079e-01  -2.4082636e+08
   2.1007002e-10  -4.2916075e-02   5.4078820e+00   1.9173095e-01  -2.3966392e+08
   2.1107036e-10  -4.2676913e-02   5.3988814e+00   1.9500745e-01  -2.3850473e+08
   2.1207069e-10  -4.2438909e-02   5.3898483e+00   1.9832033e-01  -2.3734883e+08
   2.1307102e-10  -4.2202059e-02   5.3807833e+00   2.0166961e-01  -2.3619622e+08
   2.1407136e-10  -4.1966361e-02   5.3716868e+00   2.0505529e-01  -2.3504692e+08
   2.1507169e-10  -4.1731811e-02   5.3625594e+00   2.0847738e-01  -2.3390096e+08
   2.1607202e-10  -4.1498406e-02   5.3534015e+00   2.1193588e-01  -2.3275836e+08
   2.1707236e-10  -4.1266143e-02   5.3442137e+00   2.1543079e-01  -2.3161912e+08
   2.1807269e-10  -4.1035017e-02   5.3349966e+00   2.1896208e-01  -2.3048326e+08
   2.1907302e-10  -4.0805026e-02   5.3257505e+00   2.2252973e-01  -2.2935081e+08
   2.2007336e-10  -4.0576167e-02   5.3164761e+00   2.2613372e-01  -2.2822178e+08
   2.2107369e-10  -4.0348435e-02   5.3071738e+00   2.2977400e-01  -2.2709619e+08
   2.2207402e-10  -4.0121828e-02   5.2978443e+00   2.3345054e-01  -2.2597404e+08
   2.2307436e-10  -3.9896342e-02   5.2884880e+00   2.3716328e-01  -2.2485537e+08
   2.2407469e-10  -3.9671973e-02   5.2791055e+00   2.4091217e-01  -2.2374018e+08
   2.2507503e-10  -3.9448718e-02   5.2696973e+00   2.4469715e-01  -2.2262849e+08
   2.2607536e-10  -3.9226574e-02   5.2602641e+00   2.4851813e-01  -2.2152031e+08
   2.2707569e-10  -3.9005536e-02   5.2508062e+00   2.5237504e-01  -2.2041566e+08
   2.2807603e-10  -3.8785602e-02   5.2413243e+00   2.5626781e-01  -2.1931455e+08
   2.2907636e-10  -3.8566768e-02   5.2318190e+00   2.6019633e-01  -2.1821701e+08
   2.3007669e-10  -3.8349030e-02   5.2222908e+00   2.6416050e-01  -2.1712303e+08
   2.3107703e-10  -3.8132385e-02   5.2127402e+00   2.6816023e-01  -2.1603263e+08
   2.3207736e-10  -3.7916829e-02   5.2031678e+00   2.7219539e-01  -2.1494584e+08
   2.3307769e-10  -3.7702358e-02   5.1935742e+00   2.7626588e-01  -2.1386265e+08
   2.3407803e-10  -3.7488969e-02   5.1839600e+00   2.8037155e-01  -2.1278308e+08
   2.3507836e-10  -3.7276659e-02   5.1743257e+00   2.8451229e-01  -2.1170716e+08
   2.3607869e-10  -3.7065423e-02   5.1646719e+00   2.8868795e-01  -2.1063487e+08
   2.3707903e-10  -3.6855258e-02   5.1549991e+00   2.9289838e-01  -2.0956625e+08
   2.3807936e-10  -3.6646161e-02   5.1453080e+00   2.9714343e-01  -2.0850130e+08
   2.3907969e-10  -3.6438127e-02   5.1355991e+00   3.0142295e-01  -2.0744002e+08
   2.4008003e-10  -3.6231153e-02   5.1258730e+00   3.0573676e-01  -2.0638244e+08
   2.4108036e-10  -3.6025235e-02   5.1161302e+00   3.1008470e-01  -2.0532856e+08
   2.4208069e-10  -3.5820369e-02   5.1063714e+00   3.1446659e-01  -2.0427839e+08
   2.4308103e-10  -3.5616553e-02   5.0965971e+00   3.1888224e-01  -2.0323195e+08
   2.4408136e-10  -3.5413781e-02   5.0868079e+00   3.2333146e-01  -2.0218923e+08
   2.4508169e-10  -3.5212051e-02   5.0770043e+00   3.2781405e-01  -2.0115026e+08
   2.4608203e-10  -3.5011359e-02   5.0671870e+00   3.3232982e-01  -2.0011503e+08
   2.4708236e-10  -3.4811700e-02   5.0573566e+00   3.3687854e-01  -1.9908357e+08
   2.4808269e-10  -3.4613071e-02   5.0475136e+00   3.4146002e-01  -1.9805586e+08
   2.4908303e-10  -3.4415469e-02   5.0376585e+00   3.4607403e-01  -1.9703194e+08
   2.5008336e-10  -3.4218889e-02   5.0277920e+00   3.5072033e-01  -1.9601179e+08
   2.5108369e-10  -3.4023327e-02   5.0179147e+00   3.5539871e-01  -1.9499543e+08
   2.5208403e-10  -3.3828781e-02   5.0080271e+00   3.6010891e-01  -1.9398287e+08
   2.5308436e-10  -3.3635246e-02   4.9981298e+00   3.6485070e-01  -1.9297411e+08
   2.5408469e-10  -3.3442718e-02   4.9882234e+00   3.6962384e-01  -1.9196915e+08
   2.5508503e-10  -3.3251194e-02   4.9783084e+00   3.7442805e-01  -1.9096802e+08
   2.5608536e-10  -3.3060669e-02   4.9683854e+00   3.7926310e-01  -1.8997070e+08
   2.5708570e-10  -3.2871140e-02   4.9584551e+00   3.8412870e-01  -1.8897721e+08
   2.5808603e-10  -3.2682603e-02   4.9485179e+00   3.8902460e-01  -1.8798755e+08
   2.5908636e-10  -3.2495054e-02   4.9385744e+00   3.9395052e-01  -1.8700172e+08
   2.6008670e-10  -3.2308490e-02   4.9286253e+00   3.9890618e-01  -1.8601974e+08
   2.6108703e-10  -3.2122906e-02   4.9186710e+00   4.0389129e-01  -1.8504160e+08
   2.6208736e-10  -3.1938298e-02   4.9087122e+00   4.0890557e-01  -1.8406730e+08
   2.6308770e-10  -3.1754664e-02   4.8987494e+00   4.1394872e-01  -1.8309686e+08
   2.6408803e-10  -3.1571998e-02   4.8887831e+00   4.1902045e-01  -1.8213028e+08
   2.6508836e-10  -3.1390298e-02   4.8788139e+00   4.2412045e-01  -1.8116755e+08
   2.6608870e-10  -3.1209558e-02   4.8688424e+00   4.2924843e-01  -1.8020869e+08
   2.6708903e-10  -3.1029776e-02   4.8588692e+00   4.3440406e-01  -1.7925368e+08
   2.6808936e-10  -3.0850948e-02   4.8488947e+00   4.3958704e-01  -1.7830255e+08
   2.6908970e-10  -3.0673069e-02   4.8389195e+00   4.4479704e-01  -1.7735528e+08
   2.7009003e-10  -3.0496135e-02   4.8289442e+00   4.5003375e-01  -1.7641188e+08
   2.7109036e-10  -3.0320144e-02   4.8189693e+00   4.5529683e-01  -1.7547235e+08
   2.7209070e-10  -3.0145090e-02   4.8089953e+00   4.6058597e-01  -1.7453670e+08
   2.7309103e-10  -2.9970971e-02   4.7990229e+00   4.6590083e-01  -1.7360492e+08
   2.7409136e-10  -2.9797782e-02   4.7890524e+00   4.7124106e-01  -1.7267701e+08
   2.7509170e-10  -2.9625519e-02   4.7790845e+00   4.7660634e-01  -1.7175297e+08
   2.7609203e-10  -2.9454178e-02   4.7691197e+00   4.8199632e-01  -1.7083281e+08
   2.7709236e-10  -2.9283756e-02   4.7591585e+00   4.8741065e-01  -1.6991652e+08
   2.7809270e-10  -2.9114249e-02   4.7492013e+00   4.9284899e-01  -1.6900410e+08
   2.7909303e-10  -2.8945653e-02   4.7392489e+00   4.9831099e-01  -1.6809555e+08
   2.8009336e-10  -2.8777963e-02   4.7293015e+00   5.0379629e-01  -1.6719088e+08
   2.8109370e-10  -2.8611177e-02   4.7193598e+00   5.0930453e-01  -1.6629008e+08
   2.8209403e-10  -2.8445290e-02   4.7094242e+00   5.1483536e-01  -1.6539314e+08
   2.8309436e-10  -2.8280298e-02   4.6994953e+00   5.2038842e-01  -1.6450007e+08
   2.8409470e-10  -2.8116198e-02   4.6895736e+00   5.2596334e-01  -1.6361086e+08
   2.8509503e-10  -2.7952985e-02   4.6796595e+00   5.3155975e-01  -1.6272552e+08
   2.8609537e-10  -2.7790656e-02   4.6697535e+00   5.3717730e-01  -1.6184404e+08
   2.8709570e-10  -2.7629207e-02   4.6598561e+00   5.4281561e-01  -1.6096641e+08
   2.8809603e-10  -2.7468634e-02   4.6499678e+00   5.4847431e-01  -1.6009264e+08
   2.8909637e-10  -2.7308933e-02   4.6400891e+00   5.5415302e-01  -1.5922271e+08
   2.9009670e-10  -2.7150100e-02   4.6302204e+00   5.5985138e-01  -1.5835664e+08
   2.9109703e-10  -2.6992132e-02   4.6203622e+00   5.6556900e-01  -1.5749441e+08
   2.9209737e-10  -2.6835024e-02   4.6105150e+00   5.7130551e-01  -1.5663601e+08
   2.9309770e-10  -2.6678773e-02   4.6006792e+00   5.7706054e-01  -1.5578146e+08
   2.9409803e-10  -2.6523375e-02   4.5908552e+00   5.8283369e-01  -1.5493073e+08
   2.9509837e-10  -2.6368826e-02   4.5810436e+00   5.8862460e-01  -1.5408383e+08
   2.9609870e-10  -2.6215123e-02   4.5712448e+00   5.9443288e-01  -1.5324076e+08
   2.9709903e-10  -2.6062260e-02   4.5614591e+00   6.0025814e-01  -1.5240150e+08
   2.9809937e-10  -2.5910236e-02   4.5516870e+00   6.0610001e-01  -1.5156605e+08
   2.9909970e-10  -2.5759045e-02   4.5419291e+00   6.1195810e-01  -1.5073441e+08
   3.0010003e-10  -2.5608684e-02   4.5321856e+00   6.1783203e-01  -1.4990657e+08
   3.0110037e-10  -2.5459150e-02   4.5224569e+00   6.2372141e-01  -1.4908253e+08
   3.0210070e-10  -2.5310437e-02   4.5127436e+00   6.2962586e-01  -1.4826227e+08
   3.0310103e-10  -2.5162544e-02   4.5030461e+00   6.3554499e-01  -1.4744580e+08
   3.0410137e-10  -2.5015465e-02   4.4933646e+00   6.4147841e-01  -1.4663311e+08
   3.0510170e-10  -2.4869197e-02   4.4836996e+00   6.4742575e-01  -1.4582419e+08
   3.0610203e-10  -2.4723737e-02   4.4740516e+00   6.5338662e-01  -1.4501903e+08
   3.0710237e-10  -2.4579080e-02   4.4644209e+00   6.5936063e-01  -1.4421763e+08
   3.0810270e-10  -2.4435223e-02   4.4548078e+00   6.6534739e-01  -1.4341997e+08
   3.0910303e-10  -2.4292162e-02   4.4452128e+00   6.7134653e-01  -1.4262607e+08
   3.1010337e-10  -2.4149893e-02   4.4356362e+00   6.7735766e-01  -1.4183589e+08
   3.1110370e-10  -2.4008413e-02   4.4260785e+00   6.8338039e-01  -1.4104945e+08
   3.1210403e-10  -2.3867717e-02   4.4165398e+00   6.8941435e-01  -1.4026673e+08
   3.1310437e-10  -2.3727803e-02   4.4070207e+00   6.9545914e-01  -1.3948771e+08
   3.1410470e-10  -2.3588665e-02   4.3975215e+00   7.0151440e-01  -1.3871241e+08
   3.1510504e-10  -2.3450302e-02   4.3880424e+00   7.0757974e-01  -1.3794080e+08
   3.1610537e-10  -2.3312709e-02   4.3785839e+00   7.1365477e-01  -1.3717288e+08
   3.1710570e-10  -2.3175881e-02   4.3691463e+00   7.1973913e-01  -1.3640864e+08
   3.1810604e-10  -2.3039817e-02   4.3597299e+00   7.2583243e-01  -1.3564807e+08
   3.1910637e-10  -2.2904511e-02   4.3503351e+00   7.3193430e-01  -1.3489117e+08
   3.2010670e-10  -2.2769961e-02   4.3409621e+00   7.3804436e-01  -1.3413792e+08
   3.2110704e-10  -2.2636162e-02   4.3316112e+00   7.4416224e-01  -1.3338831e+08
   3.2210737e-10  -2.2503112e-02   4.3222829e+00   7.5028757e-01  -1.3264234e+08
   3.2310770e-10  -2.2370805e-02   4.3129773e+00   7.5641998e-01  -1.3190000e+08
   3.2410804e-10  -2.2239240e-02   4.3036948e+00   7.6255909e-01  -1.3116128e+08
   3.2510837e-10  -2.2108411e-02   4.2944357e+00   7.6870454e-01  -1.3042616e+08
   3.2610870e-10  -2.1978316e-02   4.2852002e+00   7.7485597e-01  -1.2969464e+08
   3.2710904e-10  -2.1848951e-02   4.2759887e+00   7.8101300e-01  -1.2896672e+08
   3.2810937e-10  -2.1720312e-02   4.2668014e+00   7.8717529e-01  -1.2824237e+08
   3.2910970e-10  -2.1592396e-02   4.2576385e+00   7.9334246e-01  -1.2752159e+08
   3.3011004e-10  -2.1465199e-02   4.2485005e+00   7.9951416e-01  -1.2680437e+08
   3.3111037e-10  -2.1338718e-02   4.2393874e+00   8.0569003e-01  -1.2609070e+08
   3.3211070e-10  -2.1212949e-02   4.2302996e+00   8.1186972e-01  -1.2538057e+08
   3.3311104e-10  -2.1087888e-02   4.2212374e+00   8.1805287e-01  -1.2467397e+08
   3.3411137e-10  -2.0963532e-02   4.2122009e+00   8.2423914e-01  -1.2397088e+08
   3.3511170e-10  -2.0839878e-02   4.2031904e+00   8.3042817e-01  -1.2327131e+08
   3.3611204e-10  -2.0716922e-02   4.1942062e+00   8.3661963e-01  -1.2257523e+08
   3.3711237e-10  -2.0594660e-02   4.1852484e+00   8.4281316e-01  -1.2188264e+08
   3.3811270e-10  -2.0473090e-02   4.1763173e+00   8.4900843e-01  -1.2119353e+08
   3.3911304e-10  -2.0352206e-02   4.1674132e+00   8.5520509e-01  -1.2050788e+08
   3.4011337e-10  -2.0232007e-02   4.1585362e+00   8.6140282e-01  -1.1982568e+08
   3.4111370e-10  -2.0112489e-02   4.1496865e+00   8.6760127e-01  -1.1914693e+08
   3.4211404e-10  -1.9993648e-02   4.1408644e+00   8.7380012e-01  -1.1847162e+08
   3.4311437e-10  -1.9875480e-02   4.1320700e+00   8.7999904e-01  -1.1779972e+08
   3.4411470e-10  -1.9757983e-02   4.1233036e+00   8.8619769e-01  -1.1713123e+08
   3.4511504e-10  -1.9641153e-02   4.1145653e+00   8.9239577e-01  -1.1646614e+08
   3.4611537e-10  -1.9524986e-02   4.1058554e+00   8.9859294e-01  -1.1580444e+08
   3.4711571e-10  -1.9409480e-02   4.0971739e+00   9.0478889e-01  -1.1514612e+08
   3.4811604e-10  -1.9294630e-02   4.0885211e+00   9.1098330e-01  -1.1449116e+08
   3.4911637e-10  -1.9180434e-02   4.0798972e+00   9.1717586e-01  -1.1383955e+08
   3.5011671e-10  -1.9066888e-02   4.0713023e+00   9.2336626e-01  -1.1319128e+08
   3.5111704e-10  -1.8953988e-02   4.0627365e+00   9.2955419e-01  -1.1254635e+08
   3.5211737e-10  -1.8841732e-02   4.0542001e+00   9.3573935e-01  -1.1190473e+08
   3.5311771e-10  -1.8730116e-02   4.0456932e+00   9.4192144e-01  -1.1126642e+08
   3.5411804e-10  -1.8619137e-02   4.0372160e+00   9.4810016e-01  -1.1063140e+08
   3.5511837e-10  -1.8508792e-02   4.0287685e+00   9.5427521e-01  -1.0999966e+08
   3.5611871e-10  -1.8399076e-02   4.0203509e+00   9.6044630e-01  -1.0937120e+08
   3.5711904e-10  -1.8289988e-02   4.0119634e+00   9.6661315e-01  -1.0874599e+08
   3.5811937e-10  -1.8181523e-02   4.0036061e+00   9.7277546e-01  -1.0812404e+08
   3.5911971e-10  -1.8073679e-02   3.9952791e+00   9.7893295e-01  -1.0750531e+08
   3.6012004e-10  -1.7966452e-02   3.9869825e+00   9.8508534e-01  -1.0688981e+08
   3.6112037e-10  -1.7859839e-02   3.9787165e+00   9.9123236e-01  -1.0627752e+08
   3.6212071e-10  -1.7753837e-02   3.9704812e+00   9.9737372e-01  -1.0566843e+08
   3.6312104e-10  -1.7648442e-02   3.9622766e+00   1.0035092e+00  -1.0506253e+08
   3.6412137e-10  -1.7543652e-02   3.9541029e+00   1.0096384e+00  -1.0445980e+08
   3.6512171e-10  -1.7439464e-02   3.9459602e+00   1.0157612e+00  -1.0386023e+08
   3.6612204e-10  -1.7335873e-02   3.9378486e+00   1.0218773e+00  -1.0326381e+08
   3.6712237e-10  -1.7232877e-02   3.9297681e+00   1.0279864e+00  -1.0267053e+08
   3.6812271e-10  -1.7130473e-02   3.9217189e+00   1.0340883e+00  -1.0208038e+08
   3.6912304e-10  -1.7028658e-02   3.9137011e+00   1.0401827e+00  -1.0149333e+08
   3.7012337e-10  -1.6927429e-02   3.9057147e+00   1.0462693e+00  -1.0090939e+08
   3.7112371e-10  -1.6826782e-02   3.8977598e+00   1.0523480e+00  -1.0032854e+08
   3.7212404e-10  -1.6726714e-02   3.8898364e+00   1.0584184e+00  -9.9750759e+07
   3.7312437e-10  -1.6627223e-02   3.8819447e+00   1.0644804e+00  -9.9176045e+07
   3.7412471e-10  -1.6528305e-02   3.8740848e+00   1.0705337e+00  -9.8604381e+07
   3.7512504e-10  -1.6429958e-02   3.8662566e+00   1.0765781e+00  -9.8035757e+07
   3.7612538e-10  -1.6332177e-02   3.8584602e+00   1.0826132e+00  -9.7470158e+07
   3.7712571e-10  -1.6234961e-02   3.8506958e+00   1.0886390e+00  -9.6907573e+07
   3.7812604e-10  -1.6138306e-02   3.8429632e+00   1.0946552e+00  -9.6347990e+07
   3.7912638e-10  -1.6042210e-02   3.8352627e+00   1.1006615e+00  -9.5791395e+07
   3.8012671e-10  -1.5946668e-02   3.8275942e+00   1.1066578e+00  -9.5237777e+07
   3.8112704e-10  -1.5851679e-02   3.8199578e+00   1.1126438e+00  -9.4687123e+07
   3.8212738e-10  -1.5757239e-02   3.8123535e+00   1.1186194e+00  -9.4139420e+07
   3.8312771e-10  -1.5663345e-02   3.8047813e+00   1.1245842e+00  -9.3594655e+07
   3.8412804e-10  -1.5569995e-02   3.7972414e+00   1.1305381e+00  -9.3052818e+07
   3.8512838e-10  -1.5477185e-02   3.7897336e+00   1.1364810e+00  -9.2513894e+07
   3.8612871e-10  -1.5384913e-02   3.7822581e+00   1.1424125e+00  -9.1977872e+07
   3.8712904e-10  -1.5293176e-02   3.7748148e+00   1.1483326e+00  -9.1444739e+07
   3.8812938e-10  -1.5201970e-02   3.7674038e+00   1.1542409e+00  -9.0914482e+07
   3.8912971e-10  -1.5111294e-02   3.7600251e+00   1.1601374e+00  -9.0387090e+07
   3.9013004e-10  -1.5021143e-02   3.7526787e+00   1.1660218e+00  -8.9862548e+07
   3.9113038e-10  -1.4931516e-02   3.7453647e+00   1.1718940e+00  -8.9340846e+07
   3.9213071e-10  -1.4842409e-02   3.7380829e+00   1.1777538e+00  -8.8821971e+07
   3.9313104e-10  -1.4753819e-02   3.7308335e+00   1.1836009e+00  -8.8305910e+07
   3.9413138e-10  -1.4665745e-02   3.7236164e+00   1.1894353e+00  -8.7792650e+07
   3.9513171e-10  -1.4578182e-02   3.7164316e+00   1.1952567e+00  -8.7282180e+07
   3.9613204e-10  -1.4491128e-02   3.7092792e+00   1.2010649e+00  -8.6774487e+07
   3.9713238e-10  -1.4404581e-02   3.7021591e+00   1.2068599e+00  -8.6269558e+07
   3.9813271e-10  -1.4318538e-02   3.6950713e+00   1.2126415e+00  -8.5767381e+07
   3.9913304e-10  -1.4232995e-02   3.6880157e+00   1.2184094e+00  -8.5267944e+07
   4.0013338e-10  -1.4147951e-02   3.6809925e+00   1.2241636e+00  -8.4771234e+07
   4.0113371e-10  -1.4063402e-02   3.6740015e+00   1.2299039e+00  -8.4277239e+07
   4.0213404e-10  -1.3979346e-02   3.6670428e+00   1.2356300e+00  -8.3785947e+07
   4.0313438e-10  -1.3895780e-02   3.6601163e+00   1.2413420e+00  -8.3297345e+07
   4.0413471e-10  -1.3812702e-02   3.6532220e+00   1.2470396e+00  -8.2811421e+07
   4.0513505e-10  -1.3730108e-02   3.6463598e+00   1.2527227e+00  -8.2328162e+07
   4.0613538e-10  -1.3647996e-02   3.6395298e+00   1.2583911e+00  -8.1847557e+07
   4.0713571e-10  -1.3566363e-02   3.6327320e+00   1.2640448e+00  -8.1369593e+07
   4.0813605e-10  -1.3485207e-02   3.6259662e+00   1.2696836e+00  -8.0894259e+07
   4.0913638e-10  -1.3404526e-02   3.6192324e+00   1.2753073e+00  -8.0421540e+07
   4.1013671e-10  -1.3324315e-02   3.6125307e+00   1.2809158e+00  -7.9951427e+07
   4.1113705e-10  -1.3244574e-02   3.6058609e+00   1.2865090e+00  -7.9483905e+07
   4.1213738e-10  -1.3165299e-02   3.5992230e+00   1.2920868e+00  -7.9018964e+07
   4.1313771e-10  -1.3086488e-02   3.5926170e+00   1.2976491e+00  -7.8556591e+07
   4.1413805e-10  -1.3008138e-02   3.5860429e+00   1.3031957e+00  -7.8096774e+07
   4.1513838e-10  -1.2930247e-02   3.5795005e+00   1.3087265e+00  -7.7639501e+07
   4.1613871e-10  -1.2852812e-02   3.5729899e+00   1.3142414e+00  -7.7184760e+07
   4.1713905e-10  -1.2775830e-02   3.5665109e+00   1.3197403e+00  -7.6732539e+07
   4.1813938e-10  -1.2699299e-02   3.5600636e+00   1.3252231e+00  -7.6282825e+07
   4.1913971e-10  -1.2623217e-02   3.5536479e+00   1.3306898e+00  -7.5835608e+07
   4.2014005e-10  -1.2547581e-02   3.5472637e+00   1.3361401e+00  -7.5390874e+07
   4.2114038e-10  -1.2472389e-02   3.5409109e+00   1.3415739e+00  -7.4948613e+07
   4.2214071e-10  -1.2397638e-02   3.5345896e+00   1.3469913e+00  -7.4508812e+07
   4.2314105e-10  -1.2323325e-02   3.5282996e+00   1.3523921e+00  -7.4071459e+07
   4.2414138e-10  -1.2249449e-02   3.5220408e+00   1.3577762e+00  -7.3636542e+07
   4.2514171e-10  -1.2176007e-02   3.5158133e+00   1.3631435e+00  -7.3204051e+07
   4.2614205e-10  -1.2102995e-02   3.5096169e+00   1.3684939e+00  -7.2773972e+07
   4.2714238e-10  -1.2030413e-02   3.5034516e+00   1.3738274e+00  -7.2346294e+07
   4.2814271e-10  -1.1958258e-02   3.4973173e+00   1.3791438e+00  -7.1921006e+07
   4.2914305e-10  -1.1886526e-02   3.4912139e+00   1.3844431e+00  -7.1498096e+07
   4.3014338e-10  -1.1815217e-02   3.4851414e+00   1.3897252e+00  -7.1077552e+07
   4.3114371e-10  -1.1744327e-02   3.4790996e+00   1.3949901e+00  -7.0659363e+07
   4.3214405e-10  -1.1673854e-02   3.4730886e+00   1.4002376e+00  -7.0243517e+07
   4.3314438e-10  -1.1603795e-02   3.4671082e+00   1.4054677e+00  -6.9830002e+07
   4.3414471e-10  -1.1534150e-02   3.4611584e+00   1.4106803e+00  -6.9418807e+07
   4.3514505e-10  -1.1464914e-02   3.4552390e+00   1.4158753e+00  -6.9009921e+07
   4.3614538e-10  -1.1396086e-02   3.4493501e+00   1.4210528e+00  -6.8603332e+07
   4.3714572e-10  -1.1327664e-02   3.4434914e+00   1.4262125e+00  -6.8199028e+07
   4.3814605e-10  -1.1259645e-02   3.4376630e+00   1.4313545e+00  -6.7796999e+07
   4.3914638e-10  -1.1192027e-02   3.4318647e+00   1.4364788e+00  -6.7397233e+07
   4.4014672e-10  -1.1124807e-02   3.4260965e+00   1.4415852e+00  -6.6999718e+07
   4.4114705e-10  -1.1057984e-02   3.4203583e+00   1.4466736e+00  -6.6604444e+07
   4.4214738e-10  -1.0991556e-02   3.4146500e+00   1.4517442e+00  -6.6211399e+07
   4.4314772e-10  -1.0925519e-02   3.4089714e+00   1.4567967e+00  -6.5820573e+07
   4.4414805e-10  -1.0859872e-02   3.4033226e+00   1.4618311e+00  -6.5431953e+07
   4.4514838e-10  -1.0794613e-02   3.3977034e+00   1.4668475e+00  -6.5045528e+07
   4.4614872e-10  -1.0729740e-02   3.3921137e+00   1.4718457e+00  -6.4661289e+07
   4.4714905e-10  -1.0665249e-02   3.3865535e+00   1.4768258e+00  -6.4279223e+07
   4.4814938e-10  -1.0601140e-02   3.3810226e+00   1.4817876e+00  -6.3899319e+07
   4.4914972e-10  -1.0537409e-02   3.3755209e+00   1.4867312e+00  -6.3521567e+07
   4.5015005e-10  -1.0474055e-02   3.3700484e+00   1.4916564e+00  -6.3145956e+07
   4.5115038e-10  -1.0411076e-02   3.3646050e+00   1.4965634e+00  -6.2772475e+07
   4.5215072e-10  -1.0348469e-02   3.3591905e+00   1.5014519e+00  -6.2401112e+07
   4.5315105e-10  -1.0286233e-02   3.3538049e+00   1.5063221e+00  -6.2031858e+07
   4.5415138e-10  -1.0224365e-02   3.3484481e+00   1.5111738e+00  -6.1664701e+07
   4.5515172e-10  -1.0162863e-02   3.3431199e+00   1.5160071e+00  -6.1299631e+07
   4.5615205e-10  -1.0101726e-02   3.3378203e+00   1.5208220e+00  -6.0936636e+07
   4.5715238e-10  -1.0040950e-02   3.3325492e+00   1.5256183e+00  -6.0575707e+07
   4.5815272e-10  -9.9805345e-03   3.3273065e+00   1.5303961e+00  -6.0216833e+07
   4.5915305e-10  -9.9204768e-03   3.3220920e+00   1.5351553e+00  -5.9860002e+07
   4.6015338e-10  -9.8607750e-03   3.3169057e+00   1.5398960e+00  -5.9505205e+07
   4.6115372e-10  -9.8014270e-03   3.3117474e+00   1.5446181e+00  -5.9152431e+07
   4.6215405e-10  -9.7424309e-03   3.3066171e+00   1.5493216e+00  -5.8801669e+07
   4.6315438e-10  -9.6837846e-03   3.3015147e+00   1.5540065e+00  -5.8452910e+07
   4.6415472e-10  -9.6254862e-03   3.2964400e+00   1.5586728e+00  -5.8106142e+07
   4.6515505e-10  -9.5675336e-03   3.2913930e+00   1.5633205e+00  -5.7761355e+07
   4.6615539e-10  -9.5099249e-03   3.2863735e+00   1.5679495e+00  -5.7418540e+07
   4.6715572e-10  -9.4526581e-03   3.2813815e+00   1.5725598e+00  -5.7077685e+07
   4.6815605e-10  -9.3957312e-03   3.2764168e+00   1.5771515e+00  -5.6738781e+07
   4.6915639e-10  -9.3391424e-03   3.2714793e+00   1.5817246e+00  -5.6401817e+07
   4.7015672e-10  -9.2828896e-03   3.2665690e+00   1.5862789e+00  -5.6066783e+07
   4.7115705e-10  -9.2269710e-03   3.2616857e+00   1.5908146e+00  -5.5733670e+07
   4.7215739e-10  -9.1713846e-03   3.2568292e+00   1.5953317e+00  -5.5402466e+07
   4.7315772e-10  -9.1161285e-03   3.2519996e+00   1.5998300e+00  -5.5073162e+07
   4.7415805e-10  -9.0612009e-03   3.2471967e+00   1.6043097e+00  -5.4745748e+07
   4.7515839e-10  -9.0065998e-03   3.2424203e+00   1.6087707e+00  -5.4420215e+07
   4.7615872e-10  -8.9523234e-03   3.2376704e+00   1.6132131e+00  -5.4096551e+07
   4.7715905e-10  -8.8983697e-03   3.2329469e+00   1.6176368e+00  -5.3774748e+07
   4.7815939e-10  -8.8447371e-03   3.2282496e+00   1.6220419e+00  -5.3454795e+07
   4.7915972e-10  -8.7914235e-03   3.2235785e+00   1.6264283e+00  -5.3136682e+07
   4.8016005e-10  -8.7384272e-03   3.2189334e+00   1.6307961e+00  -5.2820401e+07
   4.8116039e-10  -8.6857463e-03   3.2143143e+00   1.6351452e+00  -5.2505940e+07
   4.8216072e-10  -8.6333791e-03   3.2097210e+00   1.6394758e+00  -5.2193292e+07
   4.8316105e-10  -8.5813237e-03   3.2051533e+00   1.6437877e+00  -5.1882445e+07
   4.8416139e-10  -8.5295782e-03   3.2006113e+00   1.6480811e+00  -5.1573390e+07
   4.8516172e-10  -8.4781411e-03   3.1960947e+00   1.6523559e+00  -5.1266118e+07
   4.8616205e-10  -8.4270103e-03   3.1916036e+00   1.6566121e+00  -5.0960619e+07
   4.8716239e-10  -8.3761843e-03   3.1871377e+00   1.6608498e+00  -5.0656885e+07
   4.8816272e-10  -8.3256612e-03   3.1826969e+00   1.6650690e+00  -5.0354904e+07
   4.8916305e-10  -8.2754392e-03   3.1782812e+00   1.6692697e+00  -5.0054668e+07
   4.9016339e-10  -8.2255167e-03   3.1738904e+00   1.6734519e+00  -4.9756168e+07
   4.9116372e-10  -8.1758918e-03   3.1695244e+00   1.6776156e+00  -4.9459395e+07
   4.9216405e-10  -8.1265630e-03   3.1651832e+00   1.6817609e+00  -4.9164338e+07
   4.9316439e-10  -8.0775284e-03   3.1608665e+00   1.6858878e+00  -4.8870989e+07
   4.9416472e-10  -8.0287864e-03   3.1565743e+00   1.6899963e+00  -4.8579339e+07
   4.9516506e-10  -7.9803353e-03   3.1523065e+00   1.6940865e+00  -4.8289378e+07
   4.9616539e-10  -7.9321733e-03   3.1480630e+00   1.6981583e+00  -4.8001098e+07
   4.9716572e-10  -7.8842988e-03   3.1438436e+00   1.7022117e+00  -4.7714489e+07
   4.9816606e-10  -7.8367102e-03   3.1396482e+00   1.7062469e+00  -4.7429542e+07
   4.9916639e-10  -7.7894058e-03   3.1354768e+00   1.7102639e+00  -4.7146249e+07
   5.0016672e-10  -7.7423839e-03   3.1313292e+00   1.7142626e+00  -4.6864600e+07
   5.0116706e-10  -7.6956428e-03   3.1272053e+00   1.7182431e+00  -4.6584586e+07
   5.0216739e-10  -7.6491811e-03   3.1231050e+00   1.7222055e+00  -4.6306199e+07
   5.0316772e-10  -7.6029970e-03   3.1190281e+00   1.7261497e+00  -4.6029430e+07
   5.0416806e-10  -7.5570889e-03   3.1149747e+00   1.7300758e+00  -4.5754270e+07
   5.0516839e-10  -7.5114552e-03   3.1109445e+00   1.7339838e+00  -4.5480710e+07
   5.0616872e-10  -7.4660943e-03   3.1069374e+00   1.7378738e+00  -4.5208742e+07
   5.0716906e-10  -7.4210047e-03   3.1029534e+00   1.7417458e+00  -4.4938357e+07
   5.0816939e-10  -7.3761847e-03   3.0989923e+00   1.7455999e+00  -4.4669545e+07
   5.0916972e-10  -7.3316328e-03   3.0950540e+00   1.7494360e+00  -4.4402300e+07
   5.1017006e-10  -7.2873475e-03   3.0911385e+00   1.7532542e+00  -4.4136612e+07
   5.1117039e-10  -7.2433271e-03   3.0872455e+00   1.7570546e+00  -4.3872472e+07
   5.1217072e-10  -7.1995701e-03   3.0833750e+00   1.7608371e+00  -4.3609872e+07
   5.1317106e-10  -7.1560750e-03   3.0795269e+00   1.7646019e+00  -4.3348805e+07
   5.1417139e-10  -7.1128403e-03   3.0757011e+00   1.7683490e+00  -4.3089260e+07
   5.1517172e-10  -7.0698644e-03   3.0718974e+00   1.7720783e+00  -4.2831231e+07
   5.1617206e-10  -7.0271459e-03   3.0681157e+00   1.7757900e+00  -4.2574708e+07
   5.1717239e-10  -6.9846832e-03   3.0643560e+00   1.7794840e+00  -4.2319684e+07
   5.1817272e-10  -6.9424748e-03   3.0606182e+00   1.7831605e+00  -4.2066149e+07
   5.1917306e-10  -6.9005192e-03   3.0569020e+00   1.7868195e+00  -4.1814097e+07
   5.2017339e-10  -6.8588151e-03   3.0532075e+00   1.7904610e+00  -4.1563519e+07
   5.2117372e-10  -6.8173608e-03   3.0495344e+00   1.7940850e+00  -4.1314406e+07
   5.2217406e-10  -6.7761550e-03   3.0458827e+00   1.7976916e+00  -4.1066751e+07
   5.2317439e-10  -6.7351961e-03   3.0422524e+00   1.8012809e+00  -4.0820546e+07
   5.2417472e-10  -6.6944828e-03   3.0386432e+00   1.8048529e+00  -4.0575782e+07
   5.2517506e-10  -6.6540136e-03   3.0350550e+00   1.8084076e+00  -4.0332451e+07
   5.2617539e-10  -6.6137870e-03   3.0314879e+00   1.8119451e+00  -4.0090547e+07
   5.2717573e-10  -6.5738017e-03   3.0279416e+00   1.8154654e+00  -3.9850060e+07
   5.2817606e-10  -6.5340562e-03   3.0244160e+00   1.8189686e+00  -3.9610983e+07
   5.2917639e-10  -6.4945492e-03   3.0209111e+00   1.8224547e+00  -3.9373308e+07
   5.3017673e-10  -6.4552792e-03   3.0174267e+00   1.8259238e+00  -3.9137028e+07
   5.3117706e-10  -6.4162448e-03   3.0139627e+00   1.8293759e+00  -3.8902134e+07
   5.3217739e-10  -6.3774446e-03   3.0105191e+00   1.8328110e+00  -3.8668619e+07
   5.3317773e-10  -6.3388774e-03   3.0070956e+00   1.8362293e+00  -3.8436476e+07
   5.3417806e-10  -6.3005416e-03   3.0036923e+00   1.8396308e+00  -3.8205696e+07
   5.3517839e-10  -6.2624361e-03   3.0003090e+00   1.8430154e+00  -3.7976272e+07
   5.3617873e-10  -6.2245593e-03   2.9969456e+00   1.8463834e+00  -3.7748196e+07
   5.3717906e-10  -6.1869099e-03   2.9936020e+00   1.8497346e+00  -3.7521462e+07
   5.3817939e-10  -6.1494867e-03   2.9902781e+00   1.8530692e+00  -3.7296061e+07
   5.3917973e-10  -6.1122883e-03   2.9869737e+00   1.8563873e+00  -3.7071986e+07
   5.4018006e-10  -6.0753133e-03   2.9836889e+00   1.8596888e+00  -3.6849230e+07
   5.4118039e-10  -6.0385604e-03   2.9804234e+00   1.8629738e+00  -3.6627785e+07
   5.4218073e-10  -6.0020285e-03   2.9771772e+00   1.8662424e+00  -3.6407644e+07
   5.4318106e-10  -5.9657160e-03   2.9739502e+00   1.8694947e+00  -3.6188799e+07
   5.4418139e-10  -5.9296218e-03   2.9707423e+00   1.8727306e+00  -3.5971244e+07
   5.4518173e-10  -5.8937446e-03   2.9675533e+00   1.8759503e+00  -3.5754971e+07
   5.4618206e-10  -5.8580830e-03   2.9643832e+00   1.8791537e+00  -3.5539973e+07
   5.4718239e-10  -5.8226358e-03   2.9612319e+00   1.8823410e+00  -3.5326243e+07
   5.4818273e-10  -5.7874018e-03   2.9580992e+00   1.8855122e+00  -3.5113774e+07
   5.4918306e-10  -5.7523797e-03   2.9549851e+00   1.8886674e+00  -3.4902558e+07
   5.5018339e-10  -5.7175682e-03   2.9518895e+00   1.8918065e+00  -3.4692588e+07
   5.5118373e-10  -5.6829661e-03   2.9488122e+00   1.8949297e+00  -3.4483859e+07
   5.5218406e-10  -5.6485722e-03   2.9457533e+00   1.8980370e+00  -3.4276361e+07
   5.5318439e-10  -5.6143852e-03   2.9427124e+00   1.9011285e+00  -3.4070090e+07
   5.5418473e-10  -5.5804039e-03   2.9396897e+00   1.9042042e+00  -3.3865037e+07
   5.5518506e-10  -5.5466271e-03   2.9366849e+00   1.9072642e+00  -3.3661196e+07
   5.5618540e-10  -5.5130536e-03   2.9336980e+00   1.9103086e+00  -3.3458560e+07
   5.5718573e-10  -5.4796821e-03   2.9307289e+00   1.9133373e+00  -3.3257122e+07
   5.5818606e-10  -5.4465116e-03   2.9277774e+00   1.9163505e+00  -3.3056876e+07
   5.5918640e-10  -5.4135407e-03   2.9248435e+00   1.9193482e+00  -3.2857815e+07
   5.6018673e-10  -5.3807684e-03   2.9219271e+00   1.9223304e+00  -3.2659931e+07
   5.6118706e-10  -5.3481934e-03   2.9190281e+00   1.9252973e+00  -3.2463219e+07
   5.6218740e-10  -5.3158145e-03   2.9161464e+00   1.9282488e+00  -3.2267671e+07
   5.6318773e-10  -5.2836307e-03   2.9132819e+00   1.9311851e+00  -3.2073282e+07
   5.6418806e-10  -5.2516407e-03   2.9104345e+00   1.9341062e+00  -3.1880044e+07
   5.6518840e-10  -5.2198435e-03   2.9076041e+00   1.9370121e+00  -3.1687951e+07
   5.6618873e-10  -5.1882378e-03   2.9047906e+00   1.9399029e+00  -3.1496997e+07
   5.6718906e-10  -5.1568225e-03   2.9019939e+00   1.9427787e+00  -3.1307175e+07
   5.6818940e-10  -5.1255966e-03   2.8992139e+00   1.9456395e+00  -3.1118478e+07
   5.6918973e-10  -5.0945588e-03   2.8964506e+00   1.9484854e+00  -3.0930901e+07
   5.7019006e-10  -5.0637081e-03   2.8937038e+00   1.9513164e+00  -3.0744436e+07
   5.7119040e-10  -5.0330433e-03   2.8909735e+00   1.9541326e+00  -3.0559078e+07
   5.7219073e-10  -5.0025634e-03   2.8882595e+00   1.9569340e+00  -3.0374820e+07
   5.7319106e-10  -4.9722672e-03   2.8855618e+00   1.9597208e+00  -3.0191656e+07
   5.7419140e-10  -4.9421537e-03   2.8828802e+00   1.9624929e+00  -3.0009580e+07
   5.7519173e-10  -4.9122218e-03   2.8802147e+00   1.9652505e+00  -2.9828586e+07
   5.7619206e-10  -4.8824703e-03   2.8775653e+00   1.9679935e+00  -2.9648667e+07
   5.7719240e-10  -4.8528983e-03   2.8749317e+00   1.9707221e+00  -2.9469817e+07
   5.7819273e-10  -4.8235047e-03   2.8723139e+00   1.9734363e+00  -2.9292030e+07
   5.7919306e-10  -4.7942883e-03   2.8697118e+00   1.9761361e+00  -2.9115300e+07
   5.8019340e-10  -4.7652482e-03   2.8671254e+00   1.9788216e+00  -2.8939621e+07
   5.8119373e-10  -4.7363833e-03   2.8645545e+00   1.9814930e+00  -2.8764987e+07
   5.8219406e-10  -4.7076926e-03   2.8619991e+00   1.9841501e+00  -2.8591392e+07
   5.8319440e-10  -4.6791749e-03   2.8594590e+00   1.9867932e+00  -2.8418830e+07
   5.8419473e-10  -4.6508294e-03   2.8569342e+00   1.9894222e+00  -2.8247296e+07
   5.8519507e-10  -4.6226549e-03   2.8544246e+00   1.9920372e+00  -2.8076782e+07
   5.8619540e-10  -4.5946504e-03   2.8519301e+00   1.9946382e+00  -2.7907284e+07
   5.8719573e-10  -4.5668150e-03   2.8494506e+00   1.9972254e+00  -2.7738796e+07
   5.8819607e-10  -4.5391477e-03   2.8469861e+00   1.9997988e+00  -2.7571311e+07
   5.8919640e-10  -4.5116473e-03   2.8445364e+00   2.0023584e+00  -2.7404824e+07
   5.9019673e-10  -4.4843130e-03   2.8421014e+00   2.0049043e+00  -2.7239330e+07
   5.9119707e-10  -4.4571437e-03   2.8396812e+00   2.0074366e+00  -2.7074822e+07
   5.9219740e-10  -4.4301385e-03   2.8372755e+00   2.0099553e+00  -2.6911295e+07
   5.9319773e-10  -4.4032963e-03   2.8348843e+00   2.0124605e+00  -2.6748743e+07
   5.9419807e-10  -4.3766163e-03   2.8325076e+00   2.0149522e+00  -2.6587161e+07
   5.9519840e-10  -4.3500974e-03   2.8301452e+00   2.0174304e+00  -2.6426543e+07
   5.9619873e-10  -4.3237386e-03   2.8277970e+00   2.0198954e+00  -2.6266883e+07
   5.9719907e-10  -4.2975391e-03   2.8254631e+00   2.0223470e+00  -2.6108177e+07
   5.9819940e-10  -4.2714979e-03   2.8231432e+00   2.0247854e+00  -2.5950418e+07
   5.9919973e-10  -4.2456140e-03   2.8208374e+00   2.0272107e+00  -2.5793601e+07
   6.0020007e-10  -4.2198865e-03   2.8185454e+00   2.0296228e+00  -2.5637720e+07
   6.0120040e-10  -4.1943144e-03   2.8162674e+00   2.0320219e+00  -2.5482771e+07
   6.0220073e-10  -4.1688969e-03   2.8140031e+00   2.0344079e+00  -2.5328747e+07
   6.0320107e-10  -4.1436329e-03   2.8117525e+00   2.0367810e+00  -2.5175644e+07
   6.0420140e-10  -4.1185217e-03   2.8095155e+00   2.0391413e+00  -2.5023456e+07
   6.0520173e-10  -4.0935622e-03   2.8072920e+00   2.0414887e+00  -2.4872178e+07
   6.0620207e-10  -4.0687536e-03   2.8050820e+00   2.0438233e+00  -2.4721805e+07
   6.0720240e-10  -4.0440949e-03   2.8028854e+00   2.0461452e+00  -2.4572330e+07
   6.0820273e-10  -4.0195853e-03   2.8007020e+00   2.0484545e+00  -2.4423750e+07
   6.0920307e-10  -3.9952239e-03   2.7985319e+00   2.0507511e+00  -2.4276059e+07
   6.1020340e-10  -3.9710098e-03   2.7963750e+00   2.0530352e+00  -2.4129252e+07
   6.1120373e-10  -3.9469420e-03   2.7942311e+00   2.0553069e+00  -2.3983323e+07
   6.1220407e-10  -3.9230198e-03   2.7921001e+00   2.0575661e+00  -2.3838268e+07
   6.1320440e-10  -3.8992423e-03   2.7899821e+00   2.0598129e+00  -2.3694081e+07
   6.1420473e-10  -3.8756085e-03   2.7878770e+00   2.0620475e+00  -2.3550758e+07
   6.1520507e-10  -3.8521177e-03   2.7857846e+00   2.0642697e+00  -2.3408293e+07
   6.1620540e-10  -3.8287690e-03   2.7837048e+00   2.0664798e+00  -2.3266681e+07
   6.1720574e-10  -3.8055615e-03   2.7816377e+00   2.0686777e+00  -2.3125918e+07
   6.1820607e-10  -3.7824944e-03   2.7795832e+00   2.0708636e+00  -2.2985999e+07
   6.1920640e-10  -3.7595668e-03   2.7775411e+00   2.0730374e+00  -2.2846918e+07
   6.2020674e-10  -3.7367779e-03   2.7755114e+00   2.0751992e+00  -2.2708671e+07
   6.2120707e-10  -3.7141269e-03   2.7734940e+00   2.0773492e+00  -2.2571253e+07
   6.2220740e-10  -3.6916129e-03   2.7714888e+00   2.0794872e+00  -2.2434659e+07
   6.2320774e-10  -3.6692351e-03   2.7694958e+00   2.0816135e+00  -2.2298884e+07
   6.2420807e-10  -3.6469928e-03   2.7675150e+00   2.0837280e+00  -2.2163924e+07
   6.2520840e-10  -3.6248850e-03   2.7655461e+00   2.0858308e+00  -2.2029774e+07
   6.2620874e-10  -3.6029110e-03   2.7635892e+00   2.0879220e+00  -2.1896428e+07
   6.2720907e-10  -3.5810701e-03   2.7616443e+00   2.0900016e+00  -2.1763883e+07
   6.2820940e-10  -3.5593613e-03   2.7597111e+00   2.0920697e+00  -2.1632133e+07
   6.2920974e-10  -3.5377838e-03   2.7577897e+00   2.0941263e+00  -2.1501175e+07
   6.3021007e-10  -3.5163370e-03   2.7558799e+00   2.0961715e+00  -2.1371003e+07
   6.3121040e-10  -3.4950201e-03   2.7539818e+00   2.0982053e+00  -2.1241612e+07
   6.3221074e-10  -3.4738321e-03   2.7520952e+00   2.1002278e+00  -2.1112999e+07
   6.3321107e-10  -3.4527724e-03   2.7502200e+00   2.1022391e+00  -2.0985159e+07
   6.3421140e-10  -3.4318402e-03   2.7483563e+00   2.1042392e+00  -2.0858086e+07
   6.3521174e-10  -3.4110348e-03   2.7465039e+00   2.1062281e+00  -2.0731778e+07
   6.3621207e-10  -3.3903553e-03   2.7446628e+00   2.1082059e+00  -2.0606228e+07
   6.3721240e-10  -3.3698010e-03   2.7428329e+00   2.1101727e+00  -2.0481433e+07
   6.3821274e-10  -3.3493712e-03   2.7410141e+00   2.1121285e+00  -2.0357389e+07
   6.3921307e-10  -3.3290650e-03   2.7392064e+00   2.1140734e+00  -2.0234090e+07
   6.4021340e-10  -3.3088819e-03   2.7374097e+00   2.1160075e+00  -2.0111533e+07
   6.4121374e-10  -3.2888210e-03   2.7356239e+00   2.1179307e+00  -1.9989713e+07
   6.4221407e-10  -3.2688815e-03   2.7338490e+00   2.1198431e+00  -1.9868626e+07
   6.4321440e-10  -3.2490629e-03   2.7320849e+00   2.1217448e+00  -1.9748268e+07
   6.4421474e-10  -3.2293642e-03   2.7303315e+00   2.1236359e+00  -1.9628634e+07
   6.4521507e-10  -3.2097849e-03   2.7285888e+00   2.1255163e+00  -1.9509719e+07
   6.4621541e-10  -3.1903242e-03   2.7268568e+00   2.1273862e+00  -1.9391521e+07
   6.4721574e-10  -3.1709813e-03   2.7251353e+00   2.1292456e+00  -1.9274034e+07
   6.4821607e-10  -3.1517556e-03   2.7234242e+00   2.1310946e+00  -1.9157255e+07
   6.4921641e-10  -3.1326464e-03   2.7217236e+00   2.1329331e+00  -1.9041179e+07
   6.5021674e-10  -3.1136530e-03   2.7200334e+00   2.1347613e+00  -1.8925802e+07
   6.5121707e-10  -3.0947746e-03   2.7183534e+00   2.1365793e+00  -1.8811120e+07
   6.5221741e-10  -3.0760106e-03   2.7166837e+00   2.1383869e+00  -1.8697128e+07
   6.5321774e-10  -3.0573602e-03   2.7150242e+00   2.1401844e+00  -1.8583824e+07
   6.5421807e-10  -3.0388229e-03   2.7133748e+00   2.1419718e+00  -1.8471202e+07
   6.5521841e-10  -3.0203979e-03   2.7117354e+00   2.1437490e+00  -1.8359260e+07
   6.5621874e-10  -3.0020846e-03   2.7101061e+00   2.1455162e+00  -1.8247991e+07
   6.5721907e-10  -2.9838822e-03   2.7084866e+00   2.1472735e+00  -1.8137394e+07
   6.5821941e-10  -2.9657901e-03   2.7068771e+00   2.1490208e+00  -1.8027464e+07
   6.5921974e-10  -2.9478076e-03   2.7052773e+00   2.1507582e+00  -1.7918196e+07
   6.6022007e-10  -2.9299342e-03   2.7036874e+00   2.1524858e+00  -1.7809587e+07
   6.6122041e-10  -2.9121690e-03   2.7021071e+00   2.1542035e+00  -1.7701634e+07
   6.6222074e-10  -2.8945115e-03   2.7005364e+00   2.1559116e+00  -1.7594331e+07
   6.6322107e-10  -2.8769611e-03   2.6989754e+00   2.1576100e+00  -1.7487676e+07
   6.6422141e-10  -2.8595170e-03   2.6974238e+00   2.1592987e+00  -1.7381665e+07
   6.6522174e-10  -2.8421786e-03   2.6958817e+00   2.1609779e+00  -1.7276293e+07
   6.6622207e-10  -2.8249453e-03   2.6943491e+00   2.1626475e+00  -1.7171557e+07
   6.6722241e-10  -2.8078165e-03   2.6928258e+00   2.1643077e+00  -1.7067453e+07
   6.6822274e-10  -2.7907915e-03   2.6913117e+00   2.1659584e+00  -1.6963978e+07
   6.6922307e-10  -2.7738697e-03   2.6898070e+00   2.1675997e+00  -1.6861127e+07
   6.7022341e-10  -2.7570505e-03   2.6883114e+00   2.1692316e+00  -1.6758898e+07
   6.7122374e-10  -2.7403333e-03   2.6868249e+00   2.1708543e+00  -1.6657285e+07
   6.7222407e-10  -2.7237174e-03   2.6853475e+00   2.1724678e+00  -1.6556287e+07
   6.7322441e-10  -2.7072022e-03   2.6838791e+00   2.1740720e+00  -1.6455898e+07
   6.7422474e-10  -2.6907872e-03   2.6824197e+00   2.1756671e+00  -1.6356116e+07
   6.7522508e-10  -2.6744716e-03   2.6809692e+00   2.1772531e+00  -1.6256937e+07
   6.7622541e-10  -2.6582550e-03   2.6795275e+00   2.1788300e+00  -1.6158357e+07
   6.7722574e-10  -2.6421367e-03   2.6780947e+00   2.1803980e+00  -1.6060372e+07
   6.7822608e-10  -2.6261162e-03   2.6766706e+00   2.1819569e+00  -1.5962980e+07
   6.7922641e-10  -2.6101927e-03   2.6752552e+00   2.1835070e+00  -1.5866177e+07
   6.8022674e-10  -2.5943659e-03   2.6738484e+00   2.1850482e+00  -1.5769958e+07
   6.8122708e-10  -2.5786349e-03   2.6724503e+00   2.1865806e+00  -1.5674321e+07
   6.8222741e-10  -2.5629994e-03   2.6710606e+00   2.1881042e+00  -1.5579263e+07
   6.8322774e-10  -2.5474587e-03   2.6696795e+00   2.1896191e+00  -1.5484779e+07
   6.8422808e-10  -2.5320122e-03   2.6683068e+00   2.1911253e+00  -1.5390867e+07
   6.8522841e-10  -2.5166594e-03   2.6669425e+00   2.1926229e+00  -1.5297522e+07
   6.8622874e-10  -2.5013997e-03   2.6655865e+00   2.1941119e+00  -1.5204742e+07
   6.8722908e-10  -2.4862325e-03   2.6642388e+00   2.1955924e+00  -1.5112524e+07
   6.8822941e-10  -2.4711573e-03   2.6628993e+00   2.1970643e+00  -1.5020863e+07
   6.8922974e-10  -2.4561736e-03   2.6615680e+00   2.1985278e+00  -1.4929756e+07
   6.9023008e-10  -2.4412807e-03   2.6602448e+00   2.1999829e+00  -1.4839201e+07
   6.9123041e-10  -2.4264781e-03   2.6589297e+00   2.2014297e+00  -1.4749194e+07
   6.9223074e-10  -2.4117653e-03   2.6576227e+00   2.2028681e+00  -1.4659732e+07
   6.9323108e-10  -2.3971417e-03   2.6563236e+00   2.2042982e+00  -1.4570811e+07
   6.9423141e-10  -2.3826068e-03   2.6550325e+00   2.2057202e+00  -1.4482428e+07
   6.9523174e-10  -2.3681601e-03   2.6537493e+00   2.2071339e+00  -1.4394581e+07
   6.9623208e-10  -2.3538010e-03   2.6524739e+00   2.2085395e+00  -1.4307265e+07
   6.9723241e-10  -2.3395290e-03   2.6512063e+00   2.2099370e+00  -1.4220478e+07
   6.9823274e-10  -2.3253435e-03   2.6499464e+00   2.2113264e+00  -1.4134216e+07
   6.9923308e-10  -2.3112441e-03   2.6486943e+00   2.2127079e+00  -1.4048477e+07
   7.0023341e-10  -2.2972302e-03   2.6474498e+00   2.2140813e+00  -1.3963257e+07
   7.0123374e-10  -2.2833013e-03   2.6462129e+00   2.2154469e+00  -1.3878553e+07
   7.0223408e-10  -2.2694569e-03   2.6449835e+00   2.2168045e+00  -1.3794362e+07
   7.0323441e-10  -2.2556965e-03   2.6437617e+00   2.2181544e+00  -1.3710681e+07
   7.0423474e-10  -2.2420195e-03   2.6425473e+00   2.2194964e+00  -1.3627507e+07
   7.0523508e-10  -2.2284255e-03   2.6413404e+00   2.2208307e+00  -1.3544837e+07
   7.0623541e-10  -2.2149139e-03   2.6401408e+00   2.2221572e+00  -1.3462668e+07
   7.0723575e-10  -2.2014843e-03   2.6389486e+00   2.2234761e+00  -1.3380997e+07
   7.0823608e-10  -2.1881362e-03   2.6377636e+00   2.2247874e+00  -1.3299820e+07
   7.0923641e-10  -2.1748691e-03   2.6365859e+00   2.2260911e+00  -1.3219136e+07
   7.1023675e-10  -2.1616824e-03   2.6354154e+00   2.2273872e+00  -1.3138940e+07
   7.1123708e-10  -2.1485757e-03   2.6342521e+00   2.2286758e+00  -1.3059231e+07
   7.1223741e-10  -2.1355485e-03   2.6330958e+00   2.2299570e+00  -1.2980005e+07
   7.1323775e-10  -2.1226004e-03   2.6319466e+00   2.2312307e+00  -1.2901259e+07
   7.1423808e-10  -2.1097308e-03   2.6308045e+00   2.2324971e+00  -1.2822991e+07
   7.1523841e-10  -2.0969392e-03   2.6296693e+00   2.2337561e+00  -1.2745197e+07
   7.1623875e-10  -2.0842253e-03   2.6285410e+00   2.2350078e+00  -1.2667875e+07
   7.1723908e-10  -2.0715885e-03   2.6274197e+00   2.2362522e+00  -1.2591021e+07
   7.1823941e-10  -2.0590283e-03   2.6263052e+00   2.2374894e+00  -1.2514634e+07
   7.1923975e-10  -2.0465444e-03   2.6251975e+00   2.2387195e+00  -1.2438710e+07
   7.2024008e-10  -2.0341362e-03   2.6240966e+00   2.2399424e+00  -1.2363246e+07
   7.2124041e-10  -2.0218032e-03   2.6230025e+00   2.2411582e+00  -1.2288241e+07
   7.2224075e-10  -2.0095451e-03   2.6219150e+00   2.2423669e+00  -1.2213690e+07
   7.2324108e-10  -1.9973613e-03   2.6208341e+00   2.2435686e+00  -1.2139591e+07
   7.2424141e-10  -1.9852515e-03   2.6197599e+00   2.2447633e+00  -1.2065942e+07
   7.2524175e-10  -1.9732151e-03   2.6186922e+00   2.2459510e+00  -1.1992740e+07
   7.2624208e-10  -1.9612517e-03   2.6176311e+00   2.2471319e+00  -1.1919982e+07
   7.2724241e-10  -1.9493609e-03   2.6165764e+00   2.2483058e+00  -1.1847665e+07
   7.2824275e-10  -1.9375423e-03   2.6155282e+00   2.2494730e+00  -1.1775787e+07
   7.2924308e-10  -1.9257953e-03   2.6144864e+00   2.2506333e+00  -1.1704346e+07
   7.3024341e-10  -1.9141197e-03   2.6134509e+00   2.2517869e+00  -1.1633337e+07
   7.3124375e-10  -1.9025148e-03   2.6124218e+00   2.2529338e+00  -1.1562760e+07
   7.3224408e-10  -1.8909803e-03   2.6113990e+00   2.2540739e+00  -1.1492611e+07
   7.3324441e-10  -1.8795159e-03   2.6103824e+00   2.2552075e+00  -1.1422888e+07
   7.3424475e-10  -1.8681209e-03   2.6093720e+00   2.2563344e+00  -1.1353589e+07
   7.3524508e-10  -1.8567951e-03   2.6083679e+00   2.2574547e+00  -1.1284709e+07
   7.3624542e-10  -1.8455380e-03   2.6073698e+00   2.2585685e+00  -1.1216248e+07
   7.3724575e-10  -1.8343493e-03   2.6063779e+00   2.2596758e+00  -1.1148203e+07
   7.3824608e-10  -1.8232283e-03   2.6053920e+00   2.2607766e+00  -1.1080571e+07
   7.3924642e-10  -1.8121749e-03   2.6044121e+00   2.2618710e+00  -1.1013349e+07
   7.4024675e-10  -1.8011885e-03   2.6034382e+00   2.2629590e+00  -1.0946536e+07
   7.4124708e-10  -1.7902687e-03   2.6024703e+00   2.2640407e+00  -1.0880128e+07
   7.4224742e-10  -1.7794153e-03   2.6015083e+00   2.2651160e+00  -1.0814123e+07
   7.4324775e-10  -1.7686276e-03   2.6005522e+00   2.2661850e+00  -1.0748519e+07
   7.4424808e-10  -1.7579054e-03   2.5996019e+00   2.2672478e+00  -1.0683314e+07
   7.4524842e-10  -1.7472482e-03   2.5986574e+00   2.2683044e+00  -1.0618505e+07
   7.4624875e-10  -1.7366557e-03   2.5977187e+00   2.2693548e+00  -1.0554089e+07
   7.4724908e-10  -1.7261275e-03   2.5967857e+00   2.2703990e+00  -1.0490064e+07
   7.4824942e-10  -1.7156631e-03   2.5958584e+00   2.2714371e+00  -1.0426429e+07
   7.4924975e-10  -1.7052622e-03   2.5949368e+00   2.2724692e+00  -1.0363180e+07
   7.5025008e-10  -1.6949244e-03   2.5940209e+00   2.2734952e+00  -1.0300315e+07
   7.5125042e-10  -1.6846493e-03   2.5931105e+00   2.2745152e+00  -1.0237832e+07
   7.5225075e-10  -1.6744365e-03   2.5922057e+00   2.2755292e+00  -1.0175728e+07
   7.5325108e-10  -1.6642857e-03   2.5913064e+00   2.2765373e+00  -1.0114002e+07
   7.5425142e-10  -1.6541965e-03   2.5904126e+00   2.2775394e+00  -1.0052651e+07
   7.5525175e-10  -1.6441685e-03   2.5895243e+00   2.2785357e+00  -9.9916721e+06
   7.5625208e-10  -1.6342013e-03   2.5886414e+00   2.2795261e+00  -9.9310641e+06
   7.5725242e-10  -1.6242946e-03   2.5877639e+00   2.2805108e+00  -9.8708243e+06
   7.5825275e-10  -1.6144479e-03   2.5868917e+00   2.2814896e+00  -9.8109505e+06
   7.5925308e-10  -1.6046610e-03   2.5860249e+00   2.2824627e+00  -9.7514406e+06
   7.6025342e-10  -1.5949335e-03   2.5851634e+00   2.2834301e+00  -9.6922922e+06
   7.6125375e-10  -1.5852650e-03   2.5843071e+00   2.2843918e+00  -9.6335032e+06
   7.6225408e-10  -1.5756551e-03   2.5834561e+00   2.2853479e+00  -9.5750715e+06
   7.6325442e-10  -1.5661035e-03   2.5826102e+00   2.2862983e+00  -9.5169949e+06
   7.6425475e-10  -1.5566099e-03   2.5817696e+00   2.2872432e+00  -9.4592712e+06
   7.6525509e-10  -1.5471738e-03   2.5809340e+00   2.2881825e+00  -9.4018982e+06
   7.6625542e-10  -1.5377950e-03   2.5801036e+00   2.2891163e+00  -9.3448740e+06
   7.6725575e-10  -1.5284731e-03   2.5792782e+00   2.2900446e+00  -9.2881963e+06
   7.6825609e-10  -1.5192077e-03   2.5784579e+00   2.2909674e+00  -9.2318631e+06
   7.6925642e-10  -1.5099985e-03   2.5776426e+00   2.2918848e+00  -9.1758722e+06
   7.7025675e-10  -1.5008452e-03   2.5768323e+00   2.2927968e+00  -9.1202217e+06
   7.7125709e-10  -1.4917474e-03   2.5760269e+00   2.2937035e+00  -9.0649094e+06
   7.7225742e-10  -1.4827048e-03   2.5752265e+00   2.2946048e+00  -9.0099333e+06
   7.7325775e-10  -1.4737170e-03   2.5744309e+00   2.2955008e+00  -8.9552913e+06
   7.7425809e-10  -1.4647838e-03   2.5736402e+00   2.2963915e+00  -8.9009815e+06
   7.7525842e-10  -1.4559047e-03   2.5728543e+00   2.2972770e+00  -8.8470018e+06
   7.7625875e-10  -1.4470795e-03   2.5720732e+00   2.2981572e+00  -8.7933502e+06
   7.7725909e-10  -1.4383078e-03   2.5712969e+00   2.2990323e+00  -8.7400247e+06
   7.7825942e-10  -1.4295893e-03   2.5705253e+00   2.2999022e+00  -8.6870234e+06
   7.7925975e-10  -1.4209237e-03   2.5697585e+00   2.3007670e+00  -8.6343442e+06
   7.8026009e-10  -1.4123106e-03   2.5689963e+00   2.3016267e+00  -8.5819853e+06
   7.8126042e-10  -1.4037498e-03   2.5682387e+00   2.3024813e+00  -8.5299447e+06
   7.8226075e-10  -1.3952409e-03   2.5674858e+00   2.3033309e+00  -8.4782204e+06
   7.8326109e-10  -1.3867836e-03   2.5667375e+00   2.3041755e+00  -8.4268106e+06
   7.8426142e-10  -1.3783776e-03   2.5659938e+00   2.3050151e+00  -8.3757133e+06
   7.8526175e-10  -1.3700226e-03   2.5652546e+00   2.3058497e+00  -8.3249267e+06
   7.8626209e-10  -1.3617183e-03   2.5645199e+00   2.3066794e+00  -8.2744488e+06
   7.8726242e-10  -1.3534643e-03   2.5637897e+00   2.3075043e+00  -8.2242777e+06
   7.8826275e-10  -1.3452603e-03   2.5630640e+00   2.3083242e+00  -8.1744117e+06
   7.8926309e-10  -1.3371062e-03   2.5623427e+00   2.3091393e+00  -8.1248488e+06
   7.9026342e-10  -1.3290014e-03   2.5616258e+00   2.3099496e+00  -8.0755873e+06
   7.9126375e-10  -1.3209459e-03   2.5609132e+00   2.3107551e+00  -8.0266252e+06
   7.9226409e-10  -1.3129391e-03   2.5602050e+00   2.3115558e+00  -7.9779608e+06
   7.9326442e-10  -1.3049810e-03   2.5595012e+00   2.3123519e+00  -7.9295922e+06
   7.9426475e-10  -1.2970711e-03   2.5588016e+00   2.3131432e+00  -7.8815178e+06
   7.9526509e-10  -1.2892091e-03   2.5581063e+00   2.3139298e+00  -7.8337356e+06
   7.9626542e-10  -1.2813948e-03   2.5574152e+00   2.3147118e+00  -7.7862439e+06
   7.9726576e-10  -1.2736279e-03   2.5567284e+00   2.3154891e+00  -7.7390409e+06
   7.9826609e-10  -1.2659082e-03   2.5560458e+00   2.3162619e+00  -7.6921249e+06
   7.9926642e-10  -1.2582352e-03   2.5553673e+00   2.3170301e+00  -7.6454941e+06
   8.0026676e-10  -1.2506087e-03   2.5546929e+00   2.3177937e+00  -7.5991469e+06
   8.0126709e-10  -1.2430285e-03   2.5540227e+00   2.3185529e+00  -7.5530814e+06
   8.0226742e-10  -1.2354943e-03   2.5533566e+00   2.3193075e+00  -7.5072960e+06
   8.0326776e-10  -1.2280057e-03   2.5526945e+00   2.3200577e+00  -7.4617889e+06
   8.0426809e-10  -1.2205625e-03   2.5520365e+00   2.3208034e+00  -7.4165586e+06
   8.0526842e-10  -1.2131645e-03   2.5513824e+00   2.3215447e+00  -7.3716031e+06
   8.0626876e-10  -1.2058113e-03   2.5507324e+00   2.3222817e+00  -7.3269211e+06
   8.0726909e-10  -1.1985027e-03   2.5500863e+00   2.3230142e+00  -7.2825106e+06
   8.0826942e-10  -1.1912384e-03   2.5494442e+00   2.3237425e+00  -7.2383702e+06
   8.0926976e-10  -1.1840182e-03   2.5488060e+00   2.3244664e+00  -7.1944981e+06
   8.1027009e-10  -1.1768417e-03   2.5481717e+00   2.3251860e+00  -7.1508927e+06
   8.1127042e-10  -1.1697088e-03   2.5475412e+00   2.3259014e+00  -7.1075524e+06
   8.1227076e-10  -1.1626191e-03   2.5469146e+00   2.3266125e+00  -7.0644756e+06
   8.1327109e-10  -1.1555723e-03   2.5462919e+00   2.3273194e+00  -7.0216607e+06
   8.1427142e-10  -1.1485683e-03   2.5456729e+00   2.3280221e+00  -6.9791061e+06
   8.1527176e-10  -1.1416068e-03   2.5450577e+00   2.3287207e+00  -6.9368101e+06
   8.1627209e-10  -1.1346874e-03   2.5444462e+00   2.3294151e+00  -6.8947713e+06
   8.1727242e-10  -1.1278100e-03   2.5438385e+00   2.3301054e+00  -6.8529881e+06
   8.1827276e-10  -1.1209743e-03   2.5432345e+00   2.3307916e+00  -6.8114588e+06
   8.1927309e-10  -1.1141801e-03   2.5426341e+00   2.3314737e+00  -6.7701820e+06
   8.2027342e-10  -1.1074270e-03   2.5420375e+00   2.3321518e+00  -6.7291562e+06
   8.2127376e-10  -1.1007148e-03   2.5414444e+00   2.3328258e+00  -6.6883797e+06
   8.2227409e-10  -1.0940434e-03   2.5408550e+00   2.3334959e+00  -6.6478511e+06
   8.2327442e-10  -1.0874124e-03   2.5402692e+00   2.3341620e+00  -6.6075688e+06
   8.2427476e-10  -1.0808215e-03   2.5396869e+00   2.3348241e+00  -6.5675314e+06
   8.2527509e-10  -1.0742707e-03   2.5391082e+00   2.3354823e+00  -6.5277374e+06
   8.2627543e-10  -1.0677595e-03   2.5385330e+00   2.3361366e+00  -6.4881853e+06
   8.2727576e-10  -1.0612878e-03   2.5379614e+00   2.3367870e+00  -6.4488735e+06
   8.2827609e-10  -1.0548553e-03   2.5373932e+00   2.3374335e+00  -6.4098008e+06
   8.2927643e-10  -1.0484619e-03   2.5368284e+00   2.3380762e+00  -6.3709655e+06
   8.3027676e-10  -1.0421071e-03   2.5362672e+00   2.3387151e+00  -6.3323662e+06
   8.3127709e-10  -1.0357909e-03   2.5357093e+00   2.3393502e+00  -6.2940016e+06
   8.3227743e-10  -1.0295130e-03   2.5351548e+00   2.3399815e+00  -6.2558701e+06
   8.3327776e-10  -1.0232731e-03   2.5346037e+00   2.3406091e+00  -6.2179704e+06
   8.3427809e-10  -1.0170710e-03   2.5340560e+00   2.3412329e+00  -6.1803010e+06
   8.3527843e-10  -1.0109066e-03   2.5335116e+00   2.3418530e+00  -6.1428606e+06
   8.3627876e-10  -1.0047794e-03   2.5329706e+00   2.3424695e+00  -6.1056477e+06
   8.3727909e-10  -9.9868946e-04   2.5324328e+00   2.3430823e+00  -6.0686609e+06
   8.3827943e-10  -9.9263639e-04   2.5318983e+00   2.3436914e+00  -6.0318989e+06
   8.3927976e-10  -9.8662000e-04   2.5313670e+00   2.3442969e+00  -5.9953603e+06
   8.4028009e-10  -9.8064007e-04   2.5308390e+00   2.3448988e+00  -5.9590438e+06
   8.4128043e-10  -9.7469637e-04   2.5303143e+00   2.3454972e+00  -5.9229479e+06
   8.4228076e-10  -9.6878870e-04   2.5297927e+00   2.3460919e+00  -5.8870714e+06
   8.4328109e-10  -9.6291683e-04   2.5292743e+00   2.3466832e+00  -5.8514129e+06
   8.4428143e-10  -9.5708054e-04   2.5287590e+00   2.3472709e+00  -5.8159710e+06
   8.4528176e-10  -9.5127962e-04   2.5282469e+00   2.3478551e+00  -5.7807445e+06
   8.4628209e-10  -9.4551385e-04   2.5277379e+00   2.3484359e+00  -5.7457321e+06
   8.4728243e-10  -9.3978301e-04   2.5272320e+00   2.3490131e+00  -5.7109324e+06
   8.4828276e-10  -9.3408691e-04   2.5267292e+00   2.3495870e+00  -5.6763441e+06
   8.4928309e-10  -9.2842532e-04   2.5262294e+00   2.3501574e+00  -5.6419659e+06
   8.5028343e-10  -9.2279803e-04   2.5257327e+00   2.3507245e+00  -5.6077966e+06
   8.5128376e-10  -9.1720484e-04   2.5252390e+00   2.3512881e+00  -5.5738349e+06
   8.5228409e-10  -9.1164555e-04   2.5247484e+00   2.3518484e+00  -5.5400795e+06
   8.5328443e-10  -9.0611993e-04   2.5242607e+00   2.3524054e+00  -5.5065292e+06
   8.5428476e-10  -9.0062780e-04   2.5237760e+00   2.3529591e+00  -5.4731826e+06
   8.5528510e-10  -8.9516894e-04   2.5232942e+00   2.3535094e+00  -5.4400387e+06
   8.5628543e-10  -8.8974316e-04   2.5228154e+00   2.3540565e+00  -5.4070961e+06
   8.5728576e-10  -8.8435025e-04   2.5223395e+00   2.3546003e+00  -5.3743535e+06
   8.5828610e-10  -8.7899001e-04   2.5218664e+00   2.3551409e+00  -5.3418099e+06
   8.5928643e-10  -8.7366225e-04   2.5213963e+00   2.3556783e+00  -5.3094639e+06
   8.6028676e-10  -8.6836677e-04   2.5209290e+00   2.3562124e+00  -5.2773144e+06
   8.6128710e-10  -8.6310337e-04   2.5204646e+00   2.3567434e+00  -5.2453601e+06
   8.6228743e-10  -8.5787186e-04   2.5200030e+00   2.3572712e+00  -5.2135999e+06
   8.6328776e-10  -8.5267204e-04   2.5195442e+00   2.3577959e+00  -5.1820326e+06
   8.6428810e-10  -8.4750372e-04   2.5190882e+00   2.3583174e+00  -5.1506570e+06
   8.6528843e-10  -8.4236672e-04   2.5186350e+00   2.3588358e+00  -5.1194719e+06
   8.6628876e-10  -8.3726083e-04   2.5181845e+00   2.3593512e+00  -5.0884762e+06
   8.6728910e-10  -8.3218588e-04   2.5177368e+00   2.3598634e+00  -5.0576688e+06
   8.6828943e-10  -8.2714166e-04   2.5172918e+00   2.3603726e+00  -5.0270484e+06
   8.6928976e-10  -8.2212801e-04   2.5168495e+00   2.3608788e+00  -4.9966139e+06
   8.7029010e-10  -8.1714472e-04   2.5164099e+00   2.3613820e+00  -4.9663642e+06
   8.7129043e-10  -8.1219163e-04   2.5159730e+00   2.3618821e+00  -4.9362982e+06
   8.7229076e-10  -8.0726853e-04   2.5155387e+00   2.3623793e+00  -4.9064147e+06
   8.7329110e-10  -8.0237526e-04   2.5151071e+00   2.3628735e+00  -4.8767126e+06
   8.7429143e-10  -7.9751163e-04   2.5146781e+00   2.3633647e+00  -4.8471909e+06
   8.7529176e-10  -7.9267746e-04   2.5142517e+00   2.3638530e+00  -4.8178484e+06
   8.7629210e-10  -7.8787257e-04   2.5138279e+00   2.3643384e+00  -4.7886840e+06
   8.7729243e-10  -7.8309678e-04   2.5134067e+00   2.3648210e+00  -4.7596966e+06
   8.7829276e-10  -7.7834993e-04   2.5129881e+00   2.3653006e+00  -4.7308853e+06
   8.7929310e-10  -7.7363182e-04   2.5125720e+00   2.3657774e+00  -4.7022487e+06
   8.8029343e-10  -7.6894229e-04   2.5121584e+00   2.3662513e+00  -4.6737861e+06
   8.8129376e-10  -7.6428117e-04   2.5117473e+00   2.3667224e+00  -4.6454961e+06
   8.8229410e-10  -7.5964827e-04   2.5113388e+00   2.3671906e+00  -4.6173779e+06
   8.8329443e-10  -7.5504344e-04   2.5109327e+00   2.3676561e+00  -4.5894303e+06
   8.8429476e-10  -7.5046649e-04   2.5105291e+00   2.3681188e+00  -4.5616523e+06
   8.8529510e-10  -7.4591727e-04   2.5101280e+00   2.3685788e+00  -4.5340429e+06
   8.8629543e-10  -7.4139560e-04   2.5097293e+00   2.3690360e+00  -4.5066011e+06
   8.8729577e-10  -7.3690132e-04   2.5093330e+00   2.3694904e+00  -4.4793257e+06
   8.8829610e-10  -7.3243425e-04   2.5089391e+00   2.3699422e+00  -4.4522159e+06
   8.8929643e-10  -7.2799424e-04   2.5085477e+00   2.3703912e+00  -4.4252706e+06
   8.9029677e-10  -7.2358111e-04   2.5081586e+00   2.3708376e+00  -4.3984887e+06
   8.9129710e-10  -7.1919472e-04   2.5077719e+00   2.3712813e+00  -4.3718694e+06
   8.9229743e-10  -7.1483489e-04   2.5073875e+00   2.3717223e+00  -4.3454116e+06
   8.9329777e-10  -7.1050146e-04   2.5070055e+00   2.3721607e+00  -4.3191142e+06
   8.9429810e-10  -7.0619427e-04   2.5066257e+00   2.3725965e+00  -4.2929764e+06
   8.9529843e-10  -7.0191317e-04   2.5062484e+00   2.3730297e+00  -4.2669972e+06
   8.9629877e-10  -6.9765799e-04   2.5058732e+00   2.3734603e+00  -4.2411756e+06
   8.9729910e-10  -6.9342859e-04   2.5055004e+00   2.3738883e+00  -4.2155106e+06
   8.9829943e-10  -6.8922479e-04   2.5051299e+00   2.3743138e+00  -4.1900013e+06
   8.9929977e-10  -6.8504645e-04   2.5047616e+00   2.3747367e+00  -4.1646467e+06
   9.0030010e-10  -6.8089342e-04   2.5043955e+00   2.3751571e+00  -4.1394458e+06
   9.0130043e-10  -6.7676553e-04   2.5040317e+00   2.3755750e+00  -4.1143979e+06
   9.0230077e-10  -6.7266264e-04   2.5036700e+00   2.3759904e+00  -4.0895018e+06
   9.0330110e-10  -6.6858459e-04   2.5033106e+00   2.3764032e+00  -4.0647567e+06
   9.0430143e-10  -6.6453124e-04   2.5029534e+00   2.3768137e+00  -4.0401617e+06
   9.0530177e-10  -6.6050243e-04   2.5025983e+00   2.3772216e+00  -4.0157158e+06
   9.0630210e-10  -6.5649802e-04   2.5022454e+00   2.3776272e+00  -3.9914182e+06
   9.0730243e-10  -6.5251785e-04   2.5018946e+00   2.3780303e+00  -3.9672679e+06
   9.0830277e-10  -6.4856179e-04   2.5015460e+00   2.3784310e+00  -3.9432640e+06
   9.0930310e-10  -6.4462968e-04   2.5011995e+00   2.3788293e+00  -3.9194057e+06
   9.1030343e-10  -6.4072137e-04   2.5008551e+00   2.3792252e+00  -3.8956920e+06
   9.1130377e-10  -6.3683674e-04   2.5005127e+00   2.3796187e+00  -3.8721221e+06
   9.1230410e-10  -6.3297562e-04   2.5001725e+00   2.3800099e+00  -3.8486951e+06
   9.1330443e-10  -6.2913788e-04   2.4998343e+00   2.3803988e+00  -3.8254101e+06
   9.1430477e-10  -6.2532338e-04   2.4994982e+00   2.3807853e+00  -3.8022662e+06
   9.1530510e-10  -6.2153198e-04   2.4991642e+00   2.3811695e+00  -3.7792627e+06
   9.1630544e-10  -6.1776353e-04   2.4988321e+00   2.3815514e+00  -3.7563985e+06
   9.1730577e-10  -6.1401790e-04   2.4985021e+00   2.3819310e+00  -3.7336730e+06
   9.1830610e-10  -6.1029494e-04   2.4981741e+00   2.3823084e+00  -3.7110852e+06
   9.1930644e-10  -6.0659453e-04   2.4978481e+00   2.3826835e+00  -3.6886343e+06
   9.2030677e-10  -6.0291652e-04   2.4975240e+00   2.3830563e+00  -3.6663194e+06
   9.2130710e-10  -5.9926078e-04   2.4972020e+00   2.3834269e+00  -3.6441398e+06
   9.2230744e-10  -5.9562717e-04   2.4968818e+00   2.3837953e+00  -3.6220946e+06
   9.2330777e-10  -5.9201556e-04   2.4965637e+00   2.3841615e+00  -3.6001830e+06
   9.2430810e-10  -5.8842582e-04   2.4962474e+00   2.3845255e+00  -3.5784042e+06
   9.2530844e-10  -5.8485781e-04   2.4959331e+00   2.3848873e+00  -3.5567573e+06
   9.2630877e-10  -5.8131141e-04   2.4956207e+00   2.3852470e+00  -3.5352416e+06
   9.2730910e-10  -5.7778647e-04   2.4953102e+00   2.3856044e+00  -3.5138562e+06
   9.2830944e-10  -5.7428288e-04   2.4950016e+00   2.3859598e+00  -3.4926004e+06
   9.2930977e-10  -5.7080049e-04   2.4946948e+00   2.3863130e+00  -3.4714734e+06
   9.3031010e-10  -5.6733919e-04   2.4943900e+00   2.3866641e+00  -3.4504744e+06
   9.3131044e-10  -5.6389885e-04   2.4940869e+00   2.3870131e+00  -3.4296026e+06
   9.3231077e-10  -5.6047933e-04   2.4937858e+00   2.3873600e+00  -3.4088572e+06
   9.3331110e-10  -5.5708051e-04   2.4934864e+00   2.3877049e+00  -3.3882375e+06
   9.3431144e-10  -5.5370227e-04   2.4931889e+00   2.3880476e+00  -3.3677427e+06
   9.3531177e-10  -5.5034448e-04   2.4928931e+00   2.3883884e+00  -3.3473720e+06
   9.3631210e-10  -5.4700702e-04   2.4925992e+00   2.3887270e+00  -3.3271247e+06
   9.3731244e-10  -5.4368977e-04   2.4923070e+00   2.3890637e+00  -3.3070000e+06
   9.3831277e-10  -5.4039259e-04   2.4920167e+00   2.3893983e+00  -3.2869972e+06
   9.3931310e-10  -5.3711538e-04   2.4917281e+00   2.3897309e+00  -3.2671155e+06
   9.4031344e-10  -5.3385801e-04   2.4914412e+00   2.3900615e+00  -3.2473542e+06
   9.4131377e-10  -5.3062035e-04   2.4911561e+00   2.3903902e+00  -3.2277126e+06
   9.4231410e-10  -5.2740230e-04   2.4908727e+00   2.3907168e+00  -3.2081899e+06
   9.4331444e-10  -5.2420372e-04   2.4905910e+00   2.3910415e+00  -3.1887855e+06
   9.4431477e-10  -5.2102452e-04   2.4903111e+00   2.3913643e+00  -3.1694985e+06
   9.4531511e-10  -5.1786455e-04   2.4900328e+00   2.3916851e+00  -3.1503283e+06
   9.4631544e-10  -5.1472372e-04   2.4897563e+00   2.3920041e+00  -3.1312742e+06
   9.4731577e-10  -5.1160190e-04   2.4894814e+00   2.3923210e+00  -3.1123354e+06
   9.4831611e-10  -5.0849897e-04   2.4892082e+00   2.3926361e+00  -3.0935113e+06
   9.4931644e-10  -5.0541483e-04   2.4889366e+00   2.3929493e+00  -3.0748011e+06
   9.5031677e-10  -5.0234937e-04   2.4886667e+00   2.3932607e+00  -3.0562042e+06
   9.5131711e-10  -4.9930245e-04   2.4883984e+00   2.3935701e+00  -3.0377198e+06
   9.5231744e-10  -4.9627399e-04   2.4881318e+00   2.3938777e+00  -3.0193473e+06
   9.5331777e-10  -4.9326385e-04   2.4878668e+00   2.3941835e+00  -3.0010861e+06
   9.5431811e-10  -4.9027194e-04   2.4876034e+00   2.3944874e+00  -2.9829353e+06
   9.5531844e-10  -4.8729814e-04   2.4873416e+00   2.3947895e+00  -2.9648945e+06
   9.5631877e-10  -4.8434234e-04   2.4870814e+00   2.3950898e+00  -2.9469628e+06
   9.5731911e-10  -4.8140443e-04   2.4868227e+00   2.3953883e+00  -2.9291396e+06
   9.5831944e-10  -4.7848431e-04   2.4865656e+00   2.3956850e+00  -2.9114243e+06
   9.5931977e-10  -4.7558187e-04   2.4863101e+00   2.3959799e+00  -2.8938161e+06
   9.6032011e-10  -4.7269699e-04   2.4860562e+00   2.3962730e+00  -2.8763146e+06
   9.6132044e-10  -4.6982958e-04   2.4858038e+00   2.3965644e+00  -2.8589189e+06
   9.6232077e-10  -4.6697953e-04   2.4855529e+00   2.3968540e+00  -2.8416285e+06
   9.6332111e-10  -4.6414672e-04   2.4853035e+00   2.3971419e+00  -2.8244427e+06
   9.6432144e-10  -4.6133107e-04   2.4850557e+00   2.3974281e+00  -2.8073608e+06
   9.6532177e-10  -4.5853246e-04   2.4848093e+00   2.3977125e+00  -2.7903824e+06
   9.6632211e-10  -4.5575079e-04   2.4845645e+00   2.3979953e+00  -2.7735066e+06
   9.6732244e-10  -4.5298596e-04   2.4843211e+00   2.3982763e+00  -2.7567329e+06
   9.6832277e-10  -4.5023787e-04   2.4840793e+00   2.3985557e+00  -2.7400607e+06
   9.6932311e-10  -4.4750641e-04   2.4838388e+00   2.3988334e+00  -2.7234894e+06
   9.7032344e-10  -4.4479149e-04   2.4835999e+00   2.3991094e+00  -2.7070183e+06
   9.7132377e-10  -4.4209300e-04   2.4833624e+00   2.3993837e+00  -2.6906468e+06
   9.7232411e-10  -4.3941085e-04   2.4831263e+00   2.3996564e+00  -2.6743743e+06
   9.7332444e-10  -4.3674493e-04   2.4828917e+00   2.3999275e+00  -2.6582003e+06
   9.7432477e-10  -4.3409515e-04   2.4826585e+00   2.4001969e+00  -2.6421241e+06
   9.7532511e-10  -4.3146141e-04   2.4824267e+00   2.4004648e+00  -2.6261451e+06
   9.7632544e-10  -4.2884362e-04   2.4821963e+00   2.4007310e+00  -2.6102627e+06
   9.7732578e-10  -4.2624167e-04   2.4819674e+00   2.4009956e+00  -2.5944764e+06
   9.7832611e-10  -4.2365547e-04   2.4817398e+00   2.4012586e+00  -2.5787856e+06
   9.7932644e-10  -4.2108493e-04   2.4815135e+00   2.4015201e+00  -2.5631896e+06
   9.8032678e-10  -4.1852995e-04   2.4812887e+00   2.4017799e+00  -2.5476880e+06
   9.8132711e-10  -4.1599043e-04   2.4810652e+00   2.4020383e+00  -2.5322801e+06
   9.8232744e-10  -4.1346629e-04   2.4808431e+00   2.4022950e+00  -2.5169653e+06
   9.8332778e-10  -4.1095742e-04   2.4806224e+00   2.4025502e+00  -2.5017431e+06
   9.8432811e-10  -4.0846375e-04   2.4804029e+00   2.4028039e+00  -2.4866130e+06
   9.8532844e-10  -4.0598517e-04   2.4801848e+00   2.4030561e+00  -2.4715744e+06
   9.8632878e-10  -4.0352159e-04   2.4799681e+00   2.4033067e+00  -2.4566267e+06
   9.8732911e-10  -4.0107293e-04   2.4797526e+00   2.4035559e+00  -2.4417693e+06
   9.8832944e-10  -3.9863909e-04   2.4795384e+00   2.4038035e+00  -2.4270018e+06
   9.8932978e-10  -3.9621999e-04   2.4793256e+00   2.4040497e+00  -2.4123235e+06
   9.9033011e-10  -3.9381552e-04   2.4791140e+00   2.4042944e+00  -2.3977340e+06
   9.9133044e-10  -3.9142562e-04   2.4789038e+00   2.4045376e+00  -2.3832326e+06
   9.9233078e-10  -3.8905018e-04   2.4786948e+00   2.4047793e+00  -2.3688189e+06
   9.9333111e-10  -3.8668912e-04   2.4784870e+00   2.4050196e+00  -2.3544923e+06
   9.9433144e-10  -3.8434236e-04   2.4782806e+00   2.4052584e+00  -2.3402524e+06
   9.9533178e-10  -3.8200980e-04   2.4780754e+00   2.4054958e+00  -2.3260984e+06
   9.9633211e-10  -3.7969136e-04   2.4778714e+00   2.4057318e+00  -2.3120301e+06
   9.9733244e-10  -3.7738696e-04   2.4776687e+00   2.4059664e+00  -2.2980467e+06
   9.9833278e-10  -3.7509651e-04   2.4774672e+00   2.4061995e+00  -2.2841479e+06
   9.9933311e-10  -3.7281992e-04   2.4772669e+00   2.4064313e+00  -2.2703331e+06
   1.0003334e-09  -3.7055712e-04   2.4770678e+00   2.4066616e+00  -2.2566017e+06
   1.0013338e-09  -3.6830802e-04   2.4768700e+00   2.4068906e+00  -2.2429533e+06
   1.0023341e-09  -3.6607253e-04   2.4766733e+00   2.4071182e+00  -2.2293874e+06
   1.0033344e-09  -3.6385057e-04   2.4764778e+00   2.4073444e+00  -2.2159035e+06
   1.0043348e-09  -3.6164207e-04   2.4762836e+00   2.4075693e+00  -2.2025011e+06
   1.0053351e-09  -3.5944694e-04   2.4760905e+00   2.4077928e+00  -2.1891796e+06
   1.0063354e-09  -3.5726509e-04   2.4758985e+00   2.4080150e+00  -2.1759386e+06
   1.0073358e-09  -3.5509646e-04   2.4757078e+00   2.4082358e+00  -2.1627776e+06
   1.0083361e-09  -3.5294095e-04   2.4755182e+00   2.4084553e+00  -2.1496962e+06
   1.0093364e-09  -3.5079850e-04   2.4753297e+00   2.4086735e+00  -2.1366938e+06
   1.0103368e-09  -3.4866901e-04   2.4751424e+00   2.4088904e+00  -2.1237699e+06
   1.0113371e-09  -3.4655242e-04   2.4749562e+00   2.4091059e+00  -2.1109241e+06
   1.0123374e-09  -3.4444864e-04   2.4747712e+00   2.4093202e+00  -2.0981559e+06
   1.0133378e-09  -3.4235760e-04   2.4745873e+00   2.4095332e+00  -2.0854649e+06
   1.0143381e-09  -3.4027922e-04   2.4744045e+00   2.4097449e+00  -2.0728505e+06
   1.0153384e-09  -3.3821342e-04   2.4742228e+00   2.4099553e+00  -2.0603123e+06
   1.0163388e-09  -3.3616013e-04   2.4740422e+00   2.4101645e+00  -2.0478499e+06
   1.0173391e-09  -3.3411927e-04   2.4738627e+00   2.4103724e+00  -2.0354627e+06
   1.0183394e-09  -3.3209077e-04   2.4736843e+00   2.4105790e+00  -2.0231504e+06
   1.0193398e-09  -3.3007455e-04   2.4735070e+00   2.4107844e+00  -2.0109124e+06
   1.0203401e-09  -3.2807053e-04   2.4733307e+00   2.4109886e+00  -1.9987483e+06
   1.0213404e-09  -3.2607865e-04   2.4731555e+00   2.4111915e+00  -1.9866578e+06
   1.0223408e-09  -3.2409883e-04   2.4729814e+00   2.4113932e+00  -1.9746402e+06
   1.0233411e-09  -3.2213100e-04   2.4728084e+00   2.4115937e+00  -1.9626952e+06
   1.0243414e-09  -3.2017508e-04   2.4726364e+00   2.4117930e+00  -1.9508224e+06
   1.0253418e-09  -3.1823101e-04   2.4724654e+00   2.4119911e+00  -1.9390213e+06
   1.0263421e-09  -3.1629871e-04   2.4722955e+00   2.4121880e+00  -1.9272914e+06
   1.0273424e-09  -3.1437810e-04   2.4721266e+00   2.4123837e+00  -1.9156324e+06
   1.0283428e-09  -3.1246913e-04   2.4719587e+00   2.4125783e+00  -1.9040438e+06
   1.0293431e-09  -3.1057172e-04   2.4717918e+00   2.4127717e+00  -1.8925252e+06
   1.0303434e-09  -3.0868579e-04   2.4716260e+00   2.4129639e+00  -1.8810761e+06
   1.0313438e-09  -3.0681128e-04   2.4714612e+00   2.4131549e+00  -1.8696962e+06
   1.0323441e-09  -3.0494813e-04   2.4712973e+00   2.4133448e+00  -1.8583850e+06
   1.0333444e-09  -3.0309625e-04   2.4711345e+00   2.4135336e+00  -1.8471421e+06
   1.0343448e-09  -3.0125560e-04   2.4709726e+00   2.4137212e+00  -1.8359671e+06
   1.0353451e-09  -2.9942608e-04   2.4708118e+00   2.4139077e+00  -1.8248595e+06
   1.0363454e-09  -2.9760765e-04   2.4706519e+00   2.4140930e+00  -1.8138190e+06
   1.0373458e-09  -2.9580022e-04   2.4704929e+00   2.4142773e+00  -1.8028452e+06
   1.0383461e-09  -2.9400374e-04   2.4703350e+00   2.4144604e+00  -1.7919377e+06
   1.0393464e-09  -2.9221814e-04   2.4701780e+00   2.4146424e+00  -1.7810960e+06
   1.0403468e-09  -2.9044336e-04   2.4700219e+00   2.4148234e+00  -1.7703198e+06
   1.0413471e-09  -2.8867932e-04   2.4698668e+00   2.4150032e+00  -1.7596086e+06
   1.0423474e-09  -2.8692596e-04   2.4697127e+00   2.4151820e+00  -1.7489621e+06
   1.0433478e-09  -2.8518323e-04   2.4695594e+00   2.4153597e+00  -1.7383799e+06
   1.0443481e-09  -2.8345104e-04   2.4694071e+00   2.4155363e+00  -1.7278616e+06
   1.0453484e-09  -2.8172935e-04   2.4692558e+00   2.4157118e+00  -1.7174067e+06
   1.0463488e-09  -2.8001808e-04   2.4691053e+00   2.4158863e+00  -1.7070150e+06
   1.0473491e-09  -2.7831718e-04   2.4689558e+00   2.4160598e+00  -1.6966861e+06
   1.0483494e-09  -2.7662658e-04   2.4688071e+00   2.4162322e+00  -1.6864195e+06
   1.0493498e-09  -2.7494621e-04   2.4686594e+00   2.4164035e+00  -1.6762148e+06
   1.0503501e-09  -2.7327603e-04   2.4685126e+00   2.4165738e+00  -1.6660718e+06
   1.0513505e-09  -2.7161596e-04   2.4683666e+00   2.4167431e+00  -1.6559900e+06
   1.0523508e-09  -2.6996594e-04   2.4682216e+00   2.4169114e+00  -1.6459690e+06
   1.0533511e-09  -2.6832592e-04   2.4680774e+00   2.4170787e+00  -1.6360086e+06
   1.0543515e-09  -2.6669583e-04   2.4679341e+00   2.4172449e+00  -1.6261083e+06
   1.0553518e-09  -2.6507561e-04   2.4677917e+00   2.4174102e+00  -1.6162677e+06
   1.0563521e-09  -2.6346521e-04   2.4676501e+00   2.4175744e+00  -1.6064866e+06
   1.0573525e-09  -2.6186456e-04   2.4675094e+00   2.4177377e+00  -1.5967644e+06
   1.0583528e-09  -2.6027361e-04   2.4673695e+00   2.4179000e+00  -1.5871010e+06
   1.0593531e-09  -2.5869229e-04   2.4672305e+00   2.4180613e+00  -1.5774959e+06
   1.0603535e-09  -2.5712055e-04   2.4670923e+00   2.4182216e+00  -1.5679488e+06
   1.0613538e-09  -2.5555833e-04   2.4669550e+00   2.4183810e+00  -1.5584593e+06
   1.0623541e-09  -2.5400557e-04   2.4668185e+00   2.4185394e+00  -1.5490271e+06
   1.0633545e-09  -2.5246222e-04   2.4666829e+00   2.4186968e+00  -1.5396518e+06
   1.0643548e-09  -2.5092822e-04   2.4665480e+00   2.4188533e+00  -1.5303331e+06
   1.0653551e-09  -2.4940351e-04   2.4664140e+00   2.4190089e+00  -1.5210707e+06
   1.0663555e-09  -2.4788804e-04   2.4662808e+00   2.4191635e+00  -1.5118641e+06
   1.0673558e-09  -2.4638175e-04   2.4661484e+00   2.4193172e+00  -1.5027132e+06
   1.0683561e-09  -2.4488458e-04   2.4660168e+00   2.4194699e+00  -1.4936174e+06
   1.0693565e-09  -2.4339648e-04   2.4658860e+00   2.4196218e+00  -1.4845766e+06
   1.0703568e-09  -2.4191740e-04   2.4657560e+00   2.4197727e+00  -1.4755903e+06
   1.0713571e-09  -2.4044728e-04   2.4656268e+00   2.4199227e+00  -1.4666583e+06
   1.0723575e-09  -2.3898606e-04   2.4654983e+00   2.4200718e+00  -1.4577802e+06
   1.0733578e-09  -2.3753369e-04   2.4653707e+00   2.4202200e+00  -1.4489556e+06
   1.0743581e-09  -2.3609013e-04   2.4652438e+00   2.4203673e+00  -1.4401843e+06
   1.0753585e-09  -2.3465531e-04   2.4651177e+00   2.4205138e+00  -1.4314660e+06
   1.0763588e-09  -2.3322918e-04   2.4649923e+00   2.4206593e+00  -1.4228003e+06
   1.0773591e-09  -2.3181170e-04   2.4648678e+00   2.4208040e+00  -1.4141869e+06
   1.0783595e-09  -2.3040280e-04   2.4647439e+00   2.4209477e+00  -1.4056254e+06
   1.0793598e-09  -2.2900244e-04   2.4646208e+00   2.4210907e+00  -1.3971157e+06
   1.0803601e-09  -2.2761056e-04   2.4644985e+00   2.4212327e+00  -1.3886573e+06
   1.0813605e-09  -2.2622711e-04   2.4643769e+00   2.4213739e+00  -1.3802499e+06
   1.0823608e-09  -2.2485205e-04   2.4642561e+00   2.4215143e+00  -1.3718933e+06
   1.0833611e-09  -2.2348532e-04   2.4641360e+00   2.4216538e+00  -1.3635871e+06
   1.0843615e-09  -2.2212687e-04   2.4640166e+00   2.4217924e+00  -1.3553311e+06
   1.0853618e-09  -2.2077666e-04   2.4638979e+00   2.4219303e+00  -1.3471249e+06
   1.0863621e-09  -2.1943462e-04   2.4637800e+00   2.4220673e+00  -1.3389682e+06
   1.0873625e-09  -2.1810071e-04   2.4636627e+00   2.4222034e+00  -1.3308607e+06
   1.0883628e-09  -2.1677489e-04   2.4635462e+00   2.4223388e+00  -1.3228022e+06
   1.0893631e-09  -2.1545711e-04   2.4634304e+00   2.4224733e+00  -1.3147923e+06
   1.0903635e-09  -2.1414731e-04   2.4633153e+00   2.4226070e+00  -1.3068307e+06
   1.0913638e-09  -2.1284544e-04   2.4632009e+00   2.4227399e+00  -1.2989172e+06
   1.0923641e-09  -2.1155147e-04   2.4630872e+00   2.4228720e+00  -1.2910515e+06
   1.0933645e-09  -2.1026533e-04   2.4629742e+00   2.4230033e+00  -1.2832332e+06
   1.0943648e-09  -2.0898699e-04   2.4628618e+00   2.4231338e+00  -1.2754621e+06
   1.0953651e-09  -2.0771640e-04   2.4627502e+00   2.4232636e+00  -1.2677379e+06
   1.0963655e-09  -2.0645351e-04   2.4626392e+00   2.4233925e+00  -1.2600603e+06
   1.0973658e-09  -2.0519827e-04   2.4625289e+00   2.4235207e+00  -1.2524291e+06
   1.0983661e-09  -2.0395064e-04   2.4624193e+00   2.4236480e+00  -1.2448439e+06
   1.0993665e-09  -2.0271058e-04   2.4623103e+00   2.4237747e+00  -1.2373045e+06
   1.1003668e-09  -2.0147802e-04   2.4622020e+00   2.4239005e+00  -1.2298106e+06
   1.1013671e-09  -2.0025294e-04   2.4620943e+00   2.4240256e+00  -1.2223619e+06
   1.1023675e-09  -1.9903528e-04   2.4619873e+00   2.4241500e+00  -1.2149582e+06
   1.1033678e-09  -1.9782501e-04   2.4618810e+00   2.4242735e+00  -1.2075992e+06
   1.1043681e-09  -1.9662206e-04   2.4617753e+00   2.4243964e+00  -1.2002845e+06
   1.1053685e-09  -1.9542642e-04   2.4616702e+00   2.4245185e+00  -1.1930141e+06
   1.1063688e-09  -1.9423801e-04   2.4615658e+00   2.4246399e+00  -1.1857875e+06
   1.1073691e-09  -1.9305681e-04   2.4614620e+00   2.4247605e+00  -1.1786045e+06
   1.1083695e-09  -1.9188278e-04   2.4613589e+00   2.4248804e+00  -1.1714649e+06
   1.1093698e-09  -1.9071585e-04   2.4612563e+00   2.4249996e+00  -1.1643683e+06
   1.1103701e-09  -1.8955601e-04   2.4611544e+00   2.4251180e+00  -1.1573146e+06
   1.1113705e-09  -1.8840319e-04   2.4610531e+00   2.4252358e+00  -1.1503035e+06
   1.1123708e-09  -1.8725736e-04   2.4609524e+00   2.4253528e+00  -1.1433347e+06
   1.1133711e-09  -1.8611848e-04   2.4608524e+00   2.4254691e+00  -1.1364079e+06
   1.1143715e-09  -1.8498650e-04   2.4607529e+00   2.4255847e+00  -1.1295230e+06
   1.1153718e-09  -1.8386138e-04   2.4606541e+00   2.4256996e+00  -1.1226796e+06
   1.1163721e-09  -1.8274309e-04   2.4605558e+00   2.4258139e+00  -1.1158775e+06
   1.1173725e-09  -1.8163158e-04   2.4604581e+00   2.4259274e+00  -1.1091165e+06
   1.1183728e-09  -1.8052680e-04   2.4603611e+00   2.4260403e+00  -1.1023963e+06
   1.1193731e-09  -1.7942872e-04   2.4602646e+00   2.4261524e+00  -1.0957166e+06
   1.1203735e-09  -1.7833730e-04   2.4601687e+00   2.4262639e+00  -1.0890773e+06
   1.1213738e-09  -1.7725250e-04   2.4600734e+00   2.4263747e+00  -1.0824780e+06
   1.1223741e-09  -1.7617427e-04   2.4599787e+00   2.4264849e+00  -1.0759186e+06
   1.1233745e-09  -1.7510259e-04   2.4598845e+00   2.4265944e+00  -1.0693987e+06
   1.1243748e-09  -1.7403740e-04   2.4597909e+00   2.4267032e+00  -1.0629182e+06
   1.1253751e-09  -1.7297867e-04   2.4596979e+00   2.4268113e+00  -1.0564769e+06
   1.1263755e-09  -1.7192635e-04   2.4596055e+00   2.4269188e+00  -1.0500744e+06
   1.1273758e-09  -1.7088043e-04   2.4595136e+00   2.4270257e+00  -1.0437106e+06
   1.1283761e-09  -1.6984084e-04   2.4594223e+00   2.4271319e+00  -1.0373851e+06
   1.1293765e-09  -1.6880755e-04   2.4593315e+00   2.4272375e+00  -1.0310979e+06
   1.1303768e-09  -1.6778054e-04   2.4592412e+00   2.4273424e+00  -1.0248486e+06
   1.1313771e-09  -1.6675975e-04   2.4591516e+00   2.4274467e+00  -1.0186370e+06
   1.1323775e-09  -1.6574515e-04   2.4590624e+00   2.4275504e+00  -1.0124630e+06
   1.1333778e-09  -1.6473670e-04   2.4589738e+00   2.4276534e+00  -1.0063262e+06
   1.1343781e-09  -1.6373437e-04   2.4588858e+00   2.4277558e+00  -1.0002264e+06
   1.1353785e-09  -1.6273812e-04   2.4587983e+00   2.4278576e+00  -9.9416352e+05
   1.1363788e-09  -1.6174791e-04   2.4587113e+00   2.4279588e+00  -9.8813719e+05
   1.1373791e-09  -1.6076371e-04   2.4586248e+00   2.4280594e+00  -9.8214725e+05
   1.1383795e-09  -1.5978548e-04   2.4585389e+00   2.4281593e+00  -9.7619347e+05
   1.1393798e-09  -1.5881317e-04   2.4584535e+00   2.4282587e+00  -9.7027564e+05
   1.1403801e-09  -1.5784677e-04   2.4583686e+00   2.4283575e+00  -9.6439353e+05
   1.1413805e-09  -1.5688623e-04   2.4582842e+00   2.4284556e+00  -9.5854693e+05
   1.1423808e-09  -1.5593151e-04   2.4582003e+00   2.4285532e+00  -9.5273563e+05
   1.1433811e-09  -1.5498259e-04   2.4581170e+00   2.4286501e+00  -9.4695942e+05
   1.1443815e-09  -1.5403942e-04   2.4580341e+00   2.4287465e+00  -9.4121808e+05
   1.1453818e-09  -1.5310197e-04   2.4579518e+00   2.4288423e+00  -9.3551141e+05
   1.1463821e-09  -1.5217021e-04   2.4578699e+00   2.4289376e+00  -9.2983919e+05
   1.1473825e-09  -1.5124410e-04   2.4577886e+00   2.4290322e+00  -9.2420122e+05
   1.1483828e-09  -1.5032361e-04   2.4577077e+00   2.4291263e+00  -9.1859729e+05
   1.1493831e-09  -1.4940871e-04   2.4576273e+00   2.4292198e+00  -9.1302720e+05
   1.1503835e-09  -1.4849935e-04   2.4575475e+00   2.4293127e+00  -9.0749074e+05
   1.1513838e-09  -1.4759551e-04   2.4574681e+00   2.4294051e+00  -9.0198772e+05
   1.1523841e-09  -1.4669715e-04   2.4573892e+00   2.4294969e+00  -8.9651792e+05
   1.1533845e-09  -1.4580425e-04   2.4573107e+00   2.4295882e+00  -8.9108115e+05
   1.1543848e-09  -1.4491676e-04   2.4572328e+00   2.4296789e+00  -8.8567721e+05
   1.1553851e-09  -1.4403466e-04   2.4571553e+00   2.4297691e+00  -8.8030590e+05
   1.1563855e-09  -1.4315791e-04   2.4570783e+00   2.4298587e+00  -8.7496703e+05
   1.1573858e-09  -1.4228647e-04   2.4570017e+00   2.4299478e+00  -8.6966040e+05
   1.1583861e-09  -1.4142033e-04   2.4569257e+00   2.4300363e+00  -8.6438581e+05
   1.1593865e-09  -1.4055944e-04   2.4568500e+00   2.4301243e+00  -8.5914308e+05
   1.1603868e-09  -1.3970377e-04   2.4567749e+00   2.4302118e+00  -8.5393201e+05
   1.1613871e-09  -1.3885330e-04   2.4567002e+00   2.4302987e+00  -8.4875241e+05
   1.1623875e-09  -1.3800799e-04   2.4566259e+00   2.4303851e+00  -8.4360410e+05
   1.1633878e-09  -1.3716781e-04   2.4565521e+00   2.4304710e+00  -8.3848687e+05
   1.1643881e-09  -1.3633272e-04   2.4564788e+00   2.4305564e+00  -8.3340055e+05
   1.1653885e-09  -1.3550270e-04   2.4564059e+00   2.4306412e+00  -8.2834496e+05
   1.1663888e-09  -1.3467772e-04   2.4563334e+00   2.4307256e+00  -8.2331989e+05
   1.1673891e-09  -1.3385775e-04   2.4562614e+00   2.4308094e+00  -8.1832518e+05
   1.1683895e-09  -1.3304275e-04   2.4561898e+00   2.4308927e+00  -8.1336064e+05
   1.1693898e-09  -1.3223270e-04   2.4561187e+00   2.4309755e+00  -8.0842608e+05
   1.1703901e-09  -1.3142757e-04   2.4560480e+00   2.4310578e+00  -8.0352133e+05
   1.1713905e-09  -1.3062732e-04   2.4559777e+00   2.4311397e+00  -7.9864621e+05
   1.1723908e-09  -1.2983193e-04   2.4559078e+00   2.4312210e+00  -7.9380054e+05
   1.1733911e-09  -1.2904137e-04   2.4558384e+00   2.4313018e+00  -7.8898413e+05
   1.1743915e-09  -1.2825560e-04   2.4557694e+00   2.4313821e+00  -7.8419682e+05
   1.1753918e-09  -1.2747461e-04   2.4557008e+00   2.4314620e+00  -7.7943844e+05
   1.1763921e-09  -1.2669835e-04   2.4556326e+00   2.4315414e+00  -7.7470879e+05
   1.1773925e-09  -1.2592681e-04   2.4555648e+00   2.4316202e+00  -7.7000772e+05
   1.1783928e-09  -1.2515995e-04   2.4554975e+00   2.4316987e+00  -7.6533505e+05
   1.1793931e-09  -1.2439775e-04   2.4554306e+00   2.4317766e+00  -7.6069061e+05
   1.1803935e-09  -1.2364017e-04   2.4553640e+00   2.4318541e+00  -7.5607423e+05
   1.1813938e-09  -1.2288719e-04   2.4552979e+00   2.4319310e+00  -7.5148574e+05
   1.1823941e-09  -1.2213878e-04   2.4552322e+00   2.4320076e+00  -7.4692498e+05
   1.1833945e-09  -1.2139492e-04   2.4551668e+00   2.4320836e+00  -7.4239177e+05
   1.1843948e-09  -1.2065557e-04   2.4551019e+00   2.4321592e+00  -7.3788595e+05
   1.1853951e-09  -1.1992071e-04   2.4550374e+00   2.4322344e+00  -7.3340735e+05
   1.1863955e-09  -1.1919031e-04   2.4549732e+00   2.4323091e+00  -7.2895582e+05
   1.1873958e-09  -1.1846435e-04   2.4549095e+00   2.4323833e+00  -7.2453119e+05
   1.1883961e-09  -1.1774279e-04   2.4548461e+00   2.4324571e+00  -7.2013329e+05
   1.1893965e-09  -1.1702562e-04   2.4547831e+00   2.4325304e+00  -7.1576197e+05
   1.1903968e-09  -1.1631280e-04   2.4547205e+00   2.4326033e+00  -7.1141706e+05
   1.1913971e-09  -1.1560431e-04   2.4546583e+00   2.4326758e+00  -7.0709842e+05
   1.1923975e-09  -1.1490012e-04   2.4545964e+00   2.4327478e+00  -7.0280587e+05
   1.1933978e-09  -1.1420020e-04   2.4545350e+00   2.4328194e+00  -6.9853926e+05
   1.1943981e-09  -1.1350454e-04   2.4544739e+00   2.4328905e+00  -6.9429843e+05
   1.1953985e-09  -1.1281310e-04   2.4544132e+00   2.4329612e+00  -6.9008324e+05
   1.1963988e-09  -1.1212586e-04   2.4543528e+00   2.4330315e+00  -6.8589353e+05
   1.1973991e-09  -1.1144279e-04   2.4542928e+00   2.4331014e+00  -6.8172913e+05
   1.1983995e-09  -1.1076387e-04   2.4542332e+00   2.4331708e+00  -6.7758991e+05
   1.1993998e-09  -1.1008907e-04   2.4541739e+00   2.4332398e+00  -6.7347570e+05
   1.2004001e-09  -1.0941838e-04   2.4541150e+00   2.4333084e+00  -6.6938637e+05
   1.2014005e-09  -1.0875175e-04   2.4540565e+00   2.4333766e+00  -6.6532175e+05
   1.2024008e-09  -1.0808917e-04   2.4539983e+00   2.4334444e+00  -6.6128170e+05
   1.2034011e-09  -1.0743062e-04   2.4539405e+00   2.4335117e+00  -6.5726608e+05
   1.2044015e-09  -1.0677607e-04   2.4538830e+00   2.4335787e+00  -6.5327472e+05
   1.2054018e-09  -1.0612549e-04   2.4538259e+00   2.4336452e+00  -6.4930750e+05
   1.2064021e-09  -1.0547887e-04   2.4537691e+00   2.4337114e+00  -6.4536426e+05
   1.2074025e-09  -1.0483617e-04   2.4537127e+00   2.4337771e+00  -6.4144486e+05
   1.2084028e-09  -1.0419738e-04   2.4536566e+00   2.4338424e+00  -6.3754916e+05
   1.2094031e-09  -1.0356246e-04   2.4536008e+00   2.4339074e+00  -6.3367701e+05
   1.2104035e-09  -1.0293141e-04   2.4535454e+00   2.4339719e+00  -6.2982826e+05
   1.2114038e-09  -1.0230418e-04   2.4534903e+00   2.4340361e+00  -6.2600279e+05
   1.2124041e-09  -1.0168077e-04   2.4534356e+00   2.4340998e+00  -6.2220046e+05
   1.2134045e-09  -1.0106114e-04   2.4533812e+00   2.4341632e+00  -6.1842111e+05
   1.2144048e-09  -1.0044528e-04   2.4533271e+00   2.4342262e+00  -6.1466461e+05
   1.2154051e-09  -9.9833163e-05   2.4532733e+00   2.4342888e+00  -6.1093083e+05
   1.2164055e-09  -9.9224761e-05   2.4532199e+00   2.4343511e+00  -6.0721963e+05
   1.2174058e-09  -9.8620056e-05   2.4531668e+00   2.4344129e+00  -6.0353087e+05
   1.2184061e-09  -9.8019025e-05   2.4531140e+00   2.4344744e+00  -5.9986441e+05
   1.2194065e-09  -9.7421646e-05   2.4530616e+00   2.4345355e+00  -5.9622013e+05
   1.2204068e-09  -9.6827896e-05   2.4530094e+00   2.4345963e+00  -5.9259789e+05
   1.2214071e-09  -9.6237753e-05   2.4529576e+00   2.4346566e+00  -5.8899756e+05
   1.2224075e-09  -9.5651197e-05   2.4529061e+00   2.4347166e+00  -5.8541900e+05
   1.2234078e-09  -9.5068204e-05   2.4528549e+00   2.4347763e+00  -5.8186209e+05
   1.2244081e-09  -9.4488754e-05   2.4528040e+00   2.4348356e+00  -5.7832669e+05
   1.2254085e-09  -9.3912825e-05   2.4527535e+00   2.4348945e+00  -5.7481267e+05
   1.2264088e-09  -9.3340396e-05   2.4527032e+00   2.4349530e+00  -5.7131991e+05
   1.2274091e-09  -9.2771446e-05   2.4526533e+00   2.4350113e+00  -5.6784827e+05
   1.2284095e-09  -9.2205952e-05   2.4526036e+00   2.4350691e+00  -5.6439764e+05
   1.2294098e-09  -9.1643896e-05   2.4525542e+00   2.4351266e+00  -5.6096788e+05
   1.2304101e-09  -9.1085255e-05   2.4525052e+00   2.4351838e+00  -5.5755887e+05
   1.2314105e-09  -9.0530009e-05   2.4524564e+00   2.4352406e+00  -5.5417048e+05
   1.2324108e-09  -8.9978137e-05   2.4524080e+00   2.4352970e+00  -5.5080259e+05
   1.2334111e-09  -8.9429620e-05   2.4523598e+00   2.4353532e+00  -5.4745508e+05
   1.2344115e-09  -8.8884436e-05   2.4523120e+00   2.4354089e+00  -5.4412781e+05
   1.2354118e-09  -8.8342566e-05   2.4522644e+00   2.4354644e+00  -5.4082068e+05
   1.2364121e-09  -8.7803990e-05   2.4522171e+00   2.4355195e+00  -5.3753356e+05
   1.2374125e-09  -8.7268687e-05   2.4521701e+00   2.4355742e+00  -5.3426633e+05
   1.2384128e-09  -8.6736638e-05   2.4521234e+00   2.4356287e+00  -5.3101887e+05
   1.2394131e-09  -8.6207823e-05   2.4520769e+00   2.4356828e+00  -5.2779106e+05
   1.2404135e-09  -8.5682222e-05   2.4520308e+00   2.4357366e+00  -5.2458278e+05
   1.2414138e-09  -8.5159816e-05   2.4519849e+00   2.4357900e+00  -5.2139392e+05
   1.2424141e-09  -8.4640586e-05   2.4519393e+00   2.4358431e+00  -5.1822436e+05
   1.2434145e-09  -8.4124512e-05   2.4518940e+00   2.4358960e+00  -5.1507397e+05
   1.2444148e-09  -8.3611576e-05   2.4518490e+00   2.4359484e+00  -5.1194265e+05
   1.2454151e-09  -8.3101758e-05   2.4518042e+00   2.4360006e+00  -5.0883029e+05
   1.2464155e-09  -8.2595039e-05   2.4517597e+00   2.4360525e+00  -5.0573676e+05
   1.2474158e-09  -8.2091401e-05   2.4517155e+00   2.4361040e+00  -5.0266195e+05
   1.2484161e-09  -8.1590825e-05   2.4516716e+00   2.4361552e+00  -4.9960575e+05
   1.2494165e-09  -8.1093292e-05   2.4516279e+00   2.4362061e+00  -4.9656806e+05
   1.2504168e-09  -8.0598784e-05   2.4515845e+00   2.4362567e+00  -4.9354875e+05
   1.2514171e-09  -8.0107283e-05   2.4515413e+00   2.4363070e+00  -4.9054772e+05
   1.2524175e-09  -7.9618771e-05   2.4514984e+00   2.4363570e+00  -4.8756485e+05
   1.2534178e-09  -7.9133228e-05   2.4514558e+00   2.4364067e+00  -4.8460004e+05
   1.2544181e-09  -7.8650638e-05   2.4514134e+00   2.4364561e+00  -4.8165318e+05
   1.2554185e-09  -7.8170983e-05   2.4513713e+00   2.4365052e+00  -4.7872416e+05
   1.2564188e-09  -7.7694244e-05   2.4513295e+00   2.4365539e+00  -4.7581288e+05
   1.2574191e-09  -7.7220404e-05   2.4512878e+00   2.4366024e+00  -4.7291922e+05
   1.2584195e-09  -7.6749446e-05   2.4512465e+00   2.4366506e+00  -4.7004307e+05
   1.2594198e-09  -7.6281352e-05   2.4512054e+00   2.4366985e+00  -4.6718435e+05
   1.2604201e-09  -7.5816104e-05   2.4511646e+00   2.4367461e+00  -4.6434293e+05
   1.2614205e-09  -7.5353686e-05   2.4511240e+00   2.4367935e+00  -4.6151872e+05
   1.2624208e-09  -7.4894080e-05   2.4510836e+00   2.4368405e+00  -4.5871161e+05
   1.2634211e-09  -7.4437269e-05   2.4510435e+00   2.4368872e+00  -4.5592150e+05
   1.2644215e-09  -7.3983236e-05   2.4510036e+00   2.4369337e+00  -4.5314829e+05
   1.2654218e-09  -7.3531965e-05   2.4509640e+00   2.4369799e+00  -4.5039186e+05
   1.2664221e-09  -7.3083439e-05   2.4509246e+00   2.4370258e+00  -4.4765214e+05
   1.2674225e-09  -7.2637641e-05   2.4508855e+00   2.4370714e+00  -4.4492900e+05
   1.2684228e-09  -7.2194554e-05   2.4508466e+00   2.4371168e+00  -4.4222236e+05
   1.2694231e-09  -7.1754162e-05   2.4508079e+00   2.4371618e+00  -4.3953211e+05
   1.2704235e-09  -7.1316449e-05   2.4507695e+00   2.4372066e+00  -4.3685816e+05
   1.2714238e-09  -7.0881399e-05   2.4507313e+00   2.4372512e+00  -4.3420040e+05
   1.2724241e-09  -7.0448995e-05   2.4506934e+00   2.4372954e+00  -4.3155874e+05
   1.2734245e-09  -7.0019221e-05   2.4506556e+00   2.4373394e+00  -4.2893309e+05
   1.2744248e-09  -6.9592062e-05   2.4506181e+00   2.4373831e+00  -4.2632333e+05
   1.2754251e-09  -6.9167502e-05   2.4505809e+00   2.4374266e+00  -4.2372939e+05
   1.2764255e-09  -6.8745524e-05   2.4505438e+00   2.4374698e+00  -4.2115116e+05
   1.2774258e-09  -6.8326114e-05   2.4505070e+00   2.4375127e+00  -4.1858856e+05
   1.2784261e-09  -6.7909255e-05   2.4504704e+00   2.4375554e+00  -4.1604147e+05
   1.2794265e-09  -6.7494932e-05   2.4504340e+00   2.4375978e+00  -4.1350982e+05
   1.2804268e-09  -6.7083130e-05   2.4503979e+00   2.4376399e+00  -4.1099351e+05
   1.2814271e-09  -6.6673834e-05   2.4503619e+00   2.4376818e+00  -4.0849245e+05
   1.2824275e-09  -6.6267027e-05   2.4503262e+00   2.4377234e+00  -4.0600654e+05
   1.2834278e-09  -6.5862696e-05   2.4502907e+00   2.4377648e+00  -4.0353569e+05
   1.2844281e-09  -6.5460826e-05   2.4502554e+00   2.4378060e+00  -4.0107981e+05
   1.2854285e-09  -6.5061400e-05   2.4502204e+00   2.4378468e+00  -3.9863882e+05
   1.2864288e-09  -6.4664405e-05   2.4501855e+00   2.4378875e+00  -3.9621262e+05
   1.2874291e-09  -6.4269826e-05   2.4501509e+00   2.4379279e+00  -3.9380112e+05
   1.2884295e-09  -6.3877648e-05   2.4501165e+00   2.4379680e+00  -3.9140424e+05
   1.2894298e-09  -6.3487856e-05   2.4500822e+00   2.4380079e+00  -3.8902189e+05
   1.2904301e-09  -6.3100437e-05   2.4500482e+00   2.4380476e+00  -3.8665397e+05
   1.2914305e-09  -6.2715375e-05   2.4500144e+00   2.4380870e+00  -3.8430041e+05
   1.2924308e-09  -6.2332656e-05   2.4499808e+00   2.4381262e+00  -3.8196111e+05
   1.2934311e-09  -6.1952267e-05   2.4499474e+00   2.4381651e+00  -3.7963599e+05
   1.2944315e-09  -6.1574193e-05   2.4499142e+00   2.4382038e+00  -3.7732496e+05
   1.2954318e-09  -6.1198420e-05   2.4498813e+00   2.4382423e+00  -3.7502795e+05
   1.2964321e-09  -6.0824933e-05   2.4498485e+00   2.4382805e+00  -3.7274486e+05
   1.2974325e-09  -6.0453720e-05   2.4498159e+00   2.4383185e+00  -3.7047561e+05
   1.2984328e-09  -6.0084767e-05   2.4497835e+00   2.4383562e+00  -3.6822011e+05
   1.2994331e-09  -5.9718059e-05   2.4497513e+00   2.4383938e+00  -3.6597829e+05
   1.3004335e-09  -5.9353583e-05   2.4497193e+00   2.4384311e+00  -3.6375006e+05
   1.3014338e-09  -5.8991326e-05   2.4496875e+00   2.4384682e+00  -3.6153535e+05
   1.3024341e-09  -5.8631273e-05   2.4496559e+00   2.4385050e+00  -3.5933406e+05
   1.3034345e-09  -5.8273413e-05   2.4496245e+00   2.4385417e+00  -3.5714611e+05
   1.3044348e-09  -5.7917731e-05   2.4495933e+00   2.4385781e+00  -3.5497144e+05
   1.3054351e-09  -5.7564214e-05   2.4495622e+00   2.4386143e+00  -3.5280995e+05
   1.3064355e-09  -5.7212849e-05   2.4495314e+00   2.4386502e+00  -3.5066157e+05
   1.3074358e-09  -5.6863623e-05   2.4495007e+00   2.4386860e+00  -3.4852622e+05
   1.3084361e-09  -5.6516524e-05   2.4494702e+00   2.4387215e+00  -3.4640381e+05
   1.3094365e-09  -5.6171537e-05   2.4494400e+00   2.4387568e+00  -3.4429428e+05
   1.3104368e-09  -5.5828651e-05   2.4494099e+00   2.4387919e+00  -3.4219754e+05
   1.3114371e-09  -5.5487852e-05   2.4493799e+00   2.4388268e+00  -3.4011352e+05
   1.3124375e-09  -5.5149128e-05   2.4493502e+00   2.4388615e+00  -3.3804214e+05
   1.3134378e-09  -5.4812467e-05   2.4493207e+00   2.4388960e+00  -3.3598333e+05
   1.3144381e-09  -5.4477855e-05   2.4492913e+00   2.4389302e+00  -3.3393700e+05
   1.3154385e-09  -5.4145281e-05   2.4492621e+00   2.4389643e+00  -3.3190308e+05
   1.3164388e-09  -5.3814732e-05   2.4492331e+00   2.4389981e+00  -3.2988150e+05
   1.3174391e-09  -5.3486196e-05   2.4492042e+00   2.4390317e+00  -3.2787219e+05
   1.3184395e-09  -5.3159660e-05   2.4491756e+00   2.4390652e+00  -3.2587506e+05
   1.3194398e-09  -5.2835112e-05   2.4491471e+00   2.4390984e+00  -3.2389005e+05
   1.3204401e-09  -5.2512541e-05   2.4491188e+00   2.4391314e+00  -3.2191708e+05
   1.3214405e-09  -5.2191934e-05   2.4490906e+00   2.4391642e+00  -3.1995609e+05
   1.3224408e-09  -5.1873280e-05   2.4490627e+00   2.4391969e+00  -3.1800699e+05
   1.3234411e-09  -5.1556566e-05   2.4490349e+00   2.4392293e+00  -3.1606971e+05
   1.3244415e-09  -5.1241781e-05   2.4490072e+00   2.4392615e+00  -3.1414420e+05
   1.3254418e-09  -5.0928913e-05   2.4489798e+00   2.4392936e+00  -3.1223036e+05
   1.3264421e-09  -5.0617950e-05   2.4489525e+00   2.4393254e+00  -3.1032814e+05
   1.3274425e-09  -5.0308881e-05   2.4489253e+00   2.4393570e+00  -3.0843746e+05
   1.3284428e-09  -5.0001695e-05   2.4488984e+00   2.4393885e+00  -3.0655826e+05
   1.3294431e-09  -4.9696380e-05   2.4488716e+00   2.4394197e+00  -3.0469045e+05
   1.3304435e-09  -4.9392924e-05   2.4488449e+00   2.4394508e+00  -3.0283399e+05
   1.3314438e-09  -4.9091317e-05   2.4488185e+00   2.4394817e+00  -3.0098879e+05
   1.3324441e-09  -4.8791546e-05   2.4487921e+00   2.4395124e+00  -2.9915479e+05
   1.3334445e-09  -4.8493602e-05   2.4487660e+00   2.4395429e+00  -2.9733192e+05
   1.3344448e-09  -4.8197472e-05   2.4487400e+00   2.4395732e+00  -2.9552012e+05
   1.3354451e-09  -4.7903147e-05   2.4487142e+00   2.4396033e+00  -2.9371931e+05
   1.3364455e-09  -4.7610614e-05   2.4486885e+00   2.4396333e+00  -2.9192943e+05
   1.3374458e-09  -4.7319863e-05   2.4486630e+00   2.4396631e+00  -2.9015042e+05
   1.3384461e-09  -4.7030884e-05   2.4486376e+00   2.4396927e+00  -2.8838221e+05
   1.3394465e-09  -4.6743665e-05   2.4486124e+00   2.4397221e+00  -2.8662473e+05
   1.3404468e-09  -4.6458196e-05   2.4485873e+00   2.4397513e+00  -2.8487793e+05
   1.3414471e-09  -4.6174465e-05   2.4485624e+00   2.4397803e+00  -2.8314172e+05
   1.3424475e-09  -4.5892464e-05   2.4485377e+00   2.4398092e+00  -2.8141606e+05
   1.3434478e-09  -4.5612180e-05   2.4485131e+00   2.4398379e+00  -2.7970087e+05
   1.3444481e-09  -4.5333604e-05   2.4484886e+00   2.4398664e+00  -2.7799610e+05
   1.3454485e-09  -4.5056726e-05   2.4484643e+00   2.4398948e+00  -2.7630168e+05
   1.3464488e-09  -4.4781534e-05   2.4484401e+00   2.4399230e+00  -2.7461755e+05
   1.3474491e-09  -4.4508019e-05   2.4484161e+00   2.4399510e+00  -2.7294365e+05
   1.3484495e-09  -4.4236171e-05   2.4483923e+00   2.4399788e+00  -2.7127990e+05
   1.3494498e-09  -4.3965979e-05   2.4483686e+00   2.4400065e+00  -2.6962627e+05
   1.3504502e-09  -4.3697434e-05   2.4483450e+00   2.4400340e+00  -2.6798267e+05
   1.3514505e-09  -4.3430525e-05   2.4483216e+00   2.4400613e+00  -2.6634906e+05
   1.3524508e-09  -4.3165242e-05   2.4482983e+00   2.4400885e+00  -2.6472536e+05
   1.3534512e-09  -4.2901576e-05   2.4482751e+00   2.4401155e+00  -2.6311153e+05
   1.3544515e-09  -4.2639516e-05   2.4482521e+00   2.4401423e+00  -2.6150750e+05
   1.3554518e-09  -4.2379054e-05   2.4482293e+00   2.4401690e+00  -2.5991322e+05
   1.3564522e-09  -4.2120179e-05   2.4482065e+00   2.4401955e+00  -2.5832861e+05
   1.3574525e-09  -4.1862881e-05   2.4481840e+00   2.4402218e+00  -2.5675363e+05
   1.3584528e-09  -4.1607152e-05   2.4481615e+00   2.4402480e+00  -2.5518822e+05
   1.3594532e-09  -4.1352981e-05   2.4481392e+00   2.4402740e+00  -2.5363232e+05
   1.3604535e-09  -4.1100359e-05   2.4481170e+00   2.4402999e+00  -2.5208587e+05
   1.3614538e-09  -4.0849277e-05   2.4480950e+00   2.4403256e+00  -2.5054881e+05
   1.3624542e-09  -4.0599726e-05   2.4480731e+00   2.4403512e+00  -2.4902109e+05
   1.3634545e-09  -4.0351695e-05   2.4480513e+00   2.4403766e+00  -2.4750266e+05
   1.3644548e-09  -4.0105176e-05   2.4480297e+00   2.4404018e+00  -2.4599345e+05
   1.3654552e-09  -3.9860159e-05   2.4480082e+00   2.4404269e+00  -2.4449340e+05
   1.3664555e-09  -3.9616636e-05   2.4479868e+00   2.4404518e+00  -2.4300248e+05
   1.3674558e-09  -3.9374598e-05   2.4479656e+00   2.4404766e+00  -2.4152061e+05
   1.3684562e-09  -3.9134034e-05   2.4479444e+00   2.4405012e+00  -2.4004774e+05
   1.3694565e-09  -3.8894938e-05   2.4479235e+00   2.4405257e+00  -2.3858383e+05
   1.3704568e-09  -3.8657298e-05   2.4479026e+00   2.4405501e+00  -2.3712881e+05
   1.3714572e-09  -3.8421108e-05   2.4478819e+00   2.4405743e+00  -2.3568263e+05
   1.3724575e-09  -3.8186357e-05   2.4478613e+00   2.4405983e+00  -2.3424524e+05
   1.3734578e-09  -3.7953037e-05   2.4478408e+00   2.4406222e+00  -2.3281659e+05
   1.3744582e-09  -3.7721140e-05   2.4478204e+00   2.4406459e+00  -2.3139662e+05
   1.3754585e-09  -3.7490656e-05   2.4478002e+00   2.4406695e+00  -2.2998528e+05
   1.3764588e-09  -3.7261578e-05   2.4477801e+00   2.4406930e+00  -2.2858251e+05
   1.3774592e-09  -3.7033896e-05   2.4477601e+00   2.4407163e+00  -2.2718828e+05
   1.3784595e-09  -3.6807602e-05   2.4477402e+00   2.4407395e+00  -2.2580251e+05
   1.3794598e-09  -3.6582688e-05   2.4477205e+00   2.4407625e+00  -2.2442518e+05
   1.3804602e-09  -3.6359145e-05   2.4477009e+00   2.4407854e+00  -2.2305621e+05
   1.3814605e-09  -3.6136966e-05   2.4476814e+00   2.4408082e+00  -2.2169556e+05
   1.3824608e-09  -3.5916141e-05   2.4476620e+00   2.4408308e+00  -2.2034319e+05
   1.3834612e-09  -3.5696662e-05   2.4476427e+00   2.4408533e+00  -2.1899904e+05
   1.3844615e-09  -3.5478522e-05   2.4476236e+00   2.4408756e+00  -2.1766305e+05
   1.3854618e-09  -3.5261712e-05   2.4476046e+00   2.4408978e+00  -2.1633519e+05
   1.3864622e-09  -3.5046224e-05   2.4475856e+00   2.4409199e+00  -2.1501541e+05
   1.3874625e-09  -3.4832050e-05   2.4475668e+00   2.4409418e+00  -2.1370365e+05
   1.3884628e-09  -3.4619182e-05   2.4475482e+00   2.4409636e+00  -2.1239986e+05
   1.3894632e-09  -3.4407612e-05   2.4475296e+00   2.4409853e+00  -2.1110400e+05
   1.3904635e-09  -3.4197332e-05   2.4475111e+00   2.4410068e+00  -2.0981602e+05
   1.3914638e-09  -3.3988335e-05   2.4474928e+00   2.4410282e+00  -2.0853587e+05
   1.3924642e-09  -3.3780612e-05   2.4474746e+00   2.4410495e+00  -2.0726351e+05
   1.3934645e-09  -3.3574156e-05   2.4474564e+00   2.4410706e+00  -2.0599888e+05
   1.3944648e-09  -3.3368959e-05   2.4474384e+00   2.4410916e+00  -2.0474195e+05
   1.3954652e-09  -3.3165014e-05   2.4474205e+00   2.4411125e+00  -2.0349266e+05
   1.3964655e-09  -3.2962312e-05   2.4474027e+00   2.4411333e+00  -2.0225096e+05
   1.3974658e-09  -3.2760847e-05   2.4473851e+00   2.4411539e+00  -2.0101682e+05
   1.3984662e-09  -3.2560611e-05   2.4473675e+00   2.4411744e+00  -1.9979018e+05
   1.3994665e-09  -3.2361596e-05   2.4473500e+00   2.4411948e+00  -1.9857101e+05
   1.4004668e-09  -3.2163794e-05   2.4473327e+00   2.4412151e+00  -1.9735925e+05
   1.4014672e-09  -3.1967200e-05   2.4473154e+00   2.4412352e+00  -1.9615486e+05
   1.4024675e-09  -3.1771804e-05   2.4472982e+00   2.4412552e+00  -1.9495779e+05
   1.4034678e-09  -3.1577600e-05   2.4472812e+00   2.4412751e+00  -1.9376801e+05
   1.4044682e-09  -3.1384581e-05   2.4472643e+00   2.4412949e+00  -1.9258546e+05
   1.4054685e-09  -3.1192739e-05   2.4472474e+00   2.4413145e+00  -1.9141011e+05
   1.4064688e-09  -3.1002068e-05   2.4472307e+00   2.4413340e+00  -1.9024191e+05
   1.4074692e-09  -3.0812560e-05   2.4472141e+00   2.4413534e+00  -1.8908081e+05
   1.4084695e-09  -3.0624207e-05   2.4471975e+00   2.4413727e+00  -1.8792678e+05
   1.4094698e-09  -3.0437004e-05   2.4471811e+00   2.4413919e+00  -1.8677977e+05
   1.4104702e-09  -3.0250943e-05   2.4471648e+00   2.4414110e+00  -1.8563974e+05
   1.4114705e-09  -3.0066017e-05   2.4471485e+00   2.4414299e+00  -1.8450665e+05
   1.4124708e-09  -2.9882219e-05   2.4471324e+00   2.4414487e+00  -1.8338045e+05
   1.4134712e-09  -2.9699542e-05   2.4471164e+00   2.4414674e+00  -1.8226110e+05
   1.4144715e-09  -2.9517980e-05   2.4471004e+00   2.4414860e+00  -1.8114856e+05
   1.4154718e-09  -2.9337526e-05   2.4470846e+00   2.4415045e+00  -1.8004279e+05
   1.4164722e-09  -2.9158173e-05   2.4470689e+00   2.4415229e+00  -1.7894375e+05
   1.4174725e-09  -2.8979914e-05   2.4470532e+00   2.4415411e+00  -1.7785140e+05
   1.4184728e-09  -2.8802742e-05   2.4470377e+00   2.4415593e+00  -1.7676570e+05
   1.4194732e-09  -2.8626652e-05   2.4470222e+00   2.4415773e+00  -1.7568661e+05
   1.4204735e-09  -2.8451636e-05   2.4470068e+00   2.4415952e+00  -1.7461408e+05
   1.4214738e-09  -2.8277688e-05   2.4469916e+00   2.4416131e+00  -1.7354808e+05
   1.4224742e-09  -2.8104802e-05   2.4469764e+00   2.4416308e+00  -1.7248856e+05
   1.4234745e-09  -2.7932970e-05   2.4469613e+00   2.4416484e+00  -1.7143550e+05
   1.4244748e-09  -2.7762187e-05   2.4469463e+00   2.4416659e+00  -1.7038884e+05
   1.4254752e-09  -2.7592446e-05   2.4469314e+00   2.4416832e+00  -1.6934856e+05
   1.4264755e-09  -2.7423741e-05   2.4469166e+00   2.4417005e+00  -1.6831461e+05
   1.4274758e-09  -2.7256065e-05   2.4469019e+00   2.4417177e+00  -1.6728695e+05
   1.4284762e-09  -2.7089413e-05   2.4468873e+00   2.4417348e+00  -1.6626554e+05
   1.4294765e-09  -2.6923778e-05   2.4468728e+00   2.4417517e+00  -1.6525036e+05
   1.4304768e-09  -2.6759153e-05   2.4468583e+00   2.4417686e+00  -1.6424135e+05
   1.4314772e-09  -2.6595533e-05   2.4468439e+00   2.4417854e+00  -1.6323849e+05
   1.4324775e-09  -2.6432912e-05   2.4468297e+00   2.4418020e+00  -1.6224174e+05
   1.4334778e-09  -2.6271283e-05   2.4468155e+00   2.4418186e+00  -1.6125105e+05
   1.4344782e-09  -2.6110641e-05   2.4468014e+00   2.4418350e+00  -1.6026639e+05
   1.4354785e-09  -2.5950979e-05   2.4467874e+00   2.4418514e+00  -1.5928773e+05
   1.4364788e-09  -2.5792292e-05   2.4467734e+00   2.4418676e+00  -1.5831503e+05
   1.4374792e-09  -2.5634573e-05   2.4467596e+00   2.4418838e+00  -1.5734824e+05
   1.4384795e-09  -2.5477817e-05   2.4467458e+00   2.4418998e+00  -1.5638735e+05
   1.4394798e-09  -2.5322018e-05   2.4467322e+00   2.4419158e+00  -1.5543231e+05
   1.4404802e-09  -2.5167169e-05   2.4467186e+00   2.4419317e+00  -1.5448308e+05
   1.4414805e-09  -2.5013266e-05   2.4467051e+00   2.4419474e+00  -1.5353963e+05
   1.4424808e-09  -2.4860302e-05   2.4466917e+00   2.4419631e+00  -1.5260193e+05
   1.4434812e-09  -2.4708272e-05   2.4466783e+00   2.4419787e+00  -1.5166994e+05
   1.4444815e-09  -2.4557170e-05   2.4466650e+00   2.4419941e+00  -1.5074362e+05
   1.4454818e-09  -2.4406991e-05   2.4466519e+00   2.4420095e+00  -1.4982295e+05
   1.4464822e-09  -2.4257728e-05   2.4466388e+00   2.4420248e+00  -1.4890788e+05
   1.4474825e-09  -2.4109376e-05   2.4466257e+00   2.4420400e+00  -1.4799839e+05
   1.4484828e-09  -2.3961930e-05   2.4466128e+00   2.4420551e+00  -1.4709444e+05
   1.4494832e-09  -2.3815384e-05   2.4465999e+00   2.4420701e+00  -1.4619599e+05
   1.4504835e-09  -2.3669733e-05   2.4465872e+00   2.4420850e+00  -1.4530301e+05
   1.4514838e-09  -2.3524971e-05   2.4465745e+00   2.4420999e+00  -1.4441547e+05
   1.4524842e-09  -2.3381093e-05   2.4465618e+00   2.4421146e+00  -1.4353334e+05
   1.4534845e-09  -2.3238093e-05   2.4465493e+00   2.4421292e+00  -1.4265659e+05
   1.4544848e-09  -2.3095966e-05   2.4465368e+00   2.4421438e+00  -1.4178517e+05
   1.4554852e-09  -2.2954707e-05   2.4465244e+00   2.4421583e+00  -1.4091906e+05
   1.4564855e-09  -2.2814311e-05   2.4465121e+00   2.4421727e+00  -1.4005823e+05
   1.4574858e-09  -2.2674771e-05   2.4464998e+00   2.4421869e+00  -1.3920264e+05
   1.4584862e-09  -2.2536084e-05   2.4464877e+00   2.4422012e+00  -1.3835227e+05
   1.4594865e-09  -2.2398243e-05   2.4464756e+00   2.4422153e+00  -1.3750707e+05
   1.4604868e-09  -2.2261244e-05   2.4464635e+00   2.4422293e+00  -1.3666703e+05
   1.4614872e-09  -2.2125082e-05   2.4464516e+00   2.4422433e+00  -1.3583210e+05
   1.4624875e-09  -2.1989751e-05   2.4464397e+00   2.4422571e+00  -1.3500226e+05
