   0.0000000e+00  -1.2945421e-01   6.3064335e+00   2.6602370e-04  -5.2013443e+08
   1.0003334e-12  -1.2893462e-01   6.3046716e+00   2.7692255e-04  -5.1872818e+08
   2.0006669e-12  -1.2841644e-01   6.3028794e+00   2.8823497e-04  -5.1732176e+08
   3.0010003e-12  -1.2789966e-01   6.3010565e+00   2.9997517e-04  -5.1591516e+08
   4.0013338e-12  -1.2738430e-01   6.2992027e+00   3.1215781e-04  -5.1450840e+08
   5.0016672e-12  -1.2687033e-01   6.2973174e+00   3.2479801e-04  -5.1310146e+08
   6.0020007e-12  -1.2635778e-01   6.2954004e+00   3.3791129e-04  -5.1169436e+08
   7.0023341e-12  -1.2584664e-01   6.2934511e+00   3.5151366e-04  -5.1028709e+08
   8.0026676e-12  -1.2533690e-01   6.2914692e+00   3.6562159e-04  -5.0887967e+08
   9.0030010e-12  -1.2482857e-01   6.2894544e+00   3.8025205e-04  -5.0747209e+08
   1.0003334e-11  -1.2432165e-01   6.2874061e+00   3.9542247e-04  -5.0606435e+08
   1.1003668e-11  -1.2381613e-01   6.2853240e+00   4.1115082e-04  -5.0465647e+08
   1.2004001e-11  -1.2331203e-01   6.2832077e+00   4.2745555e-04  -5.0324844e+08
   1.3004335e-11  -1.2280933e-01   6.2810567e+00   4.4435565e-04  -5.0184027e+08
   1.4004668e-11  -1.2230805e-01   6.2788708e+00   4.6187066e-04  -5.0043196e+08
   1.5005002e-11  -1.2180817e-01   6.2766493e+00   4.8002065e-04  -4.9902352e+08
   1.6005335e-11  -1.2130970e-01   6.2743921e+00   4.9882627e-04  -4.9761495e+08
   1.7005669e-11  -1.2081264e-01   6.2720985e+00   5.1830872e-04  -4.9620625e+08
   1.8006002e-11  -1.2031699e-01   6.2697683e+00   5.3848982e-04  -4.9479744e+08
   1.9006335e-11  -1.1982275e-01   6.2674010e+00   5.5939195e-04  -4.9338851e+08
   2.0006669e-11  -1.1932991e-01   6.2649962e+00   5.8103814e-04  -4.9197947e+08
   2.1007002e-11  -1.1883849e-01   6.2625534e+00   6.0345200e-04  -4.9057032e+08
   2.2007336e-11  -1.1834848e-01   6.2600723e+00   6.2665781e-04  -4.8916108e+08
   2.3007669e-11  -1.1785988e-01   6.2575525e+00   6.5068048e-04  -4.8775175e+08
   2.4008003e-11  -1.1737268e-01   6.2549935e+00   6.7554559e-04  -4.8634233e+08
   2.5008336e-11  -1.1688690e-01   6.2523949e+00   7.0127939e-04  -4.8493282e+08
   2.6008670e-11  -1.1640253e-01   6.2497563e+00   7.2790882e-04  -4.8352324e+08
   2.7009003e-11  -1.1591957e-01   6.2470772e+00   7.5546152e-04  -4.8211360e+08
   2.8009336e-11  -1.1543801e-01   6.2443574e+00   7.8396583e-04  -4.8070389e+08
   2.9009670e-11  -1.1495787e-01   6.2415962e+00   8.1345084e-04  -4.7929413e+08
   3.0010003e-11  -1.1447914e-01   6.2387934e+00   8.4394635e-04  -4.7788432e+08
   3.1010337e-11  -1.1400182e-01   6.2359486e+00   8.7548294e-04  -4.7647447e+08
   3.2010670e-11  -1.1352591e-01   6.2330612e+00   9.0809194e-04  -4.7506458e+08
   3.3011004e-11  -1.1305141e-01   6.2301309e+00   9.4180547e-04  -4.7365468e+08
   3.4011337e-11  -1.1257831e-01   6.2271573e+00   9.7665642e-04  -4.7224475e+08
   3.5011671e-11  -1.1210663e-01   6.2241399e+00   1.0126785e-03  -4.7083481e+08
   3.6012004e-11  -1.1163637e-01   6.2210784e+00   1.0499063e-03  -4.6942488e+08
   3.7012337e-11  -1.1116751e-01   6.2179723e+00   1.0883751e-03  -4.6801495e+08
   3.8012671e-11  -1.1070006e-01   6.2148213e+00   1.1281211e-03  -4.6660504e+08
   3.9013004e-11  -1.1023402e-01   6.2116248e+00   1.1691814e-03  -4.6519515e+08
   4.0013338e-11  -1.0976939e-01   6.2083826e+00   1.2115940e-03  -4.6378530e+08
   4.1013671e-11  -1.0930617e-01   6.2050942e+00   1.2553977e-03  -4.6237550e+08
   4.2014005e-11  -1.0884437e-01   6.2017592e+00   1.3006321e-03  -4.6096574e+08
   4.3014338e-11  -1.0838397e-01   6.1983773e+00   1.3473380e-03  -4.5955606e+08
   4.4014672e-11  -1.0792498e-01   6.1949479e+00   1.3955568e-03  -4.5814644e+08
   4.5015005e-11  -1.0746741e-01   6.1914707e+00   1.4453311e-03  -4.5673692e+08
   4.6015338e-11  -1.0701124e-01   6.1879454e+00   1.4967044e-03  -4.5532748e+08
   4.7015672e-11  -1.0655648e-01   6.1843715e+00   1.5497209e-03  -4.5391816e+08
   4.8016005e-11  -1.0610313e-01   6.1807487e+00   1.6044262e-03  -4.5250895e+08
   4.9016339e-11  -1.0565120e-01   6.1770765e+00   1.6608665e-03  -4.5109987e+08
   5.0016672e-11  -1.0520067e-01   6.1733546e+00   1.7190892e-03  -4.4969094e+08
   5.1017006e-11  -1.0475155e-01   6.1695826e+00   1.7791428e-03  -4.4828215e+08
   5.2017339e-11  -1.0430384e-01   6.1657601e+00   1.8410766e-03  -4.4687353e+08
   5.3017673e-11  -1.0385754e-01   6.1618867e+00   1.9049411e-03  -4.4546509e+08
   5.4018006e-11  -1.0341265e-01   6.1579622e+00   1.9707876e-03  -4.4405684e+08
   5.5018339e-11  -1.0296916e-01   6.1539861e+00   2.0386689e-03  -4.4264880e+08
   5.6018673e-11  -1.0252709e-01   6.1499580e+00   2.1086385e-03  -4.4124097e+08
   5.7019006e-11  -1.0208642e-01   6.1458777e+00   2.1807510e-03  -4.3983337e+08
   5.8019340e-11  -1.0164716e-01   6.1417447e+00   2.2550622e-03  -4.3842601e+08
   5.9019673e-11  -1.0120931e-01   6.1375587e+00   2.3316291e-03  -4.3701892e+08
   6.0020007e-11  -1.0077287e-01   6.1333193e+00   2.4105096e-03  -4.3561209e+08
   6.1020340e-11  -1.0033783e-01   6.1290263e+00   2.4917628e-03  -4.3420556e+08
   6.2020674e-11  -9.9904201e-02   6.1246793e+00   2.5754489e-03  -4.3279932e+08
   6.3021007e-11  -9.9471978e-02   6.1202780e+00   2.6616293e-03  -4.3139341e+08
   6.4021340e-11  -9.9041161e-02   6.1158220e+00   2.7503666e-03  -4.2998782e+08
   6.5021674e-11  -9.8611750e-02   6.1113110e+00   2.8417243e-03  -4.2858259e+08
   6.6022007e-11  -9.8183744e-02   6.1067447e+00   2.9357673e-03  -4.2717771e+08
   6.7022341e-11  -9.7757144e-02   6.1021228e+00   3.0325617e-03  -4.2577322e+08
   6.8022674e-11  -9.7331948e-02   6.0974451e+00   3.1321745e-03  -4.2436913e+08
   6.9023008e-11  -9.6908157e-02   6.0927111e+00   3.2346741e-03  -4.2296545e+08
   7.0023341e-11  -9.6485769e-02   6.0879207e+00   3.3401301e-03  -4.2156219e+08
   7.1023675e-11  -9.6064785e-02   6.0830735e+00   3.4486132e-03  -4.2015939e+08
   7.2024008e-11  -9.5645204e-02   6.0781693e+00   3.5601952e-03  -4.1875705e+08
   7.3024341e-11  -9.5227026e-02   6.0732078e+00   3.6749495e-03  -4.1735520e+08
   7.4024675e-11  -9.4810249e-02   6.0681887e+00   3.7929501e-03  -4.1595385e+08
   7.5025008e-11  -9.4394874e-02   6.0631118e+00   3.9142728e-03  -4.1455301e+08
   7.6025342e-11  -9.3980900e-02   6.0579768e+00   4.0389943e-03  -4.1315272e+08
   7.7025675e-11  -9.3568327e-02   6.0527835e+00   4.1671925e-03  -4.1175298e+08
   7.8026009e-11  -9.3157153e-02   6.0475317e+00   4.2989466e-03  -4.1035382e+08
   7.9026342e-11  -9.2747379e-02   6.0422211e+00   4.4343371e-03  -4.0895525e+08
   8.0026676e-11  -9.2339003e-02   6.0368515e+00   4.5734455e-03  -4.0755730e+08
   8.1027009e-11  -9.1932026e-02   6.0314227e+00   4.7163547e-03  -4.0615999e+08
   8.2027342e-11  -9.1526446e-02   6.0259345e+00   4.8631487e-03  -4.0476333e+08
   8.3027676e-11  -9.1122262e-02   6.0203867e+00   5.0139129e-03  -4.0336735e+08
   8.4028009e-11  -9.0719475e-02   6.0147792e+00   5.1687336e-03  -4.0197206e+08
   8.5028343e-11  -9.0318083e-02   6.0091116e+00   5.3276986e-03  -4.0057749e+08
   8.6028676e-11  -8.9918086e-02   6.0033840e+00   5.4908968e-03  -3.9918366e+08
   8.7029010e-11  -8.9519482e-02   5.9975960e+00   5.6584183e-03  -3.9779059e+08
   8.8029343e-11  -8.9122272e-02   5.9917476e+00   5.8303543e-03  -3.9639830e+08
   8.9029677e-11  -8.8726453e-02   5.9858386e+00   6.0067974e-03  -3.9500682e+08
   9.0030010e-11  -8.8332027e-02   5.9798689e+00   6.1878413e-03  -3.9361616e+08
   9.1030343e-11  -8.7938991e-02   5.9738384e+00   6.3735808e-03  -3.9222636e+08
   9.2030677e-11  -8.7547345e-02   5.9677469e+00   6.5641120e-03  -3.9083742e+08
   9.3031010e-11  -8.7157087e-02   5.9615943e+00   6.7595320e-03  -3.8944938e+08
   9.4031344e-11  -8.6768218e-02   5.9553805e+00   6.9599391e-03  -3.8806225e+08
   9.5031677e-11  -8.6380736e-02   5.9491055e+00   7.1654329e-03  -3.8667607e+08
   9.6032011e-11  -8.5994639e-02   5.9427691e+00   7.3761140e-03  -3.8529085e+08
   9.7032344e-11  -8.5609928e-02   5.9363713e+00   7.5920841e-03  -3.8390662e+08
   9.8032678e-11  -8.5226601e-02   5.9299121e+00   7.8134460e-03  -3.8252340e+08
   9.9033011e-11  -8.4844657e-02   5.9233913e+00   8.0403038e-03  -3.8114122e+08
   1.0003334e-10  -8.4464096e-02   5.9168090e+00   8.2727624e-03  -3.7976010e+08
   1.0103368e-10  -8.4084915e-02   5.9101651e+00   8.5109278e-03  -3.7838007e+08
   1.0203401e-10  -8.3707114e-02   5.9034596e+00   8.7549073e-03  -3.7700114e+08
   1.0303434e-10  -8.3330692e-02   5.8966925e+00   9.0048090e-03  -3.7562336e+08
   1.0403468e-10  -8.2955647e-02   5.8898638e+00   9.2607421e-03  -3.7424673e+08
   1.0503501e-10  -8.2581979e-02   5.8829735e+00   9.5228168e-03  -3.7287129e+08
   1.0603535e-10  -8.2209686e-02   5.8760216e+00   9.7911441e-03  -3.7149707e+08
   1.0703568e-10  -8.1838767e-02   5.8690082e+00   1.0065836e-02  -3.7012408e+08
   1.0803601e-10  -8.1469220e-02   5.8619332e+00   1.0347006e-02  -3.6875236e+08
   1.0903635e-10  -8.1101046e-02   5.8547969e+00   1.0634768e-02  -3.6738193e+08
   1.1003668e-10  -8.0734241e-02   5.8475991e+00   1.0929237e-02  -3.6601281e+08
   1.1103701e-10  -8.0368805e-02   5.8403400e+00   1.1230528e-02  -3.6464504e+08
   1.1203735e-10  -8.0004737e-02   5.8330197e+00   1.1538758e-02  -3.6327864e+08
   1.1303768e-10  -7.9642034e-02   5.8256383e+00   1.1854044e-02  -3.6191364e+08
   1.1403801e-10  -7.9280697e-02   5.8181959e+00   1.2176505e-02  -3.6055006e+08
   1.1503835e-10  -7.8920722e-02   5.8106926e+00   1.2506259e-02  -3.5918794e+08
   1.1603868e-10  -7.8562109e-02   5.8031285e+00   1.2843427e-02  -3.5782729e+08
   1.1703901e-10  -7.8204857e-02   5.7955038e+00   1.3188128e-02  -3.5646815e+08
   1.1803935e-10  -7.7848963e-02   5.7878185e+00   1.3540484e-02  -3.5511054e+08
   1.1903968e-10  -7.7494427e-02   5.7800730e+00   1.3900616e-02  -3.5375450e+08
   1.2004001e-10  -7.7141246e-02   5.7722674e+00   1.4268647e-02  -3.5240004e+08
   1.2104035e-10  -7.6789419e-02   5.7644017e+00   1.4644699e-02  -3.5104720e+08
   1.2204068e-10  -7.6438945e-02   5.7564764e+00   1.5028897e-02  -3.4969601e+08
   1.2304101e-10  -7.6089821e-02   5.7484914e+00   1.5421365e-02  -3.4834649e+08
   1.2404135e-10  -7.5742046e-02   5.7404471e+00   1.5822226e-02  -3.4699867e+08
   1.2504168e-10  -7.5395619e-02   5.7323437e+00   1.6231606e-02  -3.4565258e+08
   1.2604201e-10  -7.5050537e-02   5.7241814e+00   1.6649630e-02  -3.4430825e+08
   1.2704235e-10  -7.4706799e-02   5.7159605e+00   1.7076424e-02  -3.4296571e+08
   1.2804268e-10  -7.4364403e-02   5.7076812e+00   1.7512114e-02  -3.4162498e+08
   1.2904301e-10  -7.4023347e-02   5.6993438e+00   1.7956827e-02  -3.4028610e+08
   1.3004335e-10  -7.3683629e-02   5.6909486e+00   1.8410690e-02  -3.3894909e+08
   1.3104368e-10  -7.3345248e-02   5.6824959e+00   1.8873828e-02  -3.3761398e+08
   1.3204401e-10  -7.3008202e-02   5.6739859e+00   1.9346371e-02  -3.3628080e+08
   1.3304435e-10  -7.2672488e-02   5.6654190e+00   1.9828444e-02  -3.3494957e+08
   1.3404468e-10  -7.2338104e-02   5.6567955e+00   2.0320176e-02  -3.3362034e+08
   1.3504502e-10  -7.2005049e-02   5.6481158e+00   2.0821695e-02  -3.3229312e+08
   1.3604535e-10  -7.1673321e-02   5.6393801e+00   2.1333126e-02  -3.3096795e+08
   1.3704568e-10  -7.1342917e-02   5.6305889e+00   2.1854599e-02  -3.2964485e+08
   1.3804602e-10  -7.1013835e-02   5.6217425e+00   2.2386241e-02  -3.2832385e+08
   1.3904635e-10  -7.0686074e-02   5.6128412e+00   2.2928180e-02  -3.2700498e+08
   1.4004668e-10  -7.0359631e-02   5.6038855e+00   2.3480542e-02  -3.2568827e+08
   1.4104702e-10  -7.0034503e-02   5.5948758e+00   2.4043455e-02  -3.2437375e+08
   1.4204735e-10  -6.9710690e-02   5.5858124e+00   2.4617047e-02  -3.2306145e+08
   1.4304768e-10  -6.9388188e-02   5.5766957e+00   2.5201443e-02  -3.2175139e+08
   1.4404802e-10  -6.9066995e-02   5.5675263e+00   2.5796770e-02  -3.2044361e+08
   1.4504835e-10  -6.8747110e-02   5.5583045e+00   2.6403155e-02  -3.1913813e+08
   1.4604868e-10  -6.8428529e-02   5.5490307e+00   2.7020722e-02  -3.1783499e+08
   1.4704902e-10  -6.8111250e-02   5.5397054e+00   2.7649599e-02  -3.1653420e+08
   1.4804935e-10  -6.7795271e-02   5.5303291e+00   2.8289908e-02  -3.1523580e+08
   1.4904968e-10  -6.7480590e-02   5.5209022e+00   2.8941776e-02  -3.1393981e+08
   1.5005002e-10  -6.7167204e-02   5.5114252e+00   2.9605324e-02  -3.1264627e+08
   1.5105035e-10  -6.6855110e-02   5.5018987e+00   3.0280678e-02  -3.1135520e+08
   1.5205068e-10  -6.6544307e-02   5.4923230e+00   3.0967958e-02  -3.1006664e+08
   1.5305102e-10  -6.6234791e-02   5.4826987e+00   3.1667287e-02  -3.0878060e+08
   1.5405135e-10  -6.5926561e-02   5.4730262e+00   3.2378787e-02  -3.0749711e+08
   1.5505168e-10  -6.5619612e-02   5.4633063e+00   3.3102577e-02  -3.0621621e+08
   1.5605202e-10  -6.5313944e-02   5.4535392e+00   3.3838777e-02  -3.0493792e+08
   1.5705235e-10  -6.5009553e-02   5.4437256e+00   3.4587505e-02  -3.0366227e+08
   1.5805268e-10  -6.4706437e-02   5.4338660e+00   3.5348880e-02  -3.0238929e+08
   1.5905302e-10  -6.4404593e-02   5.4239610e+00   3.6123017e-02  -3.0111899e+08
   1.6005335e-10  -6.4104018e-02   5.4140112e+00   3.6910033e-02  -2.9985142e+08
   1.6105368e-10  -6.3804709e-02   5.4040170e+00   3.7710043e-02  -2.9858659e+08
   1.6205402e-10  -6.3506665e-02   5.3939790e+00   3.8523160e-02  -2.9732453e+08
   1.6305435e-10  -6.3209881e-02   5.3838979e+00   3.9349496e-02  -2.9606527e+08
   1.6405468e-10  -6.2914355e-02   5.3737741e+00   4.0189163e-02  -2.9480883e+08
   1.6505502e-10  -6.2620085e-02   5.3636084e+00   4.1042271e-02  -2.9355525e+08
   1.6605535e-10  -6.2327067e-02   5.3534013e+00   4.1908929e-02  -2.9230454e+08
   1.6705569e-10  -6.2035299e-02   5.3431533e+00   4.2789244e-02  -2.9105674e+08
   1.6805602e-10  -6.1744778e-02   5.3328652e+00   4.3683322e-02  -2.8981186e+08
   1.6905635e-10  -6.1455500e-02   5.3225375e+00   4.4591269e-02  -2.8856993e+08
   1.7005669e-10  -6.1167463e-02   5.3121708e+00   4.5513187e-02  -2.8733098e+08
   1.7105702e-10  -6.0880664e-02   5.3017657e+00   4.6449179e-02  -2.8609503e+08
   1.7205735e-10  -6.0595099e-02   5.2913230e+00   4.7399345e-02  -2.8486210e+08
   1.7305769e-10  -6.0310766e-02   5.2808431e+00   4.8363783e-02  -2.8363223e+08
   1.7405802e-10  -6.0027662e-02   5.2703268e+00   4.9342592e-02  -2.8240543e+08
   1.7505835e-10  -5.9745784e-02   5.2597747e+00   5.0335867e-02  -2.8118173e+08
   1.7605869e-10  -5.9465128e-02   5.2491874e+00   5.1343701e-02  -2.7996115e+08
   1.7705902e-10  -5.9185691e-02   5.2385657e+00   5.2366188e-02  -2.7874371e+08
   1.7805935e-10  -5.8907470e-02   5.2279100e+00   5.3403417e-02  -2.7752944e+08
   1.7905969e-10  -5.8630463e-02   5.2172212e+00   5.4455478e-02  -2.7631836e+08
   1.8006002e-10  -5.8354665e-02   5.2064999e+00   5.5522458e-02  -2.7511049e+08
   1.8106035e-10  -5.8080074e-02   5.1957466e+00   5.6604441e-02  -2.7390585e+08
   1.8206069e-10  -5.7806686e-02   5.1849622e+00   5.7701512e-02  -2.7270447e+08
   1.8306102e-10  -5.7534498e-02   5.1741473e+00   5.8813752e-02  -2.7150637e+08
   1.8406135e-10  -5.7263507e-02   5.1633024e+00   5.9941240e-02  -2.7031156e+08
   1.8506169e-10  -5.6993709e-02   5.1524285e+00   6.1084054e-02  -2.6912008e+08
   1.8606202e-10  -5.6725102e-02   5.1415260e+00   6.2242269e-02  -2.6793193e+08
   1.8706235e-10  -5.6457681e-02   5.1305956e+00   6.3415960e-02  -2.6674714e+08
   1.8806269e-10  -5.6191444e-02   5.1196382e+00   6.4605197e-02  -2.6556573e+08
   1.8906302e-10  -5.5926387e-02   5.1086543e+00   6.5810050e-02  -2.6438772e+08
   1.9006335e-10  -5.5662506e-02   5.0976446e+00   6.7030588e-02  -2.6321313e+08
   1.9106369e-10  -5.5399799e-02   5.0866098e+00   6.8266874e-02  -2.6204197e+08
   1.9206402e-10  -5.5138261e-02   5.0755507e+00   6.9518972e-02  -2.6087428e+08
   1.9306435e-10  -5.4877889e-02   5.0644678e+00   7.0786943e-02  -2.5971005e+08
   1.9406469e-10  -5.4618681e-02   5.0533620e+00   7.2070846e-02  -2.5854932e+08
   1.9506502e-10  -5.4360631e-02   5.0422338e+00   7.3370738e-02  -2.5739209e+08
   1.9606536e-10  -5.4103738e-02   5.0310840e+00   7.4686673e-02  -2.5623840e+08
   1.9706569e-10  -5.3847996e-02   5.0199132e+00   7.6018703e-02  -2.5508824e+08
   1.9806602e-10  -5.3593404e-02   5.0087222e+00   7.7366878e-02  -2.5394165e+08
   1.9906636e-10  -5.3339956e-02   4.9975117e+00   7.8731245e-02  -2.5279863e+08
   2.0006669e-10  -5.3087650e-02   4.9862822e+00   8.0111851e-02  -2.5165921e+08
   2.0106702e-10  -5.2836482e-02   4.9750347e+00   8.1508737e-02  -2.5052339e+08
   2.0206736e-10  -5.2586448e-02   4.9637696e+00   8.2921945e-02  -2.4939120e+08
   2.0306769e-10  -5.2337545e-02   4.9524877e+00   8.4351513e-02  -2.4826264e+08
   2.0406802e-10  -5.2089769e-02   4.9411897e+00   8.5797476e-02  -2.4713774e+08
   2.0506836e-10  -5.1843116e-02   4.9298763e+00   8.7259869e-02  -2.4601650e+08
   2.0606869e-10  -5.1597583e-02   4.9185482e+00   8.8738723e-02  -2.4489894e+08
   2.0706902e-10  -5.1353166e-02   4.9072061e+00   9.0234067e-02  -2.4378508e+08
   2.0806936e-10  -5.1109861e-02   4.8958505e+00   9.1745927e-02  -2.4267492e+08
   2.0906969e-10  -5.0867665e-02   4.8844823e+00   9.3274327e-02  -2.4156848e+08
   2.1007002e-10  -5.0626574e-02   4.8731021e+00   9.4819288e-02  -2.4046577e+08
   2.1107036e-10  -5.0386584e-02   4.8617105e+00   9.6380831e-02  -2.3936681e+08
   2.1207069e-10  -5.0147691e-02   4.8503083e+00   9.7958973e-02  -2.3827160e+08
   2.1307102e-10  -4.9909892e-02   4.8388961e+00   9.9553726e-02  -2.3718016e+08
   2.1407136e-10  -4.9673183e-02   4.8274747e+00   1.0116510e-01  -2.3609249e+08
   2.1507169e-10  -4.9437560e-02   4.8160445e+00   1.0279312e-01  -2.3500862e+08
   2.1607202e-10  -4.9203019e-02   4.8046064e+00   1.0443777e-01  -2.3392853e+08
   2.1707236e-10  -4.8969556e-02   4.7931610e+00   1.0609907e-01  -2.3285226e+08
   2.1807269e-10  -4.8737169e-02   4.7817089e+00   1.0777702e-01  -2.3177980e+08
   2.1907302e-10  -4.8505852e-02   4.7702508e+00   1.0947161e-01  -2.3071117e+08
   2.2007336e-10  -4.8275602e-02   4.7587873e+00   1.1118286e-01  -2.2964638e+08
   2.2107369e-10  -4.8046415e-02   4.7473192e+00   1.1291074e-01  -2.2858542e+08
   2.2207402e-10  -4.7818288e-02   4.7358469e+00   1.1465526e-01  -2.2752832e+08
   2.2307436e-10  -4.7591216e-02   4.7243713e+00   1.1641640e-01  -2.2647507e+08
   2.2407469e-10  -4.7365195e-02   4.7128929e+00   1.1819415e-01  -2.2542570e+08
   2.2507503e-10  -4.7140223e-02   4.7014123e+00   1.1998850e-01  -2.2438019e+08
   2.2607536e-10  -4.6916294e-02   4.6899302e+00   1.2179944e-01  -2.2333856e+08
   2.2707569e-10  -4.6693405e-02   4.6784472e+00   1.2362693e-01  -2.2230082e+08
   2.2807603e-10  -4.6471552e-02   4.6669639e+00   1.2547097e-01  -2.2126696e+08
   2.2907636e-10  -4.6250732e-02   4.6554810e+00   1.2733152e-01  -2.2023701e+08
   2.3007669e-10  -4.6030940e-02   4.6439990e+00   1.2920856e-01  -2.1921095e+08
   2.3107703e-10  -4.5812172e-02   4.6325185e+00   1.3110206e-01  -2.1818880e+08
   2.3207736e-10  -4.5594425e-02   4.6210402e+00   1.3301199e-01  -2.1717056e+08
   2.3307769e-10  -4.5377694e-02   4.6095647e+00   1.3493833e-01  -2.1615624e+08
   2.3407803e-10  -4.5161976e-02   4.5980925e+00   1.3688102e-01  -2.1514583e+08
   2.3507836e-10  -4.4947266e-02   4.5866243e+00   1.3884004e-01  -2.1413935e+08
   2.3607869e-10  -4.4733562e-02   4.5751606e+00   1.4081534e-01  -2.1313679e+08
   2.3707903e-10  -4.4520858e-02   4.5637019e+00   1.4280689e-01  -2.1213816e+08
   2.3807936e-10  -4.4309151e-02   4.5522490e+00   1.4481464e-01  -2.1114345e+08
   2.3907969e-10  -4.4098438e-02   4.5408022e+00   1.4683853e-01  -2.1015268e+08
   2.4008003e-10  -4.3888713e-02   4.5293623e+00   1.4887854e-01  -2.0916585e+08
   2.4108036e-10  -4.3679974e-02   4.5179297e+00   1.5093459e-01  -2.0818294e+08
   2.4208069e-10  -4.3472215e-02   4.5065050e+00   1.5300665e-01  -2.0720398e+08
   2.4308103e-10  -4.3265434e-02   4.4950888e+00   1.5509465e-01  -2.0622895e+08
   2.4408136e-10  -4.3059627e-02   4.4836815e+00   1.5719853e-01  -2.0525786e+08
   2.4508169e-10  -4.2854788e-02   4.4722838e+00   1.5931825e-01  -2.0429071e+08
   2.4608203e-10  -4.2650916e-02   4.4608961e+00   1.6145374e-01  -2.0332749e+08
   2.4708236e-10  -4.2448004e-02   4.4495190e+00   1.6360493e-01  -2.0236821e+08
   2.4808269e-10  -4.2246051e-02   4.4381529e+00   1.6577176e-01  -2.0141287e+08
   2.4908303e-10  -4.2045051e-02   4.4267985e+00   1.6795416e-01  -2.0046146e+08
   2.5008336e-10  -4.1845000e-02   4.4154562e+00   1.7015206e-01  -1.9951398e+08
   2.5108369e-10  -4.1645896e-02   4.4041264e+00   1.7236540e-01  -1.9857044e+08
   2.5208403e-10  -4.1447733e-02   4.3928098e+00   1.7459410e-01  -1.9763083e+08
   2.5308436e-10  -4.1250508e-02   4.3815067e+00   1.7683808e-01  -1.9669514e+08
   2.5408469e-10  -4.1054218e-02   4.3702177e+00   1.7909727e-01  -1.9576338e+08
   2.5508503e-10  -4.0858857e-02   4.3589433e+00   1.8137159e-01  -1.9483555e+08
   2.5608536e-10  -4.0664422e-02   4.3476838e+00   1.8366096e-01  -1.9391163e+08
   2.5708570e-10  -4.0470910e-02   4.3364399e+00   1.8596530e-01  -1.9299163e+08
   2.5808603e-10  -4.0278316e-02   4.3252118e+00   1.8828452e-01  -1.9207554e+08
   2.5908636e-10  -4.0086636e-02   4.3140001e+00   1.9061854e-01  -1.9116336e+08
   2.6008670e-10  -3.9895867e-02   4.3028053e+00   1.9296728e-01  -1.9025508e+08
   2.6108703e-10  -3.9706005e-02   4.2916277e+00   1.9533063e-01  -1.8935071e+08
   2.6208736e-10  -3.9517045e-02   4.2804678e+00   1.9770852e-01  -1.8845023e+08
   2.6308770e-10  -3.9328984e-02   4.2693260e+00   2.0010085e-01  -1.8755364e+08
   2.6408803e-10  -3.9141818e-02   4.2582028e+00   2.0250753e-01  -1.8666094e+08
   2.6508836e-10  -3.8955542e-02   4.2470985e+00   2.0492846e-01  -1.8577211e+08
   2.6608870e-10  -3.8770155e-02   4.2360136e+00   2.0736355e-01  -1.8488716e+08
   2.6708903e-10  -3.8585650e-02   4.2249484e+00   2.0981269e-01  -1.8400608e+08
   2.6808936e-10  -3.8402025e-02   4.2139034e+00   2.1227580e-01  -1.8312887e+08
   2.6908970e-10  -3.8219275e-02   4.2028790e+00   2.1475276e-01  -1.8225551e+08
   2.7009003e-10  -3.8037397e-02   4.1918755e+00   2.1724348e-01  -1.8138600e+08
   2.7109036e-10  -3.7856387e-02   4.1808933e+00   2.1974786e-01  -1.8052033e+08
   2.7209070e-10  -3.7676240e-02   4.1699327e+00   2.2226578e-01  -1.7965850e+08
   2.7309103e-10  -3.7496954e-02   4.1589943e+00   2.2479714e-01  -1.7880049e+08
   2.7409136e-10  -3.7318525e-02   4.1480782e+00   2.2734184e-01  -1.7794631e+08
   2.7509170e-10  -3.7140948e-02   4.1371848e+00   2.2989976e-01  -1.7709595e+08
   2.7609203e-10  -3.6964219e-02   4.1263146e+00   2.3247080e-01  -1.7624939e+08
   2.7709236e-10  -3.6788336e-02   4.1154678e+00   2.3505485e-01  -1.7540663e+08
   2.7809270e-10  -3.6613293e-02   4.1046448e+00   2.3765179e-01  -1.7456766e+08
   2.7909303e-10  -3.6439088e-02   4.0938459e+00   2.4026151e-01  -1.7373247e+08
   2.8009336e-10  -3.6265717e-02   4.0830714e+00   2.4288390e-01  -1.7290105e+08
   2.8109370e-10  -3.6093175e-02   4.0723216e+00   2.4551883e-01  -1.7207340e+08
   2.8209403e-10  -3.5921459e-02   4.0615969e+00   2.4816621e-01  -1.7124951e+08
   2.8309436e-10  -3.5750566e-02   4.0508976e+00   2.5082590e-01  -1.7042936e+08
   2.8409470e-10  -3.5580491e-02   4.0402239e+00   2.5349779e-01  -1.6961295e+08
   2.8509503e-10  -3.5411230e-02   4.0295762e+00   2.5618176e-01  -1.6880027e+08
   2.8609537e-10  -3.5242781e-02   4.0189546e+00   2.5887769e-01  -1.6799130e+08
   2.8709570e-10  -3.5075140e-02   4.0083596e+00   2.6158546e-01  -1.6718605e+08
   2.8809603e-10  -3.4908301e-02   3.9977914e+00   2.6430494e-01  -1.6638450e+08
   2.8909637e-10  -3.4742263e-02   3.9872503e+00   2.6703603e-01  -1.6558663e+08
   2.9009670e-10  -3.4577021e-02   3.9767364e+00   2.6977858e-01  -1.6479245e+08
   2.9109703e-10  -3.4412572e-02   3.9662502e+00   2.7253248e-01  -1.6400193e+08
   2.9209737e-10  -3.4248912e-02   3.9557918e+00   2.7529761e-01  -1.6321507e+08
   2.9309770e-10  -3.4086037e-02   3.9453614e+00   2.7807383e-01  -1.6243186e+08
   2.9409803e-10  -3.3923943e-02   3.9349594e+00   2.8086103e-01  -1.6165229e+08
   2.9509837e-10  -3.3762628e-02   3.9245859e+00   2.8365907e-01  -1.6087635e+08
   2.9609870e-10  -3.3602087e-02   3.9142412e+00   2.8646783e-01  -1.6010402e+08
   2.9709903e-10  -3.3442316e-02   3.9039255e+00   2.8928717e-01  -1.5933529e+08
   2.9809937e-10  -3.3283313e-02   3.8936391e+00   2.9211698e-01  -1.5857016e+08
   2.9909970e-10  -3.3125073e-02   3.8833820e+00   2.9495713e-01  -1.5780861e+08
   3.0010003e-10  -3.2967594e-02   3.8731547e+00   2.9780747e-01  -1.5705064e+08
   3.0110037e-10  -3.2810871e-02   3.8629572e+00   3.0066789e-01  -1.5629622e+08
   3.0210070e-10  -3.2654900e-02   3.8527897e+00   3.0353825e-01  -1.5554535e+08
   3.0310103e-10  -3.2499679e-02   3.8426525e+00   3.0641843e-01  -1.5479801e+08
   3.0410137e-10  -3.2345204e-02   3.8325457e+00   3.0930828e-01  -1.5405420e+08
   3.0510170e-10  -3.2191471e-02   3.8224695e+00   3.1220769e-01  -1.5331390e+08
   3.0610203e-10  -3.2038477e-02   3.8124241e+00   3.1511651e-01  -1.5257711e+08
   3.0710237e-10  -3.1886218e-02   3.8024097e+00   3.1803462e-01  -1.5184380e+08
   3.0810270e-10  -3.1734691e-02   3.7924264e+00   3.2096189e-01  -1.5111397e+08
   3.0910303e-10  -3.1583892e-02   3.7824744e+00   3.2389817e-01  -1.5038760e+08
   3.1010337e-10  -3.1433818e-02   3.7725538e+00   3.2684335e-01  -1.4966468e+08
   3.1110370e-10  -3.1284466e-02   3.7626649e+00   3.2979728e-01  -1.4894521e+08
   3.1210403e-10  -3.1135831e-02   3.7528077e+00   3.3275983e-01  -1.4822916e+08
   3.1310437e-10  -3.0987911e-02   3.7429824e+00   3.3573087e-01  -1.4751653e+08
   3.1410470e-10  -3.0840702e-02   3.7331892e+00   3.3871026e-01  -1.4680729e+08
   3.1510504e-10  -3.0694201e-02   3.7234281e+00   3.4169788e-01  -1.4610145e+08
   3.1610537e-10  -3.0548405e-02   3.7136993e+00   3.4469359e-01  -1.4539899e+08
   3.1710570e-10  -3.0403309e-02   3.7040029e+00   3.4769725e-01  -1.4469988e+08
   3.1810604e-10  -3.0258911e-02   3.6943391e+00   3.5070873e-01  -1.4400413e+08
   3.1910637e-10  -3.0115207e-02   3.6847079e+00   3.5372789e-01  -1.4331172e+08
   3.2010670e-10  -2.9972194e-02   3.6751095e+00   3.5675462e-01  -1.4262264e+08
   3.2110704e-10  -2.9829869e-02   3.6655440e+00   3.5978876e-01  -1.4193686e+08
   3.2210737e-10  -2.9688228e-02   3.6560115e+00   3.6283018e-01  -1.4125439e+08
   3.2310770e-10  -2.9547269e-02   3.6465121e+00   3.6587876e-01  -1.4057520e+08
   3.2410804e-10  -2.9406986e-02   3.6370458e+00   3.6893436e-01  -1.3989928e+08
   3.2510837e-10  -2.9267379e-02   3.6276128e+00   3.7199684e-01  -1.3922663e+08
   3.2610870e-10  -2.9128443e-02   3.6182132e+00   3.7506608e-01  -1.3855722e+08
   3.2710904e-10  -2.8990174e-02   3.6088470e+00   3.7814193e-01  -1.3789105e+08
   3.2810937e-10  -2.8852571e-02   3.5995144e+00   3.8122427e-01  -1.3722810e+08
   3.2910970e-10  -2.8715629e-02   3.5902153e+00   3.8431296e-01  -1.3656835e+08
   3.3011004e-10  -2.8579345e-02   3.5809499e+00   3.8740788e-01  -1.3591180e+08
   3.3111037e-10  -2.8443717e-02   3.5717182e+00   3.9050888e-01  -1.3525843e+08
   3.3211070e-10  -2.8308740e-02   3.5625203e+00   3.9361584e-01  -1.3460823e+08
   3.3311104e-10  -2.8174412e-02   3.5533563e+00   3.9672862e-01  -1.3396118e+08
   3.3411137e-10  -2.8040730e-02   3.5442262e+00   3.9984710e-01  -1.3331728e+08
   3.3511170e-10  -2.7907691e-02   3.5351301e+00   4.0297113e-01  -1.3267650e+08
   3.3611204e-10  -2.7775291e-02   3.5260680e+00   4.0610060e-01  -1.3203883e+08
   3.3711237e-10  -2.7643527e-02   3.5170399e+00   4.0923537e-01  -1.3140427e+08
   3.3811270e-10  -2.7512397e-02   3.5080460e+00   4.1237531e-01  -1.3077279e+08
   3.3911304e-10  -2.7381896e-02   3.4990862e+00   4.1552029e-01  -1.3014439e+08
   3.4011337e-10  -2.7252023e-02   3.4901605e+00   4.1867018e-01  -1.2951905e+08
   3.4111370e-10  -2.7122774e-02   3.4812691e+00   4.2182486e-01  -1.2889675e+08
   3.4211404e-10  -2.6994145e-02   3.4724120e+00   4.2498418e-01  -1.2827749e+08
   3.4311437e-10  -2.6866135e-02   3.4635891e+00   4.2814803e-01  -1.2766125e+08
   3.4411470e-10  -2.6738739e-02   3.4548004e+00   4.3131628e-01  -1.2704802e+08
   3.4511504e-10  -2.6611956e-02   3.4460462e+00   4.3448880e-01  -1.2643778e+08
   3.4611537e-10  -2.6485781e-02   3.4373262e+00   4.3766546e-01  -1.2583052e+08
   3.4711571e-10  -2.6360213e-02   3.4286406e+00   4.4084613e-01  -1.2522623e+08
   3.4811604e-10  -2.6235247e-02   3.4199893e+00   4.4403070e-01  -1.2462489e+08
   3.4911637e-10  -2.6110881e-02   3.4113724e+00   4.4721903e-01  -1.2402649e+08
   3.5011671e-10  -2.5987113e-02   3.4027898e+00   4.5041100e-01  -1.2343102e+08
   3.5111704e-10  -2.5863939e-02   3.3942417e+00   4.5360649e-01  -1.2283846e+08
   3.5211737e-10  -2.5741356e-02   3.3857279e+00   4.5680536e-01  -1.2224880e+08
   3.5311771e-10  -2.5619361e-02   3.3772484e+00   4.6000751e-01  -1.2166202e+08
   3.5411804e-10  -2.5497952e-02   3.3688033e+00   4.6321280e-01  -1.2107812e+08
   3.5511837e-10  -2.5377126e-02   3.3603926e+00   4.6642112e-01  -1.2049708e+08
   3.5611871e-10  -2.5256879e-02   3.3520162e+00   4.6963234e-01  -1.1991889e+08
   3.5711904e-10  -2.5137209e-02   3.3436742e+00   4.7284634e-01  -1.1934353e+08
   3.5811937e-10  -2.5018114e-02   3.3353664e+00   4.7606300e-01  -1.1877099e+08
   3.5911971e-10  -2.4899590e-02   3.3270930e+00   4.7928220e-01  -1.1820126e+08
   3.6012004e-10  -2.4781634e-02   3.3188538e+00   4.8250382e-01  -1.1763432e+08
   3.6112037e-10  -2.4664244e-02   3.3106488e+00   4.8572775e-01  -1.1707016e+08
   3.6212071e-10  -2.4547417e-02   3.3024781e+00   4.8895386e-01  -1.1650877e+08
   3.6312104e-10  -2.4431150e-02   3.2943416e+00   4.9218204e-01  -1.1595013e+08
   3.6412137e-10  -2.4315441e-02   3.2862393e+00   4.9541217e-01  -1.1539423e+08
   3.6512171e-10  -2.4200286e-02   3.2781710e+00   4.9864414e-01  -1.1484106e+08
   3.6612204e-10  -2.4085683e-02   3.2701369e+00   5.0187783e-01  -1.1429061e+08
   3.6712237e-10  -2.3971630e-02   3.2621369e+00   5.0511312e-01  -1.1374286e+08
   3.6812271e-10  -2.3858123e-02   3.2541708e+00   5.0834991e-01  -1.1319780e+08
   3.6912304e-10  -2.3745160e-02   3.2462388e+00   5.1158807e-01  -1.1265541e+08
   3.7012337e-10  -2.3632738e-02   3.2383407e+00   5.1482750e-01  -1.1211569e+08
   3.7112371e-10  -2.3520855e-02   3.2304765e+00   5.1806809e-01  -1.1157862e+08
   3.7212404e-10  -2.3409508e-02   3.2226461e+00   5.2130972e-01  -1.1104418e+08
   3.7312437e-10  -2.3298694e-02   3.2148496e+00   5.2455229e-01  -1.1051237e+08
   3.7412471e-10  -2.3188410e-02   3.2070868e+00   5.2779568e-01  -1.0998317e+08
   3.7512504e-10  -2.3078655e-02   3.1993577e+00   5.3103978e-01  -1.0945657e+08
   3.7612538e-10  -2.2969425e-02   3.1916622e+00   5.3428449e-01  -1.0893256e+08
   3.7712571e-10  -2.2860718e-02   3.1840003e+00   5.3752970e-01  -1.0841112e+08
   3.7812604e-10  -2.2752532e-02   3.1763720e+00   5.4077531e-01  -1.0789225e+08
   3.7912638e-10  -2.2644863e-02   3.1687771e+00   5.4402120e-01  -1.0737592e+08
   3.8012671e-10  -2.2537709e-02   3.1612157e+00   5.4726728e-01  -1.0686212e+08
   3.8112704e-10  -2.2431068e-02   3.1536876e+00   5.5051343e-01  -1.0635086e+08
   3.8212738e-10  -2.2324938e-02   3.1461928e+00   5.5375956e-01  -1.0584210e+08
   3.8312771e-10  -2.2219315e-02   3.1387313e+00   5.5700556e-01  -1.0533584e+08
   3.8412804e-10  -2.2114197e-02   3.1313028e+00   5.6025133e-01  -1.0483206e+08
   3.8512838e-10  -2.2009581e-02   3.1239075e+00   5.6349676e-01  -1.0433077e+08
   3.8612871e-10  -2.1905466e-02   3.1165452e+00   5.6674177e-01  -1.0383193e+08
   3.8712904e-10  -2.1801849e-02   3.1092159e+00   5.6998625e-01  -1.0333554e+08
   3.8812938e-10  -2.1698727e-02   3.1019194e+00   5.7323009e-01  -1.0284159e+08
   3.8912971e-10  -2.1596098e-02   3.0946557e+00   5.7647321e-01  -1.0235007e+08
   3.9013004e-10  -2.1493960e-02   3.0874248e+00   5.7971550e-01  -1.0186095e+08
   3.9113038e-10  -2.1392309e-02   3.0802265e+00   5.8295687e-01  -1.0137424e+08
   3.9213071e-10  -2.1291145e-02   3.0730608e+00   5.8619722e-01  -1.0088992e+08
   3.9313104e-10  -2.1190463e-02   3.0659276e+00   5.8943646e-01  -1.0040797e+08
   3.9413138e-10  -2.1090263e-02   3.0588268e+00   5.9267449e-01  -9.9928394e+07
   3.9513171e-10  -2.0990541e-02   3.0517584e+00   5.9591122e-01  -9.9451167e+07
   3.9613204e-10  -2.0891295e-02   3.0447222e+00   5.9914657e-01  -9.8976281e+07
   3.9713238e-10  -2.0792523e-02   3.0377182e+00   6.0238042e-01  -9.8503725e+07
   3.9813271e-10  -2.0694222e-02   3.0307463e+00   6.0561270e-01  -9.8033487e+07
   3.9913304e-10  -2.0596391e-02   3.0238063e+00   6.0884332e-01  -9.7565555e+07
   4.0013338e-10  -2.0499027e-02   3.0168984e+00   6.1207218e-01  -9.7099918e+07
   4.0113371e-10  -2.0402127e-02   3.0100222e+00   6.1529921e-01  -9.6636563e+07
   4.0213404e-10  -2.0305690e-02   3.0031778e+00   6.1852430e-01  -9.6175480e+07
   4.0313438e-10  -2.0209713e-02   2.9963650e+00   6.2174737e-01  -9.5716657e+07
   4.0413471e-10  -2.0114194e-02   2.9895838e+00   6.2496834e-01  -9.5260082e+07
   4.0513505e-10  -2.0019130e-02   2.9828341e+00   6.2818712e-01  -9.4805745e+07
   4.0613538e-10  -1.9924520e-02   2.9761158e+00   6.3140364e-01  -9.4353633e+07
   4.0713571e-10  -1.9830360e-02   2.9694287e+00   6.3461779e-01  -9.3903736e+07
   4.0813605e-10  -1.9736650e-02   2.9627729e+00   6.3782951e-01  -9.3456042e+07
   4.0913638e-10  -1.9643387e-02   2.9561481e+00   6.4103870e-01  -9.3010540e+07
   4.1013671e-10  -1.9550568e-02   2.9495544e+00   6.4424530e-01  -9.2567219e+07
   4.1113705e-10  -1.9458191e-02   2.9429916e+00   6.4744921e-01  -9.2126068e+07
   4.1213738e-10  -1.9366255e-02   2.9364596e+00   6.5065036e-01  -9.1687075e+07
   4.1313771e-10  -1.9274756e-02   2.9299584e+00   6.5384867e-01  -9.1250231e+07
   4.1413805e-10  -1.9183694e-02   2.9234877e+00   6.5704407e-01  -9.0815523e+07
   4.1513838e-10  -1.9093065e-02   2.9170476e+00   6.6023646e-01  -9.0382941e+07
   4.1613871e-10  -1.9002868e-02   2.9106379e+00   6.6342579e-01  -8.9952475e+07
   4.1713905e-10  -1.8913101e-02   2.9042586e+00   6.6661197e-01  -8.9524112e+07
   4.1813938e-10  -1.8823761e-02   2.8979095e+00   6.6979493e-01  -8.9097844e+07
   4.1913971e-10  -1.8734846e-02   2.8915905e+00   6.7297460e-01  -8.8673658e+07
   4.2014005e-10  -1.8646355e-02   2.8853015e+00   6.7615089e-01  -8.8251545e+07
   4.2114038e-10  -1.8558285e-02   2.8790425e+00   6.7932375e-01  -8.7831494e+07
   4.2214071e-10  -1.8470634e-02   2.8728133e+00   6.8249309e-01  -8.7413494e+07
   4.2314105e-10  -1.8383400e-02   2.8666138e+00   6.8565885e-01  -8.6997534e+07
   4.2414138e-10  -1.8296581e-02   2.8604439e+00   6.8882096e-01  -8.6583605e+07
   4.2514171e-10  -1.8210175e-02   2.8543036e+00   6.9197934e-01  -8.6171696e+07
   4.2614205e-10  -1.8124181e-02   2.8481927e+00   6.9513394e-01  -8.5761796e+07
   4.2714238e-10  -1.8038595e-02   2.8421110e+00   6.9828468e-01  -8.5353896e+07
   4.2814271e-10  -1.7953416e-02   2.8360586e+00   7.0143149e-01  -8.4947985e+07
   4.2914305e-10  -1.7868643e-02   2.8300353e+00   7.0457431e-01  -8.4544053e+07
   4.3014338e-10  -1.7784272e-02   2.8240410e+00   7.0771308e-01  -8.4142090e+07
   4.3114371e-10  -1.7700303e-02   2.8180756e+00   7.1084773e-01  -8.3742085e+07
   4.3214405e-10  -1.7616733e-02   2.8121390e+00   7.1397819e-01  -8.3344029e+07
   4.3314438e-10  -1.7533560e-02   2.8062310e+00   7.1710441e-01  -8.2947913e+07
   4.3414471e-10  -1.7450782e-02   2.8003516e+00   7.2022632e-01  -8.2553725e+07
   4.3514505e-10  -1.7368398e-02   2.7945007e+00   7.2334386e-01  -8.2161456e+07
   4.3614538e-10  -1.7286405e-02   2.7886781e+00   7.2645697e-01  -8.1771096e+07
   4.3714572e-10  -1.7204801e-02   2.7828838e+00   7.2956559e-01  -8.1382635e+07
   4.3814605e-10  -1.7123585e-02   2.7771177e+00   7.3266966e-01  -8.0996065e+07
   4.3914638e-10  -1.7042755e-02   2.7713795e+00   7.3576912e-01  -8.0611374e+07
   4.4014672e-10  -1.6962309e-02   2.7656694e+00   7.3886392e-01  -8.0228554e+07
   4.4114705e-10  -1.6882245e-02   2.7599870e+00   7.4195399e-01  -7.9847594e+07
   4.4214738e-10  -1.6802561e-02   2.7543323e+00   7.4503929e-01  -7.9468486e+07
   4.4314772e-10  -1.6723255e-02   2.7487053e+00   7.4811975e-01  -7.9091220e+07
   4.4414805e-10  -1.6644326e-02   2.7431057e+00   7.5119533e-01  -7.8715787e+07
   4.4514838e-10  -1.6565772e-02   2.7375335e+00   7.5426596e-01  -7.8342176e+07
   4.4614872e-10  -1.6487590e-02   2.7319886e+00   7.5733160e-01  -7.7970379e+07
   4.4714905e-10  -1.6409779e-02   2.7264709e+00   7.6039219e-01  -7.7600387e+07
   4.4814938e-10  -1.6332338e-02   2.7209802e+00   7.6344768e-01  -7.7232190e+07
   4.4914972e-10  -1.6255264e-02   2.7155165e+00   7.6649801e-01  -7.6865779e+07
   4.5015005e-10  -1.6178555e-02   2.7100796e+00   7.6954315e-01  -7.6501145e+07
   4.5115038e-10  -1.6102210e-02   2.7046695e+00   7.7258304e-01  -7.6138279e+07
   4.5215072e-10  -1.6026228e-02   2.6992860e+00   7.7561763e-01  -7.5777172e+07
   4.5315105e-10  -1.5950606e-02   2.6939290e+00   7.7864687e-01  -7.5417814e+07
   4.5415138e-10  -1.5875342e-02   2.6885984e+00   7.8167071e-01  -7.5060198e+07
   4.5515172e-10  -1.5800436e-02   2.6832941e+00   7.8468912e-01  -7.4704314e+07
   4.5615205e-10  -1.5725884e-02   2.6780160e+00   7.8770203e-01  -7.4350153e+07
   4.5715238e-10  -1.5651686e-02   2.6727640e+00   7.9070942e-01  -7.3997706e+07
   4.5815272e-10  -1.5577839e-02   2.6675379e+00   7.9371122e-01  -7.3646965e+07
   4.5915305e-10  -1.5504343e-02   2.6623377e+00   7.9670740e-01  -7.3297922e+07
   4.6015338e-10  -1.5431195e-02   2.6571633e+00   7.9969792e-01  -7.2950566e+07
   4.6115372e-10  -1.5358393e-02   2.6520145e+00   8.0268272e-01  -7.2604890e+07
   4.6215405e-10  -1.5285937e-02   2.6468912e+00   8.0566178e-01  -7.2260886e+07
   4.6315438e-10  -1.5213824e-02   2.6417934e+00   8.0863504e-01  -7.1918544e+07
   4.6415472e-10  -1.5142052e-02   2.6367208e+00   8.1160248e-01  -7.1577856e+07
   4.6515505e-10  -1.5070620e-02   2.6316735e+00   8.1456404e-01  -7.1238814e+07
   4.6615539e-10  -1.4999527e-02   2.6266513e+00   8.1751968e-01  -7.0901410e+07
   4.6715572e-10  -1.4928770e-02   2.6216540e+00   8.2046938e-01  -7.0565634e+07
   4.6815605e-10  -1.4858349e-02   2.6166817e+00   8.2341308e-01  -7.0231480e+07
   4.6915639e-10  -1.4788261e-02   2.6117341e+00   8.2635076e-01  -6.9898938e+07
   4.7015672e-10  -1.4718504e-02   2.6068111e+00   8.2928238e-01  -6.9568000e+07
   4.7115705e-10  -1.4649078e-02   2.6019128e+00   8.3220789e-01  -6.9238659e+07
   4.7215739e-10  -1.4579981e-02   2.5970388e+00   8.3512727e-01  -6.8910906e+07
   4.7315772e-10  -1.4511211e-02   2.5921893e+00   8.3804048e-01  -6.8584733e+07
   4.7415805e-10  -1.4442766e-02   2.5873639e+00   8.4094748e-01  -6.8260132e+07
   4.7515839e-10  -1.4374645e-02   2.5825627e+00   8.4384824e-01  -6.7937095e+07
   4.7615872e-10  -1.4306847e-02   2.5777854e+00   8.4674273e-01  -6.7615614e+07
   4.7715905e-10  -1.4239369e-02   2.5730321e+00   8.4963092e-01  -6.7295682e+07
   4.7815939e-10  -1.4172210e-02   2.5683026e+00   8.5251277e-01  -6.6977289e+07
   4.7915972e-10  -1.4105370e-02   2.5635968e+00   8.5538825e-01  -6.6660430e+07
   4.8016005e-10  -1.4038845e-02   2.5589146e+00   8.5825733e-01  -6.6345095e+07
   4.8116039e-10  -1.3972635e-02   2.5542558e+00   8.6111998e-01  -6.6031278e+07
   4.8216072e-10  -1.3906739e-02   2.5496204e+00   8.6397617e-01  -6.5718970e+07
   4.8316105e-10  -1.3841154e-02   2.5450083e+00   8.6682587e-01  -6.5408164e+07
   4.8416139e-10  -1.3775879e-02   2.5404194e+00   8.6966906e-01  -6.5098852e+07
   4.8516172e-10  -1.3710912e-02   2.5358535e+00   8.7250570e-01  -6.4791027e+07
   4.8616205e-10  -1.3646253e-02   2.5313105e+00   8.7533576e-01  -6.4484681e+07
   4.8716239e-10  -1.3581900e-02   2.5267905e+00   8.7815923e-01  -6.4179807e+07
   4.8816272e-10  -1.3517851e-02   2.5222931e+00   8.8097607e-01  -6.3876397e+07
   4.8916305e-10  -1.3454105e-02   2.5178184e+00   8.8378626e-01  -6.3574444e+07
   4.9016339e-10  -1.3390660e-02   2.5133662e+00   8.8658977e-01  -6.3273941e+07
   4.9116372e-10  -1.3327515e-02   2.5089364e+00   8.8938658e-01  -6.2974880e+07
   4.9216405e-10  -1.3264668e-02   2.5045290e+00   8.9217667e-01  -6.2677254e+07
   4.9316439e-10  -1.3202118e-02   2.5001438e+00   8.9496000e-01  -6.2381056e+07
   4.9416472e-10  -1.3139864e-02   2.4957806e+00   8.9773656e-01  -6.2086279e+07
   4.9516506e-10  -1.3077904e-02   2.4914396e+00   9.0050633e-01  -6.1792915e+07
   4.9616539e-10  -1.3016237e-02   2.4871204e+00   9.0326928e-01  -6.1500958e+07
   4.9716572e-10  -1.2954862e-02   2.4828230e+00   9.0602539e-01  -6.1210399e+07
   4.9816606e-10  -1.2893776e-02   2.4785473e+00   9.0877464e-01  -6.0921233e+07
   4.9916639e-10  -1.2832978e-02   2.4742932e+00   9.1151701e-01  -6.0633453e+07
   5.0016672e-10  -1.2772468e-02   2.4700606e+00   9.1425247e-01  -6.0347051e+07
   5.0116706e-10  -1.2712244e-02   2.4658494e+00   9.1698102e-01  -6.0062020e+07
   5.0216739e-10  -1.2652304e-02   2.4616596e+00   9.1970263e-01  -5.9778354e+07
   5.0316772e-10  -1.2592648e-02   2.4574909e+00   9.2241728e-01  -5.9496045e+07
   5.0416806e-10  -1.2533272e-02   2.4533432e+00   9.2512495e-01  -5.9215088e+07
   5.0516839e-10  -1.2474178e-02   2.4492166e+00   9.2782563e-01  -5.8935475e+07
   5.0616872e-10  -1.2415362e-02   2.4451109e+00   9.3051930e-01  -5.8657199e+07
   5.0716906e-10  -1.2356824e-02   2.4410260e+00   9.3320594e-01  -5.8380254e+07
   5.0816939e-10  -1.2298563e-02   2.4369618e+00   9.3588553e-01  -5.8104633e+07
   5.0916972e-10  -1.2240576e-02   2.4329181e+00   9.3855807e-01  -5.7830330e+07
   5.1017006e-10  -1.2182863e-02   2.4288950e+00   9.4122353e-01  -5.7557337e+07
   5.1117039e-10  -1.2125423e-02   2.4248922e+00   9.4388190e-01  -5.7285649e+07
   5.1217072e-10  -1.2068254e-02   2.4209098e+00   9.4653317e-01  -5.7015259e+07
   5.1317106e-10  -1.2011355e-02   2.4169475e+00   9.4917731e-01  -5.6746160e+07
   5.1417139e-10  -1.1954724e-02   2.4130054e+00   9.5181433e-01  -5.6478347e+07
   5.1517172e-10  -1.1898360e-02   2.4090832e+00   9.5444420e-01  -5.6211812e+07
   5.1617206e-10  -1.1842263e-02   2.4051810e+00   9.5706691e-01  -5.5946549e+07
   5.1717239e-10  -1.1786430e-02   2.4012985e+00   9.5968245e-01  -5.5682552e+07
   5.1817272e-10  -1.1730860e-02   2.3974358e+00   9.6229080e-01  -5.5419815e+07
   5.1917306e-10  -1.1675553e-02   2.3935927e+00   9.6489197e-01  -5.5158331e+07
   5.2017339e-10  -1.1620507e-02   2.3897692e+00   9.6748593e-01  -5.4898094e+07
   5.2117372e-10  -1.1565720e-02   2.3859650e+00   9.7007267e-01  -5.4639098e+07
   5.2217406e-10  -1.1511192e-02   2.3821802e+00   9.7265219e-01  -5.4381337e+07
   5.2317439e-10  -1.1456921e-02   2.3784146e+00   9.7522448e-01  -5.4124804e+07
   5.2417472e-10  -1.1402906e-02   2.3746682e+00   9.7778951e-01  -5.3869494e+07
   5.2517506e-10  -1.1349146e-02   2.3709408e+00   9.8034730e-01  -5.3615401e+07
   5.2617539e-10  -1.1295640e-02   2.3672323e+00   9.8289782e-01  -5.3362518e+07
   5.2717573e-10  -1.1242385e-02   2.3635428e+00   9.8544107e-01  -5.3110839e+07
   5.2817606e-10  -1.1189382e-02   2.3598720e+00   9.8797704e-01  -5.2860359e+07
   5.2917639e-10  -1.1136629e-02   2.3562198e+00   9.9050573e-01  -5.2611072e+07
   5.3017673e-10  -1.1084125e-02   2.3525863e+00   9.9302712e-01  -5.2362971e+07
   5.3117706e-10  -1.1031868e-02   2.3489712e+00   9.9554122e-01  -5.2116051e+07
   5.3217739e-10  -1.0979858e-02   2.3453746e+00   9.9804800e-01  -5.1870306e+07
   5.3317773e-10  -1.0928093e-02   2.3417962e+00   1.0005475e+00  -5.1625731e+07
   5.3417806e-10  -1.0876572e-02   2.3382361e+00   1.0030396e+00  -5.1382318e+07
   5.3517839e-10  -1.0825294e-02   2.3346941e+00   1.0055245e+00  -5.1140064e+07
   5.3617873e-10  -1.0774258e-02   2.3311701e+00   1.0080020e+00  -5.0898961e+07
   5.3717906e-10  -1.0723462e-02   2.3276641e+00   1.0104721e+00  -5.0659005e+07
   5.3817939e-10  -1.0672906e-02   2.3241759e+00   1.0129350e+00  -5.0420189e+07
   5.3917973e-10  -1.0622588e-02   2.3207055e+00   1.0153905e+00  -5.0182509e+07
   5.4018006e-10  -1.0572507e-02   2.3172528e+00   1.0178386e+00  -4.9945958e+07
   5.4118039e-10  -1.0522663e-02   2.3138177e+00   1.0202794e+00  -4.9710530e+07
   5.4218073e-10  -1.0473053e-02   2.3104000e+00   1.0227129e+00  -4.9476221e+07
   5.4318106e-10  -1.0423677e-02   2.3069998e+00   1.0251390e+00  -4.9243026e+07
   5.4418139e-10  -1.0374534e-02   2.3036169e+00   1.0275577e+00  -4.9010937e+07
   5.4518173e-10  -1.0325622e-02   2.3002513e+00   1.0299691e+00  -4.8779950e+07
   5.4618206e-10  -1.0276941e-02   2.2969028e+00   1.0323731e+00  -4.8550061e+07
   5.4718239e-10  -1.0228490e-02   2.2935714e+00   1.0347698e+00  -4.8321262e+07
   5.4818273e-10  -1.0180267e-02   2.2902569e+00   1.0371591e+00  -4.8093549e+07
   5.4918306e-10  -1.0132270e-02   2.2869594e+00   1.0395410e+00  -4.7866916e+07
   5.5018339e-10  -1.0084501e-02   2.2836786e+00   1.0419156e+00  -4.7641359e+07
   5.5118373e-10  -1.0036956e-02   2.2804146e+00   1.0442828e+00  -4.7416872e+07
   5.5218406e-10  -9.9896351e-03   2.2771673e+00   1.0466426e+00  -4.7193450e+07
   5.5318439e-10  -9.9425374e-03   2.2739365e+00   1.0489951e+00  -4.6971087e+07
   5.5418473e-10  -9.8956615e-03   2.2707221e+00   1.0513402e+00  -4.6749778e+07
   5.5518506e-10  -9.8490065e-03   2.2675242e+00   1.0536780e+00  -4.6529519e+07
   5.5618540e-10  -9.8025713e-03   2.2643425e+00   1.0560084e+00  -4.6310304e+07
   5.5718573e-10  -9.7563549e-03   2.2611771e+00   1.0583314e+00  -4.6092127e+07
   5.5818606e-10  -9.7103562e-03   2.2580278e+00   1.0606471e+00  -4.5874985e+07
   5.5918640e-10  -9.6645742e-03   2.2548946e+00   1.0629555e+00  -4.5658871e+07
   5.6018673e-10  -9.6190079e-03   2.2517774e+00   1.0652564e+00  -4.5443782e+07
   5.6118706e-10  -9.5736562e-03   2.2486760e+00   1.0675501e+00  -4.5229711e+07
   5.6218740e-10  -9.5285181e-03   2.2455905e+00   1.0698363e+00  -4.5016654e+07
   5.6318773e-10  -9.4835927e-03   2.2425207e+00   1.0721153e+00  -4.4804606e+07
   5.6418806e-10  -9.4388789e-03   2.2394666e+00   1.0743869e+00  -4.4593562e+07
   5.6518840e-10  -9.3943757e-03   2.2364280e+00   1.0766511e+00  -4.4383517e+07
   5.6618873e-10  -9.3500821e-03   2.2334049e+00   1.0789081e+00  -4.4174467e+07
   5.6718906e-10  -9.3059972e-03   2.2303973e+00   1.0811577e+00  -4.3966406e+07
   5.6818940e-10  -9.2621198e-03   2.2274050e+00   1.0834000e+00  -4.3759329e+07
   5.6918973e-10  -9.2184492e-03   2.2244279e+00   1.0856349e+00  -4.3553233e+07
   5.7019006e-10  -9.1749842e-03   2.2214660e+00   1.0878626e+00  -4.3348111e+07
   5.7119040e-10  -9.1317239e-03   2.2185193e+00   1.0900829e+00  -4.3143960e+07
   5.7219073e-10  -9.0886673e-03   2.2155875e+00   1.0922959e+00  -4.2940775e+07
   5.7319106e-10  -9.0458136e-03   2.2126707e+00   1.0945017e+00  -4.2738550e+07
   5.7419140e-10  -9.0031616e-03   2.2097688e+00   1.0967001e+00  -4.2537282e+07
   5.7519173e-10  -8.9607105e-03   2.2068817e+00   1.0988913e+00  -4.2336966e+07
   5.7619206e-10  -8.9184593e-03   2.2040093e+00   1.1010751e+00  -4.2137596e+07
   5.7719240e-10  -8.8764070e-03   2.2011516e+00   1.1032517e+00  -4.1939170e+07
   5.7819273e-10  -8.8345528e-03   2.1983084e+00   1.1054211e+00  -4.1741681e+07
   5.7919306e-10  -8.7928957e-03   2.1954797e+00   1.1075831e+00  -4.1545125e+07
   5.8019340e-10  -8.7514347e-03   2.1926654e+00   1.1097380e+00  -4.1349499e+07
   5.8119373e-10  -8.7101689e-03   2.1898655e+00   1.1118855e+00  -4.1154796e+07
   5.8219406e-10  -8.6690975e-03   2.1870798e+00   1.1140259e+00  -4.0961014e+07
   5.8319440e-10  -8.6282194e-03   2.1843084e+00   1.1161590e+00  -4.0768147e+07
   5.8419473e-10  -8.5875339e-03   2.1815511e+00   1.1182848e+00  -4.0576191e+07
   5.8519507e-10  -8.5470398e-03   2.1788078e+00   1.1204035e+00  -4.0385142e+07
   5.8619540e-10  -8.5067365e-03   2.1760785e+00   1.1225149e+00  -4.0194995e+07
   5.8719573e-10  -8.4666229e-03   2.1733631e+00   1.1246192e+00  -4.0005746e+07
   5.8819607e-10  -8.4266981e-03   2.1706616e+00   1.1267163e+00  -3.9817391e+07
   5.8919640e-10  -8.3869614e-03   2.1679738e+00   1.1288061e+00  -3.9629925e+07
   5.9019673e-10  -8.3474117e-03   2.1652997e+00   1.1308888e+00  -3.9443344e+07
   5.9119707e-10  -8.3080482e-03   2.1626393e+00   1.1329644e+00  -3.9257644e+07
   5.9219740e-10  -8.2688701e-03   2.1599924e+00   1.1350328e+00  -3.9072820e+07
   5.9319773e-10  -8.2298764e-03   2.1573589e+00   1.1370940e+00  -3.8888868e+07
   5.9419807e-10  -8.1910662e-03   2.1547389e+00   1.1391481e+00  -3.8705785e+07
   5.9519840e-10  -8.1524388e-03   2.1521323e+00   1.1411951e+00  -3.8523565e+07
   5.9619873e-10  -8.1139933e-03   2.1495389e+00   1.1432350e+00  -3.8342205e+07
   5.9719907e-10  -8.0757287e-03   2.1469587e+00   1.1452677e+00  -3.8161701e+07
   5.9819940e-10  -8.0376442e-03   2.1443916e+00   1.1472934e+00  -3.7982048e+07
   5.9919973e-10  -7.9997391e-03   2.1418377e+00   1.1493120e+00  -3.7803243e+07
   6.0020007e-10  -7.9620124e-03   2.1392967e+00   1.1513235e+00  -3.7625281e+07
   6.0120040e-10  -7.9244633e-03   2.1367687e+00   1.1533279e+00  -3.7448158e+07
   6.0220073e-10  -7.8870909e-03   2.1342535e+00   1.1553253e+00  -3.7271871e+07
   6.0320107e-10  -7.8498945e-03   2.1317511e+00   1.1573157e+00  -3.7096415e+07
   6.0420140e-10  -7.8128732e-03   2.1292615e+00   1.1592990e+00  -3.6921786e+07
   6.0520173e-10  -7.7760261e-03   2.1267846e+00   1.1612753e+00  -3.6747980e+07
   6.0620207e-10  -7.7393525e-03   2.1243202e+00   1.1632446e+00  -3.6574994e+07
   6.0720240e-10  -7.7028516e-03   2.1218684e+00   1.1652069e+00  -3.6402823e+07
   6.0820273e-10  -7.6665225e-03   2.1194290e+00   1.1671622e+00  -3.6231464e+07
   6.0920307e-10  -7.6303643e-03   2.1170021e+00   1.1691105e+00  -3.6060912e+07
   6.1020340e-10  -7.5943764e-03   2.1145875e+00   1.1710519e+00  -3.5891164e+07
   6.1120373e-10  -7.5585579e-03   2.1121852e+00   1.1729864e+00  -3.5722216e+07
   6.1220407e-10  -7.5229080e-03   2.1097951e+00   1.1749138e+00  -3.5554064e+07
   6.1320440e-10  -7.4874259e-03   2.1074172e+00   1.1768344e+00  -3.5386704e+07
   6.1420473e-10  -7.4521108e-03   2.1050513e+00   1.1787481e+00  -3.5220133e+07
   6.1520507e-10  -7.4169620e-03   2.1026975e+00   1.1806548e+00  -3.5054347e+07
   6.1620540e-10  -7.3819786e-03   2.1003557e+00   1.1825547e+00  -3.4889341e+07
   6.1720574e-10  -7.3471599e-03   2.0980257e+00   1.1844477e+00  -3.4725113e+07
   6.1820607e-10  -7.3125050e-03   2.0957076e+00   1.1863339e+00  -3.4561659e+07
   6.1920640e-10  -7.2780133e-03   2.0934013e+00   1.1882132e+00  -3.4398974e+07
   6.2020674e-10  -7.2436840e-03   2.0911066e+00   1.1900856e+00  -3.4237055e+07
   6.2120707e-10  -7.2095162e-03   2.0888237e+00   1.1919513e+00  -3.4075899e+07
   6.2220740e-10  -7.1755093e-03   2.0865523e+00   1.1938101e+00  -3.3915501e+07
   6.2320774e-10  -7.1416624e-03   2.0842925e+00   1.1956621e+00  -3.3755859e+07
   6.2420807e-10  -7.1079749e-03   2.0820441e+00   1.1975074e+00  -3.3596969e+07
   6.2520840e-10  -7.0744459e-03   2.0798072e+00   1.1993459e+00  -3.3438827e+07
   6.2620874e-10  -7.0410748e-03   2.0775816e+00   1.2011776e+00  -3.3281429e+07
   6.2720907e-10  -7.0078607e-03   2.0753673e+00   1.2030026e+00  -3.3124772e+07
   6.2820940e-10  -6.9748030e-03   2.0731643e+00   1.2048209e+00  -3.2968852e+07
   6.2920974e-10  -6.9419008e-03   2.0709724e+00   1.2066325e+00  -3.2813666e+07
   6.3021007e-10  -6.9091536e-03   2.0687917e+00   1.2084373e+00  -3.2659211e+07
   6.3121040e-10  -6.8765605e-03   2.0666220e+00   1.2102355e+00  -3.2505483e+07
   6.3221074e-10  -6.8441208e-03   2.0644633e+00   1.2120270e+00  -3.2352478e+07
   6.3321107e-10  -6.8118338e-03   2.0623156e+00   1.2138119e+00  -3.2200193e+07
   6.3421140e-10  -6.7796987e-03   2.0601788e+00   1.2155901e+00  -3.2048625e+07
   6.3521174e-10  -6.7477150e-03   2.0580528e+00   1.2173618e+00  -3.1897770e+07
   6.3621207e-10  -6.7158818e-03   2.0559376e+00   1.2191267e+00  -3.1747625e+07
   6.3721240e-10  -6.6841984e-03   2.0538331e+00   1.2208851e+00  -3.1598186e+07
   6.3821274e-10  -6.6526641e-03   2.0517393e+00   1.2226370e+00  -3.1449450e+07
   6.3921307e-10  -6.6212783e-03   2.0496561e+00   1.2243822e+00  -3.1301414e+07
   6.4021340e-10  -6.5900403e-03   2.0475834e+00   1.2261209e+00  -3.1154075e+07
   6.4121374e-10  -6.5589492e-03   2.0455213e+00   1.2278531e+00  -3.1007428e+07
   6.4221407e-10  -6.5280046e-03   2.0434696e+00   1.2295788e+00  -3.0861471e+07
   6.4321440e-10  -6.4972056e-03   2.0414283e+00   1.2312979e+00  -3.0716201e+07
   6.4421474e-10  -6.4665515e-03   2.0393973e+00   1.2330106e+00  -3.0571614e+07
   6.4521507e-10  -6.4360418e-03   2.0373766e+00   1.2347168e+00  -3.0427708e+07
   6.4621541e-10  -6.4056756e-03   2.0353661e+00   1.2364165e+00  -3.0284477e+07
   6.4721574e-10  -6.3754525e-03   2.0333659e+00   1.2381098e+00  -3.0141921e+07
   6.4821607e-10  -6.3453715e-03   2.0313757e+00   1.2397967e+00  -3.0000035e+07
   6.4921641e-10  -6.3154322e-03   2.0293956e+00   1.2414771e+00  -2.9858816e+07
   6.5021674e-10  -6.2856338e-03   2.0274256e+00   1.2431512e+00  -2.9718261e+07
   6.5121707e-10  -6.2559757e-03   2.0254655e+00   1.2448188e+00  -2.9578367e+07
   6.5221741e-10  -6.2264572e-03   2.0235153e+00   1.2464801e+00  -2.9439131e+07
   6.5321774e-10  -6.1970776e-03   2.0215750e+00   1.2481351e+00  -2.9300550e+07
   6.5421807e-10  -6.1678364e-03   2.0196445e+00   1.2497837e+00  -2.9162620e+07
   6.5521841e-10  -6.1387328e-03   2.0177237e+00   1.2514261e+00  -2.9025339e+07
   6.5621874e-10  -6.1097662e-03   2.0158127e+00   1.2530621e+00  -2.8888703e+07
   6.5721907e-10  -6.0809360e-03   2.0139113e+00   1.2546918e+00  -2.8752709e+07
   6.5821941e-10  -6.0522414e-03   2.0120195e+00   1.2563153e+00  -2.8617355e+07
   6.5921974e-10  -6.0236820e-03   2.0101373e+00   1.2579325e+00  -2.8482637e+07
   6.6022007e-10  -5.9952570e-03   2.0082646e+00   1.2595435e+00  -2.8348552e+07
   6.6122041e-10  -5.9669658e-03   2.0064014e+00   1.2611482e+00  -2.8215097e+07
   6.6222074e-10  -5.9388078e-03   2.0045476e+00   1.2627468e+00  -2.8082270e+07
   6.6322107e-10  -5.9107824e-03   2.0027031e+00   1.2643391e+00  -2.7950067e+07
   6.6422141e-10  -5.8828889e-03   2.0008680e+00   1.2659253e+00  -2.7818486e+07
   6.6522174e-10  -5.8551267e-03   1.9990421e+00   1.2675054e+00  -2.7687523e+07
   6.6622207e-10  -5.8274952e-03   1.9972254e+00   1.2690793e+00  -2.7557175e+07
   6.6722241e-10  -5.7999938e-03   1.9954179e+00   1.2706471e+00  -2.7427440e+07
   6.6822274e-10  -5.7726219e-03   1.9936195e+00   1.2722087e+00  -2.7298315e+07
   6.6922307e-10  -5.7453788e-03   1.9918302e+00   1.2737643e+00  -2.7169796e+07
   6.7022341e-10  -5.7182640e-03   1.9900499e+00   1.2753139e+00  -2.7041882e+07
   6.7122374e-10  -5.6912769e-03   1.9882786e+00   1.2768573e+00  -2.6914569e+07
   6.7222407e-10  -5.6644168e-03   1.9865163e+00   1.2783947e+00  -2.6787854e+07
   6.7322441e-10  -5.6376831e-03   1.9847628e+00   1.2799262e+00  -2.6661734e+07
   6.7422474e-10  -5.6110754e-03   1.9830181e+00   1.2814516e+00  -2.6536207e+07
   6.7522508e-10  -5.5845929e-03   1.9812823e+00   1.2829710e+00  -2.6411270e+07
   6.7622541e-10  -5.5582351e-03   1.9795552e+00   1.2844844e+00  -2.6286920e+07
   6.7722574e-10  -5.5320013e-03   1.9778368e+00   1.2859919e+00  -2.6163154e+07
   6.7822608e-10  -5.5058911e-03   1.9761270e+00   1.2874935e+00  -2.6039970e+07
   6.7922641e-10  -5.4799039e-03   1.9744259e+00   1.2889891e+00  -2.5917364e+07
   6.8022674e-10  -5.4540390e-03   1.9727333e+00   1.2904788e+00  -2.5795335e+07
   6.8122708e-10  -5.4282959e-03   1.9710493e+00   1.2919627e+00  -2.5673879e+07
   6.8222741e-10  -5.4026739e-03   1.9693737e+00   1.2934407e+00  -2.5552994e+07
   6.8322774e-10  -5.3771727e-03   1.9677066e+00   1.2949128e+00  -2.5432676e+07
   6.8422808e-10  -5.3517915e-03   1.9660479e+00   1.2963791e+00  -2.5312924e+07
   6.8522841e-10  -5.3265298e-03   1.9643975e+00   1.2978395e+00  -2.5193734e+07
   6.8622874e-10  -5.3013871e-03   1.9627554e+00   1.2992942e+00  -2.5075105e+07
   6.8722908e-10  -5.2763627e-03   1.9611215e+00   1.3007431e+00  -2.4957032e+07
   6.8822941e-10  -5.2514562e-03   1.9594959e+00   1.3021862e+00  -2.4839515e+07
   6.8922974e-10  -5.2266670e-03   1.9578785e+00   1.3036236e+00  -2.4722549e+07
   6.9023008e-10  -5.2019945e-03   1.9562692e+00   1.3050552e+00  -2.4606133e+07
   6.9123041e-10  -5.1774381e-03   1.9546680e+00   1.3064811e+00  -2.4490264e+07
   6.9223074e-10  -5.1529974e-03   1.9530748e+00   1.3079013e+00  -2.4374939e+07
   6.9323108e-10  -5.1286718e-03   1.9514896e+00   1.3093159e+00  -2.4260156e+07
   6.9423141e-10  -5.1044608e-03   1.9499124e+00   1.3107247e+00  -2.4145912e+07
   6.9523174e-10  -5.0803638e-03   1.9483432e+00   1.3121280e+00  -2.4032205e+07
   6.9623208e-10  -5.0563802e-03   1.9467818e+00   1.3135255e+00  -2.3919031e+07
   6.9723241e-10  -5.0325096e-03   1.9452282e+00   1.3149175e+00  -2.3806390e+07
   6.9823274e-10  -5.0087514e-03   1.9436825e+00   1.3163039e+00  -2.3694277e+07
   6.9923308e-10  -4.9851051e-03   1.9421445e+00   1.3176847e+00  -2.3582692e+07
   7.0023341e-10  -4.9615701e-03   1.9406142e+00   1.3190599e+00  -2.3471630e+07
   7.0123374e-10  -4.9381460e-03   1.9390916e+00   1.3204296e+00  -2.3361090e+07
   7.0223408e-10  -4.9148322e-03   1.9375767e+00   1.3217938e+00  -2.3251069e+07
   7.0323441e-10  -4.8916282e-03   1.9360693e+00   1.3231525e+00  -2.3141565e+07
   7.0423474e-10  -4.8685335e-03   1.9345695e+00   1.3245056e+00  -2.3032576e+07
   7.0523508e-10  -4.8455476e-03   1.9330772e+00   1.3258533e+00  -2.2924098e+07
   7.0623541e-10  -4.8226699e-03   1.9315925e+00   1.3271956e+00  -2.2816130e+07
   7.0723575e-10  -4.7999000e-03   1.9301151e+00   1.3285323e+00  -2.2708669e+07
   7.0823608e-10  -4.7772373e-03   1.9286452e+00   1.3298637e+00  -2.2601713e+07
   7.0923641e-10  -4.7546813e-03   1.9271826e+00   1.3311897e+00  -2.2495259e+07
   7.1023675e-10  -4.7322316e-03   1.9257274e+00   1.3325102e+00  -2.2389305e+07
   7.1123708e-10  -4.7098876e-03   1.9242794e+00   1.3338254e+00  -2.2283849e+07
   7.1223741e-10  -4.6876489e-03   1.9228387e+00   1.3351353e+00  -2.2178888e+07
   7.1323775e-10  -4.6655149e-03   1.9214052e+00   1.3364398e+00  -2.2074421e+07
   7.1423808e-10  -4.6434852e-03   1.9199789e+00   1.3377389e+00  -2.1970444e+07
   7.1523841e-10  -4.6215592e-03   1.9185597e+00   1.3390328e+00  -2.1866955e+07
   7.1623875e-10  -4.5997366e-03   1.9171477e+00   1.3403214e+00  -2.1763952e+07
   7.1723908e-10  -4.5780167e-03   1.9157427e+00   1.3416047e+00  -2.1661433e+07
   7.1823941e-10  -4.5563991e-03   1.9143447e+00   1.3428828e+00  -2.1559396e+07
   7.1923975e-10  -4.5348834e-03   1.9129537e+00   1.3441556e+00  -2.1457838e+07
   7.2024008e-10  -4.5134690e-03   1.9115697e+00   1.3454232e+00  -2.1356757e+07
   7.2124041e-10  -4.4921555e-03   1.9101926e+00   1.3466856e+00  -2.1256150e+07
   7.2224075e-10  -4.4709424e-03   1.9088224e+00   1.3479428e+00  -2.1156017e+07
   7.2324108e-10  -4.4498292e-03   1.9074591e+00   1.3491949e+00  -2.1056353e+07
   7.2424141e-10  -4.4288155e-03   1.9061025e+00   1.3504418e+00  -2.0957158e+07
   7.2524175e-10  -4.4079008e-03   1.9047528e+00   1.3516835e+00  -2.0858429e+07
   7.2624208e-10  -4.3870846e-03   1.9034098e+00   1.3529202e+00  -2.0760163e+07
   7.2724241e-10  -4.3663665e-03   1.9020735e+00   1.3541517e+00  -2.0662359e+07
   7.2824275e-10  -4.3457459e-03   1.9007438e+00   1.3553782e+00  -2.0565014e+07
   7.2924308e-10  -4.3252226e-03   1.8994208e+00   1.3565996e+00  -2.0468127e+07
   7.3024341e-10  -4.3047959e-03   1.8981045e+00   1.3578160e+00  -2.0371694e+07
   7.3124375e-10  -4.2844655e-03   1.8967947e+00   1.3590273e+00  -2.0275715e+07
   7.3224408e-10  -4.2642308e-03   1.8954914e+00   1.3602336e+00  -2.0180186e+07
   7.3324441e-10  -4.2440915e-03   1.8941946e+00   1.3614349e+00  -2.0085107e+07
   7.3424475e-10  -4.2240471e-03   1.8929043e+00   1.3626313e+00  -1.9990473e+07
   7.3524508e-10  -4.2040971e-03   1.8916205e+00   1.3638226e+00  -1.9896284e+07
   7.3624542e-10  -4.1842411e-03   1.8903430e+00   1.3650091e+00  -1.9802538e+07
   7.3724575e-10  -4.1644787e-03   1.8890719e+00   1.3661905e+00  -1.9709232e+07
   7.3824608e-10  -4.1448094e-03   1.8878072e+00   1.3673671e+00  -1.9616364e+07
   7.3924642e-10  -4.1252327e-03   1.8865488e+00   1.3685388e+00  -1.9523933e+07
   7.4024675e-10  -4.1057483e-03   1.8852966e+00   1.3697056e+00  -1.9431936e+07
   7.4124708e-10  -4.0863558e-03   1.8840507e+00   1.3708676e+00  -1.9340370e+07
   7.4224742e-10  -4.0670546e-03   1.8828110e+00   1.3720247e+00  -1.9249235e+07
   7.4324775e-10  -4.0478443e-03   1.8815774e+00   1.3731769e+00  -1.9158528e+07
   7.4424808e-10  -4.0287246e-03   1.8803500e+00   1.3743244e+00  -1.9068248e+07
   7.4524842e-10  -4.0096950e-03   1.8791288e+00   1.3754670e+00  -1.8978391e+07
   7.4624875e-10  -3.9907550e-03   1.8779136e+00   1.3766049e+00  -1.8888956e+07
   7.4724908e-10  -3.9719044e-03   1.8767044e+00   1.3777380e+00  -1.8799942e+07
   7.4824942e-10  -3.9531425e-03   1.8755013e+00   1.3788664e+00  -1.8711345e+07
   7.4924975e-10  -3.9344691e-03   1.8743042e+00   1.3799901e+00  -1.8623165e+07
   7.5025008e-10  -3.9158836e-03   1.8731130e+00   1.3811090e+00  -1.8535399e+07
   7.5125042e-10  -3.8973858e-03   1.8719278e+00   1.3822232e+00  -1.8448046e+07
   7.5225075e-10  -3.8789751e-03   1.8707484e+00   1.3833328e+00  -1.8361102e+07
   7.5325108e-10  -3.8606512e-03   1.8695749e+00   1.3844377e+00  -1.8274568e+07
   7.5425142e-10  -3.8424137e-03   1.8684073e+00   1.3855379e+00  -1.8188439e+07
   7.5525175e-10  -3.8242621e-03   1.8672454e+00   1.3866335e+00  -1.8102716e+07
   7.5625208e-10  -3.8061960e-03   1.8660894e+00   1.3877245e+00  -1.8017395e+07
   7.5725242e-10  -3.7882151e-03   1.8649391e+00   1.3888109e+00  -1.7932475e+07
   7.5825275e-10  -3.7703190e-03   1.8637945e+00   1.3898928e+00  -1.7847953e+07
   7.5925308e-10  -3.7525072e-03   1.8626555e+00   1.3909700e+00  -1.7763829e+07
   7.6025342e-10  -3.7347794e-03   1.8615223e+00   1.3920427e+00  -1.7680101e+07
   7.6125375e-10  -3.7171351e-03   1.8603947e+00   1.3931109e+00  -1.7596765e+07
   7.6225408e-10  -3.6995740e-03   1.8592726e+00   1.3941746e+00  -1.7513821e+07
   7.6325442e-10  -3.6820956e-03   1.8581562e+00   1.3952338e+00  -1.7431267e+07
   7.6425475e-10  -3.6646997e-03   1.8570453e+00   1.3962884e+00  -1.7349101e+07
   7.6525509e-10  -3.6473858e-03   1.8559399e+00   1.3973387e+00  -1.7267321e+07
   7.6625542e-10  -3.6301534e-03   1.8548400e+00   1.3983844e+00  -1.7185925e+07
   7.6725575e-10  -3.6130023e-03   1.8537455e+00   1.3994258e+00  -1.7104911e+07
   7.6825609e-10  -3.5959321e-03   1.8526565e+00   1.4004627e+00  -1.7024278e+07
   7.6925642e-10  -3.5789423e-03   1.8515729e+00   1.4014952e+00  -1.6944024e+07
   7.7025675e-10  -3.5620326e-03   1.8504947e+00   1.4025233e+00  -1.6864147e+07
   7.7125709e-10  -3.5452026e-03   1.8494218e+00   1.4035471e+00  -1.6784645e+07
   7.7225742e-10  -3.5284520e-03   1.8483542e+00   1.4045665e+00  -1.6705517e+07
   7.7325775e-10  -3.5117804e-03   1.8472920e+00   1.4055816e+00  -1.6626761e+07
   7.7425809e-10  -3.4951873e-03   1.8462349e+00   1.4065923e+00  -1.6548375e+07
   7.7525842e-10  -3.4786725e-03   1.8451832e+00   1.4075987e+00  -1.6470357e+07
   7.7625875e-10  -3.4622355e-03   1.8441366e+00   1.4086009e+00  -1.6392706e+07
   7.7725909e-10  -3.4458760e-03   1.8430952e+00   1.4095987e+00  -1.6315420e+07
   7.7825942e-10  -3.4295936e-03   1.8420590e+00   1.4105924e+00  -1.6238497e+07
   7.7925975e-10  -3.4133881e-03   1.8410280e+00   1.4115817e+00  -1.6161935e+07
   7.8026009e-10  -3.3972589e-03   1.8400020e+00   1.4125669e+00  -1.6085733e+07
   7.8126042e-10  -3.3812057e-03   1.8389811e+00   1.4135478e+00  -1.6009890e+07
   7.8226075e-10  -3.3652283e-03   1.8379652e+00   1.4145245e+00  -1.5934402e+07
   7.8326109e-10  -3.3493262e-03   1.8369544e+00   1.4154971e+00  -1.5859270e+07
   7.8426142e-10  -3.3334991e-03   1.8359486e+00   1.4164655e+00  -1.5784491e+07
   7.8526175e-10  -3.3177466e-03   1.8349478e+00   1.4174297e+00  -1.5710063e+07
   7.8626209e-10  -3.3020684e-03   1.8339519e+00   1.4183898e+00  -1.5635984e+07
   7.8726242e-10  -3.2864641e-03   1.8329610e+00   1.4193458e+00  -1.5562255e+07
   7.8826275e-10  -3.2709334e-03   1.8319749e+00   1.4202977e+00  -1.5488871e+07
   7.8926309e-10  -3.2554759e-03   1.8309937e+00   1.4212455e+00  -1.5415833e+07
   7.9026342e-10  -3.2400913e-03   1.8300174e+00   1.4221892e+00  -1.5343137e+07
   7.9126375e-10  -3.2247793e-03   1.8290459e+00   1.4231289e+00  -1.5270784e+07
   7.9226409e-10  -3.2095395e-03   1.8280792e+00   1.4240645e+00  -1.5198770e+07
   7.9326442e-10  -3.1943715e-03   1.8271173e+00   1.4249961e+00  -1.5127095e+07
   7.9426475e-10  -3.1792751e-03   1.8261602e+00   1.4259237e+00  -1.5055757e+07
   7.9526509e-10  -3.1642498e-03   1.8252077e+00   1.4268473e+00  -1.4984755e+07
   7.9626542e-10  -3.1492955e-03   1.8242600e+00   1.4277669e+00  -1.4914086e+07
   7.9726576e-10  -3.1344116e-03   1.8233170e+00   1.4286825e+00  -1.4843749e+07
   7.9826609e-10  -3.1195980e-03   1.8223786e+00   1.4295942e+00  -1.4773743e+07
   7.9926642e-10  -3.1048542e-03   1.8214448e+00   1.4305020e+00  -1.4704066e+07
   8.0026676e-10  -3.0901799e-03   1.8205157e+00   1.4314058e+00  -1.4634716e+07
   8.0126709e-10  -3.0755749e-03   1.8195911e+00   1.4323058e+00  -1.4565693e+07
   8.0226742e-10  -3.0610387e-03   1.8186711e+00   1.4332018e+00  -1.4496994e+07
   8.0326776e-10  -3.0465711e-03   1.8177557e+00   1.4340940e+00  -1.4428618e+07
   8.0426809e-10  -3.0321718e-03   1.8168447e+00   1.4349823e+00  -1.4360563e+07
   8.0526842e-10  -3.0178403e-03   1.8159383e+00   1.4358668e+00  -1.4292829e+07
   8.0626876e-10  -3.0035765e-03   1.8150363e+00   1.4367474e+00  -1.4225413e+07
   8.0726909e-10  -2.9893799e-03   1.8141388e+00   1.4376242e+00  -1.4158313e+07
   8.0826942e-10  -2.9752503e-03   1.8132457e+00   1.4384972e+00  -1.4091530e+07
   8.0926976e-10  -2.9611873e-03   1.8123570e+00   1.4393664e+00  -1.4025060e+07
   8.1027009e-10  -2.9471907e-03   1.8114727e+00   1.4402319e+00  -1.3958903e+07
   8.1127042e-10  -2.9332601e-03   1.8105927e+00   1.4410936e+00  -1.3893057e+07
   8.1227076e-10  -2.9193952e-03   1.8097171e+00   1.4419516e+00  -1.3827520e+07
   8.1327109e-10  -2.9055958e-03   1.8088458e+00   1.4428058e+00  -1.3762292e+07
   8.1427142e-10  -2.8918614e-03   1.8079788e+00   1.4436563e+00  -1.3697370e+07
   8.1527176e-10  -2.8781918e-03   1.8071161e+00   1.4445031e+00  -1.3632754e+07
   8.1627209e-10  -2.8645867e-03   1.8062576e+00   1.4453462e+00  -1.3568441e+07
   8.1727242e-10  -2.8510458e-03   1.8054033e+00   1.4461857e+00  -1.3504431e+07
   8.1827276e-10  -2.8375687e-03   1.8045533e+00   1.4470215e+00  -1.3440722e+07
   8.1927309e-10  -2.8241553e-03   1.8037074e+00   1.4478536e+00  -1.3377313e+07
   8.2027342e-10  -2.8108051e-03   1.8028657e+00   1.4486822e+00  -1.3314202e+07
   8.2127376e-10  -2.7975179e-03   1.8020281e+00   1.4495071e+00  -1.3251387e+07
   8.2227409e-10  -2.7842934e-03   1.8011947e+00   1.4503284e+00  -1.3188868e+07
   8.2327442e-10  -2.7711313e-03   1.8003653e+00   1.4511461e+00  -1.3126643e+07
   8.2427476e-10  -2.7580312e-03   1.7995401e+00   1.4519603e+00  -1.3064711e+07
   8.2527509e-10  -2.7449930e-03   1.7987189e+00   1.4527709e+00  -1.3003070e+07
   8.2627543e-10  -2.7320163e-03   1.7979017e+00   1.4535779e+00  -1.2941718e+07
   8.2727576e-10  -2.7191009e-03   1.7970885e+00   1.4543815e+00  -1.2880656e+07
   8.2827609e-10  -2.7062463e-03   1.7962794e+00   1.4551815e+00  -1.2819880e+07
   8.2927643e-10  -2.6934525e-03   1.7954742e+00   1.4559780e+00  -1.2759391e+07
   8.3027676e-10  -2.6807190e-03   1.7946730e+00   1.4567710e+00  -1.2699186e+07
   8.3127709e-10  -2.6680455e-03   1.7938757e+00   1.4575606e+00  -1.2639264e+07
   8.3227743e-10  -2.6554319e-03   1.7930824e+00   1.4583467e+00  -1.2579624e+07
   8.3327776e-10  -2.6428778e-03   1.7922929e+00   1.4591293e+00  -1.2520265e+07
   8.3427809e-10  -2.6303829e-03   1.7915073e+00   1.4599085e+00  -1.2461184e+07
   8.3527843e-10  -2.6179470e-03   1.7907256e+00   1.4606843e+00  -1.2402382e+07
   8.3627876e-10  -2.6055698e-03   1.7899477e+00   1.4614567e+00  -1.2343856e+07
   8.3727909e-10  -2.5932510e-03   1.7891737e+00   1.4622257e+00  -1.2285606e+07
   8.3827943e-10  -2.5809903e-03   1.7884034e+00   1.4629913e+00  -1.2227630e+07
   8.3927976e-10  -2.5687875e-03   1.7876369e+00   1.4637536e+00  -1.2169926e+07
   8.4028009e-10  -2.5566423e-03   1.7868742e+00   1.4645125e+00  -1.2112494e+07
   8.4128043e-10  -2.5445543e-03   1.7861152e+00   1.4652680e+00  -1.2055332e+07
   8.4228076e-10  -2.5325235e-03   1.7853600e+00   1.4660203e+00  -1.1998439e+07
   8.4328109e-10  -2.5205494e-03   1.7846084e+00   1.4667692e+00  -1.1941814e+07
   8.4428143e-10  -2.5086318e-03   1.7838606e+00   1.4675148e+00  -1.1885455e+07
   8.4528176e-10  -2.4967705e-03   1.7831164e+00   1.4682572e+00  -1.1829361e+07
   8.4628209e-10  -2.4849651e-03   1.7823758e+00   1.4689962e+00  -1.1773531e+07
   8.4728243e-10  -2.4732155e-03   1.7816389e+00   1.4697321e+00  -1.1717964e+07
   8.4828276e-10  -2.4615213e-03   1.7809056e+00   1.4704646e+00  -1.1662659e+07
   8.4928309e-10  -2.4498823e-03   1.7801759e+00   1.4711940e+00  -1.1607613e+07
   8.5028343e-10  -2.4382982e-03   1.7794498e+00   1.4719201e+00  -1.1552827e+07
   8.5128376e-10  -2.4267688e-03   1.7787272e+00   1.4726430e+00  -1.1498298e+07
   8.5228409e-10  -2.4152939e-03   1.7780082e+00   1.4733627e+00  -1.1444026e+07
   8.5328443e-10  -2.4038731e-03   1.7772927e+00   1.4740793e+00  -1.1390010e+07
   8.5428476e-10  -2.3925062e-03   1.7765807e+00   1.4747926e+00  -1.1336247e+07
   8.5528510e-10  -2.3811929e-03   1.7758722e+00   1.4755029e+00  -1.1282738e+07
   8.5628543e-10  -2.3699331e-03   1.7751672e+00   1.4762099e+00  -1.1229480e+07
   8.5728576e-10  -2.3587264e-03   1.7744656e+00   1.4769139e+00  -1.1176473e+07
   8.5828610e-10  -2.3475726e-03   1.7737674e+00   1.4776147e+00  -1.1123716e+07
   8.5928643e-10  -2.3364715e-03   1.7730727e+00   1.4783125e+00  -1.1071207e+07
   8.6028676e-10  -2.3254227e-03   1.7723814e+00   1.4790071e+00  -1.1018945e+07
   8.6128710e-10  -2.3144261e-03   1.7716934e+00   1.4796987e+00  -1.0966929e+07
   8.6228743e-10  -2.3034815e-03   1.7710088e+00   1.4803872e+00  -1.0915157e+07
   8.6328776e-10  -2.2925885e-03   1.7703276e+00   1.4810726e+00  -1.0863630e+07
   8.6428810e-10  -2.2817469e-03   1.7696497e+00   1.4817550e+00  -1.0812345e+07
   8.6528843e-10  -2.2709565e-03   1.7689751e+00   1.4824344e+00  -1.0761301e+07
   8.6628876e-10  -2.2602170e-03   1.7683038e+00   1.4831107e+00  -1.0710498e+07
   8.6728910e-10  -2.2495283e-03   1.7676358e+00   1.4837841e+00  -1.0659934e+07
   8.6828943e-10  -2.2388900e-03   1.7669711e+00   1.4844545e+00  -1.0609607e+07
   8.6928976e-10  -2.2283019e-03   1.7663096e+00   1.4851218e+00  -1.0559518e+07
   8.7029010e-10  -2.2177638e-03   1.7656514e+00   1.4857863e+00  -1.0509665e+07
   8.7129043e-10  -2.2072755e-03   1.7649963e+00   1.4864477e+00  -1.0460046e+07
   8.7229076e-10  -2.1968367e-03   1.7643445e+00   1.4871063e+00  -1.0410660e+07
   8.7329110e-10  -2.1864471e-03   1.7636959e+00   1.4877618e+00  -1.0361508e+07
   8.7429143e-10  -2.1761067e-03   1.7630504e+00   1.4884145e+00  -1.0312586e+07
   8.7529176e-10  -2.1658150e-03   1.7624081e+00   1.4890643e+00  -1.0263895e+07
   8.7629210e-10  -2.1555720e-03   1.7617689e+00   1.4897112e+00  -1.0215434e+07
   8.7729243e-10  -2.1453773e-03   1.7611328e+00   1.4903552e+00  -1.0167200e+07
   8.7829276e-10  -2.1352307e-03   1.7604999e+00   1.4909963e+00  -1.0119193e+07
   8.7929310e-10  -2.1251321e-03   1.7598700e+00   1.4916346e+00  -1.0071413e+07
   8.8029343e-10  -2.1150811e-03   1.7592432e+00   1.4922700e+00  -1.0023857e+07
   8.8129376e-10  -2.1050776e-03   1.7586195e+00   1.4929026e+00  -9.9765258e+06
   8.8229410e-10  -2.0951213e-03   1.7579988e+00   1.4935323e+00  -9.9294171e+06
   8.8329443e-10  -2.0852121e-03   1.7573812e+00   1.4941593e+00  -9.8825302e+06
   8.8429476e-10  -2.0753496e-03   1.7567665e+00   1.4947834e+00  -9.8358640e+06
   8.8529510e-10  -2.0655337e-03   1.7561549e+00   1.4954048e+00  -9.7894176e+06
   8.8629543e-10  -2.0557642e-03   1.7555462e+00   1.4960234e+00  -9.7431900e+06
   8.8729577e-10  -2.0460407e-03   1.7549406e+00   1.4966392e+00  -9.6971800e+06
   8.8829610e-10  -2.0363633e-03   1.7543378e+00   1.4972523e+00  -9.6513866e+06
   8.8929643e-10  -2.0267315e-03   1.7537380e+00   1.4978626e+00  -9.6058090e+06
   8.9029677e-10  -2.0171452e-03   1.7531412e+00   1.4984702e+00  -9.5604460e+06
   8.9129710e-10  -2.0076041e-03   1.7525472e+00   1.4990751e+00  -9.5152966e+06
   8.9229743e-10  -1.9981082e-03   1.7519562e+00   1.4996773e+00  -9.4703598e+06
   8.9329777e-10  -1.9886570e-03   1.7513680e+00   1.5002768e+00  -9.4256347e+06
   8.9429810e-10  -1.9792505e-03   1.7507827e+00   1.5008736e+00  -9.3811202e+06
   8.9529843e-10  -1.9698885e-03   1.7502002e+00   1.5014677e+00  -9.3368154e+06
   8.9629877e-10  -1.9605706e-03   1.7496206e+00   1.5020591e+00  -9.2927193e+06
   8.9729910e-10  -1.9512968e-03   1.7490438e+00   1.5026479e+00  -9.2488309e+06
   8.9829943e-10  -1.9420667e-03   1.7484698e+00   1.5032341e+00  -9.2051491e+06
   8.9929977e-10  -1.9328802e-03   1.7478987e+00   1.5038177e+00  -9.1616732e+06
   9.0030010e-10  -1.9237372e-03   1.7473302e+00   1.5043986e+00  -9.1184020e+06
   9.0130043e-10  -1.9146373e-03   1.7467646e+00   1.5049769e+00  -9.0753346e+06
   9.0230077e-10  -1.9055804e-03   1.7462017e+00   1.5055526e+00  -9.0324701e+06
   9.0330110e-10  -1.8965663e-03   1.7456416e+00   1.5061257e+00  -8.9898076e+06
   9.0430143e-10  -1.8875947e-03   1.7450842e+00   1.5066963e+00  -8.9473460e+06
   9.0530177e-10  -1.8786655e-03   1.7445295e+00   1.5072643e+00  -8.9050844e+06
   9.0630210e-10  -1.8697785e-03   1.7439775e+00   1.5078298e+00  -8.8630219e+06
   9.0730243e-10  -1.8609335e-03   1.7434282e+00   1.5083927e+00  -8.8211576e+06
   9.0830277e-10  -1.8521303e-03   1.7428815e+00   1.5089530e+00  -8.7794905e+06
   9.0930310e-10  -1.8433686e-03   1.7423376e+00   1.5095109e+00  -8.7380197e+06
   9.1030343e-10  -1.8346483e-03   1.7417962e+00   1.5100662e+00  -8.6967443e+06
   9.1130377e-10  -1.8259693e-03   1.7412575e+00   1.5106191e+00  -8.6556633e+06
   9.1230410e-10  -1.8173312e-03   1.7407215e+00   1.5111694e+00  -8.6147759e+06
   9.1330443e-10  -1.8087339e-03   1.7401880e+00   1.5117173e+00  -8.5740812e+06
   9.1430477e-10  -1.8001772e-03   1.7396571e+00   1.5122627e+00  -8.5335782e+06
   9.1530510e-10  -1.7916610e-03   1.7391288e+00   1.5128057e+00  -8.4932660e+06
   9.1630544e-10  -1.7831850e-03   1.7386031e+00   1.5133462e+00  -8.4531438e+06
   9.1730577e-10  -1.7747490e-03   1.7380799e+00   1.5138843e+00  -8.4132106e+06
   9.1830610e-10  -1.7663529e-03   1.7375593e+00   1.5144199e+00  -8.3734656e+06
   9.1930644e-10  -1.7579964e-03   1.7370412e+00   1.5149531e+00  -8.3339078e+06
   9.2030677e-10  -1.7496794e-03   1.7365257e+00   1.5154840e+00  -8.2945365e+06
   9.2130710e-10  -1.7414018e-03   1.7360126e+00   1.5160124e+00  -8.2553507e+06
   9.2230744e-10  -1.7331632e-03   1.7355020e+00   1.5165385e+00  -8.2163496e+06
   9.2330777e-10  -1.7249635e-03   1.7349939e+00   1.5170621e+00  -8.1775323e+06
   9.2430810e-10  -1.7168026e-03   1.7344883e+00   1.5175834e+00  -8.1388978e+06
   9.2530844e-10  -1.7086802e-03   1.7339851e+00   1.5181024e+00  -8.1004455e+06
   9.2630877e-10  -1.7005962e-03   1.7334844e+00   1.5186190e+00  -8.0621744e+06
   9.2730910e-10  -1.6925505e-03   1.7329861e+00   1.5191333e+00  -8.0240836e+06
   9.2830944e-10  -1.6845427e-03   1.7324902e+00   1.5196452e+00  -7.9861724e+06
   9.2930977e-10  -1.6765727e-03   1.7319968e+00   1.5201549e+00  -7.9484398e+06
   9.3031010e-10  -1.6686404e-03   1.7315057e+00   1.5206622e+00  -7.9108851e+06
   9.3131044e-10  -1.6607456e-03   1.7310170e+00   1.5211673e+00  -7.8735074e+06
   9.3231077e-10  -1.6528881e-03   1.7305307e+00   1.5216700e+00  -7.8363059e+06
   9.3331110e-10  -1.6450677e-03   1.7300468e+00   1.5221705e+00  -7.7992797e+06
   9.3431144e-10  -1.6372843e-03   1.7295652e+00   1.5226687e+00  -7.7624280e+06
   9.3531177e-10  -1.6295376e-03   1.7290859e+00   1.5231647e+00  -7.7257500e+06
   9.3631210e-10  -1.6218276e-03   1.7286089e+00   1.5236584e+00  -7.6892450e+06
   9.3731244e-10  -1.6141540e-03   1.7281343e+00   1.5241499e+00  -7.6529120e+06
   9.3831277e-10  -1.6065166e-03   1.7276620e+00   1.5246392e+00  -7.6167502e+06
   9.3931310e-10  -1.5989153e-03   1.7271920e+00   1.5251262e+00  -7.5807590e+06
   9.4031344e-10  -1.5913500e-03   1.7267242e+00   1.5256110e+00  -7.5449374e+06
   9.4131377e-10  -1.5838204e-03   1.7262587e+00   1.5260937e+00  -7.5092846e+06
   9.4231410e-10  -1.5763263e-03   1.7257955e+00   1.5265741e+00  -7.4738000e+06
   9.4331444e-10  -1.5688677e-03   1.7253345e+00   1.5270524e+00  -7.4384826e+06
   9.4431477e-10  -1.5614443e-03   1.7248758e+00   1.5275285e+00  -7.4033317e+06
   9.4531511e-10  -1.5540561e-03   1.7244193e+00   1.5280024e+00  -7.3683465e+06
   9.4631544e-10  -1.5467027e-03   1.7239650e+00   1.5284742e+00  -7.3335263e+06
   9.4731577e-10  -1.5393841e-03   1.7235128e+00   1.5289438e+00  -7.2988703e+06
   9.4831611e-10  -1.5321000e-03   1.7230629e+00   1.5294114e+00  -7.2643776e+06
   9.4931644e-10  -1.5248504e-03   1.7226152e+00   1.5298768e+00  -7.2300476e+06
   9.5031677e-10  -1.5176351e-03   1.7221696e+00   1.5303400e+00  -7.1958794e+06
   9.5131711e-10  -1.5104538e-03   1.7217262e+00   1.5308012e+00  -7.1618724e+06
   9.5231744e-10  -1.5033065e-03   1.7212850e+00   1.5312603e+00  -7.1280256e+06
   9.5331777e-10  -1.4961929e-03   1.7208459e+00   1.5317173e+00  -7.0943385e+06
   9.5431811e-10  -1.4891130e-03   1.7204089e+00   1.5321722e+00  -7.0608102e+06
   9.5531844e-10  -1.4820666e-03   1.7199740e+00   1.5326250e+00  -7.0274401e+06
   9.5631877e-10  -1.4750534e-03   1.7195412e+00   1.5330758e+00  -6.9942272e+06
   9.5731911e-10  -1.4680734e-03   1.7191105e+00   1.5335246e+00  -6.9611710e+06
   9.5831944e-10  -1.4611264e-03   1.7186820e+00   1.5339713e+00  -6.9282707e+06
   9.5931977e-10  -1.4542122e-03   1.7182554e+00   1.5344159e+00  -6.8955255e+06
   9.6032011e-10  -1.4473307e-03   1.7178310e+00   1.5348586e+00  -6.8629348e+06
   9.6132044e-10  -1.4404817e-03   1.7174086e+00   1.5352992e+00  -6.8304977e+06
   9.6232077e-10  -1.4336651e-03   1.7169883e+00   1.5357378e+00  -6.7982136e+06
   9.6332111e-10  -1.4268807e-03   1.7165699e+00   1.5361744e+00  -6.7660818e+06
   9.6432144e-10  -1.4201283e-03   1.7161537e+00   1.5366091e+00  -6.7341015e+06
   9.6532177e-10  -1.4134079e-03   1.7157394e+00   1.5370417e+00  -6.7022720e+06
   9.6632211e-10  -1.4067193e-03   1.7153271e+00   1.5374724e+00  -6.6705926e+06
   9.6732244e-10  -1.4000622e-03   1.7149168e+00   1.5379011e+00  -6.6390627e+06
   9.6832277e-10  -1.3934367e-03   1.7145085e+00   1.5383279e+00  -6.6076815e+06
   9.6932311e-10  -1.3868424e-03   1.7141022e+00   1.5387527e+00  -6.5764482e+06
   9.7032344e-10  -1.3802793e-03   1.7136979e+00   1.5391756e+00  -6.5453623e+06
   9.7132377e-10  -1.3737473e-03   1.7132955e+00   1.5395965e+00  -6.5144231e+06
   9.7232411e-10  -1.3672461e-03   1.7128950e+00   1.5400156e+00  -6.4836297e+06
   9.7332444e-10  -1.3607756e-03   1.7124965e+00   1.5404327e+00  -6.4529816e+06
   9.7432477e-10  -1.3543358e-03   1.7120999e+00   1.5408479e+00  -6.4224781e+06
   9.7532511e-10  -1.3479264e-03   1.7117053e+00   1.5412612e+00  -6.3921184e+06
   9.7632544e-10  -1.3415472e-03   1.7113125e+00   1.5416726e+00  -6.3619020e+06
   9.7732578e-10  -1.3351983e-03   1.7109216e+00   1.5420822e+00  -6.3318281e+06
   9.7832611e-10  -1.3288793e-03   1.7105327e+00   1.5424899e+00  -6.3018961e+06
   9.7932644e-10  -1.3225902e-03   1.7101456e+00   1.5428957e+00  -6.2721052e+06
   9.8032678e-10  -1.3163309e-03   1.7097604e+00   1.5432997e+00  -6.2424549e+06
   9.8132711e-10  -1.3101011e-03   1.7093770e+00   1.5437018e+00  -6.2129445e+06
   9.8232744e-10  -1.3039008e-03   1.7089955e+00   1.5441021e+00  -6.1835733e+06
   9.8332778e-10  -1.2977298e-03   1.7086158e+00   1.5445005e+00  -6.1543407e+06
   9.8432811e-10  -1.2915880e-03   1.7082380e+00   1.5448972e+00  -6.1252460e+06
   9.8532844e-10  -1.2854752e-03   1.7078620e+00   1.5452920e+00  -6.0962885e+06
   9.8632878e-10  -1.2793913e-03   1.7074878e+00   1.5456850e+00  -6.0674677e+06
   9.8732911e-10  -1.2733361e-03   1.7071154e+00   1.5460762e+00  -6.0387828e+06
   9.8832944e-10  -1.2673096e-03   1.7067448e+00   1.5464656e+00  -6.0102333e+06
   9.8932978e-10  -1.2613116e-03   1.7063760e+00   1.5468533e+00  -5.9818185e+06
   9.9033011e-10  -1.2553420e-03   1.7060090e+00   1.5472391e+00  -5.9535378e+06
   9.9133044e-10  -1.2494005e-03   1.7056438e+00   1.5476232e+00  -5.9253904e+06
   9.9233078e-10  -1.2434872e-03   1.7052803e+00   1.5480056e+00  -5.8973759e+06
   9.9333111e-10  -1.2376018e-03   1.7049186e+00   1.5483862e+00  -5.8694936e+06
   9.9433144e-10  -1.2317442e-03   1.7045586e+00   1.5487650e+00  -5.8417429e+06
   9.9533178e-10  -1.2259144e-03   1.7042004e+00   1.5491421e+00  -5.8141231e+06
   9.9633211e-10  -1.2201121e-03   1.7038439e+00   1.5495175e+00  -5.7866336e+06
   9.9733244e-10  -1.2143372e-03   1.7034891e+00   1.5498912e+00  -5.7592739e+06
   9.9833278e-10  -1.2085896e-03   1.7031360e+00   1.5502632e+00  -5.7320432e+06
   9.9933311e-10  -1.2028692e-03   1.7027846e+00   1.5506334e+00  -5.7049411e+06
   1.0003334e-09  -1.1971759e-03   1.7024349e+00   1.5510020e+00  -5.6779668e+06
   1.0013338e-09  -1.1915095e-03   1.7020869e+00   1.5513688e+00  -5.6511199e+06
   1.0023341e-09  -1.1858699e-03   1.7017406e+00   1.5517340e+00  -5.6243996e+06
   1.0033344e-09  -1.1802569e-03   1.7013960e+00   1.5520975e+00  -5.5978055e+06
   1.0043348e-09  -1.1746705e-03   1.7010530e+00   1.5524593e+00  -5.5713368e+06
   1.0053351e-09  -1.1691105e-03   1.7007117e+00   1.5528195e+00  -5.5449931e+06
   1.0063354e-09  -1.1635767e-03   1.7003720e+00   1.5531780e+00  -5.5187737e+06
   1.0073358e-09  -1.1580692e-03   1.7000339e+00   1.5535349e+00  -5.4926781e+06
   1.0083361e-09  -1.1525877e-03   1.6996975e+00   1.5538902e+00  -5.4667056e+06
   1.0093364e-09  -1.1471321e-03   1.6993627e+00   1.5542438e+00  -5.4408557e+06
   1.0103368e-09  -1.1417023e-03   1.6990296e+00   1.5545957e+00  -5.4151277e+06
   1.0113371e-09  -1.1362982e-03   1.6986980e+00   1.5549461e+00  -5.3895213e+06
   1.0123374e-09  -1.1309196e-03   1.6983680e+00   1.5552949e+00  -5.3640357e+06
   1.0133378e-09  -1.1255665e-03   1.6980396e+00   1.5556420e+00  -5.3386704e+06
   1.0143381e-09  -1.1202387e-03   1.6977128e+00   1.5559876e+00  -5.3134248e+06
   1.0153384e-09  -1.1149361e-03   1.6973876e+00   1.5563316e+00  -5.2882983e+06
   1.0163388e-09  -1.1096585e-03   1.6970640e+00   1.5566740e+00  -5.2632905e+06
   1.0173391e-09  -1.1044059e-03   1.6967419e+00   1.5570148e+00  -5.2384007e+06
   1.0183394e-09  -1.0991782e-03   1.6964213e+00   1.5573540e+00  -5.2136285e+06
   1.0193398e-09  -1.0939752e-03   1.6961023e+00   1.5576917e+00  -5.1889731e+06
   1.0203401e-09  -1.0887967e-03   1.6957849e+00   1.5580278e+00  -5.1644341e+06
   1.0213404e-09  -1.0836428e-03   1.6954689e+00   1.5583624e+00  -5.1400110e+06
   1.0223408e-09  -1.0785133e-03   1.6951545e+00   1.5586955e+00  -5.1157032e+06
   1.0233411e-09  -1.0734080e-03   1.6948416e+00   1.5590270e+00  -5.0915101e+06
   1.0243414e-09  -1.0683268e-03   1.6945302e+00   1.5593570e+00  -5.0674312e+06
   1.0253418e-09  -1.0632697e-03   1.6942203e+00   1.5596855e+00  -5.0434660e+06
   1.0263421e-09  -1.0582365e-03   1.6939119e+00   1.5600124e+00  -5.0196140e+06
   1.0273424e-09  -1.0532271e-03   1.6936050e+00   1.5603379e+00  -4.9958745e+06
   1.0283428e-09  -1.0482413e-03   1.6932996e+00   1.5606619e+00  -4.9722472e+06
   1.0293431e-09  -1.0432792e-03   1.6929956e+00   1.5609843e+00  -4.9487314e+06
   1.0303434e-09  -1.0383405e-03   1.6926931e+00   1.5613053e+00  -4.9253266e+06
   1.0313438e-09  -1.0334252e-03   1.6923921e+00   1.5616248e+00  -4.9020323e+06
   1.0323441e-09  -1.0285332e-03   1.6920925e+00   1.5619429e+00  -4.8788479e+06
   1.0333444e-09  -1.0236642e-03   1.6917943e+00   1.5622594e+00  -4.8557731e+06
   1.0343448e-09  -1.0188184e-03   1.6914976e+00   1.5625745e+00  -4.8328072e+06
   1.0353451e-09  -1.0139954e-03   1.6912023e+00   1.5628882e+00  -4.8099497e+06
   1.0363454e-09  -1.0091952e-03   1.6909084e+00   1.5632004e+00  -4.7872002e+06
   1.0373458e-09  -1.0044177e-03   1.6906159e+00   1.5635112e+00  -4.7645581e+06
   1.0383461e-09  -9.9966288e-04   1.6903249e+00   1.5638205e+00  -4.7420229e+06
   1.0393464e-09  -9.9493050e-04   1.6900352e+00   1.5641284e+00  -4.7195941e+06
   1.0403468e-09  -9.9022051e-04   1.6897470e+00   1.5644349e+00  -4.6972712e+06
   1.0413471e-09  -9.8553279e-04   1.6894601e+00   1.5647400e+00  -4.6750537e+06
   1.0423474e-09  -9.8086725e-04   1.6891746e+00   1.5650436e+00  -4.6529411e+06
   1.0433478e-09  -9.7622377e-04   1.6888905e+00   1.5653459e+00  -4.6309330e+06
   1.0443481e-09  -9.7160226e-04   1.6886078e+00   1.5656468e+00  -4.6090287e+06
   1.0453484e-09  -9.6700261e-04   1.6883264e+00   1.5659463e+00  -4.5872279e+06
   1.0463488e-09  -9.6242471e-04   1.6880463e+00   1.5662444e+00  -4.5655301e+06
   1.0473491e-09  -9.5786847e-04   1.6877676e+00   1.5665411e+00  -4.5439347e+06
   1.0483494e-09  -9.5333378e-04   1.6874903e+00   1.5668365e+00  -4.5224413e+06
   1.0493498e-09  -9.4882053e-04   1.6872143e+00   1.5671305e+00  -4.5010495e+06
   1.0503501e-09  -9.4432864e-04   1.6869396e+00   1.5674231e+00  -4.4797586e+06
   1.0513505e-09  -9.3985800e-04   1.6866662e+00   1.5677144e+00  -4.4585683e+06
   1.0523508e-09  -9.3540850e-04   1.6863941e+00   1.5680043e+00  -4.4374781e+06
   1.0533511e-09  -9.3098005e-04   1.6861234e+00   1.5682929e+00  -4.4164874e+06
   1.0543515e-09  -9.2657254e-04   1.6858539e+00   1.5685802e+00  -4.3955959e+06
   1.0553518e-09  -9.2218589e-04   1.6855858e+00   1.5688661e+00  -4.3748031e+06
   1.0563521e-09  -9.1781999e-04   1.6853189e+00   1.5691507e+00  -4.3541085e+06
   1.0573525e-09  -9.1347474e-04   1.6850533e+00   1.5694340e+00  -4.3335116e+06
   1.0583528e-09  -9.0915004e-04   1.6847890e+00   1.5697160e+00  -4.3130120e+06
   1.0593531e-09  -9.0484580e-04   1.6845260e+00   1.5699967e+00  -4.2926093e+06
   1.0603535e-09  -9.0056193e-04   1.6842642e+00   1.5702761e+00  -4.2723029e+06
   1.0613538e-09  -8.9629832e-04   1.6840037e+00   1.5705542e+00  -4.2520924e+06
   1.0623541e-09  -8.9205488e-04   1.6837444e+00   1.5708310e+00  -4.2319774e+06
   1.0633545e-09  -8.8783151e-04   1.6834864e+00   1.5711065e+00  -4.2119574e+06
   1.0643548e-09  -8.8362812e-04   1.6832296e+00   1.5713808e+00  -4.1920319e+06
   1.0653551e-09  -8.7944462e-04   1.6829741e+00   1.5716538e+00  -4.1722006e+06
   1.0663555e-09  -8.7528091e-04   1.6827198e+00   1.5719255e+00  -4.1524629e+06
   1.0673558e-09  -8.7113689e-04   1.6824667e+00   1.5721960e+00  -4.1328185e+06
   1.0683561e-09  -8.6701248e-04   1.6822148e+00   1.5724652e+00  -4.1132669e+06
   1.0693565e-09  -8.6290758e-04   1.6819641e+00   1.5727332e+00  -4.0938076e+06
   1.0703568e-09  -8.5882211e-04   1.6817147e+00   1.5729999e+00  -4.0744403e+06
   1.0713571e-09  -8.5475595e-04   1.6814664e+00   1.5732654e+00  -4.0551644e+06
   1.0723575e-09  -8.5070904e-04   1.6812193e+00   1.5735296e+00  -4.0359796e+06
   1.0733578e-09  -8.4668127e-04   1.6809734e+00   1.5737927e+00  -4.0168855e+06
   1.0743581e-09  -8.4267256e-04   1.6807287e+00   1.5740545e+00  -3.9978815e+06
   1.0753585e-09  -8.3868281e-04   1.6804852e+00   1.5743151e+00  -3.9789673e+06
   1.0763588e-09  -8.3471194e-04   1.6802428e+00   1.5745745e+00  -3.9601425e+06
   1.0773591e-09  -8.3075986e-04   1.6800016e+00   1.5748327e+00  -3.9414066e+06
   1.0783595e-09  -8.2682647e-04   1.6797615e+00   1.5750897e+00  -3.9227592e+06
   1.0793598e-09  -8.2291169e-04   1.6795226e+00   1.5753455e+00  -3.9042000e+06
   1.0803601e-09  -8.1901544e-04   1.6792849e+00   1.5756002e+00  -3.8857284e+06
   1.0813605e-09  -8.1513762e-04   1.6790483e+00   1.5758536e+00  -3.8673441e+06
   1.0823608e-09  -8.1127814e-04   1.6788128e+00   1.5761059e+00  -3.8490466e+06
   1.0833611e-09  -8.0743693e-04   1.6785785e+00   1.5763570e+00  -3.8308356e+06
   1.0843615e-09  -8.0361389e-04   1.6783453e+00   1.5766069e+00  -3.8127106e+06
   1.0853618e-09  -7.9980894e-04   1.6781132e+00   1.5768557e+00  -3.7946713e+06
   1.0863621e-09  -7.9602199e-04   1.6778822e+00   1.5771033e+00  -3.7767172e+06
   1.0873625e-09  -7.9225295e-04   1.6776523e+00   1.5773498e+00  -3.7588479e+06
   1.0883628e-09  -7.8850175e-04   1.6774235e+00   1.5775951e+00  -3.7410630e+06
   1.0893631e-09  -7.8476830e-04   1.6771958e+00   1.5778393e+00  -3.7233622e+06
   1.0903635e-09  -7.8105252e-04   1.6769692e+00   1.5780824e+00  -3.7057451e+06
   1.0913638e-09  -7.7735432e-04   1.6767437e+00   1.5783243e+00  -3.6882111e+06
   1.0923641e-09  -7.7367361e-04   1.6765193e+00   1.5785652e+00  -3.6707601e+06
   1.0933645e-09  -7.7001032e-04   1.6762960e+00   1.5788049e+00  -3.6533914e+06
   1.0943648e-09  -7.6636436e-04   1.6760737e+00   1.5790434e+00  -3.6361049e+06
   1.0953651e-09  -7.6273566e-04   1.6758525e+00   1.5792809e+00  -3.6189000e+06
   1.0963655e-09  -7.5912412e-04   1.6756324e+00   1.5795173e+00  -3.6017765e+06
   1.0973658e-09  -7.5552968e-04   1.6754133e+00   1.5797526e+00  -3.5847338e+06
   1.0983661e-09  -7.5195224e-04   1.6751952e+00   1.5799867e+00  -3.5677717e+06
   1.0993665e-09  -7.4839173e-04   1.6749782e+00   1.5802198e+00  -3.5508898e+06
   1.1003668e-09  -7.4484806e-04   1.6747623e+00   1.5804519e+00  -3.5340876e+06
   1.1013671e-09  -7.4132117e-04   1.6745474e+00   1.5806828e+00  -3.5173648e+06
   1.1023675e-09  -7.3781096e-04   1.6743335e+00   1.5809126e+00  -3.5007211e+06
   1.1033678e-09  -7.3431736e-04   1.6741206e+00   1.5811414e+00  -3.4841560e+06
   1.1043681e-09  -7.3084030e-04   1.6739088e+00   1.5813692e+00  -3.4676692e+06
   1.1053685e-09  -7.2737969e-04   1.6736979e+00   1.5815959e+00  -3.4512603e+06
   1.1063688e-09  -7.2393545e-04   1.6734881e+00   1.5818215e+00  -3.4349290e+06
   1.1073691e-09  -7.2050751e-04   1.6732793e+00   1.5820460e+00  -3.4186748e+06
   1.1083695e-09  -7.1709580e-04   1.6730715e+00   1.5822696e+00  -3.4024975e+06
   1.1093698e-09  -7.1370022e-04   1.6728647e+00   1.5824921e+00  -3.3863966e+06
   1.1103701e-09  -7.1032072e-04   1.6726588e+00   1.5827135e+00  -3.3703718e+06
   1.1113705e-09  -7.0695721e-04   1.6724540e+00   1.5829339e+00  -3.3544227e+06
   1.1123708e-09  -7.0360961e-04   1.6722501e+00   1.5831533e+00  -3.3385490e+06
   1.1133711e-09  -7.0027786e-04   1.6720473e+00   1.5833717e+00  -3.3227504e+06
   1.1143715e-09  -6.9696187e-04   1.6718454e+00   1.5835891e+00  -3.3070264e+06
   1.1153718e-09  -6.9366157e-04   1.6716444e+00   1.5838054e+00  -3.2913767e+06
   1.1163721e-09  -6.9037690e-04   1.6714444e+00   1.5840208e+00  -3.2758011e+06
   1.1173725e-09  -6.8710776e-04   1.6712454e+00   1.5842351e+00  -3.2602990e+06
   1.1183728e-09  -6.8385410e-04   1.6710473e+00   1.5844485e+00  -3.2448702e+06
   1.1193731e-09  -6.8061583e-04   1.6708502e+00   1.5846608e+00  -3.2295143e+06
   1.1203735e-09  -6.7739289e-04   1.6706540e+00   1.5848722e+00  -3.2142310e+06
   1.1213738e-09  -6.7418520e-04   1.6704588e+00   1.5850826e+00  -3.1990199e+06
   1.1223741e-09  -6.7099269e-04   1.6702645e+00   1.5852920e+00  -3.1838808e+06
   1.1233745e-09  -6.6781529e-04   1.6700711e+00   1.5855004e+00  -3.1688132e+06
   1.1243748e-09  -6.6465293e-04   1.6698787e+00   1.5857079e+00  -3.1538168e+06
   1.1253751e-09  -6.6150553e-04   1.6696872e+00   1.5859144e+00  -3.1388913e+06
   1.1263755e-09  -6.5837303e-04   1.6694966e+00   1.5861199e+00  -3.1240364e+06
   1.1273758e-09  -6.5525535e-04   1.6693069e+00   1.5863245e+00  -3.1092517e+06
   1.1283761e-09  -6.5215243e-04   1.6691181e+00   1.5865281e+00  -3.0945368e+06
   1.1293765e-09  -6.4906419e-04   1.6689302e+00   1.5867308e+00  -3.0798916e+06
   1.1303768e-09  -6.4599057e-04   1.6687432e+00   1.5869325e+00  -3.0653155e+06
   1.1313771e-09  -6.4293149e-04   1.6685571e+00   1.5871333e+00  -3.0508084e+06
   1.1323775e-09  -6.3988690e-04   1.6683719e+00   1.5873332e+00  -3.0363699e+06
   1.1333778e-09  -6.3685671e-04   1.6681876e+00   1.5875321e+00  -3.0219996e+06
   1.1343781e-09  -6.3384086e-04   1.6680042e+00   1.5877301e+00  -3.0076972e+06
   1.1353785e-09  -6.3083928e-04   1.6678216e+00   1.5879272e+00  -2.9934624e+06
   1.1363788e-09  -6.2785192e-04   1.6676399e+00   1.5881234e+00  -2.9792950e+06
   1.1373791e-09  -6.2487868e-04   1.6674591e+00   1.5883186e+00  -2.9651945e+06
   1.1383795e-09  -6.2191953e-04   1.6672792e+00   1.5885129e+00  -2.9511607e+06
   1.1393798e-09  -6.1897437e-04   1.6671001e+00   1.5887064e+00  -2.9371932e+06
   1.1403801e-09  -6.1604316e-04   1.6669219e+00   1.5888989e+00  -2.9232918e+06
   1.1413805e-09  -6.1312582e-04   1.6667445e+00   1.5890905e+00  -2.9094561e+06
   1.1423808e-09  -6.1022228e-04   1.6665680e+00   1.5892813e+00  -2.8956858e+06
   1.1433811e-09  -6.0733249e-04   1.6663923e+00   1.5894711e+00  -2.8819806e+06
   1.1443815e-09  -6.0445638e-04   1.6662174e+00   1.5896601e+00  -2.8683402e+06
   1.1453818e-09  -6.0159388e-04   1.6660434e+00   1.5898482e+00  -2.8547642e+06
   1.1463821e-09  -5.9874493e-04   1.6658703e+00   1.5900354e+00  -2.8412525e+06
   1.1473825e-09  -5.9590946e-04   1.6656979e+00   1.5902217e+00  -2.8278047e+06
   1.1483828e-09  -5.9308741e-04   1.6655264e+00   1.5904072e+00  -2.8144204e+06
   1.1493831e-09  -5.9027872e-04   1.6653557e+00   1.5905918e+00  -2.8010994e+06
   1.1503835e-09  -5.8748332e-04   1.6651858e+00   1.5907755e+00  -2.7878414e+06
   1.1513838e-09  -5.8470116e-04   1.6650167e+00   1.5909584e+00  -2.7746461e+06
   1.1523841e-09  -5.8193216e-04   1.6648485e+00   1.5911404e+00  -2.7615132e+06
   1.1533845e-09  -5.7917627e-04   1.6646810e+00   1.5913216e+00  -2.7484424e+06
   1.1543848e-09  -5.7643342e-04   1.6645144e+00   1.5915019e+00  -2.7354333e+06
   1.1553851e-09  -5.7370356e-04   1.6643485e+00   1.5916814e+00  -2.7224858e+06
   1.1563855e-09  -5.7098661e-04   1.6641834e+00   1.5918601e+00  -2.7095995e+06
   1.1573858e-09  -5.6828253e-04   1.6640192e+00   1.5920379e+00  -2.6967742e+06
   1.1583861e-09  -5.6559124e-04   1.6638557e+00   1.5922149e+00  -2.6840094e+06
   1.1593865e-09  -5.6291270e-04   1.6636930e+00   1.5923910e+00  -2.6713051e+06
   1.1603868e-09  -5.6024683e-04   1.6635310e+00   1.5925664e+00  -2.6586608e+06
   1.1613871e-09  -5.5759359e-04   1.6633699e+00   1.5927409e+00  -2.6460763e+06
   1.1623875e-09  -5.5495290e-04   1.6632095e+00   1.5929146e+00  -2.6335513e+06
   1.1633878e-09  -5.5232471e-04   1.6630498e+00   1.5930875e+00  -2.6210856e+06
   1.1643881e-09  -5.4970896e-04   1.6628910e+00   1.5932596e+00  -2.6086788e+06
   1.1653885e-09  -5.4710559e-04   1.6627329e+00   1.5934309e+00  -2.5963306e+06
   1.1663888e-09  -5.4451454e-04   1.6625755e+00   1.5936014e+00  -2.5840409e+06
   1.1673891e-09  -5.4193576e-04   1.6624190e+00   1.5937711e+00  -2.5718092e+06
   1.1683895e-09  -5.3936919e-04   1.6622631e+00   1.5939400e+00  -2.5596354e+06
   1.1693898e-09  -5.3681477e-04   1.6621080e+00   1.5941081e+00  -2.5475192e+06
   1.1703901e-09  -5.3427244e-04   1.6619536e+00   1.5942754e+00  -2.5354603e+06
   1.1713905e-09  -5.3174214e-04   1.6618000e+00   1.5944419e+00  -2.5234584e+06
   1.1723908e-09  -5.2922382e-04   1.6616471e+00   1.5946077e+00  -2.5115132e+06
   1.1733911e-09  -5.2671742e-04   1.6614950e+00   1.5947727e+00  -2.4996246e+06
   1.1743915e-09  -5.2422288e-04   1.6613436e+00   1.5949369e+00  -2.4877922e+06
   1.1753918e-09  -5.2174015e-04   1.6611928e+00   1.5951004e+00  -2.4760157e+06
   1.1763921e-09  -5.1926918e-04   1.6610429e+00   1.5952630e+00  -2.4642949e+06
   1.1773925e-09  -5.1680990e-04   1.6608936e+00   1.5954250e+00  -2.4526296e+06
   1.1783928e-09  -5.1436227e-04   1.6607450e+00   1.5955861e+00  -2.4410194e+06
   1.1793931e-09  -5.1192622e-04   1.6605972e+00   1.5957466e+00  -2.4294641e+06
   1.1803935e-09  -5.0950170e-04   1.6604500e+00   1.5959062e+00  -2.4179635e+06
   1.1813938e-09  -5.0708866e-04   1.6603036e+00   1.5960651e+00  -2.4065173e+06
   1.1823941e-09  -5.0468704e-04   1.6601579e+00   1.5962233e+00  -2.3951252e+06
   1.1833945e-09  -5.0229679e-04   1.6600128e+00   1.5963808e+00  -2.3837870e+06
   1.1843948e-09  -4.9991786e-04   1.6598685e+00   1.5965375e+00  -2.3725024e+06
   1.1853951e-09  -4.9755019e-04   1.6597248e+00   1.5966934e+00  -2.3612712e+06
   1.1863955e-09  -4.9519373e-04   1.6595818e+00   1.5968487e+00  -2.3500931e+06
   1.1873958e-09  -4.9284842e-04   1.6594395e+00   1.5970032e+00  -2.3389678e+06
   1.1883961e-09  -4.9051421e-04   1.6592979e+00   1.5971570e+00  -2.3278952e+06
   1.1893965e-09  -4.8819106e-04   1.6591570e+00   1.5973100e+00  -2.3168750e+06
   1.1903968e-09  -4.8587890e-04   1.6590167e+00   1.5974624e+00  -2.3059069e+06
   1.1913971e-09  -4.8357769e-04   1.6588771e+00   1.5976140e+00  -2.2949906e+06
   1.1923975e-09  -4.8128737e-04   1.6587382e+00   1.5977650e+00  -2.2841260e+06
   1.1933978e-09  -4.7900790e-04   1.6586000e+00   1.5979152e+00  -2.2733128e+06
   1.1943981e-09  -4.7673921e-04   1.6584623e+00   1.5980647e+00  -2.2625507e+06
   1.1953985e-09  -4.7448127e-04   1.6583254e+00   1.5982136e+00  -2.2518396e+06
   1.1963988e-09  -4.7223401e-04   1.6581891e+00   1.5983617e+00  -2.2411791e+06
   1.1973991e-09  -4.6999740e-04   1.6580535e+00   1.5985091e+00  -2.2305690e+06
   1.1983995e-09  -4.6777137e-04   1.6579185e+00   1.5986559e+00  -2.2200091e+06
   1.1993998e-09  -4.6555588e-04   1.6577841e+00   1.5988019e+00  -2.2094992e+06
   1.2004001e-09  -4.6335088e-04   1.6576504e+00   1.5989473e+00  -2.1990389e+06
   1.2014005e-09  -4.6115632e-04   1.6575173e+00   1.5990920e+00  -2.1886282e+06
   1.2024008e-09  -4.5897215e-04   1.6573849e+00   1.5992360e+00  -2.1782667e+06
   1.2034011e-09  -4.5679832e-04   1.6572531e+00   1.5993794e+00  -2.1679542e+06
   1.2044015e-09  -4.5463478e-04   1.6571219e+00   1.5995220e+00  -2.1576905e+06
   1.2054018e-09  -4.5248148e-04   1.6569914e+00   1.5996640e+00  -2.1474753e+06
   1.2064021e-09  -4.5033838e-04   1.6568615e+00   1.5998054e+00  -2.1373085e+06
   1.2074025e-09  -4.4820543e-04   1.6567321e+00   1.5999461e+00  -2.1271897e+06
   1.2084028e-09  -4.4608257e-04   1.6566035e+00   1.6000861e+00  -2.1171188e+06
   1.2094031e-09  -4.4396976e-04   1.6564754e+00   1.6002254e+00  -2.1070956e+06
   1.2104035e-09  -4.4186696e-04   1.6563479e+00   1.6003642e+00  -2.0971198e+06
   1.2114038e-09  -4.3977411e-04   1.6562211e+00   1.6005022e+00  -2.0871912e+06
   1.2124041e-09  -4.3769117e-04   1.6560948e+00   1.6006396e+00  -2.0773095e+06
   1.2134045e-09  -4.3561809e-04   1.6559692e+00   1.6007764e+00  -2.0674746e+06
   1.2144048e-09  -4.3355482e-04   1.6558441e+00   1.6009125e+00  -2.0576862e+06
   1.2154051e-09  -4.3150133e-04   1.6557197e+00   1.6010480e+00  -2.0479441e+06
   1.2164055e-09  -4.2945755e-04   1.6555958e+00   1.6011829e+00  -2.0382481e+06
   1.2174058e-09  -4.2742346e-04   1.6554725e+00   1.6013171e+00  -2.0285980e+06
   1.2184061e-09  -4.2539899e-04   1.6553499e+00   1.6014507e+00  -2.0189935e+06
   1.2194065e-09  -4.2338411e-04   1.6552278e+00   1.6015837e+00  -2.0094345e+06
   1.2204068e-09  -4.2137876e-04   1.6551063e+00   1.6017160e+00  -1.9999206e+06
   1.2214071e-09  -4.1938292e-04   1.6549853e+00   1.6018478e+00  -1.9904518e+06
   1.2224075e-09  -4.1739652e-04   1.6548650e+00   1.6019789e+00  -1.9810278e+06
   1.2234078e-09  -4.1541953e-04   1.6547452e+00   1.6021094e+00  -1.9716484e+06
   1.2244081e-09  -4.1345189e-04   1.6546260e+00   1.6022392e+00  -1.9623133e+06
   1.2254085e-09  -4.1149358e-04   1.6545073e+00   1.6023685e+00  -1.9530225e+06
   1.2264088e-09  -4.0954453e-04   1.6543893e+00   1.6024972e+00  -1.9437755e+06
   1.2274091e-09  -4.0760471e-04   1.6542718e+00   1.6026253e+00  -1.9345723e+06
   1.2284095e-09  -4.0567408e-04   1.6541548e+00   1.6027527e+00  -1.9254127e+06
   1.2294098e-09  -4.0375259e-04   1.6540384e+00   1.6028796e+00  -1.9162964e+06
   1.2304101e-09  -4.0184020e-04   1.6539226e+00   1.6030059e+00  -1.9072232e+06
   1.2314105e-09  -3.9993686e-04   1.6538073e+00   1.6031316e+00  -1.8981930e+06
   1.2324108e-09  -3.9804253e-04   1.6536925e+00   1.6032566e+00  -1.8892055e+06
   1.2334111e-09  -3.9615717e-04   1.6535784e+00   1.6033812e+00  -1.8802604e+06
   1.2344115e-09  -3.9428074e-04   1.6534647e+00   1.6035051e+00  -1.8713578e+06
   1.2354118e-09  -3.9241319e-04   1.6533516e+00   1.6036284e+00  -1.8624972e+06
   1.2364121e-09  -3.9055449e-04   1.6532390e+00   1.6037512e+00  -1.8536786e+06
   1.2374125e-09  -3.8870459e-04   1.6531270e+00   1.6038734e+00  -1.8449017e+06
   1.2384128e-09  -3.8686344e-04   1.6530155e+00   1.6039950e+00  -1.8361663e+06
   1.2394131e-09  -3.8503102e-04   1.6529046e+00   1.6041160e+00  -1.8274722e+06
   1.2404135e-09  -3.8320727e-04   1.6527941e+00   1.6042365e+00  -1.8188193e+06
   1.2414138e-09  -3.8139215e-04   1.6526842e+00   1.6043564e+00  -1.8102074e+06
   1.2424141e-09  -3.7958563e-04   1.6525748e+00   1.6044758e+00  -1.8016361e+06
   1.2434145e-09  -3.7778766e-04   1.6524660e+00   1.6045946e+00  -1.7931055e+06
   1.2444148e-09  -3.7599821e-04   1.6523576e+00   1.6047128e+00  -1.7846152e+06
   1.2454151e-09  -3.7421723e-04   1.6522498e+00   1.6048305e+00  -1.7761650e+06
   1.2464155e-09  -3.7244468e-04   1.6521425e+00   1.6049476e+00  -1.7677549e+06
   1.2474158e-09  -3.7068053e-04   1.6520357e+00   1.6050642e+00  -1.7593845e+06
   1.2484161e-09  -3.6892473e-04   1.6519294e+00   1.6051802e+00  -1.7510538e+06
   1.2494165e-09  -3.6717724e-04   1.6518236e+00   1.6052957e+00  -1.7427624e+06
   1.2504168e-09  -3.6543803e-04   1.6517183e+00   1.6054106e+00  -1.7345104e+06
   1.2514171e-09  -3.6370705e-04   1.6516136e+00   1.6055250e+00  -1.7262973e+06
   1.2524175e-09  -3.6198427e-04   1.6515093e+00   1.6056389e+00  -1.7181231e+06
   1.2534178e-09  -3.6026964e-04   1.6514055e+00   1.6057522e+00  -1.7099876e+06
   1.2544181e-09  -3.5856314e-04   1.6513022e+00   1.6058650e+00  -1.7018906e+06
   1.2554185e-09  -3.5686471e-04   1.6511994e+00   1.6059773e+00  -1.6938319e+06
   1.2564188e-09  -3.5517433e-04   1.6510971e+00   1.6060890e+00  -1.6858114e+06
   1.2574191e-09  -3.5349195e-04   1.6509953e+00   1.6062003e+00  -1.6778288e+06
   1.2584195e-09  -3.5181754e-04   1.6508940e+00   1.6063109e+00  -1.6698839e+06
   1.2594198e-09  -3.5015106e-04   1.6507931e+00   1.6064211e+00  -1.6619767e+06
   1.2604201e-09  -3.4849247e-04   1.6506927e+00   1.6065308e+00  -1.6541069e+06
   1.2614205e-09  -3.4684173e-04   1.6505929e+00   1.6066399e+00  -1.6462743e+06
   1.2624208e-09  -3.4519881e-04   1.6504934e+00   1.6067486e+00  -1.6384788e+06
   1.2634211e-09  -3.4356367e-04   1.6503945e+00   1.6068567e+00  -1.6307202e+06
   1.2644215e-09  -3.4193627e-04   1.6502960e+00   1.6069643e+00  -1.6229983e+06
   1.2654218e-09  -3.4031658e-04   1.6501980e+00   1.6070714e+00  -1.6153129e+06
   1.2664221e-09  -3.3870455e-04   1.6501005e+00   1.6071780e+00  -1.6076639e+06
   1.2674225e-09  -3.3710016e-04   1.6500034e+00   1.6072841e+00  -1.6000511e+06
   1.2684228e-09  -3.3550337e-04   1.6499068e+00   1.6073897e+00  -1.5924743e+06
   1.2694231e-09  -3.3391414e-04   1.6498107e+00   1.6074948e+00  -1.5849334e+06
   1.2704235e-09  -3.3233244e-04   1.6497150e+00   1.6075995e+00  -1.5774282e+06
   1.2714238e-09  -3.3075822e-04   1.6496197e+00   1.6077036e+00  -1.5699585e+06
   1.2724241e-09  -3.2919146e-04   1.6495250e+00   1.6078072e+00  -1.5625241e+06
   1.2734245e-09  -3.2763212e-04   1.6494306e+00   1.6079104e+00  -1.5551250e+06
   1.2744248e-09  -3.2608016e-04   1.6493368e+00   1.6080130e+00  -1.5477608e+06
   1.2754251e-09  -3.2453555e-04   1.6492433e+00   1.6081152e+00  -1.5404315e+06
   1.2764255e-09  -3.2299826e-04   1.6491503e+00   1.6082169e+00  -1.5331369e+06
   1.2774258e-09  -3.2146825e-04   1.6490578e+00   1.6083181e+00  -1.5258768e+06
   1.2784261e-09  -3.1994548e-04   1.6489657e+00   1.6084189e+00  -1.5186510e+06
   1.2794265e-09  -3.1842992e-04   1.6488740e+00   1.6085192e+00  -1.5114595e+06
   1.2804268e-09  -3.1692154e-04   1.6487828e+00   1.6086190e+00  -1.5043020e+06
   1.2814271e-09  -3.1542030e-04   1.6486920e+00   1.6087183e+00  -1.4971783e+06
   1.2824275e-09  -3.1392617e-04   1.6486016e+00   1.6088172e+00  -1.4900884e+06
   1.2834278e-09  -3.1243912e-04   1.6485117e+00   1.6089156e+00  -1.4830320e+06
   1.2844281e-09  -3.1095911e-04   1.6484222e+00   1.6090135e+00  -1.4760091e+06
   1.2854285e-09  -3.0948611e-04   1.6483331e+00   1.6091110e+00  -1.4690193e+06
   1.2864288e-09  -3.0802008e-04   1.6482445e+00   1.6092080e+00  -1.4620627e+06
   1.2874291e-09  -3.0656100e-04   1.6481563e+00   1.6093046e+00  -1.4551390e+06
   1.2884295e-09  -3.0510882e-04   1.6480684e+00   1.6094007e+00  -1.4482480e+06
   1.2894298e-09  -3.0366352e-04   1.6479811e+00   1.6094964e+00  -1.4413897e+06
   1.2904301e-09  -3.0222507e-04   1.6478941e+00   1.6095916e+00  -1.4345638e+06
   1.2914305e-09  -3.0079343e-04   1.6478075e+00   1.6096864e+00  -1.4277702e+06
   1.2924308e-09  -2.9936857e-04   1.6477214e+00   1.6097807e+00  -1.4210088e+06
   1.2934311e-09  -2.9795045e-04   1.6476356e+00   1.6098746e+00  -1.4142794e+06
   1.2944315e-09  -2.9653905e-04   1.6475503e+00   1.6099680e+00  -1.4075818e+06
   1.2954318e-09  -2.9513434e-04   1.6474654e+00   1.6100610e+00  -1.4009159e+06
   1.2964321e-09  -2.9373628e-04   1.6473809e+00   1.6101535e+00  -1.3942816e+06
   1.2974325e-09  -2.9234484e-04   1.6472967e+00   1.6102457e+00  -1.3876787e+06
   1.2984328e-09  -2.9095998e-04   1.6472130e+00   1.6103374e+00  -1.3811070e+06
   1.2994331e-09  -2.8958169e-04   1.6471297e+00   1.6104286e+00  -1.3745665e+06
   1.3004335e-09  -2.8820992e-04   1.6470468e+00   1.6105194e+00  -1.3680569e+06
   1.3014338e-09  -2.8684465e-04   1.6469642e+00   1.6106098e+00  -1.3615781e+06
   1.3024341e-09  -2.8548585e-04   1.6468821e+00   1.6106998e+00  -1.3551299e+06
   1.3034345e-09  -2.8413348e-04   1.6468004e+00   1.6107894e+00  -1.3487123e+06
   1.3044348e-09  -2.8278751e-04   1.6467190e+00   1.6108785e+00  -1.3423251e+06
   1.3054351e-09  -2.8144792e-04   1.6466380e+00   1.6109672e+00  -1.3359681e+06
   1.3064355e-09  -2.8011468e-04   1.6465575e+00   1.6110555e+00  -1.3296412e+06
   1.3074358e-09  -2.7878774e-04   1.6464773e+00   1.6111434e+00  -1.3233442e+06
   1.3084361e-09  -2.7746710e-04   1.6463974e+00   1.6112309e+00  -1.3170771e+06
   1.3094365e-09  -2.7615270e-04   1.6463180e+00   1.6113179e+00  -1.3108396e+06
   1.3104368e-09  -2.7484453e-04   1.6462390e+00   1.6114046e+00  -1.3046316e+06
   1.3114371e-09  -2.7354256e-04   1.6461603e+00   1.6114908e+00  -1.2984530e+06
   1.3124375e-09  -2.7224675e-04   1.6460820e+00   1.6115766e+00  -1.2923037e+06
   1.3134378e-09  -2.7095708e-04   1.6460040e+00   1.6116621e+00  -1.2861835e+06
   1.3144381e-09  -2.6967352e-04   1.6459265e+00   1.6117471e+00  -1.2800922e+06
   1.3154385e-09  -2.6839603e-04   1.6458493e+00   1.6118317e+00  -1.2740298e+06
   1.3164388e-09  -2.6712460e-04   1.6457724e+00   1.6119160e+00  -1.2679960e+06
   1.3174391e-09  -2.6585919e-04   1.6456960e+00   1.6119998e+00  -1.2619909e+06
   1.3184395e-09  -2.6459977e-04   1.6456199e+00   1.6120832e+00  -1.2560141e+06
   1.3194398e-09  -2.6334631e-04   1.6455441e+00   1.6121663e+00  -1.2500657e+06
   1.3204401e-09  -2.6209879e-04   1.6454688e+00   1.6122489e+00  -1.2441454e+06
   1.3214405e-09  -2.6085718e-04   1.6453937e+00   1.6123312e+00  -1.2382531e+06
   1.3224408e-09  -2.5962145e-04   1.6453191e+00   1.6124131e+00  -1.2323888e+06
   1.3234411e-09  -2.5839157e-04   1.6452448e+00   1.6124946e+00  -1.2265521e+06
   1.3244415e-09  -2.5716752e-04   1.6451708e+00   1.6125757e+00  -1.2207432e+06
   1.3254418e-09  -2.5594926e-04   1.6450972e+00   1.6126564e+00  -1.2149617e+06
   1.3264421e-09  -2.5473678e-04   1.6450240e+00   1.6127368e+00  -1.2092075e+06
   1.3274425e-09  -2.5353003e-04   1.6449511e+00   1.6128167e+00  -1.2034807e+06
   1.3284428e-09  -2.5232900e-04   1.6448785e+00   1.6128963e+00  -1.1977809e+06
   1.3294431e-09  -2.5113366e-04   1.6448063e+00   1.6129755e+00  -1.1921081e+06
   1.3304435e-09  -2.4994398e-04   1.6447344e+00   1.6130544e+00  -1.1864622e+06
   1.3314438e-09  -2.4875994e-04   1.6446629e+00   1.6131329e+00  -1.1808430e+06
   1.3324441e-09  -2.4758150e-04   1.6445917e+00   1.6132110e+00  -1.1752503e+06
   1.3334445e-09  -2.4640864e-04   1.6445209e+00   1.6132887e+00  -1.1696842e+06
   1.3344448e-09  -2.4524134e-04   1.6444504e+00   1.6133661e+00  -1.1641444e+06
   1.3354451e-09  -2.4407957e-04   1.6443802e+00   1.6134431e+00  -1.1586309e+06
   1.3364455e-09  -2.4292330e-04   1.6443104e+00   1.6135197e+00  -1.1531434e+06
   1.3374458e-09  -2.4177251e-04   1.6442409e+00   1.6135960e+00  -1.1476819e+06
   1.3384461e-09  -2.4062716e-04   1.6441717e+00   1.6136719e+00  -1.1422463e+06
   1.3394465e-09  -2.3948724e-04   1.6441028e+00   1.6137475e+00  -1.1368364e+06
   1.3404468e-09  -2.3835272e-04   1.6440343e+00   1.6138227e+00  -1.1314521e+06
   1.3414471e-09  -2.3722357e-04   1.6439661e+00   1.6138976e+00  -1.1260933e+06
   1.3424475e-09  -2.3609978e-04   1.6438983e+00   1.6139721e+00  -1.1207599e+06
   1.3434478e-09  -2.3498130e-04   1.6438307e+00   1.6140462e+00  -1.1154517e+06
   1.3444481e-09  -2.3386812e-04   1.6437635e+00   1.6141200e+00  -1.1101687e+06
   1.3454485e-09  -2.3276021e-04   1.6436966e+00   1.6141935e+00  -1.1049107e+06
   1.3464488e-09  -2.3165755e-04   1.6436300e+00   1.6142666e+00  -1.0996775e+06
   1.3474491e-09  -2.3056012e-04   1.6435637e+00   1.6143394e+00  -1.0944691e+06
   1.3484495e-09  -2.2946788e-04   1.6434978e+00   1.6144118e+00  -1.0892854e+06
   1.3494498e-09  -2.2838081e-04   1.6434321e+00   1.6144839e+00  -1.0841263e+06
   1.3504502e-09  -2.2729889e-04   1.6433668e+00   1.6145556e+00  -1.0789915e+06
   1.3514505e-09  -2.2622210e-04   1.6433018e+00   1.6146270e+00  -1.0738811e+06
   1.3524508e-09  -2.2515041e-04   1.6432371e+00   1.6146981e+00  -1.0687948e+06
   1.3534512e-09  -2.2408379e-04   1.6431727e+00   1.6147688e+00  -1.0637327e+06
   1.3544515e-09  -2.2302222e-04   1.6431086e+00   1.6148392e+00  -1.0586945e+06
   1.3554518e-09  -2.2196569e-04   1.6430448e+00   1.6149093e+00  -1.0536801e+06
   1.3564522e-09  -2.2091415e-04   1.6429813e+00   1.6149791e+00  -1.0486895e+06
   1.3574525e-09  -2.1986760e-04   1.6429181e+00   1.6150485e+00  -1.0437226e+06
   1.3584528e-09  -2.1882600e-04   1.6428552e+00   1.6151175e+00  -1.0387791e+06
   1.3594532e-09  -2.1778934e-04   1.6427926e+00   1.6151863e+00  -1.0338590e+06
   1.3604535e-09  -2.1675759e-04   1.6427303e+00   1.6152547e+00  -1.0289623e+06
   1.3614538e-09  -2.1573072e-04   1.6426683e+00   1.6153229e+00  -1.0240887e+06
   1.3624542e-09  -2.1470872e-04   1.6426066e+00   1.6153906e+00  -1.0192382e+06
   1.3634545e-09  -2.1369156e-04   1.6425452e+00   1.6154581e+00  -1.0144107e+06
   1.3644548e-09  -2.1267922e-04   1.6424841e+00   1.6155253e+00  -1.0096060e+06
   1.3654552e-09  -2.1167167e-04   1.6424233e+00   1.6155921e+00  -1.0048240e+06
   1.3664555e-09  -2.1066889e-04   1.6423628e+00   1.6156586e+00  -1.0000647e+06
   1.3674558e-09  -2.0967086e-04   1.6423025e+00   1.6157248e+00  -9.9532797e+05
   1.3684562e-09  -2.0867756e-04   1.6422426e+00   1.6157907e+00  -9.9061363e+05
   1.3694565e-09  -2.0768897e-04   1.6421829e+00   1.6158563e+00  -9.8592162e+05
   1.3704568e-09  -2.0670505e-04   1.6421235e+00   1.6159216e+00  -9.8125181e+05
   1.3714572e-09  -2.0572580e-04   1.6420644e+00   1.6159866e+00  -9.7660412e+05
   1.3724575e-09  -2.0475119e-04   1.6420056e+00   1.6160512e+00  -9.7197844e+05
   1.3734578e-09  -2.0378119e-04   1.6419470e+00   1.6161156e+00  -9.6737465e+05
   1.3744582e-09  -2.0281579e-04   1.6418888e+00   1.6161797e+00  -9.6279266e+05
   1.3754585e-09  -2.0185495e-04   1.6418308e+00   1.6162434e+00  -9.5823237e+05
   1.3764588e-09  -2.0089867e-04   1.6417731e+00   1.6163069e+00  -9.5369366e+05
   1.3774592e-09  -1.9994692e-04   1.6417156e+00   1.6163700e+00  -9.4917645e+05
   1.3784595e-09  -1.9899968e-04   1.6416584e+00   1.6164329e+00  -9.4468063e+05
   1.3794598e-09  -1.9805693e-04   1.6416015e+00   1.6164954e+00  -9.4020609e+05
   1.3804602e-09  -1.9711864e-04   1.6415449e+00   1.6165577e+00  -9.3575273e+05
   1.3814605e-09  -1.9618479e-04   1.6414886e+00   1.6166197e+00  -9.3132047e+05
   1.3824608e-09  -1.9525537e-04   1.6414325e+00   1.6166814e+00  -9.2690919e+05
   1.3834612e-09  -1.9433035e-04   1.6413767e+00   1.6167427e+00  -9.2251879e+05
   1.3844615e-09  -1.9340971e-04   1.6413211e+00   1.6168038e+00  -9.1814919e+05
   1.3854618e-09  -1.9249343e-04   1.6412658e+00   1.6168647e+00  -9.1380027e+05
   1.3864622e-09  -1.9158149e-04   1.6412108e+00   1.6169252e+00  -9.0947194e+05
   1.3874625e-09  -1.9067387e-04   1.6411560e+00   1.6169854e+00  -9.0516411e+05
   1.3884628e-09  -1.8977055e-04   1.6411015e+00   1.6170454e+00  -9.0087668e+05
   1.3894632e-09  -1.8887151e-04   1.6410472e+00   1.6171050e+00  -8.9660955e+05
   1.3904635e-09  -1.8797673e-04   1.6409933e+00   1.6171644e+00  -8.9236262e+05
   1.3914638e-09  -1.8708618e-04   1.6409395e+00   1.6172235e+00  -8.8813580e+05
   1.3924642e-09  -1.8619986e-04   1.6408860e+00   1.6172824e+00  -8.8392899e+05
   1.3934645e-09  -1.8531773e-04   1.6408328e+00   1.6173409e+00  -8.7974210e+05
   1.3944648e-09  -1.8443978e-04   1.6407798e+00   1.6173992e+00  -8.7557504e+05
   1.3954652e-09  -1.8356599e-04   1.6407271e+00   1.6174572e+00  -8.7142771e+05
   1.3964655e-09  -1.8269634e-04   1.6406746e+00   1.6175149e+00  -8.6730002e+05
   1.3974658e-09  -1.8183080e-04   1.6406224e+00   1.6175724e+00  -8.6319187e+05
   1.3984662e-09  -1.8096937e-04   1.6405705e+00   1.6176296e+00  -8.5910318e+05
   1.3994665e-09  -1.8011202e-04   1.6405187e+00   1.6176865e+00  -8.5503384e+05
   1.4004668e-09  -1.7925873e-04   1.6404672e+00   1.6177432e+00  -8.5098377e+05
   1.4014672e-09  -1.7840948e-04   1.6404160e+00   1.6177995e+00  -8.4695288e+05
   1.4024675e-09  -1.7756425e-04   1.6403650e+00   1.6178557e+00  -8.4294108e+05
   1.4034678e-09  -1.7672303e-04   1.6403143e+00   1.6179115e+00  -8.3894828e+05
   1.4044682e-09  -1.7588579e-04   1.6402638e+00   1.6179671e+00  -8.3497438e+05
   1.4054685e-09  -1.7505251e-04   1.6402135e+00   1.6180224e+00  -8.3101929e+05
   1.4064688e-09  -1.7422319e-04   1.6401635e+00   1.6180775e+00  -8.2708294e+05
   1.4074692e-09  -1.7339779e-04   1.6401137e+00   1.6181323e+00  -8.2316523e+05
   1.4084695e-09  -1.7257630e-04   1.6400641e+00   1.6181868e+00  -8.1926606e+05
   1.4094698e-09  -1.7175871e-04   1.6400148e+00   1.6182411e+00  -8.1538536e+05
   1.4104702e-09  -1.7094498e-04   1.6399657e+00   1.6182952e+00  -8.1152304e+05
   1.4114705e-09  -1.7013511e-04   1.6399169e+00   1.6183489e+00  -8.0767900e+05
   1.4124708e-09  -1.6932908e-04   1.6398682e+00   1.6184025e+00  -8.0385317e+05
   1.4134712e-09  -1.6852686e-04   1.6398199e+00   1.6184557e+00  -8.0004546e+05
   1.4144715e-09  -1.6772845e-04   1.6397717e+00   1.6185088e+00  -7.9625577e+05
   1.4154718e-09  -1.6693381e-04   1.6397238e+00   1.6185615e+00  -7.9248403e+05
   1.4164722e-09  -1.6614295e-04   1.6396761e+00   1.6186141e+00  -7.8873015e+05
   1.4174725e-09  -1.6535582e-04   1.6396286e+00   1.6186663e+00  -7.8499405e+05
   1.4184728e-09  -1.6457243e-04   1.6395813e+00   1.6187184e+00  -7.8127564e+05
   1.4194732e-09  -1.6379274e-04   1.6395343e+00   1.6187701e+00  -7.7757483e+05
   1.4204735e-09  -1.6301675e-04   1.6394875e+00   1.6188217e+00  -7.7389155e+05
   1.4214738e-09  -1.6224444e-04   1.6394409e+00   1.6188730e+00  -7.7022572e+05
   1.4224742e-09  -1.6147578e-04   1.6393946e+00   1.6189240e+00  -7.6657724e+05
   1.4234745e-09  -1.6071077e-04   1.6393484e+00   1.6189748e+00  -7.6294604e+05
   1.4244748e-09  -1.5994938e-04   1.6393025e+00   1.6190254e+00  -7.5933203e+05
   1.4254752e-09  -1.5919159e-04   1.6392568e+00   1.6190757e+00  -7.5573514e+05
   1.4264755e-09  -1.5843740e-04   1.6392113e+00   1.6191258e+00  -7.5215528e+05
   1.4274758e-09  -1.5768677e-04   1.6391661e+00   1.6191757e+00  -7.4859238e+05
   1.4284762e-09  -1.5693971e-04   1.6391210e+00   1.6192253e+00  -7.4504634e+05
   1.4294765e-09  -1.5619618e-04   1.6390762e+00   1.6192747e+00  -7.4151710e+05
   1.4304768e-09  -1.5545617e-04   1.6390315e+00   1.6193239e+00  -7.3800457e+05
   1.4314772e-09  -1.5471967e-04   1.6389871e+00   1.6193728e+00  -7.3450868e+05
   1.4324775e-09  -1.5398666e-04   1.6389429e+00   1.6194215e+00  -7.3102934e+05
   1.4334778e-09  -1.5325712e-04   1.6388989e+00   1.6194700e+00  -7.2756648e+05
   1.4344782e-09  -1.5253104e-04   1.6388551e+00   1.6195182e+00  -7.2412001e+05
   1.4354785e-09  -1.5180839e-04   1.6388116e+00   1.6195662e+00  -7.2068987e+05
   1.4364788e-09  -1.5108917e-04   1.6387682e+00   1.6196140e+00  -7.1727597e+05
   1.4374792e-09  -1.5037336e-04   1.6387250e+00   1.6196615e+00  -7.1387824e+05
   1.4384795e-09  -1.4966093e-04   1.6386821e+00   1.6197089e+00  -7.1049659e+05
   1.4394798e-09  -1.4895188e-04   1.6386393e+00   1.6197560e+00  -7.0713097e+05
   1.4404802e-09  -1.4824619e-04   1.6385968e+00   1.6198029e+00  -7.0378128e+05
   1.4414805e-09  -1.4754385e-04   1.6385544e+00   1.6198495e+00  -7.0044745e+05
   1.4424808e-09  -1.4684483e-04   1.6385123e+00   1.6198960e+00  -6.9712941e+05
   1.4434812e-09  -1.4614912e-04   1.6384703e+00   1.6199422e+00  -6.9382709e+05
   1.4444815e-09  -1.4545670e-04   1.6384286e+00   1.6199882e+00  -6.9054040e+05
   1.4454818e-09  -1.4476757e-04   1.6383870e+00   1.6200340e+00  -6.8726928e+05
   1.4464822e-09  -1.4408170e-04   1.6383457e+00   1.6200796e+00  -6.8401365e+05
   1.4474825e-09  -1.4339908e-04   1.6383045e+00   1.6201249e+00  -6.8077343e+05
   1.4484828e-09  -1.4271970e-04   1.6382636e+00   1.6201701e+00  -6.7754857e+05
   1.4494832e-09  -1.4204353e-04   1.6382228e+00   1.6202150e+00  -6.7433897e+05
   1.4504835e-09  -1.4137056e-04   1.6381822e+00   1.6202597e+00  -6.7114458e+05
   1.4514838e-09  -1.4070079e-04   1.6381418e+00   1.6203042e+00  -6.6796531e+05
   1.4524842e-09  -1.4003418e-04   1.6381016e+00   1.6203485e+00  -6.6480110e+05
   1.4534845e-09  -1.3937074e-04   1.6380617e+00   1.6203926e+00  -6.6165187e+05
   1.4544848e-09  -1.3871043e-04   1.6380218e+00   1.6204365e+00  -6.5851756e+05
   1.4554852e-09  -1.3805326e-04   1.6379822e+00   1.6204802e+00  -6.5539809e+05
   1.4564855e-09  -1.3739919e-04   1.6379428e+00   1.6205236e+00  -6.5229340e+05
   1.4574858e-09  -1.3674823e-04   1.6379036e+00   1.6205669e+00  -6.4920340e+05
   1.4584862e-09  -1.3610035e-04   1.6378645e+00   1.6206100e+00  -6.4612805e+05
   1.4594865e-09  -1.3545554e-04   1.6378256e+00   1.6206528e+00  -6.4306725e+05
   1.4604868e-09  -1.3481378e-04   1.6377869e+00   1.6206955e+00  -6.4002096e+05
   1.4614872e-09  -1.3417506e-04   1.6377484e+00   1.6207379e+00  -6.3698909e+05
   1.4624875e-09  -1.3353937e-04   1.6377101e+00   1.6207802e+00  -6.3397157e+05
