   0.0000000e+00  -1.3513956e-01   6.2813018e+00   1.7023613e-04  -5.1945099e+08
   1.0003334e-12  -1.3462066e-01   6.2790476e+00   1.7718696e-04  -5.1803850e+08
   2.0006669e-12  -1.3410318e-01   6.2767553e+00   1.8440016e-04  -5.1662578e+08
   3.0010003e-12  -1.3358711e-01   6.2744244e+00   1.9188471e-04  -5.1521285e+08
   4.0013338e-12  -1.3307246e-01   6.2720544e+00   1.9964980e-04  -5.1379969e+08
   5.0016672e-12  -1.3255921e-01   6.2696450e+00   2.0770494e-04  -5.1238632e+08
   6.0020007e-12  -1.3204739e-01   6.2671955e+00   2.1605989e-04  -5.1097275e+08
   7.0023341e-12  -1.3153698e-01   6.2647056e+00   2.2472470e-04  -5.0955896e+08
   8.0026676e-12  -1.3102798e-01   6.2621748e+00   2.3370970e-04  -5.0814498e+08
   9.0030010e-12  -1.3052039e-01   6.2596025e+00   2.4302555e-04  -5.0673079e+08
   1.0003334e-11  -1.3001423e-01   6.2569883e+00   2.5268318e-04  -5.0531642e+08
   1.1003668e-11  -1.2950947e-01   6.2543318e+00   2.6269384e-04  -5.0390185e+08
   1.2004001e-11  -1.2900613e-01   6.2516324e+00   2.7306910e-04  -5.0248710e+08
   1.3004335e-11  -1.2850421e-01   6.2488896e+00   2.8382085e-04  -5.0107217e+08
   1.4004668e-11  -1.2800370e-01   6.2461030e+00   2.9496132e-04  -4.9965707e+08
   1.5005002e-11  -1.2750461e-01   6.2432721e+00   3.0650307e-04  -4.9824180e+08
   1.6005335e-11  -1.2700694e-01   6.2403965e+00   3.1845901e-04  -4.9682637e+08
   1.7005669e-11  -1.2651068e-01   6.2374755e+00   3.3084238e-04  -4.9541078e+08
   1.8006002e-11  -1.2601583e-01   6.2345088e+00   3.4366681e-04  -4.9399504e+08
   1.9006335e-11  -1.2552241e-01   6.2314958e+00   3.5694629e-04  -4.9257916e+08
   2.0006669e-11  -1.2503040e-01   6.2284361e+00   3.7069515e-04  -4.9116314e+08
   2.1007002e-11  -1.2453980e-01   6.2253292e+00   3.8492815e-04  -4.8974699e+08
   2.2007336e-11  -1.2405063e-01   6.2221747e+00   3.9966041e-04  -4.8833072e+08
   2.3007669e-11  -1.2356287e-01   6.2189719e+00   4.1490744e-04  -4.8691433e+08
   2.4008003e-11  -1.2307652e-01   6.2157206e+00   4.3068516e-04  -4.8549783e+08
   2.5008336e-11  -1.2259160e-01   6.2124201e+00   4.4700992e-04  -4.8408123e+08
   2.6008670e-11  -1.2210809e-01   6.2090700e+00   4.6389845e-04  -4.8266453e+08
   2.7009003e-11  -1.2162600e-01   6.2056698e+00   4.8136793e-04  -4.8124776e+08
   2.8009336e-11  -1.2114532e-01   6.2022190e+00   4.9943597e-04  -4.7983090e+08
   2.9009670e-11  -1.2066607e-01   6.1987173e+00   5.1812061e-04  -4.7841398e+08
   3.0010003e-11  -1.2018823e-01   6.1951641e+00   5.3744035e-04  -4.7699700e+08
   3.1010337e-11  -1.1971180e-01   6.1915588e+00   5.5741414e-04  -4.7557997e+08
   3.2010670e-11  -1.1923680e-01   6.1879012e+00   5.7806138e-04  -4.7416290e+08
   3.3011004e-11  -1.1876321e-01   6.1841907e+00   5.9940195e-04  -4.7274580e+08
   3.4011337e-11  -1.1829105e-01   6.1804268e+00   6.2145622e-04  -4.7132868e+08
   3.5011671e-11  -1.1782029e-01   6.1766092e+00   6.4424502e-04  -4.6991155e+08
   3.6012004e-11  -1.1735096e-01   6.1727372e+00   6.6778968e-04  -4.6849443e+08
   3.7012337e-11  -1.1688305e-01   6.1688106e+00   6.9211205e-04  -4.6707731e+08
   3.8012671e-11  -1.1641655e-01   6.1648288e+00   7.1723446e-04  -4.6566022e+08
   3.9013004e-11  -1.1595147e-01   6.1607913e+00   7.4317976e-04  -4.6424316e+08
   4.0013338e-11  -1.1548780e-01   6.1566979e+00   7.6997133e-04  -4.6282614e+08
   4.1013671e-11  -1.1502556e-01   6.1525479e+00   7.9763307e-04  -4.6140919e+08
   4.2014005e-11  -1.1456473e-01   6.1483410e+00   8.2618941e-04  -4.5999230e+08
   4.3014338e-11  -1.1410532e-01   6.1440768e+00   8.5566535e-04  -4.5857550e+08
   4.4014672e-11  -1.1364733e-01   6.1397548e+00   8.8608641e-04  -4.5715879e+08
   4.5015005e-11  -1.1319075e-01   6.1353746e+00   9.1747867e-04  -4.5574220e+08
   4.6015338e-11  -1.1273559e-01   6.1309358e+00   9.4986878e-04  -4.5432572e+08
   4.7015672e-11  -1.1228185e-01   6.1264380e+00   9.8328397e-04  -4.5290938e+08
   4.8016005e-11  -1.1182952e-01   6.1218808e+00   1.0177520e-03  -4.5149319e+08
   4.9016339e-11  -1.1137862e-01   6.1172638e+00   1.0533013e-03  -4.5007716e+08
   5.0016672e-11  -1.1092912e-01   6.1125865e+00   1.0899608e-03  -4.4866131e+08
   5.1017006e-11  -1.1048105e-01   6.1078487e+00   1.1277601e-03  -4.4724566e+08
   5.2017339e-11  -1.1003439e-01   6.1030498e+00   1.1667293e-03  -4.4583021e+08
   5.3017673e-11  -1.0958914e-01   6.0981897e+00   1.2068992e-03  -4.4441499e+08
   5.4018006e-11  -1.0914532e-01   6.0932678e+00   1.2483011e-03  -4.4300001e+08
   5.5018339e-11  -1.0870290e-01   6.0882838e+00   1.2909672e-03  -4.4158529e+08
   5.6018673e-11  -1.0826190e-01   6.0832373e+00   1.3349299e-03  -4.4017083e+08
   5.7019006e-11  -1.0782232e-01   6.0781281e+00   1.3802226e-03  -4.3875667e+08
   5.8019340e-11  -1.0738415e-01   6.0729558e+00   1.4268791e-03  -4.3734281e+08
   5.9019673e-11  -1.0694740e-01   6.0677200e+00   1.4749340e-03  -4.3592928e+08
   6.0020007e-11  -1.0651206e-01   6.0624204e+00   1.5244223e-03  -4.3451609e+08
   6.1020340e-11  -1.0607813e-01   6.0570567e+00   1.5753800e-03  -4.3310326e+08
   6.2020674e-11  -1.0564561e-01   6.0516286e+00   1.6278434e-03  -4.3169080e+08
   6.3021007e-11  -1.0521451e-01   6.0461358e+00   1.6818497e-03  -4.3027874e+08
   6.4021340e-11  -1.0478482e-01   6.0405780e+00   1.7374367e-03  -4.2886710e+08
   6.5021674e-11  -1.0435655e-01   6.0349549e+00   1.7946428e-03  -4.2745589e+08
   6.6022007e-11  -1.0392968e-01   6.0292663e+00   1.8535071e-03  -4.2604513e+08
   6.7022341e-11  -1.0350423e-01   6.0235118e+00   1.9140693e-03  -4.2463485e+08
   6.8022674e-11  -1.0308018e-01   6.0176912e+00   1.9763699e-03  -4.2322506e+08
   6.9023008e-11  -1.0265755e-01   6.0118043e+00   2.0404500e-03  -4.2181578e+08
   7.0023341e-11  -1.0223632e-01   6.0058508e+00   2.1063513e-03  -4.2040704e+08
   7.1023675e-11  -1.0181651e-01   5.9998305e+00   2.1741164e-03  -4.1899885e+08
   7.2024008e-11  -1.0139810e-01   5.9937432e+00   2.2437884e-03  -4.1759124e+08
   7.3024341e-11  -1.0098110e-01   5.9875886e+00   2.3154110e-03  -4.1618423e+08
   7.4024675e-11  -1.0056551e-01   5.9813666e+00   2.3890288e-03  -4.1477783e+08
   7.5025008e-11  -1.0015132e-01   5.9750770e+00   2.4646869e-03  -4.1337208e+08
   7.6025342e-11  -9.9738541e-02   5.9687196e+00   2.5424312e-03  -4.1196700e+08
   7.7025675e-11  -9.9327166e-02   5.9622943e+00   2.6223082e-03  -4.1056260e+08
   7.8026009e-11  -9.8917195e-02   5.9558008e+00   2.7043650e-03  -4.0915891e+08
   7.9026342e-11  -9.8508628e-02   5.9492391e+00   2.7886496e-03  -4.0775596e+08
   8.0026676e-11  -9.8101464e-02   5.9426089e+00   2.8752105e-03  -4.0635376e+08
   8.1027009e-11  -9.7695703e-02   5.9359103e+00   2.9640970e-03  -4.0495235e+08
   8.2027342e-11  -9.7291342e-02   5.9291430e+00   3.0553589e-03  -4.0355174e+08
   8.3027676e-11  -9.6888383e-02   5.9223070e+00   3.1490468e-03  -4.0215195e+08
   8.4028009e-11  -9.6486823e-02   5.9154021e+00   3.2452118e-03  -4.0075303e+08
   8.5028343e-11  -9.6086662e-02   5.9084284e+00   3.3439060e-03  -3.9935498e+08
   8.6028676e-11  -9.5687899e-02   5.9013857e+00   3.4451819e-03  -3.9795784e+08
   8.7029010e-11  -9.5290534e-02   5.8942740e+00   3.5490925e-03  -3.9656163e+08
   8.8029343e-11  -9.4894564e-02   5.8870933e+00   3.6556919e-03  -3.9516637e+08
   8.9029677e-11  -9.4499990e-02   5.8798434e+00   3.7650344e-03  -3.9377209e+08
   9.0030010e-11  -9.4106809e-02   5.8725245e+00   3.8771751e-03  -3.9237883e+08
   9.1030343e-11  -9.3715022e-02   5.8651365e+00   3.9921700e-03  -3.9098659e+08
   9.2030677e-11  -9.3324627e-02   5.8576794e+00   4.1100752e-03  -3.8959542e+08
   9.3031010e-11  -9.2935623e-02   5.8501532e+00   4.2309479e-03  -3.8820534e+08
   9.4031344e-11  -9.2548009e-02   5.8425580e+00   4.3548456e-03  -3.8681637e+08
   9.5031677e-11  -9.2161784e-02   5.8348938e+00   4.4818266e-03  -3.8542854e+08
   9.6032011e-11  -9.1776946e-02   5.8271607e+00   4.6119496e-03  -3.8404188e+08
   9.7032344e-11  -9.1393495e-02   5.8193587e+00   4.7452740e-03  -3.8265643e+08
   9.8032678e-11  -9.1011429e-02   5.8114880e+00   4.8818599e-03  -3.8127219e+08
   9.9033011e-11  -9.0630747e-02   5.8035486e+00   5.0217677e-03  -3.7988922e+08
   1.0003334e-10  -9.0251448e-02   5.7955407e+00   5.1650585e-03  -3.7850752e+08
   1.0103368e-10  -8.9873530e-02   5.7874643e+00   5.3117940e-03  -3.7712714e+08
   1.0203401e-10  -8.9496992e-02   5.7793197e+00   5.4620364e-03  -3.7574809e+08
   1.0303434e-10  -8.9121833e-02   5.7711069e+00   5.6158483e-03  -3.7437042e+08
   1.0403468e-10  -8.8748051e-02   5.7628261e+00   5.7732930e-03  -3.7299414e+08
   1.0503501e-10  -8.8375646e-02   5.7544776e+00   5.9344342e-03  -3.7161929e+08
   1.0603535e-10  -8.8004614e-02   5.7460615e+00   6.0993361e-03  -3.7024590e+08
   1.0703568e-10  -8.7634956e-02   5.7375780e+00   6.2680634e-03  -3.6887399e+08
   1.0803601e-10  -8.7266670e-02   5.7290273e+00   6.4406812e-03  -3.6750360e+08
   1.0903635e-10  -8.6899753e-02   5.7204096e+00   6.6172551e-03  -3.6613476e+08
   1.1003668e-10  -8.6534204e-02   5.7117253e+00   6.7978511e-03  -3.6476749e+08
   1.1103701e-10  -8.6170023e-02   5.7029745e+00   6.9825357e-03  -3.6340183e+08
   1.1203735e-10  -8.5807207e-02   5.6941576e+00   7.1713757e-03  -3.6203781e+08
   1.1303768e-10  -8.5445754e-02   5.6852748e+00   7.3644384e-03  -3.6067545e+08
   1.1403801e-10  -8.5085663e-02   5.6763264e+00   7.5617914e-03  -3.5931479e+08
   1.1503835e-10  -8.4726932e-02   5.6673127e+00   7.7635026e-03  -3.5795586e+08
   1.1603868e-10  -8.4369560e-02   5.6582341e+00   7.9696403e-03  -3.5659869e+08
   1.1703901e-10  -8.4013544e-02   5.6490908e+00   8.1802732e-03  -3.5524330e+08
   1.1803935e-10  -8.3658883e-02   5.6398833e+00   8.3954701e-03  -3.5388974e+08
   1.1903968e-10  -8.3305575e-02   5.6306119e+00   8.6153004e-03  -3.5253803e+08
   1.2004001e-10  -8.2953618e-02   5.6212769e+00   8.8398335e-03  -3.5118820e+08
   1.2104035e-10  -8.2603010e-02   5.6118788e+00   9.0691392e-03  -3.4984029e+08
   1.2204068e-10  -8.2253750e-02   5.6024180e+00   9.3032873e-03  -3.4849432e+08
   1.2304101e-10  -8.1905835e-02   5.5928948e+00   9.5423481e-03  -3.4715033e+08
   1.2404135e-10  -8.1559263e-02   5.5833098e+00   9.7863920e-03  -3.4580834e+08
   1.2504168e-10  -8.1214032e-02   5.5736632e+00   1.0035490e-02  -3.4446839e+08
   1.2604201e-10  -8.0870141e-02   5.5639557e+00   1.0289711e-02  -3.4313051e+08
   1.2704235e-10  -8.0527587e-02   5.5541875e+00   1.0549128e-02  -3.4179473e+08
   1.2804268e-10  -8.0186368e-02   5.5443593e+00   1.0813812e-02  -3.4046108e+08
   1.2904301e-10  -7.9846482e-02   5.5344715e+00   1.1083832e-02  -3.3912959e+08
   1.3004335e-10  -7.9507926e-02   5.5245246e+00   1.1359260e-02  -3.3780030e+08
   1.3104368e-10  -7.9170699e-02   5.5145190e+00   1.1640168e-02  -3.3647323e+08
   1.3204401e-10  -7.8834798e-02   5.5044554e+00   1.1926627e-02  -3.3514842e+08
   1.3304435e-10  -7.8500222e-02   5.4943342e+00   1.2218708e-02  -3.3382589e+08
   1.3404468e-10  -7.8166967e-02   5.4841560e+00   1.2516481e-02  -3.3250568e+08
   1.3504502e-10  -7.7835031e-02   5.4739214e+00   1.2820019e-02  -3.3118782e+08
   1.3604535e-10  -7.7504412e-02   5.4636308e+00   1.3129392e-02  -3.2987234e+08
   1.3704568e-10  -7.7175108e-02   5.4532849e+00   1.3444671e-02  -3.2855927e+08
   1.3804602e-10  -7.6847116e-02   5.4428842e+00   1.3765928e-02  -3.2724864e+08
   1.3904635e-10  -7.6520433e-02   5.4324294e+00   1.4093232e-02  -3.2594048e+08
   1.4004668e-10  -7.6195058e-02   5.4219211e+00   1.4426655e-02  -3.2463482e+08
   1.4104702e-10  -7.5870988e-02   5.4113597e+00   1.4766267e-02  -3.2333169e+08
   1.4204735e-10  -7.5548220e-02   5.4007461e+00   1.5112139e-02  -3.2203112e+08
   1.4304768e-10  -7.5226751e-02   5.3900808e+00   1.5464339e-02  -3.2073315e+08
   1.4404802e-10  -7.4906579e-02   5.3793644e+00   1.5822939e-02  -3.1943780e+08
   1.4504835e-10  -7.4587701e-02   5.3685976e+00   1.6188008e-02  -3.1814510e+08
   1.4604868e-10  -7.4270116e-02   5.3577810e+00   1.6559615e-02  -3.1685508e+08
   1.4704902e-10  -7.3953819e-02   5.3469154e+00   1.6937829e-02  -3.1556777e+08
   1.4804935e-10  -7.3638808e-02   5.3360013e+00   1.7322718e-02  -3.1428321e+08
   1.4904968e-10  -7.3325081e-02   5.3250395e+00   1.7714352e-02  -3.1300141e+08
   1.5005002e-10  -7.3012634e-02   5.3140306e+00   1.8112797e-02  -3.1172241e+08
   1.5105035e-10  -7.2701466e-02   5.3029754e+00   1.8518121e-02  -3.1044623e+08
   1.5205068e-10  -7.2391572e-02   5.2918746e+00   1.8930392e-02  -3.0917291e+08
   1.5305102e-10  -7.2082950e-02   5.2807288e+00   1.9349675e-02  -3.0790247e+08
   1.5405135e-10  -7.1775598e-02   5.2695388e+00   1.9776038e-02  -3.0663495e+08
   1.5505168e-10  -7.1469512e-02   5.2583052e+00   2.0209546e-02  -3.0537036e+08
   1.5605202e-10  -7.1164690e-02   5.2470289e+00   2.0650264e-02  -3.0410874e+08
   1.5705235e-10  -7.0861128e-02   5.2357106e+00   2.1098256e-02  -3.0285012e+08
   1.5805268e-10  -7.0558823e-02   5.2243510e+00   2.1553588e-02  -3.0159452e+08
   1.5905302e-10  -7.0257773e-02   5.2129508e+00   2.2016321e-02  -3.0034196e+08
   1.6005335e-10  -6.9957973e-02   5.2015109e+00   2.2486520e-02  -2.9909248e+08
   1.6105368e-10  -6.9659423e-02   5.1900319e+00   2.2964246e-02  -2.9784610e+08
   1.6205402e-10  -6.9362117e-02   5.1785146e+00   2.3449562e-02  -2.9660285e+08
   1.6305435e-10  -6.9066053e-02   5.1669598e+00   2.3942527e-02  -2.9536275e+08
   1.6405468e-10  -6.8771228e-02   5.1553682e+00   2.4443203e-02  -2.9412583e+08
   1.6505502e-10  -6.8477638e-02   5.1437407e+00   2.4951650e-02  -2.9289211e+08
   1.6605535e-10  -6.8185281e-02   5.1320780e+00   2.5467925e-02  -2.9166162e+08
   1.6705569e-10  -6.7894153e-02   5.1203809e+00   2.5992088e-02  -2.9043439e+08
   1.6805602e-10  -6.7604251e-02   5.1086502e+00   2.6524195e-02  -2.8921043e+08
   1.6905635e-10  -6.7315571e-02   5.0968866e+00   2.7064303e-02  -2.8798977e+08
   1.7005669e-10  -6.7028111e-02   5.0850910e+00   2.7612469e-02  -2.8677244e+08
   1.7105702e-10  -6.6741866e-02   5.0732642e+00   2.8168747e-02  -2.8555846e+08
   1.7205735e-10  -6.6456834e-02   5.0614069e+00   2.8733191e-02  -2.8434785e+08
   1.7305769e-10  -6.6173012e-02   5.0495199e+00   2.9305855e-02  -2.8314063e+08
   1.7405802e-10  -6.5890395e-02   5.0376041e+00   2.9886792e-02  -2.8193683e+08
   1.7505835e-10  -6.5608980e-02   5.0256602e+00   3.0476052e-02  -2.8073647e+08
   1.7605869e-10  -6.5328764e-02   5.0136891e+00   3.1073686e-02  -2.7953957e+08
   1.7705902e-10  -6.5049744e-02   5.0016915e+00   3.1679746e-02  -2.7834615e+08
   1.7805935e-10  -6.4771915e-02   4.9896682e+00   3.2294278e-02  -2.7715623e+08
   1.7905969e-10  -6.4495275e-02   4.9776202e+00   3.2917332e-02  -2.7596983e+08
   1.8006002e-10  -6.4219820e-02   4.9655480e+00   3.3548953e-02  -2.7478698e+08
   1.8106035e-10  -6.3945546e-02   4.9534527e+00   3.4189189e-02  -2.7360769e+08
   1.8206069e-10  -6.3672450e-02   4.9413349e+00   3.4838085e-02  -2.7243198e+08
   1.8306102e-10  -6.3400528e-02   4.9291955e+00   3.5495683e-02  -2.7125988e+08
   1.8406135e-10  -6.3129777e-02   4.9170353e+00   3.6162028e-02  -2.7009139e+08
   1.8506169e-10  -6.2860192e-02   4.9048550e+00   3.6837161e-02  -2.6892655e+08
   1.8606202e-10  -6.2591771e-02   4.8926556e+00   3.7521123e-02  -2.6776536e+08
   1.8706235e-10  -6.2324510e-02   4.8804377e+00   3.8213954e-02  -2.6660784e+08
   1.8806269e-10  -6.2058404e-02   4.8682022e+00   3.8915693e-02  -2.6545402e+08
   1.8906302e-10  -6.1793450e-02   4.8559499e+00   3.9626378e-02  -2.6430390e+08
   1.9006335e-10  -6.1529645e-02   4.8436815e+00   4.0346045e-02  -2.6315751e+08
   1.9106369e-10  -6.1266985e-02   4.8313980e+00   4.1074730e-02  -2.6201485e+08
   1.9206402e-10  -6.1005466e-02   4.8191000e+00   4.1812468e-02  -2.6087595e+08
   1.9306435e-10  -6.0745084e-02   4.8067883e+00   4.2559291e-02  -2.5974083e+08
   1.9406469e-10  -6.0485835e-02   4.7944638e+00   4.3315233e-02  -2.5860949e+08
   1.9506502e-10  -6.0227716e-02   4.7821272e+00   4.4080324e-02  -2.5748195e+08
   1.9606536e-10  -5.9970723e-02   4.7697793e+00   4.4854595e-02  -2.5635822e+08
   1.9706569e-10  -5.9714852e-02   4.7574209e+00   4.5638074e-02  -2.5523832e+08
   1.9806602e-10  -5.9460100e-02   4.7450528e+00   4.6430788e-02  -2.5412226e+08
   1.9906636e-10  -5.9206461e-02   4.7326756e+00   4.7232766e-02  -2.5301006e+08
   2.0006669e-10  -5.8953934e-02   4.7202903e+00   4.8044031e-02  -2.5190172e+08
   2.0106702e-10  -5.8702512e-02   4.7078975e+00   4.8864609e-02  -2.5079726e+08
   2.0206736e-10  -5.8452194e-02   4.6954980e+00   4.9694522e-02  -2.4969669e+08
   2.0306769e-10  -5.8202974e-02   4.6830925e+00   5.0533793e-02  -2.4860001e+08
   2.0406802e-10  -5.7954850e-02   4.6706819e+00   5.1382442e-02  -2.4750725e+08
   2.0506836e-10  -5.7707816e-02   4.6582668e+00   5.2240489e-02  -2.4641841e+08
   2.0606869e-10  -5.7461870e-02   4.6458480e+00   5.3107953e-02  -2.4533351e+08
   2.0706902e-10  -5.7217006e-02   4.6334263e+00   5.3984850e-02  -2.4425254e+08
   2.0806936e-10  -5.6973222e-02   4.6210023e+00   5.4871196e-02  -2.4317552e+08
   2.0906969e-10  -5.6730513e-02   4.6085768e+00   5.5767007e-02  -2.4210246e+08
   2.1007002e-10  -5.6488876e-02   4.5961505e+00   5.6672297e-02  -2.4103337e+08
   2.1107036e-10  -5.6248305e-02   4.5837241e+00   5.7587077e-02  -2.3996825e+08
   2.1207069e-10  -5.6008799e-02   4.5712983e+00   5.8511359e-02  -2.3890712e+08
   2.1307102e-10  -5.5770351e-02   4.5588739e+00   5.9445154e-02  -2.3784997e+08
   2.1407136e-10  -5.5532959e-02   4.5464514e+00   6.0388470e-02  -2.3679683e+08
   2.1507169e-10  -5.5296618e-02   4.5340317e+00   6.1341316e-02  -2.3574768e+08
   2.1607202e-10  -5.5061325e-02   4.5216154e+00   6.2303697e-02  -2.3470254e+08
   2.1707236e-10  -5.4827075e-02   4.5092032e+00   6.3275620e-02  -2.3366142e+08
   2.1807269e-10  -5.4593864e-02   4.4967957e+00   6.4257088e-02  -2.3262431e+08
   2.1907302e-10  -5.4361689e-02   4.4843937e+00   6.5248105e-02  -2.3159123e+08
   2.2007336e-10  -5.4130545e-02   4.4719977e+00   6.6248673e-02  -2.3056217e+08
   2.2107369e-10  -5.3900428e-02   4.4596084e+00   6.7258792e-02  -2.2953715e+08
   2.2207402e-10  -5.3671334e-02   4.4472266e+00   6.8278463e-02  -2.2851617e+08
   2.2307436e-10  -5.3443260e-02   4.4348527e+00   6.9307683e-02  -2.2749922e+08
   2.2407469e-10  -5.3216201e-02   4.4224875e+00   7.0346450e-02  -2.2648631e+08
   2.2507503e-10  -5.2990153e-02   4.4101315e+00   7.1394761e-02  -2.2547745e+08
   2.2607536e-10  -5.2765112e-02   4.3977855e+00   7.2452609e-02  -2.2447264e+08
   2.2707569e-10  -5.2541074e-02   4.3854500e+00   7.3519991e-02  -2.2347187e+08
   2.2807603e-10  -5.2318034e-02   4.3731255e+00   7.4596897e-02  -2.2247515e+08
   2.2907636e-10  -5.2095990e-02   4.3608128e+00   7.5683320e-02  -2.2148249e+08
   2.3007669e-10  -5.1874937e-02   4.3485124e+00   7.6779251e-02  -2.2049387e+08
   2.3107703e-10  -5.1654870e-02   4.3362249e+00   7.7884678e-02  -2.1950931e+08
   2.3207736e-10  -5.1435787e-02   4.3239508e+00   7.8999591e-02  -2.1852880e+08
   2.3307769e-10  -5.1217682e-02   4.3116908e+00   8.0123976e-02  -2.1755233e+08
   2.3407803e-10  -5.1000551e-02   4.2994453e+00   8.1257821e-02  -2.1657992e+08
   2.3507836e-10  -5.0784391e-02   4.2872150e+00   8.2401109e-02  -2.1561156e+08
   2.3607869e-10  -5.0569198e-02   4.2750004e+00   8.3553826e-02  -2.1464725e+08
   2.3707903e-10  -5.0354968e-02   4.2628021e+00   8.4715953e-02  -2.1368698e+08
   2.3807936e-10  -5.0141695e-02   4.2506205e+00   8.5887474e-02  -2.1273076e+08
   2.3907969e-10  -4.9929377e-02   4.2384562e+00   8.7068370e-02  -2.1177858e+08
   2.4008003e-10  -4.9718010e-02   4.2263097e+00   8.8258619e-02  -2.1083044e+08
   2.4108036e-10  -4.9507589e-02   4.2141815e+00   8.9458202e-02  -2.0988634e+08
   2.4208069e-10  -4.9298110e-02   4.2020722e+00   9.0667095e-02  -2.0894627e+08
   2.4308103e-10  -4.9089569e-02   4.1899821e+00   9.1885277e-02  -2.0801023e+08
   2.4408136e-10  -4.8881963e-02   4.1779119e+00   9.3112722e-02  -2.0707821e+08
   2.4508169e-10  -4.8675287e-02   4.1658620e+00   9.4349406e-02  -2.0615022e+08
   2.4608203e-10  -4.8469537e-02   4.1538328e+00   9.5595304e-02  -2.0522624e+08
   2.4708236e-10  -4.8264710e-02   4.1418248e+00   9.6850387e-02  -2.0430628e+08
   2.4808269e-10  -4.8060800e-02   4.1298386e+00   9.8114628e-02  -2.0339032e+08
   2.4908303e-10  -4.7857805e-02   4.1178744e+00   9.9387999e-02  -2.0247837e+08
   2.5008336e-10  -4.7655719e-02   4.1059328e+00   1.0067047e-01  -2.0157041e+08
   2.5108369e-10  -4.7454540e-02   4.0940142e+00   1.0196201e-01  -2.0066645e+08
   2.5208403e-10  -4.7254264e-02   4.0821191e+00   1.0326259e-01  -1.9976646e+08
   2.5308436e-10  -4.7054885e-02   4.0702478e+00   1.0457217e-01  -1.9887046e+08
   2.5408469e-10  -4.6856401e-02   4.0584008e+00   1.0589072e-01  -1.9797843e+08
   2.5508503e-10  -4.6658806e-02   4.0465784e+00   1.0721821e-01  -1.9709036e+08
   2.5608536e-10  -4.6462099e-02   4.0347811e+00   1.0855461e-01  -1.9620625e+08
   2.5708570e-10  -4.6266273e-02   4.0230093e+00   1.0989987e-01  -1.9532609e+08
   2.5808603e-10  -4.6071326e-02   4.0112633e+00   1.1125396e-01  -1.9444987e+08
   2.5908636e-10  -4.5877253e-02   3.9995435e+00   1.1261685e-01  -1.9357759e+08
   2.6008670e-10  -4.5684051e-02   3.9878503e+00   1.1398849e-01  -1.9270923e+08
   2.6108703e-10  -4.5491716e-02   3.9761841e+00   1.1536884e-01  -1.9184479e+08
   2.6208736e-10  -4.5300243e-02   3.9645451e+00   1.1675788e-01  -1.9098426e+08
   2.6308770e-10  -4.5109629e-02   3.9529338e+00   1.1815554e-01  -1.9012764e+08
   2.6408803e-10  -4.4919870e-02   3.9413505e+00   1.1956181e-01  -1.8927490e+08
   2.6508836e-10  -4.4730962e-02   3.9297955e+00   1.2097662e-01  -1.8842605e+08
   2.6608870e-10  -4.4542901e-02   3.9182691e+00   1.2239994e-01  -1.8758107e+08
   2.6708903e-10  -4.4355683e-02   3.9067717e+00   1.2383173e-01  -1.8673996e+08
   2.6808936e-10  -4.4169305e-02   3.8953036e+00   1.2527195e-01  -1.8590270e+08
   2.6908970e-10  -4.3983762e-02   3.8838650e+00   1.2672054e-01  -1.8506928e+08
   2.7009003e-10  -4.3799051e-02   3.8724563e+00   1.2817746e-01  -1.8423970e+08
   2.7109036e-10  -4.3615168e-02   3.8610777e+00   1.2964267e-01  -1.8341394e+08
   2.7209070e-10  -4.3432109e-02   3.8497297e+00   1.3111611e-01  -1.8259200e+08
   2.7309103e-10  -4.3249870e-02   3.8384123e+00   1.3259775e-01  -1.8177386e+08
   2.7409136e-10  -4.3068447e-02   3.8271259e+00   1.3408753e-01  -1.8095951e+08
   2.7509170e-10  -4.2887837e-02   3.8158708e+00   1.3558541e-01  -1.8014894e+08
   2.7609203e-10  -4.2708036e-02   3.8046471e+00   1.3709133e-01  -1.7934215e+08
   2.7709236e-10  -4.2529041e-02   3.7934553e+00   1.3860525e-01  -1.7853911e+08
   2.7809270e-10  -4.2350846e-02   3.7822954e+00   1.4012712e-01  -1.7773982e+08
   2.7909303e-10  -4.2173449e-02   3.7711678e+00   1.4165688e-01  -1.7694426e+08
   2.8009336e-10  -4.1996846e-02   3.7600727e+00   1.4319449e-01  -1.7615243e+08
   2.8109370e-10  -4.1821034e-02   3.7490103e+00   1.4473988e-01  -1.7536431e+08
   2.8209403e-10  -4.1646007e-02   3.7379807e+00   1.4629302e-01  -1.7457989e+08
   2.8309436e-10  -4.1471764e-02   3.7269844e+00   1.4785384e-01  -1.7379916e+08
   2.8409470e-10  -4.1298300e-02   3.7160213e+00   1.4942230e-01  -1.7302210e+08
   2.8509503e-10  -4.1125611e-02   3.7050918e+00   1.5099834e-01  -1.7224871e+08
   2.8609537e-10  -4.0953693e-02   3.6941960e+00   1.5258190e-01  -1.7147896e+08
   2.8709570e-10  -4.0782544e-02   3.6833342e+00   1.5417293e-01  -1.7071286e+08
   2.8809603e-10  -4.0612160e-02   3.6725064e+00   1.5577138e-01  -1.6995038e+08
   2.8909637e-10  -4.0442536e-02   3.6617129e+00   1.5737718e-01  -1.6919151e+08
   2.9009670e-10  -4.0273670e-02   3.6509539e+00   1.5899029e-01  -1.6843625e+08
   2.9109703e-10  -4.0105557e-02   3.6402295e+00   1.6061065e-01  -1.6768457e+08
   2.9209737e-10  -3.9938194e-02   3.6295398e+00   1.6223820e-01  -1.6693646e+08
   2.9309770e-10  -3.9771578e-02   3.6188851e+00   1.6387288e-01  -1.6619192e+08
   2.9409803e-10  -3.9605705e-02   3.6082655e+00   1.6551464e-01  -1.6545092e+08
   2.9509837e-10  -3.9440571e-02   3.5976811e+00   1.6716341e-01  -1.6471345e+08
   2.9609870e-10  -3.9276173e-02   3.5871321e+00   1.6881915e-01  -1.6397951e+08
   2.9709903e-10  -3.9112507e-02   3.5766185e+00   1.7048178e-01  -1.6324907e+08
   2.9809937e-10  -3.8949571e-02   3.5661406e+00   1.7215126e-01  -1.6252212e+08
   2.9909970e-10  -3.8787360e-02   3.5556984e+00   1.7382752e-01  -1.6179865e+08
   3.0010003e-10  -3.8625870e-02   3.5452921e+00   1.7551051e-01  -1.6107865e+08
   3.0110037e-10  -3.8465100e-02   3.5349217e+00   1.7720016e-01  -1.6036210e+08
   3.0210070e-10  -3.8305044e-02   3.5245874e+00   1.7889641e-01  -1.5964899e+08
   3.0310103e-10  -3.8145700e-02   3.5142893e+00   1.8059921e-01  -1.5893930e+08
   3.0410137e-10  -3.7987064e-02   3.5040275e+00   1.8230849e-01  -1.5823302e+08
   3.0510170e-10  -3.7829132e-02   3.4938021e+00   1.8402419e-01  -1.5753013e+08
   3.0610203e-10  -3.7671902e-02   3.4836131e+00   1.8574625e-01  -1.5683063e+08
   3.0710237e-10  -3.7515371e-02   3.4734607e+00   1.8747462e-01  -1.5613450e+08
   3.0810270e-10  -3.7359533e-02   3.4633449e+00   1.8920922e-01  -1.5544171e+08
   3.0910303e-10  -3.7204387e-02   3.4532658e+00   1.9095000e-01  -1.5475227e+08
   3.1010337e-10  -3.7049929e-02   3.4432234e+00   1.9269690e-01  -1.5406615e+08
   3.1110370e-10  -3.6896156e-02   3.4332179e+00   1.9444985e-01  -1.5338334e+08
   3.1210403e-10  -3.6743064e-02   3.4232493e+00   1.9620880e-01  -1.5270383e+08
   3.1310437e-10  -3.6590650e-02   3.4133177e+00   1.9797367e-01  -1.5202760e+08
   3.1410470e-10  -3.6438911e-02   3.4034231e+00   1.9974441e-01  -1.5135463e+08
   3.1510504e-10  -3.6287844e-02   3.3935655e+00   2.0152095e-01  -1.5068492e+08
   3.1610537e-10  -3.6137444e-02   3.3837450e+00   2.0330324e-01  -1.5001845e+08
   3.1710570e-10  -3.5987710e-02   3.3739617e+00   2.0509120e-01  -1.4935520e+08
   3.1810604e-10  -3.5838638e-02   3.3642155e+00   2.0688479e-01  -1.4869515e+08
   3.1910637e-10  -3.5690224e-02   3.3545066e+00   2.0868392e-01  -1.4803831e+08
   3.2010670e-10  -3.5542465e-02   3.3448349e+00   2.1048855e-01  -1.4738464e+08
   3.2110704e-10  -3.5395359e-02   3.3352005e+00   2.1229860e-01  -1.4673414e+08
   3.2210737e-10  -3.5248902e-02   3.3256034e+00   2.1411402e-01  -1.4608678e+08
   3.2310770e-10  -3.5103091e-02   3.3160436e+00   2.1593474e-01  -1.4544257e+08
   3.2410804e-10  -3.4957923e-02   3.3065211e+00   2.1776070e-01  -1.4480147e+08
   3.2510837e-10  -3.4813395e-02   3.2970360e+00   2.1959183e-01  -1.4416349e+08
   3.2610870e-10  -3.4669503e-02   3.2875882e+00   2.2142808e-01  -1.4352859e+08
   3.2710904e-10  -3.4526244e-02   3.2781777e+00   2.2326937e-01  -1.4289678e+08
   3.2810937e-10  -3.4383617e-02   3.2688046e+00   2.2511564e-01  -1.4226802e+08
   3.2910970e-10  -3.4241616e-02   3.2594689e+00   2.2696684e-01  -1.4164232e+08
   3.3011004e-10  -3.4100240e-02   3.2501705e+00   2.2882290e-01  -1.4101965e+08
   3.3111037e-10  -3.3959485e-02   3.2409095e+00   2.3068375e-01  -1.4040000e+08
   3.3211070e-10  -3.3819349e-02   3.2316858e+00   2.3254933e-01  -1.3978335e+08
   3.3311104e-10  -3.3679828e-02   3.2224994e+00   2.3441958e-01  -1.3916970e+08
   3.3411137e-10  -3.3540919e-02   3.2133503e+00   2.3629443e-01  -1.3855902e+08
   3.3511170e-10  -3.3402620e-02   3.2042385e+00   2.3817382e-01  -1.3795130e+08
   3.3611204e-10  -3.3264927e-02   3.1951640e+00   2.4005770e-01  -1.3734653e+08
   3.3711237e-10  -3.3127837e-02   3.1861267e+00   2.4194598e-01  -1.3674469e+08
   3.3811270e-10  -3.2991348e-02   3.1771266e+00   2.4383862e-01  -1.3614577e+08
   3.3911304e-10  -3.2855457e-02   3.1681637e+00   2.4573555e-01  -1.3554975e+08
   3.4011337e-10  -3.2720160e-02   3.1592379e+00   2.4763670e-01  -1.3495662e+08
   3.4111370e-10  -3.2585456e-02   3.1503492e+00   2.4954201e-01  -1.3436637e+08
   3.4211404e-10  -3.2451340e-02   3.1414976e+00   2.5145143e-01  -1.3377898e+08
   3.4311437e-10  -3.2317811e-02   3.1326830e+00   2.5336488e-01  -1.3319443e+08
   3.4411470e-10  -3.2184864e-02   3.1239054e+00   2.5528231e-01  -1.3261272e+08
   3.4511504e-10  -3.2052499e-02   3.1151648e+00   2.5720365e-01  -1.3203382e+08
   3.4611537e-10  -3.1920710e-02   3.1064610e+00   2.5912883e-01  -1.3145772e+08
   3.4711571e-10  -3.1789497e-02   3.0977941e+00   2.6105781e-01  -1.3088442e+08
   3.4811604e-10  -3.1658856e-02   3.0891639e+00   2.6299051e-01  -1.3031389e+08
   3.4911637e-10  -3.1528784e-02   3.0805705e+00   2.6492687e-01  -1.2974612e+08
   3.5011671e-10  -3.1399279e-02   3.0720138e+00   2.6686684e-01  -1.2918110e+08
   3.5111704e-10  -3.1270337e-02   3.0634937e+00   2.6881034e-01  -1.2861881e+08
   3.5211737e-10  -3.1141957e-02   3.0550101e+00   2.7075732e-01  -1.2805924e+08
   3.5311771e-10  -3.1014135e-02   3.0465631e+00   2.7270772e-01  -1.2750237e+08
   3.5411804e-10  -3.0886869e-02   3.0381524e+00   2.7466147e-01  -1.2694820e+08
   3.5511837e-10  -3.0760155e-02   3.0297782e+00   2.7661852e-01  -1.2639670e+08
   3.5611871e-10  -3.0633992e-02   3.0214402e+00   2.7857880e-01  -1.2584786e+08
   3.5711904e-10  -3.0508377e-02   3.0131385e+00   2.8054225e-01  -1.2530168e+08
   3.5811937e-10  -3.0383307e-02   3.0048729e+00   2.8250881e-01  -1.2475813e+08
   3.5911971e-10  -3.0258779e-02   2.9966434e+00   2.8447843e-01  -1.2421720e+08
   3.6012004e-10  -3.0134791e-02   2.9884499e+00   2.8645103e-01  -1.2367888e+08
   3.6112037e-10  -3.0011340e-02   2.9802923e+00   2.8842657e-01  -1.2314315e+08
   3.6212071e-10  -2.9888424e-02   2.9721706e+00   2.9040497e-01  -1.2261000e+08
   3.6312104e-10  -2.9766039e-02   2.9640846e+00   2.9238619e-01  -1.2207942e+08
   3.6412137e-10  -2.9644185e-02   2.9560343e+00   2.9437015e-01  -1.2155140e+08
   3.6512171e-10  -2.9522857e-02   2.9480197e+00   2.9635681e-01  -1.2102591e+08
   3.6612204e-10  -2.9402053e-02   2.9400405e+00   2.9834610e-01  -1.2050295e+08
   3.6712237e-10  -2.9281771e-02   2.9320968e+00   3.0033797e-01  -1.1998251e+08
   3.6812271e-10  -2.9162009e-02   2.9241884e+00   3.0233235e-01  -1.1946456e+08
   3.6912304e-10  -2.9042764e-02   2.9163153e+00   3.0432918e-01  -1.1894911e+08
   3.7012337e-10  -2.8924033e-02   2.9084774e+00   3.0632842e-01  -1.1843612e+08
   3.7112371e-10  -2.8805813e-02   2.9006745e+00   3.0832999e-01  -1.1792560e+08
   3.7212404e-10  -2.8688104e-02   2.8929066e+00   3.1033385e-01  -1.1741752e+08
   3.7312437e-10  -2.8570901e-02   2.8851736e+00   3.1233994e-01  -1.1691188e+08
   3.7412471e-10  -2.8454203e-02   2.8774753e+00   3.1434819e-01  -1.1640866e+08
   3.7512504e-10  -2.8338007e-02   2.8698118e+00   3.1635855e-01  -1.1590785e+08
   3.7612538e-10  -2.8222311e-02   2.8621829e+00   3.1837097e-01  -1.1540944e+08
   3.7712571e-10  -2.8107112e-02   2.8545885e+00   3.2038538e-01  -1.1491341e+08
   3.7812604e-10  -2.7992408e-02   2.8470285e+00   3.2240173e-01  -1.1441974e+08
   3.7912638e-10  -2.7878197e-02   2.8395027e+00   3.2441997e-01  -1.1392844e+08
   3.8012671e-10  -2.7764476e-02   2.8320112e+00   3.2644004e-01  -1.1343948e+08
   3.8112704e-10  -2.7651243e-02   2.8245538e+00   3.2846188e-01  -1.1295285e+08
   3.8212738e-10  -2.7538495e-02   2.8171304e+00   3.3048544e-01  -1.1246855e+08
   3.8312771e-10  -2.7426231e-02   2.8097408e+00   3.3251066e-01  -1.1198655e+08
   3.8412804e-10  -2.7314448e-02   2.8023851e+00   3.3453749e-01  -1.1150684e+08
   3.8512838e-10  -2.7203144e-02   2.7950630e+00   3.3656588e-01  -1.1102942e+08
   3.8612871e-10  -2.7092316e-02   2.7877745e+00   3.3859576e-01  -1.1055427e+08
   3.8712904e-10  -2.6981962e-02   2.7805195e+00   3.4062709e-01  -1.1008138e+08
   3.8812938e-10  -2.6872080e-02   2.7732978e+00   3.4265981e-01  -1.0961073e+08
   3.8912971e-10  -2.6762668e-02   2.7661094e+00   3.4469387e-01  -1.0914231e+08
   3.9013004e-10  -2.6653724e-02   2.7589541e+00   3.4672922e-01  -1.0867612e+08
   3.9113038e-10  -2.6545244e-02   2.7518318e+00   3.4876579e-01  -1.0821214e+08
   3.9213071e-10  -2.6437228e-02   2.7447425e+00   3.5080355e-01  -1.0775035e+08
   3.9313104e-10  -2.6329672e-02   2.7376859e+00   3.5284243e-01  -1.0729076e+08
   3.9413138e-10  -2.6222575e-02   2.7306621e+00   3.5488239e-01  -1.0683333e+08
   3.9513171e-10  -2.6115934e-02   2.7236708e+00   3.5692338e-01  -1.0637807e+08
   3.9613204e-10  -2.6009748e-02   2.7167120e+00   3.5896533e-01  -1.0592496e+08
   3.9713238e-10  -2.5904014e-02   2.7097856e+00   3.6100821e-01  -1.0547398e+08
   3.9813271e-10  -2.5798730e-02   2.7028914e+00   3.6305195e-01  -1.0502514e+08
   3.9913304e-10  -2.5693894e-02   2.6960293e+00   3.6509652e-01  -1.0457841e+08
   4.0013338e-10  -2.5589504e-02   2.6891992e+00   3.6714185e-01  -1.0413379e+08
   4.0113371e-10  -2.5485558e-02   2.6824011e+00   3.6918791e-01  -1.0369125e+08
   4.0213404e-10  -2.5382053e-02   2.6756347e+00   3.7123463e-01  -1.0325080e+08
   4.0313438e-10  -2.5278988e-02   2.6688999e+00   3.7328197e-01  -1.0281242e+08
   4.0413471e-10  -2.5176360e-02   2.6621967e+00   3.7532989e-01  -1.0237610e+08
   4.0513505e-10  -2.5074167e-02   2.6555250e+00   3.7737833e-01  -1.0194183e+08
   4.0613538e-10  -2.4972408e-02   2.6488845e+00   3.7942724e-01  -1.0150960e+08
   4.0713571e-10  -2.4871081e-02   2.6422753e+00   3.8147657e-01  -1.0107939e+08
   4.0813605e-10  -2.4770182e-02   2.6356971e+00   3.8352628e-01  -1.0065119e+08
   4.0913638e-10  -2.4669711e-02   2.6291499e+00   3.8557633e-01  -1.0022500e+08
   4.1013671e-10  -2.4569666e-02   2.6226335e+00   3.8762665e-01  -9.9800806e+07
   4.1113705e-10  -2.4470044e-02   2.6161478e+00   3.8967721e-01  -9.9378592e+07
   4.1213738e-10  -2.4370843e-02   2.6096927e+00   3.9172796e-01  -9.8958349e+07
   4.1313771e-10  -2.4272061e-02   2.6032682e+00   3.9377886e-01  -9.8540067e+07
   4.1413805e-10  -2.4173697e-02   2.5968739e+00   3.9582985e-01  -9.8123736e+07
   4.1513838e-10  -2.4075748e-02   2.5905099e+00   3.9788088e-01  -9.7709345e+07
   4.1613871e-10  -2.3978213e-02   2.5841761e+00   3.9993193e-01  -9.7296882e+07
   4.1713905e-10  -2.3881090e-02   2.5778722e+00   4.0198293e-01  -9.6886339e+07
   4.1813938e-10  -2.3784376e-02   2.5715982e+00   4.0403385e-01  -9.6477705e+07
   4.1913971e-10  -2.3688070e-02   2.5653540e+00   4.0608465e-01  -9.6070968e+07
   4.2014005e-10  -2.3592170e-02   2.5591394e+00   4.0813526e-01  -9.5666120e+07
   4.2114038e-10  -2.3496674e-02   2.5529543e+00   4.1018566e-01  -9.5263149e+07
   4.2214071e-10  -2.3401580e-02   2.5467986e+00   4.1223580e-01  -9.4862047e+07
   4.2314105e-10  -2.3306887e-02   2.5406722e+00   4.1428563e-01  -9.4462801e+07
   4.2414138e-10  -2.3212592e-02   2.5345750e+00   4.1633512e-01  -9.4065403e+07
   4.2514171e-10  -2.3118693e-02   2.5285068e+00   4.1838422e-01  -9.3669843e+07
   4.2614205e-10  -2.3025190e-02   2.5224675e+00   4.2043288e-01  -9.3276110e+07
   4.2714238e-10  -2.2932079e-02   2.5164570e+00   4.2248107e-01  -9.2884196e+07
   4.2814271e-10  -2.2839360e-02   2.5104752e+00   4.2452875e-01  -9.2494089e+07
   4.2914305e-10  -2.2747029e-02   2.5045219e+00   4.2657586e-01  -9.2105780e+07
   4.3014338e-10  -2.2655087e-02   2.4985970e+00   4.2862238e-01  -9.1719260e+07
   4.3114371e-10  -2.2563530e-02   2.4927005e+00   4.3066826e-01  -9.1334520e+07
   4.3214405e-10  -2.2472357e-02   2.4868322e+00   4.3271345e-01  -9.0951548e+07
   4.3314438e-10  -2.2381566e-02   2.4809919e+00   4.3475793e-01  -9.0570337e+07
   4.3414471e-10  -2.2291156e-02   2.4751796e+00   4.3680164e-01  -9.0190875e+07
   4.3514505e-10  -2.2201124e-02   2.4693951e+00   4.3884456e-01  -8.9813156e+07
   4.3614538e-10  -2.2111469e-02   2.4636383e+00   4.4088664e-01  -8.9437167e+07
   4.3714572e-10  -2.2022190e-02   2.4579091e+00   4.4292784e-01  -8.9062902e+07
   4.3814605e-10  -2.1933284e-02   2.4522074e+00   4.4496812e-01  -8.8690349e+07
   4.3914638e-10  -2.1844750e-02   2.4465330e+00   4.4700745e-01  -8.8319501e+07
   4.4014672e-10  -2.1756586e-02   2.4408858e+00   4.4904578e-01  -8.7950347e+07
   4.4114705e-10  -2.1668791e-02   2.4352658e+00   4.5108308e-01  -8.7582879e+07
   4.4214738e-10  -2.1581362e-02   2.4296727e+00   4.5311932e-01  -8.7217089e+07
   4.4314772e-10  -2.1494298e-02   2.4241065e+00   4.5515445e-01  -8.6852966e+07
   4.4414805e-10  -2.1407598e-02   2.4185671e+00   4.5718844e-01  -8.6490502e+07
   4.4514838e-10  -2.1321260e-02   2.4130543e+00   4.5922125e-01  -8.6129689e+07
   4.4614872e-10  -2.1235281e-02   2.4075680e+00   4.6125284e-01  -8.5770517e+07
   4.4714905e-10  -2.1149661e-02   2.4021081e+00   4.6328318e-01  -8.5412977e+07
   4.4814938e-10  -2.1064398e-02   2.3966745e+00   4.6531224e-01  -8.5057062e+07
   4.4914972e-10  -2.0979490e-02   2.3912670e+00   4.6733997e-01  -8.4702762e+07
   4.5015005e-10  -2.0894936e-02   2.3858855e+00   4.6936635e-01  -8.4350068e+07
   4.5115038e-10  -2.0810734e-02   2.3805300e+00   4.7139134e-01  -8.3998973e+07
   4.5215072e-10  -2.0726882e-02   2.3752003e+00   4.7341490e-01  -8.3649468e+07
   4.5315105e-10  -2.0643379e-02   2.3698963e+00   4.7543700e-01  -8.3301544e+07
   4.5415138e-10  -2.0560223e-02   2.3646178e+00   4.7745760e-01  -8.2955193e+07
   4.5515172e-10  -2.0477413e-02   2.3593648e+00   4.7947668e-01  -8.2610407e+07
   4.5615205e-10  -2.0394947e-02   2.3541371e+00   4.8149420e-01  -8.2267177e+07
   4.5715238e-10  -2.0312824e-02   2.3489347e+00   4.8351013e-01  -8.1925496e+07
   4.5815272e-10  -2.0231041e-02   2.3437573e+00   4.8552443e-01  -8.1585354e+07
   4.5915305e-10  -2.0149598e-02   2.3386049e+00   4.8753707e-01  -8.1246745e+07
   4.6015338e-10  -2.0068494e-02   2.3334774e+00   4.8954802e-01  -8.0909659e+07
   4.6115372e-10  -1.9987725e-02   2.3283747e+00   4.9155725e-01  -8.0574089e+07
   4.6215405e-10  -1.9907291e-02   2.3232965e+00   4.9356473e-01  -8.0240027e+07
   4.6315438e-10  -1.9827191e-02   2.3182429e+00   4.9557042e-01  -7.9907465e+07
   4.6415472e-10  -1.9747423e-02   2.3132138e+00   4.9757430e-01  -7.9576395e+07
   4.6515505e-10  -1.9667985e-02   2.3082089e+00   4.9957633e-01  -7.9246810e+07
   4.6615539e-10  -1.9588876e-02   2.3032282e+00   5.0157649e-01  -7.8918700e+07
   4.6715572e-10  -1.9510095e-02   2.2982715e+00   5.0357474e-01  -7.8592060e+07
   4.6815605e-10  -1.9431640e-02   2.2933388e+00   5.0557105e-01  -7.8266881e+07
   4.6915639e-10  -1.9353509e-02   2.2884300e+00   5.0756540e-01  -7.7943155e+07
   4.7015672e-10  -1.9275701e-02   2.2835449e+00   5.0955775e-01  -7.7620875e+07
   4.7115705e-10  -1.9198215e-02   2.2786834e+00   5.1154808e-01  -7.7300034e+07
   4.7215739e-10  -1.9121050e-02   2.2738454e+00   5.1353636e-01  -7.6980623e+07
   4.7315772e-10  -1.9044203e-02   2.2690308e+00   5.1552256e-01  -7.6662636e+07
   4.7415805e-10  -1.8967673e-02   2.2642395e+00   5.1750666e-01  -7.6346065e+07
   4.7515839e-10  -1.8891459e-02   2.2594713e+00   5.1948861e-01  -7.6030903e+07
   4.7615872e-10  -1.8815560e-02   2.2547262e+00   5.2146841e-01  -7.5717142e+07
   4.7715905e-10  -1.8739974e-02   2.2500041e+00   5.2344601e-01  -7.5404775e+07
   4.7815939e-10  -1.8664700e-02   2.2453048e+00   5.2542140e-01  -7.5093795e+07
   4.7915972e-10  -1.8589736e-02   2.2406282e+00   5.2739454e-01  -7.4784195e+07
   4.8016005e-10  -1.8515082e-02   2.2359743e+00   5.2936541e-01  -7.4475967e+07
   4.8116039e-10  -1.8440735e-02   2.2313429e+00   5.3133399e-01  -7.4169105e+07
   4.8216072e-10  -1.8366694e-02   2.2267338e+00   5.3330025e-01  -7.3863602e+07
   4.8316105e-10  -1.8292958e-02   2.2221471e+00   5.3526416e-01  -7.3559450e+07
   4.8416139e-10  -1.8219526e-02   2.2175826e+00   5.3722569e-01  -7.3256643e+07
   4.8516172e-10  -1.8146396e-02   2.2130401e+00   5.3918483e-01  -7.2955174e+07
   4.8616205e-10  -1.8073566e-02   2.2085196e+00   5.4114155e-01  -7.2655035e+07
   4.8716239e-10  -1.8001037e-02   2.2040210e+00   5.4309582e-01  -7.2356220e+07
   4.8816272e-10  -1.7928806e-02   2.1995441e+00   5.4504762e-01  -7.2058723e+07
   4.8916305e-10  -1.7856871e-02   2.1950889e+00   5.4699693e-01  -7.1762536e+07
   4.9016339e-10  -1.7785232e-02   2.1906553e+00   5.4894372e-01  -7.1467653e+07
   4.9116372e-10  -1.7713888e-02   2.1862431e+00   5.5088797e-01  -7.1174067e+07
   4.9216405e-10  -1.7642837e-02   2.1818522e+00   5.5282965e-01  -7.0881771e+07
   4.9316439e-10  -1.7572077e-02   2.1774826e+00   5.5476875e-01  -7.0590760e+07
   4.9416472e-10  -1.7501608e-02   2.1731341e+00   5.5670523e-01  -7.0301026e+07
   4.9516506e-10  -1.7431428e-02   2.1688066e+00   5.5863908e-01  -7.0012563e+07
   4.9616539e-10  -1.7361536e-02   2.1645000e+00   5.6057028e-01  -6.9725365e+07
   4.9716572e-10  -1.7291930e-02   2.1602143e+00   5.6249881e-01  -6.9439424e+07
   4.9816606e-10  -1.7222610e-02   2.1559493e+00   5.6442463e-01  -6.9154736e+07
   4.9916639e-10  -1.7153574e-02   2.1517049e+00   5.6634774e-01  -6.8871292e+07
   5.0016672e-10  -1.7084822e-02   2.1474811e+00   5.6826811e-01  -6.8589088e+07
   5.0116706e-10  -1.7016350e-02   2.1432776e+00   5.7018571e-01  -6.8308117e+07
   5.0216739e-10  -1.6948160e-02   2.1390945e+00   5.7210054e-01  -6.8028372e+07
   5.0316772e-10  -1.6880248e-02   2.1349316e+00   5.7401256e-01  -6.7749848e+07
   5.0416806e-10  -1.6812614e-02   2.1307888e+00   5.7592176e-01  -6.7472538e+07
   5.0516839e-10  -1.6745258e-02   2.1266660e+00   5.7782812e-01  -6.7196437e+07
   5.0616872e-10  -1.6678177e-02   2.1225631e+00   5.7973162e-01  -6.6921538e+07
   5.0716906e-10  -1.6611370e-02   2.1184800e+00   5.8163223e-01  -6.6647834e+07
   5.0816939e-10  -1.6544836e-02   2.1144167e+00   5.8352995e-01  -6.6375321e+07
   5.0916972e-10  -1.6478575e-02   2.1103730e+00   5.8542475e-01  -6.6103993e+07
   5.1017006e-10  -1.6412584e-02   2.1063488e+00   5.8731661e-01  -6.5833842e+07
   5.1117039e-10  -1.6346863e-02   2.1023440e+00   5.8920552e-01  -6.5564864e+07
   5.1217072e-10  -1.6281410e-02   2.0983586e+00   5.9109145e-01  -6.5297053e+07
   5.1317106e-10  -1.6216225e-02   2.0943924e+00   5.9297439e-01  -6.5030402e+07
   5.1417139e-10  -1.6151306e-02   2.0904454e+00   5.9485433e-01  -6.4764906e+07
   5.1517172e-10  -1.6086652e-02   2.0865173e+00   5.9673123e-01  -6.4500560e+07
   5.1617206e-10  -1.6022261e-02   2.0826083e+00   5.9860509e-01  -6.4237357e+07
   5.1717239e-10  -1.5958134e-02   2.0787181e+00   6.0047589e-01  -6.3975292e+07
   5.1817272e-10  -1.5894268e-02   2.0748466e+00   6.0234362e-01  -6.3714359e+07
   5.1917306e-10  -1.5830662e-02   2.0709938e+00   6.0420825e-01  -6.3454553e+07
   5.2017339e-10  -1.5767316e-02   2.0671596e+00   6.0606976e-01  -6.3195869e+07
   5.2117372e-10  -1.5704228e-02   2.0633439e+00   6.0792816e-01  -6.2938299e+07
   5.2217406e-10  -1.5641397e-02   2.0595465e+00   6.0978340e-01  -6.2681840e+07
   5.2317439e-10  -1.5578822e-02   2.0557675e+00   6.1163550e-01  -6.2426486e+07
   5.2417472e-10  -1.5516503e-02   2.0520066e+00   6.1348441e-01  -6.2172230e+07
   5.2517506e-10  -1.5454436e-02   2.0482639e+00   6.1533014e-01  -6.1919069e+07
   5.2617539e-10  -1.5392623e-02   2.0445391e+00   6.1717266e-01  -6.1666996e+07
   5.2717573e-10  -1.5331061e-02   2.0408324e+00   6.1901197e-01  -6.1416006e+07
   5.2817606e-10  -1.5269750e-02   2.0371434e+00   6.2084804e-01  -6.1166093e+07
   5.2917639e-10  -1.5208688e-02   2.0334722e+00   6.2268087e-01  -6.0917254e+07
   5.3017673e-10  -1.5147874e-02   2.0298187e+00   6.2451043e-01  -6.0669481e+07
   5.3117706e-10  -1.5087308e-02   2.0261827e+00   6.2633672e-01  -6.0422771e+07
   5.3217739e-10  -1.5026988e-02   2.0225642e+00   6.2815971e-01  -6.0177118e+07
   5.3317773e-10  -1.4966913e-02   2.0189631e+00   6.2997941e-01  -5.9932516e+07
   5.3417806e-10  -1.4907083e-02   2.0153794e+00   6.3179579e-01  -5.9688962e+07
   5.3517839e-10  -1.4847495e-02   2.0118128e+00   6.3360884e-01  -5.9446448e+07
   5.3617873e-10  -1.4788150e-02   2.0082634e+00   6.3541854e-01  -5.9204972e+07
   5.3717906e-10  -1.4729046e-02   2.0047310e+00   6.3722489e-01  -5.8964527e+07
   5.3817939e-10  -1.4670181e-02   2.0012156e+00   6.3902788e-01  -5.8725108e+07
   5.3917973e-10  -1.4611556e-02   1.9977171e+00   6.4082748e-01  -5.8486711e+07
   5.4018006e-10  -1.4553169e-02   1.9942353e+00   6.4262369e-01  -5.8249331e+07
   5.4118039e-10  -1.4495018e-02   1.9907703e+00   6.4441650e-01  -5.8012962e+07
   5.4218073e-10  -1.4437104e-02   1.9873219e+00   6.4620590e-01  -5.7777600e+07
   5.4318106e-10  -1.4379424e-02   1.9838900e+00   6.4799186e-01  -5.7543240e+07
   5.4418139e-10  -1.4321979e-02   1.9804746e+00   6.4977439e-01  -5.7309878e+07
   5.4518173e-10  -1.4264766e-02   1.9770755e+00   6.5155347e-01  -5.7077508e+07
   5.4618206e-10  -1.4207786e-02   1.9736927e+00   6.5332908e-01  -5.6846125e+07
   5.4718239e-10  -1.4151036e-02   1.9703262e+00   6.5510123e-01  -5.6615726e+07
   5.4818273e-10  -1.4094516e-02   1.9669757e+00   6.5686989e-01  -5.6386305e+07
   5.4918306e-10  -1.4038225e-02   1.9636413e+00   6.5863507e-01  -5.6157857e+07
   5.5018339e-10  -1.3982163e-02   1.9603229e+00   6.6039673e-01  -5.5930378e+07
   5.5118373e-10  -1.3926327e-02   1.9570204e+00   6.6215489e-01  -5.5703864e+07
   5.5218406e-10  -1.3870718e-02   1.9537336e+00   6.6390952e-01  -5.5478309e+07
   5.5318439e-10  -1.3815333e-02   1.9504626e+00   6.6566063e-01  -5.5253710e+07
   5.5418473e-10  -1.3760173e-02   1.9472072e+00   6.6740819e-01  -5.5030061e+07
   5.5518506e-10  -1.3705236e-02   1.9439673e+00   6.6915220e-01  -5.4807358e+07
   5.5618540e-10  -1.3650521e-02   1.9407430e+00   6.7089265e-01  -5.4585597e+07
   5.5718573e-10  -1.3596028e-02   1.9375340e+00   6.7262953e-01  -5.4364772e+07
   5.5818606e-10  -1.3541755e-02   1.9343404e+00   6.7436283e-01  -5.4144881e+07
   5.5918640e-10  -1.3487702e-02   1.9311620e+00   6.7609255e-01  -5.3925918e+07
   5.6018673e-10  -1.3433867e-02   1.9279988e+00   6.7781867e-01  -5.3707879e+07
   5.6118706e-10  -1.3380250e-02   1.9248507e+00   6.7954119e-01  -5.3490759e+07
   5.6218740e-10  -1.3326850e-02   1.9217176e+00   6.8126010e-01  -5.3274555e+07
   5.6318773e-10  -1.3273665e-02   1.9185995e+00   6.8297539e-01  -5.3059262e+07
   5.6418806e-10  -1.3220696e-02   1.9154962e+00   6.8468705e-01  -5.2844875e+07
   5.6518840e-10  -1.3167940e-02   1.9124077e+00   6.8639508e-01  -5.2631390e+07
   5.6618873e-10  -1.3115398e-02   1.9093339e+00   6.8809946e-01  -5.2418804e+07
   5.6718906e-10  -1.3063067e-02   1.9062747e+00   6.8980020e-01  -5.2207112e+07
   5.6818940e-10  -1.3010948e-02   1.9032301e+00   6.9149728e-01  -5.1996309e+07
   5.6918973e-10  -1.2959040e-02   1.9002000e+00   6.9319070e-01  -5.1786393e+07
   5.7019006e-10  -1.2907341e-02   1.8971844e+00   6.9488045e-01  -5.1577357e+07
   5.7119040e-10  -1.2855851e-02   1.8941830e+00   6.9656652e-01  -5.1369199e+07
   5.7219073e-10  -1.2804568e-02   1.8911960e+00   6.9824891e-01  -5.1161914e+07
   5.7319106e-10  -1.2753492e-02   1.8882231e+00   6.9992761e-01  -5.0955499e+07
   5.7419140e-10  -1.2702623e-02   1.8852644e+00   7.0160261e-01  -5.0749948e+07
   5.7519173e-10  -1.2651958e-02   1.8823197e+00   7.0327392e-01  -5.0545259e+07
   5.7619206e-10  -1.2601498e-02   1.8793890e+00   7.0494151e-01  -5.0341427e+07
   5.7719240e-10  -1.2551242e-02   1.8764722e+00   7.0660539e-01  -5.0138448e+07
   5.7819273e-10  -1.2501188e-02   1.8735692e+00   7.0826556e-01  -4.9936318e+07
   5.7919306e-10  -1.2451336e-02   1.8706801e+00   7.0992200e-01  -4.9735034e+07
   5.8019340e-10  -1.2401684e-02   1.8678046e+00   7.1157471e-01  -4.9534591e+07
   5.8119373e-10  -1.2352233e-02   1.8649428e+00   7.1322369e-01  -4.9334985e+07
   5.8219406e-10  -1.2302981e-02   1.8620945e+00   7.1486892e-01  -4.9136213e+07
   5.8319440e-10  -1.2253928e-02   1.8592597e+00   7.1651042e-01  -4.8938271e+07
   5.8419473e-10  -1.2205072e-02   1.8564384e+00   7.1814816e-01  -4.8741155e+07
   5.8519507e-10  -1.2156413e-02   1.8536304e+00   7.1978215e-01  -4.8544861e+07
   5.8619540e-10  -1.2107949e-02   1.8508357e+00   7.2141239e-01  -4.8349385e+07
   5.8719573e-10  -1.2059681e-02   1.8480542e+00   7.2303886e-01  -4.8154724e+07
   5.8819607e-10  -1.2011608e-02   1.8452859e+00   7.2466157e-01  -4.7960874e+07
   5.8919640e-10  -1.1963727e-02   1.8425306e+00   7.2628050e-01  -4.7767831e+07
   5.9019673e-10  -1.1916040e-02   1.8397884e+00   7.2789567e-01  -4.7575592e+07
   5.9119707e-10  -1.1868544e-02   1.8370591e+00   7.2950705e-01  -4.7384153e+07
   5.9219740e-10  -1.1821240e-02   1.8343428e+00   7.3111465e-01  -4.7193509e+07
   5.9319773e-10  -1.1774126e-02   1.8316392e+00   7.3271847e-01  -4.7003658e+07
   5.9419807e-10  -1.1727201e-02   1.8289484e+00   7.3431850e-01  -4.6814596e+07
   5.9519840e-10  -1.1680465e-02   1.8262703e+00   7.3591474e-01  -4.6626320e+07
   5.9619873e-10  -1.1633917e-02   1.8236049e+00   7.3750719e-01  -4.6438825e+07
   5.9719907e-10  -1.1587556e-02   1.8209520e+00   7.3909584e-01  -4.6252108e+07
   5.9819940e-10  -1.1541382e-02   1.8183116e+00   7.4068069e-01  -4.6066166e+07
   5.9919973e-10  -1.1495393e-02   1.8156836e+00   7.4226174e-01  -4.5880996e+07
   6.0020007e-10  -1.1449589e-02   1.8130681e+00   7.4383898e-01  -4.5696592e+07
   6.0120040e-10  -1.1403969e-02   1.8104648e+00   7.4541241e-01  -4.5512953e+07
   6.0220073e-10  -1.1358532e-02   1.8078738e+00   7.4698204e-01  -4.5330075e+07
   6.0320107e-10  -1.1313278e-02   1.8052950e+00   7.4854785e-01  -4.5147954e+07
   6.0420140e-10  -1.1268206e-02   1.8027283e+00   7.5010985e-01  -4.4966587e+07
   6.0520173e-10  -1.1223315e-02   1.8001737e+00   7.5166803e-01  -4.4785971e+07
   6.0620207e-10  -1.1178604e-02   1.7976310e+00   7.5322240e-01  -4.4606101e+07
   6.0720240e-10  -1.1134073e-02   1.7951004e+00   7.5477294e-01  -4.4426975e+07
   6.0820273e-10  -1.1089720e-02   1.7925816e+00   7.5631967e-01  -4.4248590e+07
   6.0920307e-10  -1.1045546e-02   1.7900746e+00   7.5786257e-01  -4.4070942e+07
   6.1020340e-10  -1.1001549e-02   1.7875794e+00   7.5940165e-01  -4.3894027e+07
   6.1120373e-10  -1.0957728e-02   1.7850959e+00   7.6093690e-01  -4.3717843e+07
   6.1220407e-10  -1.0914084e-02   1.7826241e+00   7.6246833e-01  -4.3542386e+07
   6.1320440e-10  -1.0870614e-02   1.7801638e+00   7.6399593e-01  -4.3367653e+07
   6.1420473e-10  -1.0827319e-02   1.7777150e+00   7.6551970e-01  -4.3193640e+07
   6.1520507e-10  -1.0784198e-02   1.7752778e+00   7.6703964e-01  -4.3020345e+07
   6.1620540e-10  -1.0741250e-02   1.7728519e+00   7.6855575e-01  -4.2847765e+07
   6.1720574e-10  -1.0698474e-02   1.7704374e+00   7.7006804e-01  -4.2675895e+07
   6.1820607e-10  -1.0655869e-02   1.7680342e+00   7.7157649e-01  -4.2504733e+07
   6.1920640e-10  -1.0613436e-02   1.7656422e+00   7.7308111e-01  -4.2334276e+07
   6.2020674e-10  -1.0571172e-02   1.7632615e+00   7.7458190e-01  -4.2164521e+07
   6.2120707e-10  -1.0529078e-02   1.7608918e+00   7.7607886e-01  -4.1995464e+07
   6.2220740e-10  -1.0487153e-02   1.7585332e+00   7.7757198e-01  -4.1827102e+07
   6.2320774e-10  -1.0445396e-02   1.7561856e+00   7.7906128e-01  -4.1659433e+07
   6.2420807e-10  -1.0403806e-02   1.7538490e+00   7.8054674e-01  -4.1492453e+07
   6.2520840e-10  -1.0362383e-02   1.7515233e+00   7.8202837e-01  -4.1326159e+07
   6.2620874e-10  -1.0321126e-02   1.7492085e+00   7.8350618e-01  -4.1160548e+07
   6.2720907e-10  -1.0280034e-02   1.7469044e+00   7.8498015e-01  -4.0995617e+07
   6.2820940e-10  -1.0239107e-02   1.7446111e+00   7.8645029e-01  -4.0831364e+07
   6.2920974e-10  -1.0198344e-02   1.7423284e+00   7.8791660e-01  -4.0667784e+07
   6.3021007e-10  -1.0157744e-02   1.7400564e+00   7.8937908e-01  -4.0504876e+07
   6.3121040e-10  -1.0117307e-02   1.7377950e+00   7.9083774e-01  -4.0342636e+07
   6.3221074e-10  -1.0077032e-02   1.7355441e+00   7.9229257e-01  -4.0181061e+07
   6.3321107e-10  -1.0036918e-02   1.7333036e+00   7.9374357e-01  -4.0020148e+07
   6.3421140e-10  -9.9969649e-03   1.7310736e+00   7.9519075e-01  -3.9859894e+07
   6.3521174e-10  -9.9571716e-03   1.7288540e+00   7.9663411e-01  -3.9700298e+07
   6.3621207e-10  -9.9175376e-03   1.7266446e+00   7.9807364e-01  -3.9541354e+07
   6.3721240e-10  -9.8780623e-03   1.7244456e+00   7.9950935e-01  -3.9383062e+07
   6.3821274e-10  -9.8387450e-03   1.7222567e+00   8.0094124e-01  -3.9225417e+07
   6.3921307e-10  -9.7995851e-03   1.7200780e+00   8.0236932e-01  -3.9068418e+07
   6.4021340e-10  -9.7605819e-03   1.7179094e+00   8.0379358e-01  -3.8912060e+07
   6.4121374e-10  -9.7217348e-03   1.7157509e+00   8.0521402e-01  -3.8756342e+07
   6.4221407e-10  -9.6830432e-03   1.7136024e+00   8.0663065e-01  -3.8601261e+07
   6.4321440e-10  -9.6445064e-03   1.7114638e+00   8.0804347e-01  -3.8446813e+07
   6.4421474e-10  -9.6061237e-03   1.7093352e+00   8.0945248e-01  -3.8292996e+07
   6.4521507e-10  -9.5678946e-03   1.7072164e+00   8.1085769e-01  -3.8139808e+07
   6.4621541e-10  -9.5298185e-03   1.7051074e+00   8.1225908e-01  -3.7987246e+07
   6.4721574e-10  -9.4918946e-03   1.7030082e+00   8.1365668e-01  -3.7835306e+07
   6.4821607e-10  -9.4541224e-03   1.7009186e+00   8.1505048e-01  -3.7683986e+07
   6.4921641e-10  -9.4165013e-03   1.6988388e+00   8.1644047e-01  -3.7533284e+07
   6.5021674e-10  -9.3790307e-03   1.6967685e+00   8.1782668e-01  -3.7383196e+07
   6.5121707e-10  -9.3417098e-03   1.6947079e+00   8.1920909e-01  -3.7233721e+07
   6.5221741e-10  -9.3045382e-03   1.6926567e+00   8.2058770e-01  -3.7084854e+07
   6.5321774e-10  -9.2675152e-03   1.6906150e+00   8.2196254e-01  -3.6936595e+07
   6.5421807e-10  -9.2306402e-03   1.6885828e+00   8.2333358e-01  -3.6788940e+07
   6.5521841e-10  -9.1939126e-03   1.6865599e+00   8.2470084e-01  -3.6641886e+07
   6.5621874e-10  -9.1573318e-03   1.6845463e+00   8.2606433e-01  -3.6495432e+07
   6.5721907e-10  -9.1208972e-03   1.6825420e+00   8.2742403e-01  -3.6349573e+07
   6.5821941e-10  -9.0846082e-03   1.6805470e+00   8.2877997e-01  -3.6204309e+07
   6.5921974e-10  -9.0484642e-03   1.6785612e+00   8.3013213e-01  -3.6059635e+07
   6.6022007e-10  -9.0124647e-03   1.6765845e+00   8.3148053e-01  -3.5915550e+07
   6.6122041e-10  -8.9766090e-03   1.6746169e+00   8.3282516e-01  -3.5772052e+07
   6.6222074e-10  -8.9408966e-03   1.6726583e+00   8.3416603e-01  -3.5629137e+07
   6.6322107e-10  -8.9053268e-03   1.6707088e+00   8.3550314e-01  -3.5486803e+07
   6.6422141e-10  -8.8698991e-03   1.6687682e+00   8.3683650e-01  -3.5345047e+07
   6.6522174e-10  -8.8346129e-03   1.6668365e+00   8.3816611e-01  -3.5203868e+07
   6.6622207e-10  -8.7994677e-03   1.6649137e+00   8.3949198e-01  -3.5063262e+07
   6.6722241e-10  -8.7644629e-03   1.6629998e+00   8.4081410e-01  -3.4923227e+07
   6.6822274e-10  -8.7295978e-03   1.6610946e+00   8.4213247e-01  -3.4783761e+07
   6.6922307e-10  -8.6948720e-03   1.6591982e+00   8.4344712e-01  -3.4644861e+07
   6.7022341e-10  -8.6602848e-03   1.6573105e+00   8.4475803e-01  -3.4506526e+07
   6.7122374e-10  -8.6258357e-03   1.6554314e+00   8.4606521e-01  -3.4368751e+07
   6.7222407e-10  -8.5915242e-03   1.6535609e+00   8.4736867e-01  -3.4231536e+07
   6.7322441e-10  -8.5573496e-03   1.6516991e+00   8.4866841e-01  -3.4094877e+07
   6.7422474e-10  -8.5233115e-03   1.6498457e+00   8.4996443e-01  -3.3958772e+07
   6.7522508e-10  -8.4894093e-03   1.6480008e+00   8.5125674e-01  -3.3823219e+07
   6.7622541e-10  -8.4556424e-03   1.6461644e+00   8.5254535e-01  -3.3688216e+07
   6.7722574e-10  -8.4220102e-03   1.6443364e+00   8.5383024e-01  -3.3553760e+07
   6.7822608e-10  -8.3885123e-03   1.6425167e+00   8.5511144e-01  -3.3419848e+07
   6.7922641e-10  -8.3551481e-03   1.6407054e+00   8.5638895e-01  -3.3286479e+07
   6.8022674e-10  -8.3219170e-03   1.6389023e+00   8.5766276e-01  -3.3153651e+07
   6.8122708e-10  -8.2888185e-03   1.6371075e+00   8.5893289e-01  -3.3021360e+07
   6.8222741e-10  -8.2558521e-03   1.6353208e+00   8.6019933e-01  -3.2889605e+07
   6.8322774e-10  -8.2230172e-03   1.6335424e+00   8.6146210e-01  -3.2758383e+07
   6.8422808e-10  -8.1903133e-03   1.6317720e+00   8.6272120e-01  -3.2627692e+07
   6.8522841e-10  -8.1577399e-03   1.6300097e+00   8.6397662e-01  -3.2497530e+07
   6.8622874e-10  -8.1252964e-03   1.6282555e+00   8.6522839e-01  -3.2367895e+07
   6.8722908e-10  -8.0929823e-03   1.6265092e+00   8.6647649e-01  -3.2238783e+07
   6.8822941e-10  -8.0607971e-03   1.6247709e+00   8.6772094e-01  -3.2110194e+07
   6.8922974e-10  -8.0287403e-03   1.6230405e+00   8.6896175e-01  -3.1982125e+07
   6.9023008e-10  -7.9968114e-03   1.6213180e+00   8.7019890e-01  -3.1854574e+07
   6.9123041e-10  -7.9650098e-03   1.6196033e+00   8.7143242e-01  -3.1727538e+07
   6.9223074e-10  -7.9333350e-03   1.6178965e+00   8.7266231e-01  -3.1601015e+07
   6.9323108e-10  -7.9017865e-03   1.6161974e+00   8.7388857e-01  -3.1475004e+07
   6.9423141e-10  -7.8703638e-03   1.6145060e+00   8.7511120e-01  -3.1349501e+07
   6.9523174e-10  -7.8390664e-03   1.6128223e+00   8.7633021e-01  -3.1224506e+07
   6.9623208e-10  -7.8078938e-03   1.6111463e+00   8.7754561e-01  -3.1100015e+07
   6.9723241e-10  -7.7768455e-03   1.6094778e+00   8.7875740e-01  -3.0976026e+07
   6.9823274e-10  -7.7459210e-03   1.6078170e+00   8.7996559e-01  -3.0852538e+07
   6.9923308e-10  -7.7151197e-03   1.6061636e+00   8.8117018e-01  -3.0729549e+07
   7.0023341e-10  -7.6844412e-03   1.6045178e+00   8.8237118e-01  -3.0607055e+07
   7.0123374e-10  -7.6538850e-03   1.6028794e+00   8.8356859e-01  -3.0485056e+07
   7.0223408e-10  -7.6234506e-03   1.6012485e+00   8.8476242e-01  -3.0363549e+07
   7.0323441e-10  -7.5931375e-03   1.5996250e+00   8.8595268e-01  -3.0242532e+07
   7.0423474e-10  -7.5629452e-03   1.5980088e+00   8.8713936e-01  -3.0122002e+07
   7.0523508e-10  -7.5328733e-03   1.5963999e+00   8.8832248e-01  -3.0001959e+07
   7.0623541e-10  -7.5029212e-03   1.5947983e+00   8.8950204e-01  -2.9882400e+07
   7.0723575e-10  -7.4730884e-03   1.5932039e+00   8.9067804e-01  -2.9763322e+07
   7.0823608e-10  -7.4433745e-03   1.5916168e+00   8.9185050e-01  -2.9644724e+07
   7.0923641e-10  -7.4137790e-03   1.5900368e+00   8.9301941e-01  -2.9526604e+07
   7.1023675e-10  -7.3843015e-03   1.5884640e+00   8.9418479e-01  -2.9408960e+07
   7.1123708e-10  -7.3549413e-03   1.5868983e+00   8.9534663e-01  -2.9291789e+07
   7.1223741e-10  -7.3256982e-03   1.5853396e+00   8.9650495e-01  -2.9175091e+07
   7.1323775e-10  -7.2965715e-03   1.5837880e+00   8.9765976e-01  -2.9058862e+07
   7.1423808e-10  -7.2675609e-03   1.5822434e+00   8.9881104e-01  -2.8943101e+07
   7.1523841e-10  -7.2386659e-03   1.5807057e+00   8.9995883e-01  -2.8827806e+07
   7.1623875e-10  -7.2098859e-03   1.5791750e+00   9.0110311e-01  -2.8712975e+07
   7.1723908e-10  -7.1812206e-03   1.5776512e+00   9.0224389e-01  -2.8598606e+07
   7.1823941e-10  -7.1526695e-03   1.5761343e+00   9.0338118e-01  -2.8484697e+07
   7.1923975e-10  -7.1242321e-03   1.5746242e+00   9.0451499e-01  -2.8371246e+07
   7.2024008e-10  -7.0959080e-03   1.5731208e+00   9.0564533e-01  -2.8258252e+07
   7.2124041e-10  -7.0676966e-03   1.5716243e+00   9.0677219e-01  -2.8145712e+07
   7.2224075e-10  -7.0395976e-03   1.5701345e+00   9.0789559e-01  -2.8033624e+07
   7.2324108e-10  -7.0116105e-03   1.5686514e+00   9.0901553e-01  -2.7921987e+07
   7.2424141e-10  -6.9837349e-03   1.5671749e+00   9.1013201e-01  -2.7810799e+07
   7.2524175e-10  -6.9559702e-03   1.5657051e+00   9.1124505e-01  -2.7700058e+07
   7.2624208e-10  -6.9283161e-03   1.5642419e+00   9.1235465e-01  -2.7589761e+07
   7.2724241e-10  -6.9007722e-03   1.5627853e+00   9.1346082e-01  -2.7479908e+07
   7.2824275e-10  -6.8733379e-03   1.5613352e+00   9.1456355e-01  -2.7370496e+07
   7.2924308e-10  -6.8460128e-03   1.5598916e+00   9.1566287e-01  -2.7261523e+07
   7.3024341e-10  -6.8187965e-03   1.5584545e+00   9.1675877e-01  -2.7152989e+07
   7.3124375e-10  -6.7916886e-03   1.5570238e+00   9.1785127e-01  -2.7044890e+07
   7.3224408e-10  -6.7646885e-03   1.5555995e+00   9.1894036e-01  -2.6937225e+07
   7.3324441e-10  -6.7377960e-03   1.5541817e+00   9.2002605e-01  -2.6829992e+07
   7.3424475e-10  -6.7110105e-03   1.5527701e+00   9.2110836e-01  -2.6723190e+07
   7.3524508e-10  -6.6843317e-03   1.5513649e+00   9.2218729e-01  -2.6616816e+07
   7.3624542e-10  -6.6577590e-03   1.5499660e+00   9.2326283e-01  -2.6510869e+07
   7.3724575e-10  -6.6312921e-03   1.5485734e+00   9.2433501e-01  -2.6405347e+07
   7.3824608e-10  -6.6049306e-03   1.5471870e+00   9.2540383e-01  -2.6300249e+07
   7.3924642e-10  -6.5786739e-03   1.5458068e+00   9.2646929e-01  -2.6195572e+07
   7.4024675e-10  -6.5525218e-03   1.5444327e+00   9.2753140e-01  -2.6091315e+07
   7.4124708e-10  -6.5264738e-03   1.5430648e+00   9.2859016e-01  -2.5987477e+07
   7.4224742e-10  -6.5005294e-03   1.5417030e+00   9.2964560e-01  -2.5884054e+07
   7.4324775e-10  -6.4746883e-03   1.5403473e+00   9.3069770e-01  -2.5781047e+07
   7.4424808e-10  -6.4489500e-03   1.5389976e+00   9.3174647e-01  -2.5678452e+07
   7.4524842e-10  -6.4233141e-03   1.5376540e+00   9.3279194e-01  -2.5576268e+07
   7.4624875e-10  -6.3977802e-03   1.5363164e+00   9.3383409e-01  -2.5474494e+07
   7.4724908e-10  -6.3723480e-03   1.5349847e+00   9.3487294e-01  -2.5373128e+07
   7.4824942e-10  -6.3470169e-03   1.5336589e+00   9.3590849e-01  -2.5272169e+07
   7.4924975e-10  -6.3217867e-03   1.5323391e+00   9.3694076e-01  -2.5171613e+07
   7.5025008e-10  -6.2966568e-03   1.5310251e+00   9.3796974e-01  -2.5071461e+07
   7.5125042e-10  -6.2716269e-03   1.5297170e+00   9.3899545e-01  -2.4971710e+07
   7.5225075e-10  -6.2466966e-03   1.5284148e+00   9.4001789e-01  -2.4872358e+07
   7.5325108e-10  -6.2218655e-03   1.5271183e+00   9.4103706e-01  -2.4773404e+07
   7.5425142e-10  -6.1971331e-03   1.5258276e+00   9.4205298e-01  -2.4674846e+07
   7.5525175e-10  -6.1724992e-03   1.5245426e+00   9.4306566e-01  -2.4576683e+07
   7.5625208e-10  -6.1479632e-03   1.5232633e+00   9.4407509e-01  -2.4478914e+07
   7.5725242e-10  -6.1235249e-03   1.5219897e+00   9.4508129e-01  -2.4381535e+07
   7.5825275e-10  -6.0991838e-03   1.5207218e+00   9.4608426e-01  -2.4284546e+07
   7.5925308e-10  -6.0749395e-03   1.5194595e+00   9.4708402e-01  -2.4187946e+07
   7.6025342e-10  -6.0507916e-03   1.5182028e+00   9.4808055e-01  -2.4091732e+07
   7.6125375e-10  -6.0267398e-03   1.5169517e+00   9.4907389e-01  -2.3995903e+07
   7.6225408e-10  -6.0027837e-03   1.5157062e+00   9.5006402e-01  -2.3900457e+07
   7.6325442e-10  -5.9789229e-03   1.5144661e+00   9.5105096e-01  -2.3805394e+07
   7.6425475e-10  -5.9551569e-03   1.5132316e+00   9.5203472e-01  -2.3710710e+07
   7.6525509e-10  -5.9314855e-03   1.5120025e+00   9.5301530e-01  -2.3616406e+07
   7.6625542e-10  -5.9079082e-03   1.5107789e+00   9.5399271e-01  -2.3522478e+07
   7.6725575e-10  -5.8844247e-03   1.5095607e+00   9.5496696e-01  -2.3428927e+07
   7.6825609e-10  -5.8610346e-03   1.5083479e+00   9.5593804e-01  -2.3335749e+07
   7.6925642e-10  -5.8377375e-03   1.5071405e+00   9.5690598e-01  -2.3242944e+07
   7.7025675e-10  -5.8145331e-03   1.5059384e+00   9.5787078e-01  -2.3150510e+07
   7.7125709e-10  -5.7914210e-03   1.5047416e+00   9.5883244e-01  -2.3058445e+07
   7.7225742e-10  -5.7684007e-03   1.5035501e+00   9.5979097e-01  -2.2966749e+07
   7.7325775e-10  -5.7454720e-03   1.5023639e+00   9.6074639e-01  -2.2875419e+07
   7.7425809e-10  -5.7226345e-03   1.5011829e+00   9.6169869e-01  -2.2784454e+07
   7.7525842e-10  -5.6998878e-03   1.5000072e+00   9.6264788e-01  -2.2693852e+07
   7.7625875e-10  -5.6772316e-03   1.4988366e+00   9.6359397e-01  -2.2603613e+07
   7.7725909e-10  -5.6546654e-03   1.4976712e+00   9.6453697e-01  -2.2513734e+07
   7.7825942e-10  -5.6321890e-03   1.4965110e+00   9.6547689e-01  -2.2424214e+07
   7.7925975e-10  -5.6098019e-03   1.4953558e+00   9.6641372e-01  -2.2335052e+07
   7.8026009e-10  -5.5875038e-03   1.4942058e+00   9.6734749e-01  -2.2246246e+07
   7.8126042e-10  -5.5652944e-03   1.4930608e+00   9.6827820e-01  -2.2157795e+07
   7.8226075e-10  -5.5431734e-03   1.4919209e+00   9.6920584e-01  -2.2069697e+07
   7.8326109e-10  -5.5211402e-03   1.4907860e+00   9.7013044e-01  -2.1981951e+07
   7.8426142e-10  -5.4991947e-03   1.4896561e+00   9.7105200e-01  -2.1894555e+07
   7.8526175e-10  -5.4773364e-03   1.4885311e+00   9.7197052e-01  -2.1807509e+07
   7.8626209e-10  -5.4555650e-03   1.4874111e+00   9.7288602e-01  -2.1720809e+07
   7.8726242e-10  -5.4338802e-03   1.4862961e+00   9.7379849e-01  -2.1634456e+07
   7.8826275e-10  -5.4122816e-03   1.4851859e+00   9.7470796e-01  -2.1548448e+07
   7.8926309e-10  -5.3907688e-03   1.4840807e+00   9.7561442e-01  -2.1462783e+07
   7.9026342e-10  -5.3693416e-03   1.4829803e+00   9.7651788e-01  -2.1377460e+07
   7.9126375e-10  -5.3479995e-03   1.4818847e+00   9.7741835e-01  -2.1292478e+07
   7.9226409e-10  -5.3267423e-03   1.4807939e+00   9.7831583e-01  -2.1207834e+07
   7.9326442e-10  -5.3055696e-03   1.4797080e+00   9.7921035e-01  -2.1123529e+07
   7.9426475e-10  -5.2844810e-03   1.4786268e+00   9.8010189e-01  -2.1039560e+07
   7.9526509e-10  -5.2634763e-03   1.4775503e+00   9.8099047e-01  -2.0955925e+07
   7.9626542e-10  -5.2425551e-03   1.4764786e+00   9.8187609e-01  -2.0872625e+07
   7.9726576e-10  -5.2217170e-03   1.4754116e+00   9.8275877e-01  -2.0789657e+07
   7.9826609e-10  -5.2009618e-03   1.4743492e+00   9.8363851e-01  -2.0707020e+07
   7.9926642e-10  -5.1802891e-03   1.4732915e+00   9.8451532e-01  -2.0624712e+07
   8.0026676e-10  -5.1596985e-03   1.4722385e+00   9.8538921e-01  -2.0542733e+07
   8.0126709e-10  -5.1391898e-03   1.4711900e+00   9.8626017e-01  -2.0461081e+07
   8.0226742e-10  -5.1187626e-03   1.4701462e+00   9.8712823e-01  -2.0379754e+07
   8.0326776e-10  -5.0984166e-03   1.4691069e+00   9.8799338e-01  -2.0298752e+07
   8.0426809e-10  -5.0781515e-03   1.4680721e+00   9.8885564e-01  -2.0218073e+07
   8.0526842e-10  -5.0579669e-03   1.4670419e+00   9.8971501e-01  -2.0137715e+07
   8.0626876e-10  -5.0378625e-03   1.4660162e+00   9.9057150e-01  -2.0057678e+07
   8.0726909e-10  -5.0178380e-03   1.4649950e+00   9.9142512e-01  -1.9977960e+07
   8.0826942e-10  -4.9978932e-03   1.4639782e+00   9.9227587e-01  -1.9898560e+07
   8.0926976e-10  -4.9780275e-03   1.4629659e+00   9.9312376e-01  -1.9819476e+07
   8.1027009e-10  -4.9582409e-03   1.4619580e+00   9.9396880e-01  -1.9740707e+07
   8.1127042e-10  -4.9385329e-03   1.4609546e+00   9.9481099e-01  -1.9662253e+07
   8.1227076e-10  -4.9189032e-03   1.4599555e+00   9.9565035e-01  -1.9584111e+07
   8.1327109e-10  -4.8993515e-03   1.4589607e+00   9.9648688e-01  -1.9506280e+07
   8.1427142e-10  -4.8798775e-03   1.4579703e+00   9.9732059e-01  -1.9428760e+07
   8.1527176e-10  -4.8604809e-03   1.4569842e+00   9.9815149e-01  -1.9351549e+07
   8.1627209e-10  -4.8411614e-03   1.4560024e+00   9.9897957e-01  -1.9274645e+07
   8.1727242e-10  -4.8219187e-03   1.4550249e+00   9.9980486e-01  -1.9198048e+07
   8.1827276e-10  -4.8027524e-03   1.4540517e+00   1.0006274e+00  -1.9121756e+07
   8.1927309e-10  -4.7836623e-03   1.4530827e+00   1.0014471e+00  -1.9045768e+07
   8.2027342e-10  -4.7646481e-03   1.4521179e+00   1.0022640e+00  -1.8970082e+07
   8.2127376e-10  -4.7457094e-03   1.4511573e+00   1.0030782e+00  -1.8894698e+07
   8.2227409e-10  -4.7268460e-03   1.4502009e+00   1.0038896e+00  -1.8819615e+07
   8.2327442e-10  -4.7080575e-03   1.4492487e+00   1.0046982e+00  -1.8744830e+07
   8.2427476e-10  -4.6893437e-03   1.4483006e+00   1.0055041e+00  -1.8670343e+07
   8.2527509e-10  -4.6707043e-03   1.4473566e+00   1.0063072e+00  -1.8596153e+07
   8.2627543e-10  -4.6521389e-03   1.4464167e+00   1.0071077e+00  -1.8522259e+07
   8.2727576e-10  -4.6336473e-03   1.4454810e+00   1.0079054e+00  -1.8448658e+07
   8.2827609e-10  -4.6152292e-03   1.4445492e+00   1.0087003e+00  -1.8375351e+07
   8.2927643e-10  -4.5968842e-03   1.4436216e+00   1.0094926e+00  -1.8302336e+07
   8.3027676e-10  -4.5786122e-03   1.4426979e+00   1.0102822e+00  -1.8229611e+07
   8.3127709e-10  -4.5604128e-03   1.4417783e+00   1.0110690e+00  -1.8157176e+07
   8.3227743e-10  -4.5422856e-03   1.4408627e+00   1.0118532e+00  -1.8085030e+07
   8.3327776e-10  -4.5242306e-03   1.4399510e+00   1.0126347e+00  -1.8013170e+07
   8.3427809e-10  -4.5062472e-03   1.4390433e+00   1.0134135e+00  -1.7941597e+07
   8.3527843e-10  -4.4883353e-03   1.4381395e+00   1.0141896e+00  -1.7870309e+07
   8.3627876e-10  -4.4704946e-03   1.4372397e+00   1.0149631e+00  -1.7799304e+07
   8.3727909e-10  -4.4527247e-03   1.4363437e+00   1.0157340e+00  -1.7728582e+07
   8.3827943e-10  -4.4350255e-03   1.4354516e+00   1.0165021e+00  -1.7658141e+07
   8.3927976e-10  -4.4173966e-03   1.4345634e+00   1.0172677e+00  -1.7587981e+07
   8.4028009e-10  -4.3998377e-03   1.4336790e+00   1.0180306e+00  -1.7518100e+07
   8.4128043e-10  -4.3823486e-03   1.4327985e+00   1.0187909e+00  -1.7448498e+07
   8.4228076e-10  -4.3649290e-03   1.4319218e+00   1.0195486e+00  -1.7379172e+07
   8.4328109e-10  -4.3475786e-03   1.4310488e+00   1.0203036e+00  -1.7310122e+07
   8.4428143e-10  -4.3302971e-03   1.4301797e+00   1.0210561e+00  -1.7241347e+07
   8.4528176e-10  -4.3130843e-03   1.4293143e+00   1.0218060e+00  -1.7172845e+07
   8.4628209e-10  -4.2959399e-03   1.4284526e+00   1.0225533e+00  -1.7104616e+07
   8.4728243e-10  -4.2788636e-03   1.4275947e+00   1.0232980e+00  -1.7036659e+07
   8.4828276e-10  -4.2618551e-03   1.4267405e+00   1.0240401e+00  -1.6968972e+07
   8.4928309e-10  -4.2449142e-03   1.4258899e+00   1.0247796e+00  -1.6901554e+07
   8.5028343e-10  -4.2280406e-03   1.4250431e+00   1.0255166e+00  -1.6834405e+07
   8.5128376e-10  -4.2112341e-03   1.4241999e+00   1.0262511e+00  -1.6767522e+07
   8.5228409e-10  -4.1944943e-03   1.4233603e+00   1.0269830e+00  -1.6700906e+07
   8.5328443e-10  -4.1778211e-03   1.4225244e+00   1.0277124e+00  -1.6634554e+07
   8.5428476e-10  -4.1612140e-03   1.4216920e+00   1.0284392e+00  -1.6568467e+07
   8.5528510e-10  -4.1446730e-03   1.4208633e+00   1.0291635e+00  -1.6502642e+07
   8.5628543e-10  -4.1281977e-03   1.4200381e+00   1.0298853e+00  -1.6437080e+07
   8.5728576e-10  -4.1117878e-03   1.4192165e+00   1.0306046e+00  -1.6371778e+07
   8.5828610e-10  -4.0954431e-03   1.4183984e+00   1.0313214e+00  -1.6306735e+07
   8.5928643e-10  -4.0791633e-03   1.4175838e+00   1.0320357e+00  -1.6241952e+07
   8.6028676e-10  -4.0629483e-03   1.4167728e+00   1.0327475e+00  -1.6177426e+07
   8.6128710e-10  -4.0467976e-03   1.4159652e+00   1.0334569e+00  -1.6113156e+07
   8.6228743e-10  -4.0307111e-03   1.4151611e+00   1.0341637e+00  -1.6049143e+07
   8.6328776e-10  -4.0146885e-03   1.4143605e+00   1.0348681e+00  -1.5985383e+07
   8.6428810e-10  -3.9987296e-03   1.4135633e+00   1.0355701e+00  -1.5921878e+07
   8.6528843e-10  -3.9828341e-03   1.4127696e+00   1.0362696e+00  -1.5858624e+07
   8.6628876e-10  -3.9670017e-03   1.4119793e+00   1.0369666e+00  -1.5795623e+07
   8.6728910e-10  -3.9512322e-03   1.4111923e+00   1.0376612e+00  -1.5732872e+07
   8.6828943e-10  -3.9355254e-03   1.4104088e+00   1.0383534e+00  -1.5670370e+07
   8.6928976e-10  -3.9198810e-03   1.4096286e+00   1.0390431e+00  -1.5608117e+07
   8.7029010e-10  -3.9042987e-03   1.4088517e+00   1.0397305e+00  -1.5546111e+07
   8.7129043e-10  -3.8887783e-03   1.4080782e+00   1.0404154e+00  -1.5484352e+07
   8.7229076e-10  -3.8733196e-03   1.4073080e+00   1.0410979e+00  -1.5422838e+07
   8.7329110e-10  -3.8579222e-03   1.4065412e+00   1.0417781e+00  -1.5361569e+07
   8.7429143e-10  -3.8425861e-03   1.4057776e+00   1.0424558e+00  -1.5300543e+07
   8.7529176e-10  -3.8273109e-03   1.4050173e+00   1.0431312e+00  -1.5239760e+07
   8.7629210e-10  -3.8120963e-03   1.4042602e+00   1.0438042e+00  -1.5179219e+07
   8.7729243e-10  -3.7969422e-03   1.4035064e+00   1.0444748e+00  -1.5118918e+07
   8.7829276e-10  -3.7818483e-03   1.4027558e+00   1.0451430e+00  -1.5058857e+07
   8.7929310e-10  -3.7668144e-03   1.4020085e+00   1.0458090e+00  -1.4999035e+07
   8.8029343e-10  -3.7518402e-03   1.4012643e+00   1.0464725e+00  -1.4939450e+07
   8.8129376e-10  -3.7369255e-03   1.4005234e+00   1.0471338e+00  -1.4880102e+07
   8.8229410e-10  -3.7220700e-03   1.3997856e+00   1.0477927e+00  -1.4820990e+07
   8.8329443e-10  -3.7072735e-03   1.3990509e+00   1.0484492e+00  -1.4762113e+07
   8.8429476e-10  -3.6925358e-03   1.3983194e+00   1.0491035e+00  -1.4703470e+07
   8.8529510e-10  -3.6778567e-03   1.3975911e+00   1.0497554e+00  -1.4645060e+07
   8.8629543e-10  -3.6632359e-03   1.3968658e+00   1.0504051e+00  -1.4586883e+07
   8.8729577e-10  -3.6486731e-03   1.3961437e+00   1.0510524e+00  -1.4528936e+07
   8.8829610e-10  -3.6341682e-03   1.3954246e+00   1.0516975e+00  -1.4471220e+07
   8.8929643e-10  -3.6197210e-03   1.3947086e+00   1.0523403e+00  -1.4413733e+07
   8.9029677e-10  -3.6053311e-03   1.3939957e+00   1.0529807e+00  -1.4356474e+07
   8.9129710e-10  -3.5909984e-03   1.3932858e+00   1.0536190e+00  -1.4299443e+07
   8.9229743e-10  -3.5767226e-03   1.3925790e+00   1.0542549e+00  -1.4242638e+07
   8.9329777e-10  -3.5625035e-03   1.3918752e+00   1.0548887e+00  -1.4186060e+07
   8.9429810e-10  -3.5483409e-03   1.3911743e+00   1.0555201e+00  -1.4129706e+07
   8.9529843e-10  -3.5342346e-03   1.3904765e+00   1.0561493e+00  -1.4073576e+07
   8.9629877e-10  -3.5201843e-03   1.3897817e+00   1.0567763e+00  -1.4017669e+07
   8.9729910e-10  -3.5061898e-03   1.3890898e+00   1.0574011e+00  -1.3961984e+07
   8.9829943e-10  -3.4922510e-03   1.3884008e+00   1.0580236e+00  -1.3906520e+07
   8.9929977e-10  -3.4783675e-03   1.3877148e+00   1.0586439e+00  -1.3851277e+07
   9.0030010e-10  -3.4645391e-03   1.3870317e+00   1.0592621e+00  -1.3796253e+07
   9.0130043e-10  -3.4507657e-03   1.3863516e+00   1.0598780e+00  -1.3741447e+07
   9.0230077e-10  -3.4370470e-03   1.3856743e+00   1.0604917e+00  -1.3686860e+07
   9.0330110e-10  -3.4233828e-03   1.3849999e+00   1.0611032e+00  -1.3632489e+07
   9.0430143e-10  -3.4097728e-03   1.3843284e+00   1.0617126e+00  -1.3578334e+07
   9.0530177e-10  -3.3962170e-03   1.3836598e+00   1.0623197e+00  -1.3524395e+07
   9.0630210e-10  -3.3827149e-03   1.3829940e+00   1.0629248e+00  -1.3470669e+07
   9.0730243e-10  -3.3692666e-03   1.3823310e+00   1.0635276e+00  -1.3417157e+07
   9.0830277e-10  -3.3558716e-03   1.3816709e+00   1.0641283e+00  -1.3363858e+07
   9.0930310e-10  -3.3425299e-03   1.3810135e+00   1.0647268e+00  -1.3310770e+07
   9.1030343e-10  -3.3292411e-03   1.3803590e+00   1.0653233e+00  -1.3257893e+07
   9.1130377e-10  -3.3160052e-03   1.3797072e+00   1.0659175e+00  -1.3205227e+07
   9.1230410e-10  -3.3028218e-03   1.3790582e+00   1.0665097e+00  -1.3152769e+07
   9.1330443e-10  -3.2896908e-03   1.3784120e+00   1.0670997e+00  -1.3100520e+07
   9.1430477e-10  -3.2766120e-03   1.3777685e+00   1.0676876e+00  -1.3048478e+07
   9.1530510e-10  -3.2635851e-03   1.3771277e+00   1.0682734e+00  -1.2996643e+07
   9.1630544e-10  -3.2506099e-03   1.3764897e+00   1.0688571e+00  -1.2945014e+07
   9.1730577e-10  -3.2376863e-03   1.3758544e+00   1.0694387e+00  -1.2893590e+07
   9.1830610e-10  -3.2248141e-03   1.3752218e+00   1.0700182e+00  -1.2842370e+07
   9.1930644e-10  -3.2119930e-03   1.3745918e+00   1.0705957e+00  -1.2791353e+07
   9.2030677e-10  -3.1992228e-03   1.3739646e+00   1.0711710e+00  -1.2740540e+07
   9.2130710e-10  -3.1865033e-03   1.3733400e+00   1.0717443e+00  -1.2689928e+07
   9.2230744e-10  -3.1738344e-03   1.3727180e+00   1.0723156e+00  -1.2639516e+07
   9.2330777e-10  -3.1612158e-03   1.3720987e+00   1.0728848e+00  -1.2589306e+07
   9.2430810e-10  -3.1486473e-03   1.3714820e+00   1.0734519e+00  -1.2539294e+07
   9.2530844e-10  -3.1361288e-03   1.3708679e+00   1.0740170e+00  -1.2489481e+07
   9.2630877e-10  -3.1236600e-03   1.3702564e+00   1.0745800e+00  -1.2439866e+07
   9.2730910e-10  -3.1112407e-03   1.3696476e+00   1.0751411e+00  -1.2390448e+07
   9.2830944e-10  -3.0988707e-03   1.3690412e+00   1.0757001e+00  -1.2341226e+07
   9.2930977e-10  -3.0865499e-03   1.3684375e+00   1.0762570e+00  -1.2292200e+07
   9.3031010e-10  -3.0742781e-03   1.3678363e+00   1.0768120e+00  -1.2243369e+07
   9.3131044e-10  -3.0620550e-03   1.3672377e+00   1.0773650e+00  -1.2194731e+07
   9.3231077e-10  -3.0498804e-03   1.3666416e+00   1.0779160e+00  -1.2146286e+07
   9.3331110e-10  -3.0377542e-03   1.3660480e+00   1.0784649e+00  -1.2098034e+07
   9.3431144e-10  -3.0256762e-03   1.3654569e+00   1.0790119e+00  -1.2049973e+07
   9.3531177e-10  -3.0136462e-03   1.3648684e+00   1.0795570e+00  -1.2002103e+07
   9.3631210e-10  -3.0016639e-03   1.3642823e+00   1.0801000e+00  -1.1954424e+07
   9.3731244e-10  -2.9897293e-03   1.3636987e+00   1.0806411e+00  -1.1906933e+07
   9.3831277e-10  -2.9778421e-03   1.3631175e+00   1.0811802e+00  -1.1859631e+07
   9.3931310e-10  -2.9660021e-03   1.3625388e+00   1.0817174e+00  -1.1812517e+07
   9.4031344e-10  -2.9542091e-03   1.3619626e+00   1.0822526e+00  -1.1765590e+07
   9.4131377e-10  -2.9424630e-03   1.3613888e+00   1.0827859e+00  -1.1718850e+07
   9.4231410e-10  -2.9307635e-03   1.3608174e+00   1.0833172e+00  -1.1672295e+07
   9.4331444e-10  -2.9191105e-03   1.3602485e+00   1.0838466e+00  -1.1625925e+07
   9.4431477e-10  -2.9075039e-03   1.3596819e+00   1.0843741e+00  -1.1579738e+07
   9.4531511e-10  -2.8959433e-03   1.3591177e+00   1.0848997e+00  -1.1533736e+07
   9.4631544e-10  -2.8844286e-03   1.3585559e+00   1.0854234e+00  -1.1487916e+07
   9.4731577e-10  -2.8729597e-03   1.3579965e+00   1.0859452e+00  -1.1442277e+07
   9.4831611e-10  -2.8615364e-03   1.3574394e+00   1.0864650e+00  -1.1396820e+07
   9.4931644e-10  -2.8501584e-03   1.3568847e+00   1.0869830e+00  -1.1351544e+07
   9.5031677e-10  -2.8388257e-03   1.3563323e+00   1.0874991e+00  -1.1306447e+07
   9.5131711e-10  -2.8275379e-03   1.3557823e+00   1.0880133e+00  -1.1261529e+07
   9.5231744e-10  -2.8162950e-03   1.3552346e+00   1.0885257e+00  -1.1216790e+07
   9.5331777e-10  -2.8050968e-03   1.3546891e+00   1.0890362e+00  -1.1172228e+07
   9.5431811e-10  -2.7939431e-03   1.3541460e+00   1.0895448e+00  -1.1127843e+07
   9.5531844e-10  -2.7828337e-03   1.3536052e+00   1.0900515e+00  -1.1083635e+07
   9.5631877e-10  -2.7717684e-03   1.3530666e+00   1.0905565e+00  -1.1039602e+07
   9.5731911e-10  -2.7607470e-03   1.3525303e+00   1.0910595e+00  -1.0995743e+07
   9.5831944e-10  -2.7497695e-03   1.3519963e+00   1.0915608e+00  -1.0952059e+07
   9.5931977e-10  -2.7388355e-03   1.3514645e+00   1.0920602e+00  -1.0908548e+07
   9.6032011e-10  -2.7279451e-03   1.3509349e+00   1.0925578e+00  -1.0865210e+07
   9.6132044e-10  -2.7170978e-03   1.3504076e+00   1.0930535e+00  -1.0822044e+07
   9.6232077e-10  -2.7062937e-03   1.3498825e+00   1.0935475e+00  -1.0779049e+07
   9.6332111e-10  -2.6955325e-03   1.3493596e+00   1.0940396e+00  -1.0736226e+07
   9.6432144e-10  -2.6848140e-03   1.3488389e+00   1.0945300e+00  -1.0693572e+07
   9.6532177e-10  -2.6741381e-03   1.3483204e+00   1.0950185e+00  -1.0651087e+07
   9.6632211e-10  -2.6635047e-03   1.3478041e+00   1.0955053e+00  -1.0608771e+07
   9.6732244e-10  -2.6529135e-03   1.3472899e+00   1.0959903e+00  -1.0566623e+07
   9.6832277e-10  -2.6423643e-03   1.3467779e+00   1.0964735e+00  -1.0524642e+07
   9.6932311e-10  -2.6318571e-03   1.3462681e+00   1.0969549e+00  -1.0482828e+07
   9.7032344e-10  -2.6213916e-03   1.3457604e+00   1.0974346e+00  -1.0441180e+07
   9.7132377e-10  -2.6109677e-03   1.3452548e+00   1.0979125e+00  -1.0399697e+07
   9.7232411e-10  -2.6005853e-03   1.3447513e+00   1.0983887e+00  -1.0358379e+07
   9.7332444e-10  -2.5902440e-03   1.3442500e+00   1.0988631e+00  -1.0317225e+07
   9.7432477e-10  -2.5799439e-03   1.3437507e+00   1.0993357e+00  -1.0276235e+07
   9.7532511e-10  -2.5696846e-03   1.3432536e+00   1.0998067e+00  -1.0235407e+07
   9.7632544e-10  -2.5594662e-03   1.3427585e+00   1.1002759e+00  -1.0194741e+07
   9.7732578e-10  -2.5492883e-03   1.3422656e+00   1.1007433e+00  -1.0154236e+07
   9.7832611e-10  -2.5391509e-03   1.3417746e+00   1.1012091e+00  -1.0113893e+07
   9.7932644e-10  -2.5290537e-03   1.3412858e+00   1.1016731e+00  -1.0073709e+07
   9.8032678e-10  -2.5189967e-03   1.3407990e+00   1.1021355e+00  -1.0033685e+07
   9.8132711e-10  -2.5089796e-03   1.3403142e+00   1.1025961e+00  -9.9938200e+06
   9.8232744e-10  -2.4990023e-03   1.3398315e+00   1.1030551e+00  -9.9541131e+06
   9.8332778e-10  -2.4890647e-03   1.3393508e+00   1.1035123e+00  -9.9145638e+06
   9.8432811e-10  -2.4791665e-03   1.3388721e+00   1.1039679e+00  -9.8751716e+06
   9.8532844e-10  -2.4693077e-03   1.3383954e+00   1.1044218e+00  -9.8359356e+06
   9.8632878e-10  -2.4594881e-03   1.3379207e+00   1.1048740e+00  -9.7968555e+06
   9.8732911e-10  -2.4497074e-03   1.3374479e+00   1.1053245e+00  -9.7579304e+06
   9.8832944e-10  -2.4399656e-03   1.3369772e+00   1.1057734e+00  -9.7191599e+06
   9.8932978e-10  -2.4302626e-03   1.3365084e+00   1.1062206e+00  -9.6805433e+06
   9.9033011e-10  -2.4205980e-03   1.3360416e+00   1.1066662e+00  -9.6420799e+06
   9.9133044e-10  -2.4109719e-03   1.3355768e+00   1.1071102e+00  -9.6037693e+06
   9.9233078e-10  -2.4013840e-03   1.3351139e+00   1.1075525e+00  -9.5656107e+06
   9.9333111e-10  -2.3918343e-03   1.3346529e+00   1.1079931e+00  -9.5276035e+06
   9.9433144e-10  -2.3823224e-03   1.3341938e+00   1.1084321e+00  -9.4897473e+06
   9.9533178e-10  -2.3728484e-03   1.3337367e+00   1.1088696e+00  -9.4520413e+06
   9.9633211e-10  -2.3634120e-03   1.3332815e+00   1.1093053e+00  -9.4144850e+06
   9.9733244e-10  -2.3540131e-03   1.3328282e+00   1.1097395e+00  -9.3770777e+06
   9.9833278e-10  -2.3446515e-03   1.3323768e+00   1.1101721e+00  -9.3398190e+06
   9.9933311e-10  -2.3353272e-03   1.3319272e+00   1.1106031e+00  -9.3027081e+06
   1.0003334e-09  -2.3260399e-03   1.3314796e+00   1.1110324e+00  -9.2657445e+06
   1.0013338e-09  -2.3167895e-03   1.3310338e+00   1.1114602e+00  -9.2289277e+06
   1.0023341e-09  -2.3075758e-03   1.3305899e+00   1.1118864e+00  -9.1922570e+06
   1.0033344e-09  -2.2983988e-03   1.3301478e+00   1.1123110e+00  -9.1557319e+06
   1.0043348e-09  -2.2892582e-03   1.3297076e+00   1.1127341e+00  -9.1193517e+06
   1.0053351e-09  -2.2801539e-03   1.3292692e+00   1.1131556e+00  -9.0831160e+06
   1.0063354e-09  -2.2710859e-03   1.3288326e+00   1.1135755e+00  -9.0470241e+06
   1.0073358e-09  -2.2620538e-03   1.3283979e+00   1.1139938e+00  -9.0110754e+06
   1.0083361e-09  -2.2530577e-03   1.3279649e+00   1.1144106e+00  -8.9752695e+06
   1.0093364e-09  -2.2440972e-03   1.3275338e+00   1.1148259e+00  -8.9396056e+06
   1.0103368e-09  -2.2351724e-03   1.3271045e+00   1.1152396e+00  -8.9040834e+06
   1.0113371e-09  -2.2262831e-03   1.3266769e+00   1.1156518e+00  -8.8687021e+06
   1.0123374e-09  -2.2174291e-03   1.3262512e+00   1.1160624e+00  -8.8334613e+06
   1.0133378e-09  -2.2086102e-03   1.3258272e+00   1.1164715e+00  -8.7983604e+06
   1.0143381e-09  -2.1998264e-03   1.3254050e+00   1.1168791e+00  -8.7633988e+06
   1.0153384e-09  -2.1910775e-03   1.3249845e+00   1.1172852e+00  -8.7285759e+06
   1.0163388e-09  -2.1823634e-03   1.3245658e+00   1.1176898e+00  -8.6938913e+06
   1.0173391e-09  -2.1736839e-03   1.3241489e+00   1.1180928e+00  -8.6593444e+06
   1.0183394e-09  -2.1650389e-03   1.3237336e+00   1.1184944e+00  -8.6249346e+06
   1.0193398e-09  -2.1564282e-03   1.3233201e+00   1.1188945e+00  -8.5906614e+06
   1.0203401e-09  -2.1478518e-03   1.3229084e+00   1.1192930e+00  -8.5565243e+06
   1.0213404e-09  -2.1393094e-03   1.3224983e+00   1.1196901e+00  -8.5225226e+06
   1.0223408e-09  -2.1308010e-03   1.3220899e+00   1.1200857e+00  -8.4886559e+06
   1.0233411e-09  -2.1223264e-03   1.3216833e+00   1.1204799e+00  -8.4549237e+06
   1.0243414e-09  -2.1138855e-03   1.3212783e+00   1.1208725e+00  -8.4213253e+06
   1.0253418e-09  -2.1054781e-03   1.3208750e+00   1.1212637e+00  -8.3878603e+06
   1.0263421e-09  -2.0971041e-03   1.3204734e+00   1.1216535e+00  -8.3545282e+06
   1.0273424e-09  -2.0887634e-03   1.3200735e+00   1.1220418e+00  -8.3213283e+06
   1.0283428e-09  -2.0804559e-03   1.3196752e+00   1.1224286e+00  -8.2882603e+06
   1.0293431e-09  -2.0721814e-03   1.3192786e+00   1.1228140e+00  -8.2553235e+06
   1.0303434e-09  -2.0639397e-03   1.3188836e+00   1.1231980e+00  -8.2225174e+06
   1.0313438e-09  -2.0557308e-03   1.3184903e+00   1.1235805e+00  -8.1898416e+06
   1.0323441e-09  -2.0475545e-03   1.3180986e+00   1.1239616e+00  -8.1572955e+06
   1.0333444e-09  -2.0394107e-03   1.3177086e+00   1.1243412e+00  -8.1248786e+06
   1.0343448e-09  -2.0312993e-03   1.3173201e+00   1.1247195e+00  -8.0925903e+06
   1.0353451e-09  -2.0232201e-03   1.3169333e+00   1.1250963e+00  -8.0604303e+06
   1.0363454e-09  -2.0151730e-03   1.3165480e+00   1.1254717e+00  -8.0283978e+06
   1.0373458e-09  -2.0071579e-03   1.3161644e+00   1.1258457e+00  -7.9964926e+06
   1.0383461e-09  -1.9991747e-03   1.3157824e+00   1.1262184e+00  -7.9647140e+06
   1.0393464e-09  -1.9912231e-03   1.3154019e+00   1.1265896e+00  -7.9330615e+06
   1.0403468e-09  -1.9833032e-03   1.3150231e+00   1.1269594e+00  -7.9015347e+06
   1.0413471e-09  -1.9754147e-03   1.3146458e+00   1.1273278e+00  -7.8701330e+06
   1.0423474e-09  -1.9675576e-03   1.3142700e+00   1.1276949e+00  -7.8388560e+06
   1.0433478e-09  -1.9597318e-03   1.3138958e+00   1.1280606e+00  -7.8077032e+06
   1.0443481e-09  -1.9519370e-03   1.3135232e+00   1.1284249e+00  -7.7766740e+06
   1.0453484e-09  -1.9441732e-03   1.3131521e+00   1.1287879e+00  -7.7457680e+06
   1.0463488e-09  -1.9364402e-03   1.3127826e+00   1.1291495e+00  -7.7149846e+06
   1.0473491e-09  -1.9287380e-03   1.3124146e+00   1.1295097e+00  -7.6843235e+06
   1.0483494e-09  -1.9210664e-03   1.3120481e+00   1.1298686e+00  -7.6537841e+06
   1.0493498e-09  -1.9134253e-03   1.3116831e+00   1.1302261e+00  -7.6233659e+06
   1.0503501e-09  -1.9058146e-03   1.3113197e+00   1.1305823e+00  -7.5930685e+06
   1.0513505e-09  -1.8982341e-03   1.3109577e+00   1.1309371e+00  -7.5628913e+06
   1.0523508e-09  -1.8906837e-03   1.3105973e+00   1.1312907e+00  -7.5328339e+06
   1.0533511e-09  -1.8831633e-03   1.3102383e+00   1.1316429e+00  -7.5028959e+06
   1.0543515e-09  -1.8756729e-03   1.3098808e+00   1.1319937e+00  -7.4730767e+06
   1.0553518e-09  -1.8682122e-03   1.3095248e+00   1.1323433e+00  -7.4433759e+06
   1.0563521e-09  -1.8607811e-03   1.3091703e+00   1.1326915e+00  -7.4137930e+06
   1.0573525e-09  -1.8533796e-03   1.3088173e+00   1.1330384e+00  -7.3843275e+06
   1.0583528e-09  -1.8460075e-03   1.3084657e+00   1.1333841e+00  -7.3549790e+06
   1.0593531e-09  -1.8386647e-03   1.3081155e+00   1.1337284e+00  -7.3257470e+06
   1.0603535e-09  -1.8313511e-03   1.3077668e+00   1.1340714e+00  -7.2966310e+06
   1.0613538e-09  -1.8240665e-03   1.3074196e+00   1.1344131e+00  -7.2676307e+06
   1.0623541e-09  -1.8168109e-03   1.3070738e+00   1.1347536e+00  -7.2387454e+06
   1.0633545e-09  -1.8095842e-03   1.3067294e+00   1.1350927e+00  -7.2099749e+06
   1.0643548e-09  -1.8023861e-03   1.3063865e+00   1.1354306e+00  -7.1813185e+06
   1.0653551e-09  -1.7952167e-03   1.3060449e+00   1.1357672e+00  -7.1527760e+06
   1.0663555e-09  -1.7880758e-03   1.3057048e+00   1.1361026e+00  -7.1243467e+06
   1.0673558e-09  -1.7809632e-03   1.3053661e+00   1.1364367e+00  -7.0960303e+06
   1.0683561e-09  -1.7738790e-03   1.3050287e+00   1.1367695e+00  -7.0678263e+06
   1.0693565e-09  -1.7668228e-03   1.3046928e+00   1.1371010e+00  -7.0397343e+06
   1.0703568e-09  -1.7597948e-03   1.3043583e+00   1.1374314e+00  -7.0117538e+06
   1.0713571e-09  -1.7527946e-03   1.3040251e+00   1.1377604e+00  -6.9838844e+06
   1.0723575e-09  -1.7458223e-03   1.3036933e+00   1.1380883e+00  -6.9561256e+06
   1.0733578e-09  -1.7388777e-03   1.3033629e+00   1.1384148e+00  -6.9284770e+06
   1.0743581e-09  -1.7319607e-03   1.3030339e+00   1.1387402e+00  -6.9009382e+06
   1.0753585e-09  -1.7250712e-03   1.3027062e+00   1.1390643e+00  -6.8735088e+06
   1.0763588e-09  -1.7182090e-03   1.3023798e+00   1.1393872e+00  -6.8461882e+06
   1.0773591e-09  -1.7113742e-03   1.3020549e+00   1.1397089e+00  -6.8189761e+06
   1.0783595e-09  -1.7045665e-03   1.3017312e+00   1.1400294e+00  -6.7918720e+06
   1.0793598e-09  -1.6977859e-03   1.3014089e+00   1.1403486e+00  -6.7648756e+06
   1.0803601e-09  -1.6910322e-03   1.3010879e+00   1.1406667e+00  -6.7379863e+06
   1.0813605e-09  -1.6843054e-03   1.3007682e+00   1.1409835e+00  -6.7112038e+06
   1.0823608e-09  -1.6776053e-03   1.3004499e+00   1.1412992e+00  -6.6845276e+06
   1.0833611e-09  -1.6709318e-03   1.3001329e+00   1.1416136e+00  -6.6579573e+06
   1.0843615e-09  -1.6642849e-03   1.2998172e+00   1.1419269e+00  -6.6314925e+06
   1.0853618e-09  -1.6576644e-03   1.2995027e+00   1.1422389e+00  -6.6051328e+06
   1.0863621e-09  -1.6510702e-03   1.2991896e+00   1.1425498e+00  -6.5788777e+06
   1.0873625e-09  -1.6445022e-03   1.2988778e+00   1.1428596e+00  -6.5527269e+06
   1.0883628e-09  -1.6379603e-03   1.2985672e+00   1.1431681e+00  -6.5266799e+06
   1.0893631e-09  -1.6314445e-03   1.2982580e+00   1.1434755e+00  -6.5007363e+06
   1.0903635e-09  -1.6249545e-03   1.2979500e+00   1.1437817e+00  -6.4748958e+06
   1.0913638e-09  -1.6184903e-03   1.2976432e+00   1.1440867e+00  -6.4491578e+06
   1.0923641e-09  -1.6120518e-03   1.2973378e+00   1.1443906e+00  -6.4235220e+06
   1.0933645e-09  -1.6056390e-03   1.2970336e+00   1.1446934e+00  -6.3979880e+06
   1.0943648e-09  -1.5992516e-03   1.2967306e+00   1.1449950e+00  -6.3725554e+06
   1.0953651e-09  -1.5928896e-03   1.2964289e+00   1.1452954e+00  -6.3472238e+06
   1.0963655e-09  -1.5865529e-03   1.2961285e+00   1.1455947e+00  -6.3219927e+06
   1.0973658e-09  -1.5802413e-03   1.2958292e+00   1.1458929e+00  -6.2968619e+06
   1.0983661e-09  -1.5739549e-03   1.2955312e+00   1.1461899e+00  -6.2718308e+06
   1.0993665e-09  -1.5676935e-03   1.2952345e+00   1.1464858e+00  -6.2468991e+06
   1.1003668e-09  -1.5614569e-03   1.2949389e+00   1.1467806e+00  -6.2220664e+06
   1.1013671e-09  -1.5552451e-03   1.2946446e+00   1.1470743e+00  -6.1973323e+06
   1.1023675e-09  -1.5490581e-03   1.2943515e+00   1.1473669e+00  -6.1726964e+06
   1.1033678e-09  -1.5428956e-03   1.2940596e+00   1.1476583e+00  -6.1481583e+06
   1.1043681e-09  -1.5367576e-03   1.2937688e+00   1.1479486e+00  -6.1237176e+06
   1.1053685e-09  -1.5306440e-03   1.2934793e+00   1.1482379e+00  -6.0993740e+06
   1.1063688e-09  -1.5245548e-03   1.2931910e+00   1.1485260e+00  -6.0751271e+06
   1.1073691e-09  -1.5184897e-03   1.2929039e+00   1.1488130e+00  -6.0509764e+06
   1.1083695e-09  -1.5124487e-03   1.2926179e+00   1.1490990e+00  -6.0269217e+06
   1.1093698e-09  -1.5064318e-03   1.2923331e+00   1.1493839e+00  -6.0029624e+06
   1.1103701e-09  -1.5004388e-03   1.2920495e+00   1.1496676e+00  -5.9790983e+06
   1.1113705e-09  -1.4944696e-03   1.2917670e+00   1.1499503e+00  -5.9553290e+06
   1.1123708e-09  -1.4885241e-03   1.2914858e+00   1.1502319e+00  -5.9316540e+06
   1.1133711e-09  -1.4826023e-03   1.2912056e+00   1.1505125e+00  -5.9080731e+06
   1.1143715e-09  -1.4767040e-03   1.2909266e+00   1.1507920e+00  -5.8845858e+06
   1.1153718e-09  -1.4708292e-03   1.2906488e+00   1.1510704e+00  -5.8611917e+06
   1.1163721e-09  -1.4649777e-03   1.2903721e+00   1.1513477e+00  -5.8378905e+06
   1.1173725e-09  -1.4591495e-03   1.2900965e+00   1.1516240e+00  -5.8146819e+06
   1.1183728e-09  -1.4533444e-03   1.2898221e+00   1.1518993e+00  -5.7915655e+06
   1.1193731e-09  -1.4475624e-03   1.2895488e+00   1.1521735e+00  -5.7685408e+06
   1.1203735e-09  -1.4418035e-03   1.2892766e+00   1.1524466e+00  -5.7456076e+06
   1.1213738e-09  -1.4360674e-03   1.2890056e+00   1.1527188e+00  -5.7227654e+06
   1.1223741e-09  -1.4303541e-03   1.2887356e+00   1.1529898e+00  -5.7000139e+06
   1.1233745e-09  -1.4246635e-03   1.2884668e+00   1.1532599e+00  -5.6773528e+06
   1.1243748e-09  -1.4189956e-03   1.2881990e+00   1.1535289e+00  -5.6547817e+06
   1.1253751e-09  -1.4133501e-03   1.2879324e+00   1.1537969e+00  -5.6323002e+06
   1.1263755e-09  -1.4077272e-03   1.2876668e+00   1.1540638e+00  -5.6099080e+06
   1.1273758e-09  -1.4021266e-03   1.2874024e+00   1.1543298e+00  -5.5876047e+06
   1.1283761e-09  -1.3965482e-03   1.2871390e+00   1.1545947e+00  -5.5653900e+06
   1.1293765e-09  -1.3909920e-03   1.2868767e+00   1.1548586e+00  -5.5432635e+06
   1.1303768e-09  -1.3854580e-03   1.2866155e+00   1.1551215e+00  -5.5212249e+06
   1.1313771e-09  -1.3799459e-03   1.2863554e+00   1.1553834e+00  -5.4992738e+06
   1.1323775e-09  -1.3744557e-03   1.2860963e+00   1.1556443e+00  -5.4774098e+06
   1.1333778e-09  -1.3689874e-03   1.2858383e+00   1.1559042e+00  -5.4556327e+06
   1.1343781e-09  -1.3635408e-03   1.2855813e+00   1.1561631e+00  -5.4339421e+06
   1.1353785e-09  -1.3581158e-03   1.2853254e+00   1.1564211e+00  -5.4123376e+06
   1.1363788e-09  -1.3527125e-03   1.2850705e+00   1.1566780e+00  -5.3908190e+06
   1.1373791e-09  -1.3473306e-03   1.2848167e+00   1.1569340e+00  -5.3693857e+06
   1.1383795e-09  -1.3419701e-03   1.2845639e+00   1.1571890e+00  -5.3480376e+06
   1.1393798e-09  -1.3366309e-03   1.2843122e+00   1.1574430e+00  -5.3267743e+06
   1.1403801e-09  -1.3313130e-03   1.2840615e+00   1.1576960e+00  -5.3055955e+06
   1.1413805e-09  -1.3260161e-03   1.2838118e+00   1.1579481e+00  -5.2845007e+06
   1.1423808e-09  -1.3207404e-03   1.2835631e+00   1.1581992e+00  -5.2634897e+06
   1.1433811e-09  -1.3154856e-03   1.2833155e+00   1.1584493e+00  -5.2425622e+06
   1.1443815e-09  -1.3102518e-03   1.2830689e+00   1.1586985e+00  -5.2217178e+06
   1.1453818e-09  -1.3050387e-03   1.2828233e+00   1.1589467e+00  -5.2009562e+06
   1.1463821e-09  -1.2998463e-03   1.2825787e+00   1.1591940e+00  -5.1802770e+06
   1.1473825e-09  -1.2946746e-03   1.2823350e+00   1.1594403e+00  -5.1596800e+06
   1.1483828e-09  -1.2895235e-03   1.2820924e+00   1.1596857e+00  -5.1391647e+06
   1.1493831e-09  -1.2843929e-03   1.2818508e+00   1.1599301e+00  -5.1187310e+06
   1.1503835e-09  -1.2792826e-03   1.2816102e+00   1.1601737e+00  -5.0983784e+06
   1.1513838e-09  -1.2741927e-03   1.2813705e+00   1.1604162e+00  -5.0781066e+06
   1.1523841e-09  -1.2691230e-03   1.2811319e+00   1.1606579e+00  -5.0579154e+06
   1.1533845e-09  -1.2640734e-03   1.2808942e+00   1.1608986e+00  -5.0378043e+06
   1.1543848e-09  -1.2590440e-03   1.2806574e+00   1.1611384e+00  -5.0177732e+06
   1.1553851e-09  -1.2540345e-03   1.2804217e+00   1.1613773e+00  -4.9978216e+06
   1.1563855e-09  -1.2490450e-03   1.2801869e+00   1.1616152e+00  -4.9779492e+06
   1.1573858e-09  -1.2440753e-03   1.2799531e+00   1.1618523e+00  -4.9581558e+06
   1.1583861e-09  -1.2391253e-03   1.2797202e+00   1.1620884e+00  -4.9384409e+06
   1.1593865e-09  -1.2341951e-03   1.2794883e+00   1.1623237e+00  -4.9188044e+06
   1.1603868e-09  -1.2292844e-03   1.2792573e+00   1.1625580e+00  -4.8992459e+06
   1.1613871e-09  -1.2243933e-03   1.2790273e+00   1.1627914e+00  -4.8797651e+06
   1.1623875e-09  -1.2195216e-03   1.2787982e+00   1.1630240e+00  -4.8603617e+06
   1.1633878e-09  -1.2146693e-03   1.2785700e+00   1.1632556e+00  -4.8410353e+06
   1.1643881e-09  -1.2098363e-03   1.2783428e+00   1.1634864e+00  -4.8217857e+06
   1.1653885e-09  -1.2050225e-03   1.2781165e+00   1.1637163e+00  -4.8026125e+06
   1.1663888e-09  -1.2002278e-03   1.2778912e+00   1.1639453e+00  -4.7835155e+06
   1.1673891e-09  -1.1954523e-03   1.2776667e+00   1.1641734e+00  -4.7644944e+06
   1.1683895e-09  -1.1906956e-03   1.2774432e+00   1.1644006e+00  -4.7455488e+06
   1.1693898e-09  -1.1859580e-03   1.2772206e+00   1.1646269e+00  -4.7266785e+06
   1.1703901e-09  -1.1812391e-03   1.2769989e+00   1.1648524e+00  -4.7078831e+06
   1.1713905e-09  -1.1765390e-03   1.2767781e+00   1.1650771e+00  -4.6891624e+06
   1.1723908e-09  -1.1718576e-03   1.2765582e+00   1.1653008e+00  -4.6705161e+06
   1.1733911e-09  -1.1671949e-03   1.2763392e+00   1.1655237e+00  -4.6519438e+06
   1.1743915e-09  -1.1625506e-03   1.2761210e+00   1.1657458e+00  -4.6334453e+06
   1.1753918e-09  -1.1579249e-03   1.2759038e+00   1.1659670e+00  -4.6150203e+06
   1.1763921e-09  -1.1533175e-03   1.2756875e+00   1.1661873e+00  -4.5966685e+06
   1.1773925e-09  -1.1487284e-03   1.2754720e+00   1.1664068e+00  -4.5783895e+06
   1.1783928e-09  -1.1441576e-03   1.2752575e+00   1.1666254e+00  -4.5601832e+06
   1.1793931e-09  -1.1396050e-03   1.2750438e+00   1.1668432e+00  -4.5420492e+06
   1.1803935e-09  -1.1350705e-03   1.2748310e+00   1.1670602e+00  -4.5239873e+06
   1.1813938e-09  -1.1305540e-03   1.2746190e+00   1.1672763e+00  -4.5059971e+06
   1.1823941e-09  -1.1260555e-03   1.2744079e+00   1.1674916e+00  -4.4880783e+06
   1.1833945e-09  -1.1215748e-03   1.2741977e+00   1.1677061e+00  -4.4702308e+06
   1.1843948e-09  -1.1171120e-03   1.2739883e+00   1.1679197e+00  -4.4524541e+06
   1.1853951e-09  -1.1126669e-03   1.2737798e+00   1.1681326e+00  -4.4347481e+06
   1.1863955e-09  -1.1082395e-03   1.2735721e+00   1.1683446e+00  -4.4171124e+06
   1.1873958e-09  -1.1038297e-03   1.2733653e+00   1.1685557e+00  -4.3995468e+06
   1.1883961e-09  -1.0994375e-03   1.2731593e+00   1.1687661e+00  -4.3820509e+06
   1.1893965e-09  -1.0950627e-03   1.2729542e+00   1.1689757e+00  -4.3646246e+06
   1.1903968e-09  -1.0907053e-03   1.2727499e+00   1.1691844e+00  -4.3472675e+06
   1.1913971e-09  -1.0863652e-03   1.2725464e+00   1.1693924e+00  -4.3299793e+06
   1.1923975e-09  -1.0820424e-03   1.2723438e+00   1.1695995e+00  -4.3127598e+06
   1.1933978e-09  -1.0777368e-03   1.2721419e+00   1.1698059e+00  -4.2956088e+06
   1.1943981e-09  -1.0734483e-03   1.2719409e+00   1.1700114e+00  -4.2785258e+06
   1.1953985e-09  -1.0691769e-03   1.2717408e+00   1.1702162e+00  -4.2615108e+06
   1.1963988e-09  -1.0649224e-03   1.2715414e+00   1.1704202e+00  -4.2445633e+06
   1.1973991e-09  -1.0606849e-03   1.2713429e+00   1.1706234e+00  -4.2276832e+06
   1.1983995e-09  -1.0564642e-03   1.2711451e+00   1.1708258e+00  -4.2108701e+06
   1.1993998e-09  -1.0522603e-03   1.2709482e+00   1.1710274e+00  -4.1941238e+06
   1.2004001e-09  -1.0480731e-03   1.2707521e+00   1.1712282e+00  -4.1774441e+06
   1.2014005e-09  -1.0439026e-03   1.2705567e+00   1.1714283e+00  -4.1608306e+06
   1.2024008e-09  -1.0397487e-03   1.2703622e+00   1.1716276e+00  -4.1442831e+06
   1.2034011e-09  -1.0356113e-03   1.2701684e+00   1.1718261e+00  -4.1278014e+06
   1.2044015e-09  -1.0314903e-03   1.2699755e+00   1.1720239e+00  -4.1113852e+06
   1.2054018e-09  -1.0273857e-03   1.2697833e+00   1.1722209e+00  -4.0950342e+06
   1.2064021e-09  -1.0232975e-03   1.2695919e+00   1.1724171e+00  -4.0787481e+06
   1.2074025e-09  -1.0192255e-03   1.2694013e+00   1.1726126e+00  -4.0625268e+06
   1.2084028e-09  -1.0151697e-03   1.2692115e+00   1.1728073e+00  -4.0463699e+06
   1.2094031e-09  -1.0111300e-03   1.2690224e+00   1.1730013e+00  -4.0302772e+06
   1.2104035e-09  -1.0071064e-03   1.2688341e+00   1.1731945e+00  -4.0142484e+06
   1.2114038e-09  -1.0030988e-03   1.2686466e+00   1.1733870e+00  -3.9982833e+06
   1.2124041e-09  -9.9910718e-04   1.2684598e+00   1.1735787e+00  -3.9823817e+06
   1.2134045e-09  -9.9513140e-04   1.2682738e+00   1.1737697e+00  -3.9665432e+06
   1.2144048e-09  -9.9117143e-04   1.2680886e+00   1.1739599e+00  -3.9507677e+06
   1.2154051e-09  -9.8722721e-04   1.2679041e+00   1.1741494e+00  -3.9350549e+06
   1.2164055e-09  -9.8329867e-04   1.2677203e+00   1.1743382e+00  -3.9194044e+06
   1.2174058e-09  -9.7938576e-04   1.2675373e+00   1.1745263e+00  -3.9038162e+06
   1.2184061e-09  -9.7548842e-04   1.2673551e+00   1.1747136e+00  -3.8882899e+06
   1.2194065e-09  -9.7160657e-04   1.2671736e+00   1.1749002e+00  -3.8728253e+06
   1.2204068e-09  -9.6774016e-04   1.2669928e+00   1.1750861e+00  -3.8574222e+06
   1.2214071e-09  -9.6388913e-04   1.2668128e+00   1.1752712e+00  -3.8420802e+06
   1.2224075e-09  -9.6005342e-04   1.2666335e+00   1.1754557e+00  -3.8267992e+06
   1.2234078e-09  -9.5623296e-04   1.2664549e+00   1.1756394e+00  -3.8115790e+06
   1.2244081e-09  -9.5242770e-04   1.2662770e+00   1.1758224e+00  -3.7964192e+06
   1.2254085e-09  -9.4863757e-04   1.2660999e+00   1.1760047e+00  -3.7813196e+06
   1.2264088e-09  -9.4486252e-04   1.2659235e+00   1.1761863e+00  -3.7662801e+06
   1.2274091e-09  -9.4110248e-04   1.2657478e+00   1.1763672e+00  -3.7513003e+06
   1.2284095e-09  -9.3735740e-04   1.2655728e+00   1.1765474e+00  -3.7363800e+06
   1.2294098e-09  -9.3362721e-04   1.2653985e+00   1.1767270e+00  -3.7215190e+06
   1.2304101e-09  -9.2991186e-04   1.2652250e+00   1.1769058e+00  -3.7067171e+06
   1.2314105e-09  -9.2621128e-04   1.2650521e+00   1.1770839e+00  -3.6919740e+06
   1.2324108e-09  -9.2252543e-04   1.2648800e+00   1.1772613e+00  -3.6772895e+06
   1.2334111e-09  -9.1885423e-04   1.2647085e+00   1.1774380e+00  -3.6626633e+06
   1.2344115e-09  -9.1519764e-04   1.2645378e+00   1.1776141e+00  -3.6480953e+06
   1.2354118e-09  -9.1155559e-04   1.2643677e+00   1.1777895e+00  -3.6335851e+06
   1.2364121e-09  -9.0792803e-04   1.2641983e+00   1.1779642e+00  -3.6191326e+06
   1.2374125e-09  -9.0431489e-04   1.2640296e+00   1.1781382e+00  -3.6047376e+06
   1.2384128e-09  -9.0071613e-04   1.2638616e+00   1.1783115e+00  -3.5903997e+06
   1.2394131e-09  -8.9713168e-04   1.2636943e+00   1.1784842e+00  -3.5761188e+06
   1.2404135e-09  -8.9356149e-04   1.2635277e+00   1.1786562e+00  -3.5618947e+06
   1.2414138e-09  -8.9000549e-04   1.2633617e+00   1.1788275e+00  -3.5477271e+06
   1.2424141e-09  -8.8646365e-04   1.2631964e+00   1.1789982e+00  -3.5336158e+06
   1.2434145e-09  -8.8293589e-04   1.2630318e+00   1.1791682e+00  -3.5195606e+06
   1.2444148e-09  -8.7942216e-04   1.2628679e+00   1.1793375e+00  -3.5055612e+06
   1.2454151e-09  -8.7592241e-04   1.2627046e+00   1.1795062e+00  -3.4916175e+06
   1.2464155e-09  -8.7243658e-04   1.2625419e+00   1.1796743e+00  -3.4777291e+06
   1.2474158e-09  -8.6896461e-04   1.2623800e+00   1.1798416e+00  -3.4638960e+06
   1.2484161e-09  -8.6550646e-04   1.2622187e+00   1.1800084e+00  -3.4501179e+06
   1.2494165e-09  -8.6206206e-04   1.2620580e+00   1.1801745e+00  -3.4363945e+06
   1.2504168e-09  -8.5863136e-04   1.2618980e+00   1.1803399e+00  -3.4227256e+06
   1.2514171e-09  -8.5521431e-04   1.2617387e+00   1.1805047e+00  -3.4091111e+06
   1.2524175e-09  -8.5181085e-04   1.2615800e+00   1.1806689e+00  -3.3955506e+06
   1.2534178e-09  -8.4842092e-04   1.2614219e+00   1.1808324e+00  -3.3820441e+06
   1.2544181e-09  -8.4504448e-04   1.2612645e+00   1.1809953e+00  -3.3685913e+06
   1.2554185e-09  -8.4168148e-04   1.2611077e+00   1.1811575e+00  -3.3551919e+06
   1.2564188e-09  -8.3833184e-04   1.2609515e+00   1.1813191e+00  -3.3418457e+06
   1.2574191e-09  -8.3499554e-04   1.2607960e+00   1.1814801e+00  -3.3285526e+06
   1.2584195e-09  -8.3167250e-04   1.2606411e+00   1.1816405e+00  -3.3153124e+06
   1.2594198e-09  -8.2836268e-04   1.2604869e+00   1.1818003e+00  -3.3021247e+06
   1.2604201e-09  -8.2506603e-04   1.2603333e+00   1.1819594e+00  -3.2889895e+06
   1.2614205e-09  -8.2178249e-04   1.2601802e+00   1.1821179e+00  -3.2759065e+06
   1.2624208e-09  -8.1851202e-04   1.2600279e+00   1.1822758e+00  -3.2628754e+06
   1.2634211e-09  -8.1525455e-04   1.2598761e+00   1.1824331e+00  -3.2498962e+06
   1.2644215e-09  -8.1201004e-04   1.2597249e+00   1.1825897e+00  -3.2369686e+06
   1.2654218e-09  -8.0877844e-04   1.2595744e+00   1.1827458e+00  -3.2240923e+06
   1.2664221e-09  -8.0555969e-04   1.2594245e+00   1.1829013e+00  -3.2112672e+06
   1.2674225e-09  -8.0235374e-04   1.2592751e+00   1.1830561e+00  -3.1984931e+06
   1.2684228e-09  -7.9916055e-04   1.2591264e+00   1.1832104e+00  -3.1857697e+06
   1.2694231e-09  -7.9598006e-04   1.2589783e+00   1.1833640e+00  -3.1730970e+06
   1.2704235e-09  -7.9281223e-04   1.2588308e+00   1.1835170e+00  -3.1604746e+06
   1.2714238e-09  -7.8965699e-04   1.2586839e+00   1.1836695e+00  -3.1479023e+06
   1.2724241e-09  -7.8651431e-04   1.2585375e+00   1.1838214e+00  -3.1353800e+06
   1.2734245e-09  -7.8338412e-04   1.2583918e+00   1.1839726e+00  -3.1229076e+06
   1.2744248e-09  -7.8026639e-04   1.2582467e+00   1.1841233e+00  -3.1104846e+06
   1.2754251e-09  -7.7716106e-04   1.2581021e+00   1.1842734e+00  -3.0981111e+06
   1.2764255e-09  -7.7406809e-04   1.2579581e+00   1.1844229e+00  -3.0857867e+06
   1.2774258e-09  -7.7098741e-04   1.2578147e+00   1.1845719e+00  -3.0735114e+06
   1.2784261e-09  -7.6791900e-04   1.2576719e+00   1.1847202e+00  -3.0612848e+06
   1.2794265e-09  -7.6486279e-04   1.2575297e+00   1.1848680e+00  -3.0491068e+06
   1.2804268e-09  -7.6181873e-04   1.2573881e+00   1.1850152e+00  -3.0369772e+06
   1.2814271e-09  -7.5878679e-04   1.2572470e+00   1.1851618e+00  -3.0248959e+06
   1.2824275e-09  -7.5576691e-04   1.2571065e+00   1.1853078e+00  -3.0128625e+06
   1.2834278e-09  -7.5275904e-04   1.2569665e+00   1.1854533e+00  -3.0008770e+06
   1.2844281e-09  -7.4976314e-04   1.2568272e+00   1.1855983e+00  -2.9889391e+06
   1.2854285e-09  -7.4677915e-04   1.2566883e+00   1.1857426e+00  -2.9770487e+06
   1.2864288e-09  -7.4380704e-04   1.2565501e+00   1.1858864e+00  -2.9652056e+06
   1.2874291e-09  -7.4084675e-04   1.2564124e+00   1.1860296e+00  -2.9534095e+06
   1.2884295e-09  -7.3789824e-04   1.2562753e+00   1.1861723e+00  -2.9416603e+06
   1.2894298e-09  -7.3496145e-04   1.2561387e+00   1.1863144e+00  -2.9299578e+06
   1.2904301e-09  -7.3203635e-04   1.2560027e+00   1.1864560e+00  -2.9183019e+06
   1.2914305e-09  -7.2912289e-04   1.2558672e+00   1.1865970e+00  -2.9066922e+06
   1.2924308e-09  -7.2622101e-04   1.2557323e+00   1.1867375e+00  -2.8951288e+06
   1.2934311e-09  -7.2333068e-04   1.2555979e+00   1.1868774e+00  -2.8836112e+06
   1.2944315e-09  -7.2045185e-04   1.2554641e+00   1.1870167e+00  -2.8721395e+06
   1.2954318e-09  -7.1758447e-04   1.2553308e+00   1.1871556e+00  -2.8607134e+06
   1.2964321e-09  -7.1472850e-04   1.2551980e+00   1.1872939e+00  -2.8493327e+06
   1.2974325e-09  -7.1188389e-04   1.2550658e+00   1.1874316e+00  -2.8379972e+06
   1.2984328e-09  -7.0905060e-04   1.2549341e+00   1.1875688e+00  -2.8267068e+06
   1.2994331e-09  -7.0622858e-04   1.2548030e+00   1.1877055e+00  -2.8154613e+06
   1.3004335e-09  -7.0341779e-04   1.2546723e+00   1.1878416e+00  -2.8042605e+06
   1.3014338e-09  -7.0061817e-04   1.2545422e+00   1.1879772e+00  -2.7931042e+06
   1.3024341e-09  -6.9782970e-04   1.2544127e+00   1.1881123e+00  -2.7819922e+06
   1.3034345e-09  -6.9505232e-04   1.2542836e+00   1.1882469e+00  -2.7709245e+06
   1.3044348e-09  -6.9228599e-04   1.2541551e+00   1.1883809e+00  -2.7599007e+06
   1.3054351e-09  -6.8953066e-04   1.2540271e+00   1.1885144e+00  -2.7489207e+06
   1.3064355e-09  -6.8678630e-04   1.2538996e+00   1.1886474e+00  -2.7379844e+06
   1.3074358e-09  -6.8405285e-04   1.2537726e+00   1.1887799e+00  -2.7270916e+06
   1.3084361e-09  -6.8133028e-04   1.2536462e+00   1.1889118e+00  -2.7162421e+06
   1.3094365e-09  -6.7861854e-04   1.2535202e+00   1.1890433e+00  -2.7054357e+06
   1.3104368e-09  -6.7591759e-04   1.2533948e+00   1.1891742e+00  -2.6946723e+06
   1.3114371e-09  -6.7322739e-04   1.2532699e+00   1.1893046e+00  -2.6839517e+06
   1.3124375e-09  -6.7054788e-04   1.2531454e+00   1.1894345e+00  -2.6732736e+06
   1.3134378e-09  -6.6787904e-04   1.2530215e+00   1.1895639e+00  -2.6626381e+06
   1.3144381e-09  -6.6522082e-04   1.2528981e+00   1.1896928e+00  -2.6520448e+06
   1.3154385e-09  -6.6257317e-04   1.2527752e+00   1.1898212e+00  -2.6414936e+06
   1.3164388e-09  -6.5993606e-04   1.2526527e+00   1.1899491e+00  -2.6309844e+06
   1.3174391e-09  -6.5730943e-04   1.2525308e+00   1.1900764e+00  -2.6205170e+06
   1.3184395e-09  -6.5469326e-04   1.2524094e+00   1.1902033e+00  -2.6100912e+06
   1.3194398e-09  -6.5208750e-04   1.2522884e+00   1.1903297e+00  -2.5997068e+06
   1.3204401e-09  -6.4949210e-04   1.2521680e+00   1.1904556e+00  -2.5893637e+06
   1.3214405e-09  -6.4690703e-04   1.2520480e+00   1.1905810e+00  -2.5790617e+06
   1.3224408e-09  -6.4433224e-04   1.2519285e+00   1.1907059e+00  -2.5688007e+06
   1.3234411e-09  -6.4176770e-04   1.2518095e+00   1.1908304e+00  -2.5585805e+06
   1.3244415e-09  -6.3921336e-04   1.2516910e+00   1.1909543e+00  -2.5484009e+06
   1.3254418e-09  -6.3666919e-04   1.2515729e+00   1.1910778e+00  -2.5382618e+06
   1.3264421e-09  -6.3413513e-04   1.2514553e+00   1.1912008e+00  -2.5281630e+06
   1.3274425e-09  -6.3161116e-04   1.2513382e+00   1.1913233e+00  -2.5181044e+06
   1.3284428e-09  -6.2909723e-04   1.2512216e+00   1.1914453e+00  -2.5080857e+06
   1.3294431e-09  -6.2659330e-04   1.2511055e+00   1.1915668e+00  -2.4981069e+06
   1.3304435e-09  -6.2409934e-04   1.2509898e+00   1.1916879e+00  -2.4881678e+06
   1.3314438e-09  -6.2161529e-04   1.2508746e+00   1.1918085e+00  -2.4782681e+06
   1.3324441e-09  -6.1914114e-04   1.2507598e+00   1.1919286e+00  -2.4684079e+06
   1.3334445e-09  -6.1667682e-04   1.2506455e+00   1.1920482e+00  -2.4585868e+06
   1.3344448e-09  -6.1422231e-04   1.2505317e+00   1.1921674e+00  -2.4488048e+06
   1.3354451e-09  -6.1177756e-04   1.2504183e+00   1.1922861e+00  -2.4390617e+06
   1.3364455e-09  -6.0934255e-04   1.2503054e+00   1.1924044e+00  -2.4293573e+06
   1.3374458e-09  -6.0691722e-04   1.2501929e+00   1.1925222e+00  -2.4196915e+06
   1.3384461e-09  -6.0450154e-04   1.2500809e+00   1.1926395e+00  -2.4100641e+06
   1.3394465e-09  -6.0209547e-04   1.2499694e+00   1.1927564e+00  -2.4004750e+06
   1.3404468e-09  -5.9969897e-04   1.2498583e+00   1.1928728e+00  -2.3909241e+06
   1.3414471e-09  -5.9731201e-04   1.2497476e+00   1.1929888e+00  -2.3814111e+06
   1.3424475e-09  -5.9493455e-04   1.2496374e+00   1.1931043e+00  -2.3719359e+06
   1.3434478e-09  -5.9256655e-04   1.2495277e+00   1.1932193e+00  -2.3624984e+06
   1.3444481e-09  -5.9020797e-04   1.2494183e+00   1.1933339e+00  -2.3530985e+06
   1.3454485e-09  -5.8785877e-04   1.2493095e+00   1.1934481e+00  -2.3437359e+06
   1.3464488e-09  -5.8551892e-04   1.2492010e+00   1.1935618e+00  -2.3344105e+06
   1.3474491e-09  -5.8318838e-04   1.2490930e+00   1.1936750e+00  -2.3251222e+06
   1.3484495e-09  -5.8086711e-04   1.2489854e+00   1.1937879e+00  -2.3158709e+06
   1.3494498e-09  -5.7855508e-04   1.2488783e+00   1.1939002e+00  -2.3066563e+06
   1.3504502e-09  -5.7625225e-04   1.2487716e+00   1.1940122e+00  -2.2974784e+06
   1.3514505e-09  -5.7395858e-04   1.2486653e+00   1.1941237e+00  -2.2883370e+06
   1.3524508e-09  -5.7167404e-04   1.2485595e+00   1.1942347e+00  -2.2792319e+06
   1.3534512e-09  -5.6939858e-04   1.2484541e+00   1.1943454e+00  -2.2701630e+06
   1.3544515e-09  -5.6713218e-04   1.2483491e+00   1.1944556e+00  -2.2611302e+06
   1.3554518e-09  -5.6487480e-04   1.2482445e+00   1.1945653e+00  -2.2521333e+06
   1.3564522e-09  -5.6262640e-04   1.2481404e+00   1.1946747e+00  -2.2431722e+06
   1.3574525e-09  -5.6038695e-04   1.2480366e+00   1.1947836e+00  -2.2342467e+06
   1.3584528e-09  -5.5815641e-04   1.2479333e+00   1.1948920e+00  -2.2253567e+06
   1.3594532e-09  -5.5593474e-04   1.2478304e+00   1.1950001e+00  -2.2165021e+06
   1.3604535e-09  -5.5372191e-04   1.2477280e+00   1.1951077e+00  -2.2076827e+06
   1.3614538e-09  -5.5151789e-04   1.2476259e+00   1.1952149e+00  -2.1988983e+06
   1.3624542e-09  -5.4932264e-04   1.2475243e+00   1.1953217e+00  -2.1901489e+06
   1.3634545e-09  -5.4713612e-04   1.2474230e+00   1.1954281e+00  -2.1814342e+06
   1.3644548e-09  -5.4495830e-04   1.2473222e+00   1.1955341e+00  -2.1727543e+06
   1.3654552e-09  -5.4278915e-04   1.2472217e+00   1.1956396e+00  -2.1641088e+06
   1.3664555e-09  -5.4062863e-04   1.2471217e+00   1.1957447e+00  -2.1554977e+06
   1.3674558e-09  -5.3847671e-04   1.2470221e+00   1.1958494e+00  -2.1469209e+06
   1.3684562e-09  -5.3633335e-04   1.2469229e+00   1.1959537e+00  -2.1383781e+06
   1.3694565e-09  -5.3419851e-04   1.2468241e+00   1.1960576e+00  -2.1298694e+06
   1.3704568e-09  -5.3207218e-04   1.2467256e+00   1.1961611e+00  -2.1213944e+06
   1.3714572e-09  -5.2995430e-04   1.2466276e+00   1.1962642e+00  -2.1129532e+06
   1.3724575e-09  -5.2784485e-04   1.2465300e+00   1.1963669e+00  -2.1045455e+06
   1.3734578e-09  -5.2574379e-04   1.2464327e+00   1.1964691e+00  -2.0961713e+06
   1.3744582e-09  -5.2365110e-04   1.2463359e+00   1.1965710e+00  -2.0878304e+06
   1.3754585e-09  -5.2156673e-04   1.2462394e+00   1.1966725e+00  -2.0795226e+06
   1.3764588e-09  -5.1949065e-04   1.2461434e+00   1.1967736e+00  -2.0712479e+06
   1.3774592e-09  -5.1742284e-04   1.2460477e+00   1.1968742e+00  -2.0630061e+06
   1.3784595e-09  -5.1536326e-04   1.2459524e+00   1.1969745e+00  -2.0547971e+06
   1.3794598e-09  -5.1331187e-04   1.2458575e+00   1.1970744e+00  -2.0466207e+06
   1.3804602e-09  -5.1126864e-04   1.2457629e+00   1.1971739e+00  -2.0384768e+06
   1.3814605e-09  -5.0923354e-04   1.2456688e+00   1.1972730e+00  -2.0303653e+06
   1.3824608e-09  -5.0720654e-04   1.2455750e+00   1.1973718e+00  -2.0222861e+06
   1.3834612e-09  -5.0518761e-04   1.2454816e+00   1.1974701e+00  -2.0142390e+06
   1.3844615e-09  -5.0317671e-04   1.2453886e+00   1.1975680e+00  -2.0062239e+06
   1.3854618e-09  -5.0117381e-04   1.2452960e+00   1.1976656e+00  -1.9982407e+06
   1.3864622e-09  -4.9917889e-04   1.2452037e+00   1.1977628e+00  -1.9902892e+06
   1.3874625e-09  -4.9719190e-04   1.2451118e+00   1.1978596e+00  -1.9823694e+06
   1.3884628e-09  -4.9521282e-04   1.2450203e+00   1.1979560e+00  -1.9744810e+06
   1.3894632e-09  -4.9324161e-04   1.2449291e+00   1.1980520e+00  -1.9666241e+06
   1.3904635e-09  -4.9127825e-04   1.2448383e+00   1.1981477e+00  -1.9587983e+06
   1.3914638e-09  -4.8932270e-04   1.2447479e+00   1.1982430e+00  -1.9510037e+06
   1.3924642e-09  -4.8737493e-04   1.2446578e+00   1.1983379e+00  -1.9432401e+06
   1.3934645e-09  -4.8543491e-04   1.2445681e+00   1.1984324e+00  -1.9355074e+06
   1.3944648e-09  -4.8350261e-04   1.2444788e+00   1.1985266e+00  -1.9278054e+06
   1.3954652e-09  -4.8157800e-04   1.2443898e+00   1.1986204e+00  -1.9201341e+06
   1.3964655e-09  -4.7966105e-04   1.2443012e+00   1.1987138e+00  -1.9124932e+06
   1.3974658e-09  -4.7775173e-04   1.2442129e+00   1.1988069e+00  -1.9048828e+06
   1.3984662e-09  -4.7585001e-04   1.2441250e+00   1.1988996e+00  -1.8973026e+06
   1.3994665e-09  -4.7395585e-04   1.2440374e+00   1.1989920e+00  -1.8897526e+06
   1.4004668e-09  -4.7206923e-04   1.2439502e+00   1.1990839e+00  -1.8822325e+06
   1.4014672e-09  -4.7019012e-04   1.2438634e+00   1.1991755e+00  -1.8747425e+06
   1.4024675e-09  -4.6831849e-04   1.2437769e+00   1.1992668e+00  -1.8672821e+06
   1.4034678e-09  -4.6645430e-04   1.2436907e+00   1.1993577e+00  -1.8598515e+06
   1.4044682e-09  -4.6459753e-04   1.2436049e+00   1.1994482e+00  -1.8524504e+06
   1.4054685e-09  -4.6274815e-04   1.2435195e+00   1.1995384e+00  -1.8450788e+06
   1.4064688e-09  -4.6090613e-04   1.2434343e+00   1.1996282e+00  -1.8377365e+06
   1.4074692e-09  -4.5907145e-04   1.2433496e+00   1.1997177e+00  -1.8304233e+06
   1.4084695e-09  -4.5724406e-04   1.2432651e+00   1.1998068e+00  -1.8231393e+06
   1.4094698e-09  -4.5542394e-04   1.2431810e+00   1.1998956e+00  -1.8158842e+06
   1.4104702e-09  -4.5361107e-04   1.2430973e+00   1.1999840e+00  -1.8086580e+06
   1.4114705e-09  -4.5180541e-04   1.2430138e+00   1.2000721e+00  -1.8014605e+06
   1.4124708e-09  -4.5000694e-04   1.2429307e+00   1.2001598e+00  -1.7942917e+06
   1.4134712e-09  -4.4821562e-04   1.2428480e+00   1.2002472e+00  -1.7871514e+06
   1.4144715e-09  -4.4643143e-04   1.2427656e+00   1.2003343e+00  -1.7800394e+06
   1.4154718e-09  -4.4465434e-04   1.2426835e+00   1.2004210e+00  -1.7729558e+06
   1.4164722e-09  -4.4288433e-04   1.2426017e+00   1.2005073e+00  -1.7659003e+06
   1.4174725e-09  -4.4112136e-04   1.2425203e+00   1.2005933e+00  -1.7588729e+06
   1.4184728e-09  -4.3936540e-04   1.2424392e+00   1.2006790e+00  -1.7518735e+06
   1.4194732e-09  -4.3761643e-04   1.2423584e+00   1.2007644e+00  -1.7449018e+06
   1.4204735e-09  -4.3587442e-04   1.2422780e+00   1.2008494e+00  -1.7379580e+06
   1.4214738e-09  -4.3413935e-04   1.2421978e+00   1.2009341e+00  -1.7310417e+06
   1.4224742e-09  -4.3241118e-04   1.2421180e+00   1.2010184e+00  -1.7241529e+06
   1.4234745e-09  -4.3068988e-04   1.2420385e+00   1.2011024e+00  -1.7172916e+06
   1.4244748e-09  -4.2897544e-04   1.2419594e+00   1.2011861e+00  -1.7104575e+06
   1.4254752e-09  -4.2726782e-04   1.2418805e+00   1.2012695e+00  -1.7036506e+06
   1.4264755e-09  -4.2556699e-04   1.2418020e+00   1.2013525e+00  -1.6968708e+06
   1.4274758e-09  -4.2387294e-04   1.2417238e+00   1.2014352e+00  -1.6901180e+06
   1.4284762e-09  -4.2218562e-04   1.2416459e+00   1.2015175e+00  -1.6833920e+06
   1.4294765e-09  -4.2050502e-04   1.2415683e+00   1.2015996e+00  -1.6766928e+06
   1.4304768e-09  -4.1883111e-04   1.2414910e+00   1.2016813e+00  -1.6700202e+06
   1.4314772e-09  -4.1716386e-04   1.2414140e+00   1.2017627e+00  -1.6633742e+06
   1.4324775e-09  -4.1550324e-04   1.2413374e+00   1.2018438e+00  -1.6567546e+06
   1.4334778e-09  -4.1384924e-04   1.2412610e+00   1.2019246e+00  -1.6501613e+06
   1.4344782e-09  -4.1220181e-04   1.2411850e+00   1.2020050e+00  -1.6435942e+06
   1.4354785e-09  -4.1056094e-04   1.2411092e+00   1.2020852e+00  -1.6370533e+06
   1.4364788e-09  -4.0892660e-04   1.2410338e+00   1.2021650e+00  -1.6305384e+06
   1.4374792e-09  -4.0729877e-04   1.2409587e+00   1.2022445e+00  -1.6240494e+06
   1.4384795e-09  -4.0567741e-04   1.2408838e+00   1.2023237e+00  -1.6175863e+06
   1.4394798e-09  -4.0406251e-04   1.2408093e+00   1.2024025e+00  -1.6111488e+06
   1.4404802e-09  -4.0245403e-04   1.2407351e+00   1.2024811e+00  -1.6047369e+06
   1.4414805e-09  -4.0085196e-04   1.2406612e+00   1.2025594e+00  -1.5983506e+06
   1.4424808e-09  -3.9925626e-04   1.2405875e+00   1.2026373e+00  -1.5919896e+06
   1.4434812e-09  -3.9766691e-04   1.2405142e+00   1.2027150e+00  -1.5856540e+06
   1.4444815e-09  -3.9608388e-04   1.2404412e+00   1.2027923e+00  -1.5793435e+06
   1.4454818e-09  -3.9450716e-04   1.2403684e+00   1.2028693e+00  -1.5730582e+06
   1.4464822e-09  -3.9293671e-04   1.2402959e+00   1.2029461e+00  -1.5667978e+06
   1.4474825e-09  -3.9137251e-04   1.2402238e+00   1.2030225e+00  -1.5605624e+06
   1.4484828e-09  -3.8981454e-04   1.2401519e+00   1.2030986e+00  -1.5543517e+06
   1.4494832e-09  -3.8826276e-04   1.2400803e+00   1.2031744e+00  -1.5481658e+06
   1.4504835e-09  -3.8671716e-04   1.2400090e+00   1.2032500e+00  -1.5420045e+06
   1.4514838e-09  -3.8517772e-04   1.2399380e+00   1.2033252e+00  -1.5358677e+06
   1.4524842e-09  -3.8364440e-04   1.2398673e+00   1.2034001e+00  -1.5297553e+06
   1.4534845e-09  -3.8211718e-04   1.2397968e+00   1.2034748e+00  -1.5236672e+06
   1.4544848e-09  -3.8059604e-04   1.2397267e+00   1.2035491e+00  -1.5176033e+06
   1.4554852e-09  -3.7908095e-04   1.2396568e+00   1.2036232e+00  -1.5115636e+06
   1.4564855e-09  -3.7757189e-04   1.2395872e+00   1.2036969e+00  -1.5055478e+06
   1.4574858e-09  -3.7606884e-04   1.2395179e+00   1.2037704e+00  -1.4995561e+06
   1.4584862e-09  -3.7457177e-04   1.2394488e+00   1.2038436e+00  -1.4935881e+06
   1.4594865e-09  -3.7308066e-04   1.2393801e+00   1.2039165e+00  -1.4876439e+06
   1.4604868e-09  -3.7159549e-04   1.2393116e+00   1.2039891e+00  -1.4817233e+06
   1.4614872e-09  -3.7011622e-04   1.2392434e+00   1.2040614e+00  -1.4758263e+06
   1.4624875e-09  -3.6864284e-04   1.2391754e+00   1.2041335e+00  -1.4699528e+06
