   0.0000000e+00  -1.1355981e-01   6.4112299e+00   9.3158830e-04  -5.2297479e+08
   6.6688896e-13  -1.1321135e-01   6.4114593e+00   9.5722829e-04  -5.2205543e+08
   1.3337779e-12  -1.1286351e-01   6.4116912e+00   9.8352741e-04  -5.2113609e+08
   2.0006669e-12  -1.1251628e-01   6.4119256e+00   1.0105013e-03  -5.2021678e+08
   2.6675559e-12  -1.1216966e-01   6.4121624e+00   1.0381657e-03  -5.1929750e+08
   3.3344448e-12  -1.1182366e-01   6.4124018e+00   1.0665371e-03  -5.1837825e+08
   4.0013338e-12  -1.1147827e-01   6.4126436e+00   1.0956320e-03  -5.1745903e+08
   4.6682227e-12  -1.1113349e-01   6.4128880e+00   1.1254674e-03  -5.1653985e+08
   5.3351117e-12  -1.1078933e-01   6.4131350e+00   1.1560605e-03  -5.1562069e+08
   6.0020007e-12  -1.1044578e-01   6.4133845e+00   1.1874290e-03  -5.1470156e+08
   6.6688896e-12  -1.1010284e-01   6.4136366e+00   1.2195910e-03  -5.1378246e+08
   7.3357786e-12  -1.0976051e-01   6.4138913e+00   1.2525649e-03  -5.1286339e+08
   8.0026676e-12  -1.0941880e-01   6.4141486e+00   1.2863694e-03  -5.1194435e+08
   8.6695565e-12  -1.0907770e-01   6.4144085e+00   1.3210238e-03  -5.1102535e+08
   9.3364455e-12  -1.0873722e-01   6.4146711e+00   1.3565477e-03  -5.1010637e+08
   1.0003334e-11  -1.0839734e-01   6.4149363e+00   1.3929609e-03  -5.0918743e+08
   1.0670223e-11  -1.0805808e-01   6.4152042e+00   1.4302840e-03  -5.0826852e+08
   1.1337112e-11  -1.0771943e-01   6.4154748e+00   1.4685376e-03  -5.0734963e+08
   1.2004001e-11  -1.0738140e-01   6.4157482e+00   1.5077431e-03  -5.0643078e+08
   1.2670890e-11  -1.0704398e-01   6.4160242e+00   1.5479221e-03  -5.0551197e+08
   1.3337779e-11  -1.0670717e-01   6.4163029e+00   1.5890967e-03  -5.0459318e+08
   1.4004668e-11  -1.0637097e-01   6.4165844e+00   1.6312895e-03  -5.0367442e+08
   1.4671557e-11  -1.0603539e-01   6.4168687e+00   1.6745234e-03  -5.0275570e+08
   1.5338446e-11  -1.0570042e-01   6.4171557e+00   1.7188219e-03  -5.0183701e+08
   1.6005335e-11  -1.0536606e-01   6.4174455e+00   1.7642090e-03  -5.0091835e+08
   1.6672224e-11  -1.0503231e-01   6.4177382e+00   1.8107089e-03  -4.9999973e+08
   1.7339113e-11  -1.0469918e-01   6.4180336e+00   1.8583468e-03  -4.9908114e+08
   1.8006002e-11  -1.0436666e-01   6.4183318e+00   1.9071478e-03  -4.9816258e+08
   1.8672891e-11  -1.0403475e-01   6.4186329e+00   1.9571379e-03  -4.9724405e+08
   1.9339780e-11  -1.0370346e-01   6.4189369e+00   2.0083435e-03  -4.9632556e+08
   2.0006669e-11  -1.0337278e-01   6.4192437e+00   2.0607915e-03  -4.9540709e+08
   2.0673558e-11  -1.0304271e-01   6.4195534e+00   2.1145093e-03  -4.9448867e+08
   2.1340447e-11  -1.0271325e-01   6.4198660e+00   2.1695250e-03  -4.9357027e+08
   2.2007336e-11  -1.0238441e-01   6.4201814e+00   2.2258669e-03  -4.9265192e+08
   2.2674225e-11  -1.0205617e-01   6.4204998e+00   2.2835642e-03  -4.9173359e+08
   2.3341114e-11  -1.0172855e-01   6.4208211e+00   2.3426465e-03  -4.9081530e+08
   2.4008003e-11  -1.0140155e-01   6.4211453e+00   2.4031440e-03  -4.8989704e+08
   2.4674892e-11  -1.0107515e-01   6.4214725e+00   2.4650874e-03  -4.8897882e+08
   2.5341781e-11  -1.0074937e-01   6.4218026e+00   2.5285081e-03  -4.8806063e+08
   2.6008670e-11  -1.0042420e-01   6.4221357e+00   2.5934381e-03  -4.8714248e+08
   2.6675559e-11  -1.0009964e-01   6.4224718e+00   2.6599099e-03  -4.8622436e+08
   2.7342447e-11  -9.9775697e-02   6.4228108e+00   2.7279567e-03  -4.8530627e+08
   2.8009336e-11  -9.9452364e-02   6.4231528e+00   2.7976123e-03  -4.8438823e+08
   2.8676225e-11  -9.9129643e-02   6.4234978e+00   2.8689111e-03  -4.8347021e+08
   2.9343114e-11  -9.8807535e-02   6.4238458e+00   2.9418882e-03  -4.8255224e+08
   3.0010003e-11  -9.8486039e-02   6.4241968e+00   3.0165793e-03  -4.8163429e+08
   3.0676892e-11  -9.8165156e-02   6.4245509e+00   3.0930208e-03  -4.8071639e+08
   3.1343781e-11  -9.7844884e-02   6.4249079e+00   3.1712498e-03  -4.7979852e+08
   3.2010670e-11  -9.7525225e-02   6.4252680e+00   3.2513040e-03  -4.7888069e+08
   3.2677559e-11  -9.7206178e-02   6.4256312e+00   3.3332218e-03  -4.7796289e+08
   3.3344448e-11  -9.6887743e-02   6.4259973e+00   3.4170424e-03  -4.7704513e+08
   3.4011337e-11  -9.6569920e-02   6.4263665e+00   3.5028057e-03  -4.7612741e+08
   3.4678226e-11  -9.6252709e-02   6.4267388e+00   3.5905521e-03  -4.7520972e+08
   3.5345115e-11  -9.5936111e-02   6.4271141e+00   3.6803231e-03  -4.7429207e+08
   3.6012004e-11  -9.5620124e-02   6.4274925e+00   3.7721606e-03  -4.7337446e+08
   3.6678893e-11  -9.5304749e-02   6.4278740e+00   3.8661076e-03  -4.7245689e+08
   3.7345782e-11  -9.4989987e-02   6.4282585e+00   3.9622075e-03  -4.7153935e+08
   3.8012671e-11  -9.4675836e-02   6.4286460e+00   4.0605047e-03  -4.7062185e+08
   3.8679560e-11  -9.4362298e-02   6.4290367e+00   4.1610443e-03  -4.6970439e+08
   3.9346449e-11  -9.4049371e-02   6.4294304e+00   4.2638723e-03  -4.6878697e+08
   4.0013338e-11  -9.3737056e-02   6.4298272e+00   4.3690355e-03  -4.6786959e+08
   4.0680227e-11  -9.3425353e-02   6.4302270e+00   4.4765813e-03  -4.6695225e+08
   4.1347116e-11  -9.3114262e-02   6.4306300e+00   4.5865583e-03  -4.6603494e+08
   4.2014005e-11  -9.2803783e-02   6.4310360e+00   4.6990155e-03  -4.6511768e+08
   4.2680894e-11  -9.2493915e-02   6.4314450e+00   4.8140032e-03  -4.6420045e+08
   4.3347783e-11  -9.2184660e-02   6.4318571e+00   4.9315722e-03  -4.6328327e+08
   4.4014672e-11  -9.1876016e-02   6.4322723e+00   5.0517744e-03  -4.6236612e+08
   4.4681561e-11  -9.1567984e-02   6.4326906e+00   5.1746626e-03  -4.6144902e+08
   4.5348449e-11  -9.1260563e-02   6.4331119e+00   5.3002903e-03  -4.6053195e+08
   4.6015338e-11  -9.0953755e-02   6.4335363e+00   5.4287121e-03  -4.5961493e+08
   4.6682227e-11  -9.0647557e-02   6.4339637e+00   5.5599834e-03  -4.5869795e+08
   4.7349116e-11  -9.0341972e-02   6.4343941e+00   5.6941606e-03  -4.5778101e+08
   4.8016005e-11  -9.0036998e-02   6.4348276e+00   5.8313011e-03  -4.5686411e+08
   4.8682894e-11  -8.9732636e-02   6.4352641e+00   5.9714631e-03  -4.5594725e+08
   4.9349783e-11  -8.9428885e-02   6.4357036e+00   6.1147059e-03  -4.5503043e+08
   5.0016672e-11  -8.9125745e-02   6.4361461e+00   6.2610898e-03  -4.5411366e+08
   5.0683561e-11  -8.8823218e-02   6.4365917e+00   6.4106760e-03  -4.5319693e+08
   5.1350450e-11  -8.8521301e-02   6.4370402e+00   6.5635267e-03  -4.5228024e+08
   5.2017339e-11  -8.8219996e-02   6.4374917e+00   6.7197052e-03  -4.5136360e+08
   5.2684228e-11  -8.7919303e-02   6.4379462e+00   6.8792758e-03  -4.5044700e+08
   5.3351117e-11  -8.7619221e-02   6.4384036e+00   7.0423038e-03  -4.4953044e+08
   5.4018006e-11  -8.7319750e-02   6.4388640e+00   7.2088557e-03  -4.4861393e+08
   5.4684895e-11  -8.7020890e-02   6.4393273e+00   7.3789988e-03  -4.4769746e+08
   5.5351784e-11  -8.6722642e-02   6.4397935e+00   7.5528017e-03  -4.4678104e+08
   5.6018673e-11  -8.6425005e-02   6.4402626e+00   7.7303341e-03  -4.4586467e+08
   5.6685562e-11  -8.6127979e-02   6.4407346e+00   7.9116667e-03  -4.4494833e+08
   5.7352451e-11  -8.5831565e-02   6.4412095e+00   8.0968713e-03  -4.4403205e+08
   5.8019340e-11  -8.5535761e-02   6.4416872e+00   8.2860209e-03  -4.4311581e+08
   5.8686229e-11  -8.5240569e-02   6.4421677e+00   8.4791896e-03  -4.4219962e+08
   5.9353118e-11  -8.4945988e-02   6.4426511e+00   8.6764527e-03  -4.4128347e+08
   6.0020007e-11  -8.4652018e-02   6.4431372e+00   8.8778867e-03  -4.4036737e+08
   6.0686896e-11  -8.4358659e-02   6.4436261e+00   9.0835691e-03  -4.3945132e+08
   6.1353785e-11  -8.4065911e-02   6.4441177e+00   9.2935787e-03  -4.3853532e+08
   6.2020674e-11  -8.3773774e-02   6.4446121e+00   9.5079956e-03  -4.3761937e+08
   6.2687563e-11  -8.3482248e-02   6.4451092e+00   9.7269011e-03  -4.3670346e+08
   6.3354451e-11  -8.3191333e-02   6.4456089e+00   9.9503775e-03  -4.3578761e+08
   6.4021340e-11  -8.2901029e-02   6.4461113e+00   1.0178508e-02  -4.3487180e+08
   6.4688229e-11  -8.2611335e-02   6.4466163e+00   1.0411379e-02  -4.3395605e+08
   6.5355118e-11  -8.2322253e-02   6.4471239e+00   1.0649076e-02  -4.3304035e+08
   6.6022007e-11  -8.2033781e-02   6.4476340e+00   1.0891685e-02  -4.3212469e+08
   6.6688896e-11  -8.1745920e-02   6.4481467e+00   1.1139297e-02  -4.3120909e+08
   6.7355785e-11  -8.1458669e-02   6.4486618e+00   1.1392001e-02  -4.3029355e+08
   6.8022674e-11  -8.1172030e-02   6.4491795e+00   1.1649888e-02  -4.2937805e+08
   6.8689563e-11  -8.0886001e-02   6.4496995e+00   1.1913052e-02  -4.2846261e+08
   6.9356452e-11  -8.0600582e-02   6.4502220e+00   1.2181586e-02  -4.2754722e+08
   7.0023341e-11  -8.0315775e-02   6.4507468e+00   1.2455586e-02  -4.2663189e+08
   7.0690230e-11  -8.0031577e-02   6.4512740e+00   1.2735148e-02  -4.2571661e+08
   7.1357119e-11  -7.9747991e-02   6.4518034e+00   1.3020371e-02  -4.2480138e+08
   7.2024008e-11  -7.9465014e-02   6.4523351e+00   1.3311355e-02  -4.2388621e+08
   7.2690897e-11  -7.9182649e-02   6.4528689e+00   1.3608199e-02  -4.2297110e+08
   7.3357786e-11  -7.8900893e-02   6.4534050e+00   1.3911007e-02  -4.2205605e+08
   7.4024675e-11  -7.8619748e-02   6.4539432e+00   1.4219882e-02  -4.2114105e+08
   7.4691564e-11  -7.8339213e-02   6.4544834e+00   1.4534929e-02  -4.2022611e+08
   7.5358453e-11  -7.8059289e-02   6.4550257e+00   1.4856256e-02  -4.1931123e+08
   7.6025342e-11  -7.7779974e-02   6.4555699e+00   1.5183969e-02  -4.1839641e+08
   7.6692231e-11  -7.7501270e-02   6.4561161e+00   1.5518179e-02  -4.1748165e+08
   7.7359120e-11  -7.7223177e-02   6.4566642e+00   1.5858998e-02  -4.1656695e+08
   7.8026009e-11  -7.6945693e-02   6.4572141e+00   1.6206536e-02  -4.1565232e+08
   7.8692898e-11  -7.6668819e-02   6.4577658e+00   1.6560908e-02  -4.1473774e+08
   7.9359787e-11  -7.6392556e-02   6.4583192e+00   1.6922231e-02  -4.1382323e+08
   8.0026676e-11  -7.6116902e-02   6.4588743e+00   1.7290620e-02  -4.1290878e+08
   8.0693565e-11  -7.5841858e-02   6.4594311e+00   1.7666195e-02  -4.1199439e+08
   8.1360453e-11  -7.5567424e-02   6.4599894e+00   1.8049075e-02  -4.1108007e+08
   8.2027342e-11  -7.5293601e-02   6.4605492e+00   1.8439382e-02  -4.1016582e+08
   8.2694231e-11  -7.5020386e-02   6.4611104e+00   1.8837240e-02  -4.0925163e+08
   8.3361120e-11  -7.4747782e-02   6.4616731e+00   1.9242774e-02  -4.0833752e+08
   8.4028009e-11  -7.4475788e-02   6.4622370e+00   1.9656109e-02  -4.0742346e+08
   8.4694898e-11  -7.4204403e-02   6.4628022e+00   2.0077373e-02  -4.0650948e+08
   8.5361787e-11  -7.3933628e-02   6.4633687e+00   2.0506697e-02  -4.0559557e+08
   8.6028676e-11  -7.3663462e-02   6.4639362e+00   2.0944211e-02  -4.0468173e+08
   8.6695565e-11  -7.3393906e-02   6.4645048e+00   2.1390048e-02  -4.0376796e+08
   8.7362454e-11  -7.3124959e-02   6.4650744e+00   2.1844343e-02  -4.0285427e+08
   8.8029343e-11  -7.2856622e-02   6.4656449e+00   2.2307232e-02  -4.0194064e+08
   8.8696232e-11  -7.2588895e-02   6.4662162e+00   2.2778852e-02  -4.0102709e+08
   8.9363121e-11  -7.2321776e-02   6.4667883e+00   2.3259342e-02  -4.0011362e+08
   9.0030010e-11  -7.2055267e-02   6.4673611e+00   2.3748844e-02  -3.9920022e+08
   9.0696899e-11  -7.1789367e-02   6.4679345e+00   2.4247501e-02  -3.9828691e+08
   9.1363788e-11  -7.1524077e-02   6.4685085e+00   2.4755456e-02  -3.9737367e+08
   9.2030677e-11  -7.1259395e-02   6.4690829e+00   2.5272856e-02  -3.9646050e+08
   9.2697566e-11  -7.0995323e-02   6.4696577e+00   2.5799848e-02  -3.9554742e+08
   9.3364455e-11  -7.0731860e-02   6.4702328e+00   2.6336582e-02  -3.9463443e+08
   9.4031344e-11  -7.0469005e-02   6.4708080e+00   2.6883208e-02  -3.9372151e+08
   9.4698233e-11  -7.0206760e-02   6.4713834e+00   2.7439880e-02  -3.9280868e+08
   9.5365122e-11  -6.9945124e-02   6.4719588e+00   2.8006752e-02  -3.9189593e+08
   9.6032011e-11  -6.9684096e-02   6.4725342e+00   2.8583980e-02  -3.9098327e+08
   9.6698900e-11  -6.9423677e-02   6.4731094e+00   2.9171722e-02  -3.9007070e+08
   9.7365789e-11  -6.9163867e-02   6.4736844e+00   2.9770138e-02  -3.8915821e+08
   9.8032678e-11  -6.8904665e-02   6.4742590e+00   3.0379388e-02  -3.8824582e+08
   9.8699567e-11  -6.8646072e-02   6.4748331e+00   3.0999637e-02  -3.8733351e+08
   9.9366455e-11  -6.8388088e-02   6.4754068e+00   3.1631048e-02  -3.8642130e+08
   1.0003334e-10  -6.8130712e-02   6.4759797e+00   3.2273788e-02  -3.8550919e+08
   1.0070023e-10  -6.7873944e-02   6.4765520e+00   3.2928026e-02  -3.8459716e+08
   1.0136712e-10  -6.7617785e-02   6.4771234e+00   3.3593932e-02  -3.8368524e+08
   1.0203401e-10  -6.7362234e-02   6.4776938e+00   3.4271677e-02  -3.8277341e+08
   1.0270090e-10  -6.7107291e-02   6.4782632e+00   3.4961434e-02  -3.8186168e+08
   1.0336779e-10  -6.6852956e-02   6.4788314e+00   3.5663379e-02  -3.8095005e+08
   1.0403468e-10  -6.6599229e-02   6.4793984e+00   3.6377688e-02  -3.8003853e+08
   1.0470157e-10  -6.6346111e-02   6.4799639e+00   3.7104541e-02  -3.7912710e+08
   1.0536846e-10  -6.6093600e-02   6.4805279e+00   3.7844118e-02  -3.7821579e+08
   1.0603535e-10  -6.5841697e-02   6.4810903e+00   3.8596600e-02  -3.7730458e+08
   1.0670223e-10  -6.5590402e-02   6.4816510e+00   3.9362172e-02  -3.7639347e+08
   1.0736912e-10  -6.5339715e-02   6.4822098e+00   4.0141020e-02  -3.7548248e+08
   1.0803601e-10  -6.5089635e-02   6.4827666e+00   4.0933329e-02  -3.7457160e+08
   1.0870290e-10  -6.4840163e-02   6.4833213e+00   4.1739291e-02  -3.7366084e+08
   1.0936979e-10  -6.4591298e-02   6.4838738e+00   4.2559094e-02  -3.7275018e+08
   1.1003668e-10  -6.4343040e-02   6.4844239e+00   4.3392932e-02  -3.7183965e+08
   1.1070357e-10  -6.4095390e-02   6.4849716e+00   4.4240999e-02  -3.7092923e+08
   1.1137046e-10  -6.3848348e-02   6.4855166e+00   4.5103491e-02  -3.7001893e+08
   1.1203735e-10  -6.3601912e-02   6.4860588e+00   4.5980605e-02  -3.6910876e+08
   1.1270423e-10  -6.3356083e-02   6.4865982e+00   4.6872540e-02  -3.6819871e+08
   1.1337112e-10  -6.3110862e-02   6.4871345e+00   4.7779498e-02  -3.6728878e+08
   1.1403801e-10  -6.2866247e-02   6.4876677e+00   4.8701681e-02  -3.6637899e+08
   1.1470490e-10  -6.2622239e-02   6.4881976e+00   4.9639293e-02  -3.6546932e+08
   1.1537179e-10  -6.2378838e-02   6.4887240e+00   5.0592540e-02  -3.6455978e+08
   1.1603868e-10  -6.2136044e-02   6.4892468e+00   5.1561630e-02  -3.6365038e+08
   1.1670557e-10  -6.1893856e-02   6.4897659e+00   5.2546772e-02  -3.6274111e+08
   1.1737246e-10  -6.1652274e-02   6.4902812e+00   5.3548177e-02  -3.6183199e+08
   1.1803935e-10  -6.1411299e-02   6.4907923e+00   5.4566056e-02  -3.6092300e+08
   1.1870624e-10  -6.1170930e-02   6.4912994e+00   5.5600626e-02  -3.6001415e+08
   1.1937312e-10  -6.0931168e-02   6.4918020e+00   5.6652100e-02  -3.5910545e+08
   1.2004001e-10  -6.0692011e-02   6.4923002e+00   5.7720696e-02  -3.5819689e+08
   1.2070690e-10  -6.0453460e-02   6.4927937e+00   5.8806633e-02  -3.5728849e+08
   1.2137379e-10  -6.0215516e-02   6.4932825e+00   5.9910131e-02  -3.5638023e+08
   1.2204068e-10  -5.9978177e-02   6.4937662e+00   6.1031412e-02  -3.5547213e+08
   1.2270757e-10  -5.9741443e-02   6.4942448e+00   6.2170700e-02  -3.5456418e+08
   1.2337446e-10  -5.9505315e-02   6.4947182e+00   6.3328218e-02  -3.5365640e+08
   1.2404135e-10  -5.9269793e-02   6.4951860e+00   6.4504195e-02  -3.5274877e+08
   1.2470824e-10  -5.9034876e-02   6.4956483e+00   6.5698856e-02  -3.5184131e+08
   1.2537513e-10  -5.8800564e-02   6.4961047e+00   6.6912432e-02  -3.5093401e+08
   1.2604201e-10  -5.8566858e-02   6.4965552e+00   6.8145154e-02  -3.5002688e+08
   1.2670890e-10  -5.8333756e-02   6.4969995e+00   6.9397252e-02  -3.4911992e+08
   1.2737579e-10  -5.8101259e-02   6.4974375e+00   7.0668961e-02  -3.4821314e+08
   1.2804268e-10  -5.7869367e-02   6.4978690e+00   7.1960516e-02  -3.4730653e+08
   1.2870957e-10  -5.7638080e-02   6.4982939e+00   7.3272151e-02  -3.4640010e+08
   1.2937646e-10  -5.7407397e-02   6.4987119e+00   7.4604106e-02  -3.4549385e+08
   1.3004335e-10  -5.7177318e-02   6.4991228e+00   7.5956619e-02  -3.4458779e+08
   1.3071024e-10  -5.6947844e-02   6.4995265e+00   7.7329929e-02  -3.4368192e+08
   1.3137713e-10  -5.6718974e-02   6.4999229e+00   7.8724277e-02  -3.4277624e+08
   1.3204401e-10  -5.6490708e-02   6.5003116e+00   8.0139907e-02  -3.4187075e+08
   1.3271090e-10  -5.6263046e-02   6.5006925e+00   8.1577061e-02  -3.4096545e+08
   1.3337779e-10  -5.6035987e-02   6.5010655e+00   8.3035985e-02  -3.4006036e+08
   1.3404468e-10  -5.5809532e-02   6.5014303e+00   8.4516923e-02  -3.3915547e+08
   1.3471157e-10  -5.5583681e-02   6.5017867e+00   8.6020124e-02  -3.3825078e+08
   1.3537846e-10  -5.5358433e-02   6.5021346e+00   8.7545835e-02  -3.3734631e+08
   1.3604535e-10  -5.5133788e-02   6.5024737e+00   8.9094304e-02  -3.3644205e+08
   1.3671224e-10  -5.4909746e-02   6.5028038e+00   9.0665783e-02  -3.3553800e+08
   1.3737913e-10  -5.4686307e-02   6.5031248e+00   9.2260521e-02  -3.3463417e+08
   1.3804602e-10  -5.4463471e-02   6.5034365e+00   9.3878771e-02  -3.3373057e+08
   1.3871290e-10  -5.4241237e-02   6.5037386e+00   9.5520785e-02  -3.3282719e+08
   1.3937979e-10  -5.4019606e-02   6.5040309e+00   9.7186817e-02  -3.3192404e+08
   1.4004668e-10  -5.3798577e-02   6.5043132e+00   9.8877122e-02  -3.3102112e+08
   1.4071357e-10  -5.3578150e-02   6.5045854e+00   1.0059195e-01  -3.3011844e+08
   1.4138046e-10  -5.3358325e-02   6.5048471e+00   1.0233157e-01  -3.2921600e+08
   1.4204735e-10  -5.3139102e-02   6.5050983e+00   1.0409622e-01  -3.2831380e+08
   1.4271424e-10  -5.2920480e-02   6.5053386e+00   1.0588618e-01  -3.2741185e+08
   1.4338113e-10  -5.2702460e-02   6.5055679e+00   1.0770168e-01  -3.2651015e+08
   1.4404802e-10  -5.2485041e-02   6.5057859e+00   1.0954300e-01  -3.2560871e+08
   1.4471490e-10  -5.2268223e-02   6.5059925e+00   1.1141040e-01  -3.2470752e+08
   1.4538179e-10  -5.2052007e-02   6.5061874e+00   1.1330412e-01  -3.2380660e+08
   1.4604868e-10  -5.1836391e-02   6.5063703e+00   1.1522444e-01  -3.2290595e+08
   1.4671557e-10  -5.1621375e-02   6.5065412e+00   1.1717160e-01  -3.2200556e+08
   1.4738246e-10  -5.1406960e-02   6.5066997e+00   1.1914589e-01  -3.2110546e+08
   1.4804935e-10  -5.1193145e-02   6.5068456e+00   1.2114754e-01  -3.2020563e+08
   1.4871624e-10  -5.0979930e-02   6.5069787e+00   1.2317683e-01  -3.1930608e+08
   1.4938313e-10  -5.0767315e-02   6.5070988e+00   1.2523401e-01  -3.1840683e+08
   1.5005002e-10  -5.0555299e-02   6.5072057e+00   1.2731935e-01  -3.1750786e+08
   1.5071691e-10  -5.0343883e-02   6.5072990e+00   1.2943311e-01  -3.1660919e+08
   1.5138379e-10  -5.0133066e-02   6.5073787e+00   1.3157555e-01  -3.1571082e+08
   1.5205068e-10  -4.9922848e-02   6.5074444e+00   1.3374693e-01  -3.1481276e+08
   1.5271757e-10  -4.9713229e-02   6.5074960e+00   1.3594752e-01  -3.1391501e+08
   1.5338446e-10  -4.9504209e-02   6.5075331e+00   1.3817757e-01  -3.1301757e+08
   1.5405135e-10  -4.9295786e-02   6.5075556e+00   1.4043734e-01  -3.1212045e+08
   1.5471824e-10  -4.9087962e-02   6.5075632e+00   1.4272711e-01  -3.1122365e+08
   1.5538513e-10  -4.8880736e-02   6.5075558e+00   1.4504712e-01  -3.1032719e+08
   1.5605202e-10  -4.8674108e-02   6.5075329e+00   1.4739764e-01  -3.0943105e+08
   1.5671891e-10  -4.8468077e-02   6.5074945e+00   1.4977893e-01  -3.0853526e+08
   1.5738580e-10  -4.8262643e-02   6.5074403e+00   1.5219124e-01  -3.0763980e+08
   1.5805268e-10  -4.8057806e-02   6.5073701e+00   1.5463485e-01  -3.0674470e+08
   1.5871957e-10  -4.7853566e-02   6.5072835e+00   1.5711000e-01  -3.0584995e+08
   1.5938646e-10  -4.7649923e-02   6.5071804e+00   1.5961695e-01  -3.0495556e+08
   1.6005335e-10  -4.7446875e-02   6.5070606e+00   1.6215596e-01  -3.0406153e+08
   1.6072024e-10  -4.7244424e-02   6.5069237e+00   1.6472729e-01  -3.0316787e+08
   1.6138713e-10  -4.7042569e-02   6.5067696e+00   1.6733120e-01  -3.0227458e+08
   1.6205402e-10  -4.6841309e-02   6.5065979e+00   1.6996793e-01  -3.0138168e+08
   1.6272091e-10  -4.6640644e-02   6.5064086e+00   1.7263774e-01  -3.0048915e+08
   1.6338780e-10  -4.6440574e-02   6.5062013e+00   1.7534088e-01  -2.9959702e+08
   1.6405468e-10  -4.6241099e-02   6.5059757e+00   1.7807761e-01  -2.9870529e+08
   1.6472157e-10  -4.6042219e-02   6.5057317e+00   1.8084818e-01  -2.9781395e+08
   1.6538846e-10  -4.5843933e-02   6.5054690e+00   1.8365283e-01  -2.9692303e+08
   1.6605535e-10  -4.5646240e-02   6.5051874e+00   1.8649181e-01  -2.9603251e+08
   1.6672224e-10  -4.5449141e-02   6.5048865e+00   1.8936538e-01  -2.9514241e+08
   1.6738913e-10  -4.5252636e-02   6.5045662e+00   1.9227376e-01  -2.9425274e+08
   1.6805602e-10  -4.5056724e-02   6.5042263e+00   1.9521722e-01  -2.9336350e+08
   1.6872291e-10  -4.4861404e-02   6.5038664e+00   1.9819599e-01  -2.9247470e+08
   1.6938980e-10  -4.4666677e-02   6.5034864e+00   2.0121031e-01  -2.9158633e+08
   1.7005669e-10  -4.4472542e-02   6.5030860e+00   2.0426042e-01  -2.9069842e+08
   1.7072357e-10  -4.4278999e-02   6.5026650e+00   2.0734656e-01  -2.8981096e+08
   1.7139046e-10  -4.4086047e-02   6.5022230e+00   2.1046896e-01  -2.8892396e+08
   1.7205735e-10  -4.3893687e-02   6.5017600e+00   2.1362785e-01  -2.8803743e+08
   1.7272424e-10  -4.3701917e-02   6.5012756e+00   2.1682348e-01  -2.8715137e+08
   1.7339113e-10  -4.3510738e-02   6.5007695e+00   2.2005606e-01  -2.8626578e+08
   1.7405802e-10  -4.3320150e-02   6.5002417e+00   2.2332583e-01  -2.8538069e+08
   1.7472491e-10  -4.3130151e-02   6.4996917e+00   2.2663300e-01  -2.8449609e+08
   1.7539180e-10  -4.2940742e-02   6.4991194e+00   2.2997781e-01  -2.8361199e+08
   1.7605869e-10  -4.2751922e-02   6.4985246e+00   2.3336047e-01  -2.8272839e+08
   1.7672558e-10  -4.2563691e-02   6.4979070e+00   2.3678120e-01  -2.8184530e+08
   1.7739246e-10  -4.2376049e-02   6.4972663e+00   2.4024021e-01  -2.8096274e+08
   1.7805935e-10  -4.2188994e-02   6.4966024e+00   2.4373773e-01  -2.8008070e+08
   1.7872624e-10  -4.2002528e-02   6.4959149e+00   2.4727395e-01  -2.7919919e+08
   1.7939313e-10  -4.1816649e-02   6.4952038e+00   2.5084910e-01  -2.7831822e+08
   1.8006002e-10  -4.1631358e-02   6.4944686e+00   2.5446336e-01  -2.7743780e+08
   1.8072691e-10  -4.1446653e-02   6.4937093e+00   2.5811695e-01  -2.7655793e+08
   1.8139380e-10  -4.1262534e-02   6.4929256e+00   2.6181006e-01  -2.7567863e+08
   1.8206069e-10  -4.1079001e-02   6.4921172e+00   2.6554289e-01  -2.7479989e+08
   1.8272758e-10  -4.0896054e-02   6.4912839e+00   2.6931564e-01  -2.7392173e+08
   1.8339446e-10  -4.0713693e-02   6.4904255e+00   2.7312848e-01  -2.7304415e+08
   1.8406135e-10  -4.0531916e-02   6.4895417e+00   2.7698162e-01  -2.7216716e+08
   1.8472824e-10  -4.0350723e-02   6.4886325e+00   2.8087523e-01  -2.7129076e+08
   1.8539513e-10  -4.0170115e-02   6.4876974e+00   2.8480949e-01  -2.7041497e+08
   1.8606202e-10  -3.9990090e-02   6.4867363e+00   2.8878458e-01  -2.6953980e+08
   1.8672891e-10  -3.9810648e-02   6.4857491e+00   2.9280067e-01  -2.6866524e+08
   1.8739580e-10  -3.9631789e-02   6.4847354e+00   2.9685794e-01  -2.6779131e+08
   1.8806269e-10  -3.9453512e-02   6.4836950e+00   3.0095654e-01  -2.6691802e+08
   1.8872958e-10  -3.9275818e-02   6.4826279e+00   3.0509665e-01  -2.6604536e+08
   1.8939647e-10  -3.9098705e-02   6.4815336e+00   3.0927841e-01  -2.6517336e+08
   1.9006335e-10  -3.8922172e-02   6.4804121e+00   3.1350199e-01  -2.6430202e+08
   1.9073024e-10  -3.8746221e-02   6.4792631e+00   3.1776753e-01  -2.6343135e+08
   1.9139713e-10  -3.8570849e-02   6.4780864e+00   3.2207518e-01  -2.6256134e+08
   1.9206402e-10  -3.8396058e-02   6.4768818e+00   3.2642508e-01  -2.6169203e+08
   1.9273091e-10  -3.8221845e-02   6.4756491e+00   3.3081738e-01  -2.6082340e+08
   1.9339780e-10  -3.8048211e-02   6.4743882e+00   3.3525220e-01  -2.5995547e+08
   1.9406469e-10  -3.7875156e-02   6.4730987e+00   3.3972968e-01  -2.5908825e+08
   1.9473158e-10  -3.7702678e-02   6.4717807e+00   3.4424995e-01  -2.5822174e+08
   1.9539847e-10  -3.7530778e-02   6.4704337e+00   3.4881311e-01  -2.5735596e+08
   1.9606536e-10  -3.7359454e-02   6.4690577e+00   3.5341930e-01  -2.5649091e+08
   1.9673224e-10  -3.7188707e-02   6.4676525e+00   3.5806862e-01  -2.5562660e+08
   1.9739913e-10  -3.7018536e-02   6.4662179e+00   3.6276117e-01  -2.5476303e+08
   1.9806602e-10  -3.6848940e-02   6.4647537e+00   3.6749708e-01  -2.5390023e+08
   1.9873291e-10  -3.6679919e-02   6.4632597e+00   3.7227642e-01  -2.5303819e+08
   1.9939980e-10  -3.6511472e-02   6.4617358e+00   3.7709930e-01  -2.5217693e+08
   2.0006669e-10  -3.6343599e-02   6.4601817e+00   3.8196581e-01  -2.5131644e+08
   2.0073358e-10  -3.6176299e-02   6.4585974e+00   3.8687602e-01  -2.5045675e+08
   2.0140047e-10  -3.6009572e-02   6.4569827e+00   3.9183002e-01  -2.4959787e+08
   2.0206736e-10  -3.5843417e-02   6.4553374e+00   3.9682789e-01  -2.4873979e+08
   2.0273424e-10  -3.5677833e-02   6.4536613e+00   4.0186968e-01  -2.4788253e+08
   2.0340113e-10  -3.5512821e-02   6.4519542e+00   4.0695547e-01  -2.4702609e+08
   2.0406802e-10  -3.5348379e-02   6.4502162e+00   4.1208531e-01  -2.4617050e+08
   2.0473491e-10  -3.5184508e-02   6.4484469e+00   4.1725926e-01  -2.4531574e+08
   2.0540180e-10  -3.5021205e-02   6.4466463e+00   4.2247737e-01  -2.4446185e+08
   2.0606869e-10  -3.4858472e-02   6.4448141e+00   4.2773968e-01  -2.4360881e+08
   2.0673558e-10  -3.4696306e-02   6.4429504e+00   4.3304622e-01  -2.4275665e+08
   2.0740247e-10  -3.4534709e-02   6.4410549e+00   4.3839703e-01  -2.4190537e+08
   2.0806936e-10  -3.4373678e-02   6.4391275e+00   4.4379214e-01  -2.4105498e+08
   2.0873625e-10  -3.4213214e-02   6.4371680e+00   4.4923156e-01  -2.4020549e+08
   2.0940313e-10  -3.4053316e-02   6.4351764e+00   4.5471532e-01  -2.3935691e+08
   2.1007002e-10  -3.3893982e-02   6.4331526e+00   4.6024343e-01  -2.3850925e+08
   2.1073691e-10  -3.3735214e-02   6.4310964e+00   4.6581588e-01  -2.3766252e+08
   2.1140380e-10  -3.3577010e-02   6.4290077e+00   4.7143268e-01  -2.3681672e+08
   2.1207069e-10  -3.3419368e-02   6.4268864e+00   4.7709382e-01  -2.3597187e+08
   2.1273758e-10  -3.3262290e-02   6.4247324e+00   4.8279929e-01  -2.3512798e+08
   2.1340447e-10  -3.3105774e-02   6.4225456e+00   4.8854908e-01  -2.3428505e+08
   2.1407136e-10  -3.2949819e-02   6.4203260e+00   4.9434315e-01  -2.3344310e+08
   2.1473825e-10  -3.2794425e-02   6.4180733e+00   5.0018148e-01  -2.3260214e+08
   2.1540514e-10  -3.2639591e-02   6.4157876e+00   5.0606404e-01  -2.3176217e+08
   2.1607202e-10  -3.2485316e-02   6.4134687e+00   5.1199078e-01  -2.3092320e+08
   2.1673891e-10  -3.2331601e-02   6.4111166e+00   5.1796165e-01  -2.3008524e+08
   2.1740580e-10  -3.2178443e-02   6.4087313e+00   5.2397661e-01  -2.2924831e+08
   2.1807269e-10  -3.2025843e-02   6.4063125e+00   5.3003559e-01  -2.2841242e+08
   2.1873958e-10  -3.1873800e-02   6.4038603e+00   5.3613854e-01  -2.2757756e+08
   2.1940647e-10  -3.1722312e-02   6.4013746e+00   5.4228537e-01  -2.2674376e+08
   2.2007336e-10  -3.1571380e-02   6.3988554e+00   5.4847602e-01  -2.2591103e+08
   2.2074025e-10  -3.1421002e-02   6.3963025e+00   5.5471040e-01  -2.2507936e+08
   2.2140714e-10  -3.1271179e-02   6.3937160e+00   5.6098842e-01  -2.2424878e+08
   2.2207402e-10  -3.1121908e-02   6.3910958e+00   5.6730999e-01  -2.2341928e+08
   2.2274091e-10  -3.0973190e-02   6.3884419e+00   5.7367501e-01  -2.2259089e+08
   2.2340780e-10  -3.0825024e-02   6.3857542e+00   5.8008337e-01  -2.2176361e+08
   2.2407469e-10  -3.0677408e-02   6.3830328e+00   5.8653497e-01  -2.2093746e+08
   2.2474158e-10  -3.0530343e-02   6.3802775e+00   5.9302967e-01  -2.2011243e+08
   2.2540847e-10  -3.0383827e-02   6.3774883e+00   5.9956736e-01  -2.1928855e+08
   2.2607536e-10  -3.0237860e-02   6.3746654e+00   6.0614792e-01  -2.1846582e+08
   2.2674225e-10  -3.0092441e-02   6.3718085e+00   6.1277119e-01  -2.1764425e+08
   2.2740914e-10  -2.9947569e-02   6.3689178e+00   6.1943704e-01  -2.1682385e+08
   2.2807603e-10  -2.9803243e-02   6.3659932e+00   6.2614533e-01  -2.1600463e+08
   2.2874291e-10  -2.9659463e-02   6.3630347e+00   6.3289589e-01  -2.1518660e+08
   2.2940980e-10  -2.9516227e-02   6.3600424e+00   6.3968857e-01  -2.1436977e+08
   2.3007669e-10  -2.9373535e-02   6.3570163e+00   6.4652321e-01  -2.1355416e+08
   2.3074358e-10  -2.9231387e-02   6.3539563e+00   6.5339962e-01  -2.1273976e+08
   2.3141047e-10  -2.9089781e-02   6.3508625e+00   6.6031764e-01  -2.1192660e+08
   2.3207736e-10  -2.8948716e-02   6.3477349e+00   6.6727708e-01  -2.1111468e+08
   2.3274425e-10  -2.8808192e-02   6.3445736e+00   6.7427775e-01  -2.1030401e+08
   2.3341114e-10  -2.8668208e-02   6.3413786e+00   6.8131945e-01  -2.0949460e+08
   2.3407803e-10  -2.8528763e-02   6.3381499e+00   6.8840198e-01  -2.0868646e+08
   2.3474491e-10  -2.8389856e-02   6.3348876e+00   6.9552515e-01  -2.0787960e+08
   2.3541180e-10  -2.8251486e-02   6.3315917e+00   7.0268873e-01  -2.0707404e+08
   2.3607869e-10  -2.8113653e-02   6.3282623e+00   7.0989251e-01  -2.0626977e+08
   2.3674558e-10  -2.7976355e-02   6.3248995e+00   7.1713625e-01  -2.0546682e+08
   2.3741247e-10  -2.7839592e-02   6.3215033e+00   7.2441975e-01  -2.0466518e+08
   2.3807936e-10  -2.7703363e-02   6.3180737e+00   7.3174275e-01  -2.0386488e+08
   2.3874625e-10  -2.7567667e-02   6.3146110e+00   7.3910502e-01  -2.0306592e+08
   2.3941314e-10  -2.7432502e-02   6.3111150e+00   7.4650631e-01  -2.0226830e+08
   2.4008003e-10  -2.7297869e-02   6.3075860e+00   7.5394638e-01  -2.0147205e+08
   2.4074692e-10  -2.7163766e-02   6.3040240e+00   7.6142495e-01  -2.0067717e+08
   2.4141380e-10  -2.7030192e-02   6.3004291e+00   7.6894178e-01  -1.9988367e+08
   2.4208069e-10  -2.6897147e-02   6.2968014e+00   7.7649659e-01  -1.9909156e+08
   2.4274758e-10  -2.6764629e-02   6.2931411e+00   7.8408912e-01  -1.9830085e+08
   2.4341447e-10  -2.6632637e-02   6.2894481e+00   7.9171907e-01  -1.9751155e+08
   2.4408136e-10  -2.6501171e-02   6.2857227e+00   7.9938618e-01  -1.9672366e+08
   2.4474825e-10  -2.6370230e-02   6.2819649e+00   8.0709014e-01  -1.9593721e+08
   2.4541514e-10  -2.6239812e-02   6.2781749e+00   8.1483067e-01  -1.9515219e+08
   2.4608203e-10  -2.6109918e-02   6.2743528e+00   8.2260747e-01  -1.9436863e+08
   2.4674892e-10  -2.5980544e-02   6.2704987e+00   8.3042024e-01  -1.9358652e+08
   2.4741581e-10  -2.5851692e-02   6.2666128e+00   8.3826866e-01  -1.9280588e+08
   2.4808269e-10  -2.5723359e-02   6.2626951e+00   8.4615243e-01  -1.9202672e+08
   2.4874958e-10  -2.5595545e-02   6.2587460e+00   8.5407122e-01  -1.9124904e+08
   2.4941647e-10  -2.5468249e-02   6.2547654e+00   8.6202471e-01  -1.9047286e+08
   2.5008336e-10  -2.5341470e-02   6.2507536e+00   8.7001258e-01  -1.8969818e+08
   2.5075025e-10  -2.5215207e-02   6.2467106e+00   8.7803449e-01  -1.8892503e+08
   2.5141714e-10  -2.5089458e-02   6.2426368e+00   8.8609011e-01  -1.8815339e+08
   2.5208403e-10  -2.4964223e-02   6.2385322e+00   8.9417910e-01  -1.8738329e+08
   2.5275092e-10  -2.4839501e-02   6.2343970e+00   9.0230111e-01  -1.8661473e+08
   2.5341781e-10  -2.4715290e-02   6.2302313e+00   9.1045579e-01  -1.8584773e+08
   2.5408469e-10  -2.4591591e-02   6.2260355e+00   9.1864279e-01  -1.8508229e+08
   2.5475158e-10  -2.4468401e-02   6.2218095e+00   9.2686175e-01  -1.8431841e+08
   2.5541847e-10  -2.4345719e-02   6.2175537e+00   9.3511231e-01  -1.8355612e+08
   2.5608536e-10  -2.4223545e-02   6.2132682e+00   9.4339411e-01  -1.8279542e+08
   2.5675225e-10  -2.4101878e-02   6.2089532e+00   9.5170677e-01  -1.8203632e+08
   2.5741914e-10  -2.3980716e-02   6.2046090e+00   9.6004992e-01  -1.8127882e+08
   2.5808603e-10  -2.3860058e-02   6.2002356e+00   9.6842318e-01  -1.8052294e+08
   2.5875292e-10  -2.3739904e-02   6.1958334e+00   9.7682618e-01  -1.7976868e+08
   2.5941981e-10  -2.3620252e-02   6.1914025e+00   9.8525853e-01  -1.7901606e+08
   2.6008670e-10  -2.3501101e-02   6.1869431e+00   9.9371984e-01  -1.7826508e+08
   2.6075358e-10  -2.3382450e-02   6.1824555e+00   1.0022097e+00  -1.7751575e+08
   2.6142047e-10  -2.3264298e-02   6.1779399e+00   1.0107278e+00  -1.7676808e+08
   2.6208736e-10  -2.3146643e-02   6.1733965e+00   1.0192736e+00  -1.7602208e+08
   2.6275425e-10  -2.3029486e-02   6.1688255e+00   1.0278468e+00  -1.7527776e+08
   2.6342114e-10  -2.2912824e-02   6.1642272e+00   1.0364470e+00  -1.7453512e+08
   2.6408803e-10  -2.2796656e-02   6.1596018e+00   1.0450738e+00  -1.7379418e+08
   2.6475492e-10  -2.2680982e-02   6.1549495e+00   1.0537267e+00  -1.7305494e+08
   2.6542181e-10  -2.2565800e-02   6.1502706e+00   1.0624054e+00  -1.7231741e+08
   2.6608870e-10  -2.2451109e-02   6.1455653e+00   1.0711094e+00  -1.7158160e+08
   2.6675559e-10  -2.2336908e-02   6.1408339e+00   1.0798383e+00  -1.7084751e+08
   2.6742247e-10  -2.2223196e-02   6.1360767e+00   1.0885917e+00  -1.7011516e+08
   2.6808936e-10  -2.2109971e-02   6.1312938e+00   1.0973691e+00  -1.6938455e+08
   2.6875625e-10  -2.1997233e-02   6.1264855e+00   1.1061703e+00  -1.6865570e+08
   2.6942314e-10  -2.1884980e-02   6.1216521e+00   1.1149946e+00  -1.6792860e+08
   2.7009003e-10  -2.1773211e-02   6.1167939e+00   1.1238418e+00  -1.6720327e+08
   2.7075692e-10  -2.1661925e-02   6.1119111e+00   1.1327113e+00  -1.6647971e+08
   2.7142381e-10  -2.1551121e-02   6.1070040e+00   1.1416027e+00  -1.6575793e+08
   2.7209070e-10  -2.1440798e-02   6.1020729e+00   1.1505156e+00  -1.6503795e+08
   2.7275759e-10  -2.1330953e-02   6.0971179e+00   1.1594496e+00  -1.6431976e+08
   2.7342447e-10  -2.1221587e-02   6.0921395e+00   1.1684042e+00  -1.6360337e+08
   2.7409136e-10  -2.1112698e-02   6.0871379e+00   1.1773790e+00  -1.6288880e+08
   2.7475825e-10  -2.1004285e-02   6.0821133e+00   1.1863735e+00  -1.6217604e+08
   2.7542514e-10  -2.0896346e-02   6.0770661e+00   1.1953873e+00  -1.6146511e+08
   2.7609203e-10  -2.0788881e-02   6.0719965e+00   1.2044200e+00  -1.6075601e+08
   2.7675892e-10  -2.0681888e-02   6.0669049e+00   1.2134711e+00  -1.6004875e+08
   2.7742581e-10  -2.0575365e-02   6.0617914e+00   1.2225401e+00  -1.5934334e+08
   2.7809270e-10  -2.0469313e-02   6.0566565e+00   1.2316267e+00  -1.5863978e+08
   2.7875959e-10  -2.0363729e-02   6.0515003e+00   1.2407303e+00  -1.5793808e+08
   2.7942648e-10  -2.0258612e-02   6.0463232e+00   1.2498505e+00  -1.5723825e+08
   2.8009336e-10  -2.0153961e-02   6.0411255e+00   1.2589869e+00  -1.5654029e+08
   2.8076025e-10  -2.0049774e-02   6.0359075e+00   1.2681391e+00  -1.5584422e+08
   2.8142714e-10  -1.9946051e-02   6.0306695e+00   1.2773065e+00  -1.5515002e+08
   2.8209403e-10  -1.9842791e-02   6.0254117e+00   1.2864887e+00  -1.5445772e+08
   2.8276092e-10  -1.9739991e-02   6.0201345e+00   1.2956853e+00  -1.5376732e+08
   2.8342781e-10  -1.9637651e-02   6.0148382e+00   1.3048958e+00  -1.5307883e+08
   2.8409470e-10  -1.9535769e-02   6.0095232e+00   1.3141198e+00  -1.5239224e+08
   2.8476159e-10  -1.9434345e-02   6.0041896e+00   1.3233568e+00  -1.5170757e+08
   2.8542848e-10  -1.9333376e-02   5.9988378e+00   1.3326063e+00  -1.5102482e+08
   2.8609537e-10  -1.9232862e-02   5.9934681e+00   1.3418680e+00  -1.5034400e+08
   2.8676225e-10  -1.9132802e-02   5.9880809e+00   1.3511413e+00  -1.4966512e+08
   2.8742914e-10  -1.9033193e-02   5.9826764e+00   1.3604258e+00  -1.4898817e+08
   2.8809603e-10  -1.8934035e-02   5.9772550e+00   1.3697211e+00  -1.4831317e+08
   2.8876292e-10  -1.8835327e-02   5.9718169e+00   1.3790267e+00  -1.4764012e+08
   2.8942981e-10  -1.8737066e-02   5.9663625e+00   1.3883421e+00  -1.4696902e+08
   2.9009670e-10  -1.8639253e-02   5.9608921e+00   1.3976670e+00  -1.4629989e+08
   2.9076359e-10  -1.8541885e-02   5.9554061e+00   1.4070008e+00  -1.4563272e+08
   2.9143048e-10  -1.8444961e-02   5.9499046e+00   1.4163431e+00  -1.4496752e+08
   2.9209737e-10  -1.8348480e-02   5.9443881e+00   1.4256935e+00  -1.4430429e+08
   2.9276425e-10  -1.8252440e-02   5.9388568e+00   1.4350515e+00  -1.4364305e+08
   2.9343114e-10  -1.8156841e-02   5.9333112e+00   1.4444167e+00  -1.4298379e+08
   2.9409803e-10  -1.8061681e-02   5.9277514e+00   1.4537886e+00  -1.4232652e+08
   2.9476492e-10  -1.7966959e-02   5.9221779e+00   1.4631668e+00  -1.4167124e+08
   2.9543181e-10  -1.7872673e-02   5.9165908e+00   1.4725508e+00  -1.4101796e+08
   2.9609870e-10  -1.7778822e-02   5.9109907e+00   1.4819403e+00  -1.4036668e+08
   2.9676559e-10  -1.7685404e-02   5.9053777e+00   1.4913347e+00  -1.3971741e+08
   2.9743248e-10  -1.7592419e-02   5.8997522e+00   1.5007337e+00  -1.3907015e+08
   2.9809937e-10  -1.7499864e-02   5.8941145e+00   1.5101367e+00  -1.3842491e+08
   2.9876626e-10  -1.7407740e-02   5.8884649e+00   1.5195434e+00  -1.3778168e+08
   2.9943314e-10  -1.7316043e-02   5.8828038e+00   1.5289533e+00  -1.3714048e+08
   3.0010003e-10  -1.7224774e-02   5.8771314e+00   1.5383661e+00  -1.3650130e+08
   3.0076692e-10  -1.7133930e-02   5.8714481e+00   1.5477812e+00  -1.3586415e+08
   3.0143381e-10  -1.7043511e-02   5.8657543e+00   1.5571982e+00  -1.3522903e+08
   3.0210070e-10  -1.6953514e-02   5.8600501e+00   1.5666168e+00  -1.3459595e+08
   3.0276759e-10  -1.6863939e-02   5.8543360e+00   1.5760364e+00  -1.3396491e+08
   3.0343448e-10  -1.6774783e-02   5.8486122e+00   1.5854568e+00  -1.3333591e+08
   3.0410137e-10  -1.6686047e-02   5.8428791e+00   1.5948773e+00  -1.3270896e+08
   3.0476826e-10  -1.6597728e-02   5.8371369e+00   1.6042978e+00  -1.3208406e+08
   3.0543515e-10  -1.6509826e-02   5.8313861e+00   1.6137176e+00  -1.3146121e+08
   3.0610203e-10  -1.6422338e-02   5.8256269e+00   1.6231365e+00  -1.3084041e+08
   3.0676892e-10  -1.6335263e-02   5.8198595e+00   1.6325539e+00  -1.3022167e+08
   3.0743581e-10  -1.6248600e-02   5.8140845e+00   1.6419696e+00  -1.2960499e+08
   3.0810270e-10  -1.6162348e-02   5.8083019e+00   1.6513830e+00  -1.2899037e+08
   3.0876959e-10  -1.6076505e-02   5.8025122e+00   1.6607938e+00  -1.2837781e+08
   3.0943648e-10  -1.5991070e-02   5.7967157e+00   1.6702017e+00  -1.2776732e+08
   3.1010337e-10  -1.5906042e-02   5.7909127e+00   1.6796061e+00  -1.2715890e+08
   3.1077026e-10  -1.5821418e-02   5.7851034e+00   1.6890067e+00  -1.2655255e+08
   3.1143715e-10  -1.5737199e-02   5.7792882e+00   1.6984031e+00  -1.2594828e+08
   3.1210403e-10  -1.5653381e-02   5.7734674e+00   1.7077949e+00  -1.2534608e+08
   3.1277092e-10  -1.5569965e-02   5.7676413e+00   1.7171818e+00  -1.2474595e+08
   3.1343781e-10  -1.5486948e-02   5.7618102e+00   1.7265633e+00  -1.2414790e+08
   3.1410470e-10  -1.5404330e-02   5.7559744e+00   1.7359391e+00  -1.2355193e+08
   3.1477159e-10  -1.5322108e-02   5.7501341e+00   1.7453087e+00  -1.2295805e+08
   3.1543848e-10  -1.5240281e-02   5.7442898e+00   1.7546719e+00  -1.2236624e+08
   3.1610537e-10  -1.5158849e-02   5.7384417e+00   1.7640282e+00  -1.2177652e+08
   3.1677226e-10  -1.5077810e-02   5.7325900e+00   1.7733773e+00  -1.2118889e+08
   3.1743915e-10  -1.4997161e-02   5.7267351e+00   1.7827188e+00  -1.2060334e+08
   3.1810604e-10  -1.4916903e-02   5.7208773e+00   1.7920524e+00  -1.2001987e+08
   3.1877292e-10  -1.4837033e-02   5.7150169e+00   1.8013776e+00  -1.1943850e+08
   3.1943981e-10  -1.4757550e-02   5.7091541e+00   1.8106942e+00  -1.1885921e+08
   3.2010670e-10  -1.4678452e-02   5.7032892e+00   1.8200018e+00  -1.1828201e+08
   3.2077359e-10  -1.4599739e-02   5.6974225e+00   1.8292999e+00  -1.1770690e+08
   3.2144048e-10  -1.4521409e-02   5.6915544e+00   1.8385884e+00  -1.1713389e+08
   3.2210737e-10  -1.4443461e-02   5.6856850e+00   1.8478668e+00  -1.1656296e+08
   3.2277426e-10  -1.4365893e-02   5.6798147e+00   1.8571349e+00  -1.1599412e+08
   3.2344115e-10  -1.4288703e-02   5.6739438e+00   1.8663921e+00  -1.1542738e+08
   3.2410804e-10  -1.4211891e-02   5.6680725e+00   1.8756384e+00  -1.1486273e+08
   3.2477492e-10  -1.4135454e-02   5.6622010e+00   1.8848732e+00  -1.1430017e+08
   3.2544181e-10  -1.4059393e-02   5.6563297e+00   1.8940963e+00  -1.1373969e+08
   3.2610870e-10  -1.3983704e-02   5.6504589e+00   1.9033074e+00  -1.1318132e+08
   3.2677559e-10  -1.3908387e-02   5.6445888e+00   1.9125061e+00  -1.1262503e+08
   3.2744248e-10  -1.3833441e-02   5.6387196e+00   1.9216921e+00  -1.1207083e+08
   3.2810937e-10  -1.3758864e-02   5.6328517e+00   1.9308651e+00  -1.1151872e+08
   3.2877626e-10  -1.3684654e-02   5.6269853e+00   1.9400249e+00  -1.1096871e+08
   3.2944315e-10  -1.3610810e-02   5.6211206e+00   1.9491710e+00  -1.1042078e+08
   3.3011004e-10  -1.3537331e-02   5.6152580e+00   1.9583033e+00  -1.0987494e+08
   3.3077693e-10  -1.3464216e-02   5.6093976e+00   1.9674213e+00  -1.0933119e+08
   3.3144381e-10  -1.3391463e-02   5.6035398e+00   1.9765248e+00  -1.0878952e+08
   3.3211070e-10  -1.3319070e-02   5.5976847e+00   1.9856136e+00  -1.0824994e+08
   3.3277759e-10  -1.3247037e-02   5.5918327e+00   1.9946873e+00  -1.0771245e+08
   3.3344448e-10  -1.3175361e-02   5.5859839e+00   2.0037456e+00  -1.0717704e+08
   3.3411137e-10  -1.3104042e-02   5.5801387e+00   2.0127883e+00  -1.0664371e+08
   3.3477826e-10  -1.3033078e-02   5.5742972e+00   2.0218151e+00  -1.0611247e+08
   3.3544515e-10  -1.2962468e-02   5.5684597e+00   2.0308257e+00  -1.0558330e+08
   3.3611204e-10  -1.2892210e-02   5.5626265e+00   2.0398198e+00  -1.0505621e+08
   3.3677893e-10  -1.2822303e-02   5.5567977e+00   2.0487973e+00  -1.0453120e+08
   3.3744582e-10  -1.2752745e-02   5.5509736e+00   2.0577577e+00  -1.0400827e+08
   3.3811270e-10  -1.2683536e-02   5.5451545e+00   2.0667009e+00  -1.0348740e+08
   3.3877959e-10  -1.2614673e-02   5.5393406e+00   2.0756266e+00  -1.0296862e+08
   3.3944648e-10  -1.2546156e-02   5.5335320e+00   2.0845346e+00  -1.0245190e+08
   3.4011337e-10  -1.2477983e-02   5.5277291e+00   2.0934246e+00  -1.0193725e+08
   3.4078026e-10  -1.2410153e-02   5.5219320e+00   2.1022963e+00  -1.0142466e+08
   3.4144715e-10  -1.2342663e-02   5.5161410e+00   2.1111496e+00  -1.0091414e+08
   3.4211404e-10  -1.2275514e-02   5.5103563e+00   2.1199842e+00  -1.0040568e+08
   3.4278093e-10  -1.2208703e-02   5.5045780e+00   2.1287998e+00  -9.9899286e+07
   3.4344782e-10  -1.2142230e-02   5.4988065e+00   2.1375962e+00  -9.9394945e+07
   3.4411470e-10  -1.2076092e-02   5.4930418e+00   2.1463733e+00  -9.8892660e+07
   3.4478159e-10  -1.2010288e-02   5.4872843e+00   2.1551307e+00  -9.8392428e+07
   3.4544848e-10  -1.1944818e-02   5.4815341e+00   2.1638683e+00  -9.7894246e+07
   3.4611537e-10  -1.1879679e-02   5.4757915e+00   2.1725859e+00  -9.7398112e+07
   3.4678226e-10  -1.1814871e-02   5.4700565e+00   2.1812831e+00  -9.6904023e+07
   3.4744915e-10  -1.1750392e-02   5.4643295e+00   2.1899599e+00  -9.6411977e+07
   3.4811604e-10  -1.1686240e-02   5.4586107e+00   2.1986161e+00  -9.5921970e+07
   3.4878293e-10  -1.1622414e-02   5.4529001e+00   2.2072513e+00  -9.5434000e+07
   3.4944982e-10  -1.1558913e-02   5.4471980e+00   2.2158655e+00  -9.4948063e+07
   3.5011671e-10  -1.1495736e-02   5.4415047e+00   2.2244584e+00  -9.4464158e+07
   3.5078359e-10  -1.1432881e-02   5.4358202e+00   2.2330299e+00  -9.3982281e+07
   3.5145048e-10  -1.1370347e-02   5.4301447e+00   2.2415797e+00  -9.3502428e+07
   3.5211737e-10  -1.1308132e-02   5.4244786e+00   2.2501077e+00  -9.3024597e+07
   3.5278426e-10  -1.1246235e-02   5.4188218e+00   2.2586137e+00  -9.2548784e+07
   3.5345115e-10  -1.1184655e-02   5.4131746e+00   2.2670975e+00  -9.2074987e+07
   3.5411804e-10  -1.1123391e-02   5.4075372e+00   2.2755590e+00  -9.1603201e+07
   3.5478493e-10  -1.1062440e-02   5.4019098e+00   2.2839979e+00  -9.1133424e+07
   3.5545182e-10  -1.1001803e-02   5.3962924e+00   2.2924141e+00  -9.0665651e+07
   3.5611871e-10  -1.0941477e-02   5.3906853e+00   2.3008075e+00  -9.0199879e+07
   3.5678560e-10  -1.0881460e-02   5.3850887e+00   2.3091779e+00  -8.9736106e+07
   3.5745248e-10  -1.0821753e-02   5.3795026e+00   2.3175251e+00  -8.9274326e+07
   3.5811937e-10  -1.0762353e-02   5.3739273e+00   2.3258490e+00  -8.8814537e+07
   3.5878626e-10  -1.0703259e-02   5.3683630e+00   2.3341494e+00  -8.8356734e+07
   3.5945315e-10  -1.0644470e-02   5.3628096e+00   2.3424263e+00  -8.7900914e+07
   3.6012004e-10  -1.0585985e-02   5.3572676e+00   2.3506793e+00  -8.7447073e+07
   3.6078693e-10  -1.0527801e-02   5.3517368e+00   2.3589085e+00  -8.6995207e+07
   3.6145382e-10  -1.0469918e-02   5.3462176e+00   2.3671136e+00  -8.6545312e+07
   3.6212071e-10  -1.0412335e-02   5.3407101e+00   2.3752946e+00  -8.6097384e+07
   3.6278760e-10  -1.0355050e-02   5.3352143e+00   2.3834512e+00  -8.5651419e+07
   3.6345448e-10  -1.0298062e-02   5.3297305e+00   2.3915835e+00  -8.5207412e+07
   3.6412137e-10  -1.0241370e-02   5.3242588e+00   2.3996912e+00  -8.4765360e+07
   3.6478826e-10  -1.0184971e-02   5.3187993e+00   2.4077742e+00  -8.4325259e+07
   3.6545515e-10  -1.0128866e-02   5.3133521e+00   2.4158325e+00  -8.3887103e+07
   3.6612204e-10  -1.0073052e-02   5.3079174e+00   2.4238659e+00  -8.3450890e+07
   3.6678893e-10  -1.0017529e-02   5.3024953e+00   2.4318742e+00  -8.3016614e+07
   3.6745582e-10  -9.9622951e-03   5.2970860e+00   2.4398575e+00  -8.2584270e+07
   3.6812271e-10  -9.9073488e-03   5.2916895e+00   2.4478155e+00  -8.2153856e+07
   3.6878960e-10  -9.8526891e-03   5.2863059e+00   2.4557482e+00  -8.1725365e+07
   3.6945649e-10  -9.7983145e-03   5.2809355e+00   2.4636554e+00  -8.1298794e+07
   3.7012337e-10  -9.7442240e-03   5.2755783e+00   2.4715372e+00  -8.0874138e+07
   3.7079026e-10  -9.6904161e-03   5.2702344e+00   2.4793933e+00  -8.0451392e+07
   3.7145715e-10  -9.6368896e-03   5.2649039e+00   2.4872238e+00  -8.0030551e+07
   3.7212404e-10  -9.5836433e-03   5.2595870e+00   2.4950284e+00  -7.9611612e+07
   3.7279093e-10  -9.5306759e-03   5.2542838e+00   2.5028072e+00  -7.9194569e+07
   3.7345782e-10  -9.4779860e-03   5.2489943e+00   2.5105600e+00  -7.8779417e+07
   3.7412471e-10  -9.4255726e-03   5.2437187e+00   2.5182868e+00  -7.8366151e+07
   3.7479160e-10  -9.3734342e-03   5.2384570e+00   2.5259874e+00  -7.7954767e+07
   3.7545849e-10  -9.3215697e-03   5.2332094e+00   2.5336619e+00  -7.7545260e+07
   3.7612538e-10  -9.2699778e-03   5.2279760e+00   2.5413101e+00  -7.7137625e+07
   3.7679226e-10  -9.2186572e-03   5.2227569e+00   2.5489320e+00  -7.6731857e+07
   3.7745915e-10  -9.1676067e-03   5.2175521e+00   2.5565275e+00  -7.6327951e+07
   3.7812604e-10  -9.1168251e-03   5.2123617e+00   2.5640965e+00  -7.5925901e+07
   3.7879293e-10  -9.0663111e-03   5.2071859e+00   2.5716390e+00  -7.5525703e+07
   3.7945982e-10  -9.0160635e-03   5.2020247e+00   2.5791550e+00  -7.5127352e+07
   3.8012671e-10  -8.9660810e-03   5.1968782e+00   2.5866443e+00  -7.4730842e+07
   3.8079360e-10  -8.9163625e-03   5.1917465e+00   2.5941069e+00  -7.4336169e+07
   3.8146049e-10  -8.8669067e-03   5.1866296e+00   2.6015428e+00  -7.3943327e+07
   3.8212738e-10  -8.8177124e-03   5.1815278e+00   2.6089519e+00  -7.3552311e+07
   3.8279426e-10  -8.7687784e-03   5.1764409e+00   2.6163341e+00  -7.3163115e+07
   3.8346115e-10  -8.7201034e-03   5.1713691e+00   2.6236895e+00  -7.2775735e+07
   3.8412804e-10  -8.6716863e-03   5.1663126e+00   2.6310180e+00  -7.2390165e+07
   3.8479493e-10  -8.6235258e-03   5.1612712e+00   2.6383195e+00  -7.2006400e+07
   3.8546182e-10  -8.5756208e-03   5.1562452e+00   2.6455941e+00  -7.1624434e+07
   3.8612871e-10  -8.5279700e-03   5.1512346e+00   2.6528416e+00  -7.1244262e+07
   3.8679560e-10  -8.4805722e-03   5.1462394e+00   2.6600620e+00  -7.0865879e+07
   3.8746249e-10  -8.4334264e-03   5.1412597e+00   2.6672554e+00  -7.0489279e+07
   3.8812938e-10  -8.3865311e-03   5.1362956e+00   2.6744217e+00  -7.0114457e+07
   3.8879627e-10  -8.3398854e-03   5.1313471e+00   2.6815608e+00  -6.9741407e+07
   3.8946315e-10  -8.2934880e-03   5.1264144e+00   2.6886727e+00  -6.9370123e+07
   3.9013004e-10  -8.2473377e-03   5.1214973e+00   2.6957575e+00  -6.9000601e+07
   3.9079693e-10  -8.2014333e-03   5.1165961e+00   2.7028151e+00  -6.8632835e+07
   3.9146382e-10  -8.1557738e-03   5.1117108e+00   2.7098454e+00  -6.8266818e+07
   3.9213071e-10  -8.1103578e-03   5.1068413e+00   2.7168485e+00  -6.7902546e+07
   3.9279760e-10  -8.0651844e-03   5.1019879e+00   2.7238244e+00  -6.7540013e+07
   3.9346449e-10  -8.0202522e-03   5.0971504e+00   2.7307730e+00  -6.7179213e+07
   3.9413138e-10  -7.9755601e-03   5.0923290e+00   2.7376943e+00  -6.6820141e+07
   3.9479827e-10  -7.9311071e-03   5.0875237e+00   2.7445884e+00  -6.6462791e+07
   3.9546516e-10  -7.8868919e-03   5.0827345e+00   2.7514552e+00  -6.6107157e+07
   3.9613204e-10  -7.8429134e-03   5.0779615e+00   2.7582947e+00  -6.5753234e+07
   3.9679893e-10  -7.7991704e-03   5.0732047e+00   2.7651069e+00  -6.5401016e+07
   3.9746582e-10  -7.7556619e-03   5.0684642e+00   2.7718919e+00  -6.5050497e+07
   3.9813271e-10  -7.7123867e-03   5.0637401e+00   2.7786495e+00  -6.4701671e+07
   3.9879960e-10  -7.6693436e-03   5.0590322e+00   2.7853799e+00  -6.4354533e+07
   3.9946649e-10  -7.6265316e-03   5.0543407e+00   2.7920830e+00  -6.4009077e+07
   4.0013338e-10  -7.5839495e-03   5.0496656e+00   2.7987589e+00  -6.3665297e+07
   4.0080027e-10  -7.5415962e-03   5.0450070e+00   2.8054075e+00  -6.3323187e+07
   4.0146716e-10  -7.4994706e-03   5.0403648e+00   2.8120288e+00  -6.2982742e+07
   4.0213404e-10  -7.4575716e-03   5.0357391e+00   2.8186229e+00  -6.2643956e+07
   4.0280093e-10  -7.4158980e-03   5.0311299e+00   2.8251898e+00  -6.2306823e+07
   4.0346782e-10  -7.3744489e-03   5.0265372e+00   2.8317295e+00  -6.1971336e+07
   4.0413471e-10  -7.3332230e-03   5.0219611e+00   2.8382421e+00  -6.1637491e+07
   4.0480160e-10  -7.2922193e-03   5.0174016e+00   2.8447274e+00  -6.1305282e+07
   4.0546849e-10  -7.2514367e-03   5.0128588e+00   2.8511856e+00  -6.0974702e+07
   4.0613538e-10  -7.2108741e-03   5.0083325e+00   2.8576167e+00  -6.0645745e+07
   4.0680227e-10  -7.1705304e-03   5.0038229e+00   2.8640207e+00  -6.0318407e+07
   4.0746916e-10  -7.1304046e-03   4.9993299e+00   2.8703976e+00  -5.9992680e+07
   4.0813605e-10  -7.0904956e-03   4.9948537e+00   2.8767475e+00  -5.9668559e+07
   4.0880293e-10  -7.0508023e-03   4.9903941e+00   2.8830704e+00  -5.9346038e+07
   4.0946982e-10  -7.0113236e-03   4.9859512e+00   2.8893662e+00  -5.9025112e+07
   4.1013671e-10  -6.9720585e-03   4.9815251e+00   2.8956352e+00  -5.8705774e+07
   4.1080360e-10  -6.9330059e-03   4.9771156e+00   2.9018771e+00  -5.8388018e+07
   4.1147049e-10  -6.8941648e-03   4.9727229e+00   2.9080922e+00  -5.8071838e+07
   4.1213738e-10  -6.8555341e-03   4.9683470e+00   2.9142805e+00  -5.7757230e+07
   4.1280427e-10  -6.8171128e-03   4.9639878e+00   2.9204419e+00  -5.7444185e+07
   4.1347116e-10  -6.7788998e-03   4.9596454e+00   2.9265765e+00  -5.7132700e+07
   4.1413805e-10  -6.7408941e-03   4.9553197e+00   2.9326844e+00  -5.6822767e+07
   4.1480493e-10  -6.7030947e-03   4.9510108e+00   2.9387655e+00  -5.6514381e+07
   4.1547182e-10  -6.6655005e-03   4.9467186e+00   2.9448200e+00  -5.6207536e+07
   4.1613871e-10  -6.6281105e-03   4.9424432e+00   2.9508479e+00  -5.5902226e+07
   4.1680560e-10  -6.5909236e-03   4.9381846e+00   2.9568492e+00  -5.5598445e+07
   4.1747249e-10  -6.5539390e-03   4.9339428e+00   2.9628239e+00  -5.5296186e+07
   4.1813938e-10  -6.5171554e-03   4.9297177e+00   2.9687722e+00  -5.4995445e+07
   4.1880627e-10  -6.4805721e-03   4.9255094e+00   2.9746940e+00  -5.4696215e+07
   4.1947316e-10  -6.4441878e-03   4.9213179e+00   2.9805894e+00  -5.4398491e+07
   4.2014005e-10  -6.4080017e-03   4.9171431e+00   2.9864585e+00  -5.4102265e+07
   4.2080694e-10  -6.3720127e-03   4.9129850e+00   2.9923013e+00  -5.3807533e+07
   4.2147382e-10  -6.3362198e-03   4.9088437e+00   2.9981178e+00  -5.3514289e+07
   4.2214071e-10  -6.3006221e-03   4.9047191e+00   3.0039081e+00  -5.3222526e+07
   4.2280760e-10  -6.2652185e-03   4.9006113e+00   3.0096723e+00  -5.2932238e+07
   4.2347449e-10  -6.2300081e-03   4.8965201e+00   3.0154103e+00  -5.2643420e+07
   4.2414138e-10  -6.1949899e-03   4.8924457e+00   3.0211224e+00  -5.2356066e+07
   4.2480827e-10  -6.1601630e-03   4.8883879e+00   3.0268084e+00  -5.2070169e+07
   4.2547516e-10  -6.1255262e-03   4.8843469e+00   3.0324686e+00  -5.1785724e+07
   4.2614205e-10  -6.0910788e-03   4.8803225e+00   3.0381028e+00  -5.1502725e+07
   4.2680894e-10  -6.0568196e-03   4.8763147e+00   3.0437112e+00  -5.1221166e+07
   4.2747583e-10  -6.0227479e-03   4.8723236e+00   3.0492939e+00  -5.0941041e+07
   4.2814271e-10  -5.9888625e-03   4.8683491e+00   3.0548509e+00  -5.0662345e+07
   4.2880960e-10  -5.9551626e-03   4.8643911e+00   3.0603823e+00  -5.0385070e+07
   4.2947649e-10  -5.9216472e-03   4.8604498e+00   3.0658881e+00  -5.0109212e+07
   4.3014338e-10  -5.8883154e-03   4.8565251e+00   3.0713684e+00  -4.9834765e+07
   4.3081027e-10  -5.8551662e-03   4.8526168e+00   3.0768232e+00  -4.9561722e+07
   4.3147716e-10  -5.8221986e-03   4.8487251e+00   3.0822526e+00  -4.9290078e+07
   4.3214405e-10  -5.7894119e-03   4.8448500e+00   3.0876568e+00  -4.9019826e+07
   4.3281094e-10  -5.7568049e-03   4.8409912e+00   3.0930356e+00  -4.8750962e+07
   4.3347783e-10  -5.7243769e-03   4.8371490e+00   3.0983893e+00  -4.8483479e+07
   4.3414471e-10  -5.6921269e-03   4.8333232e+00   3.1037179e+00  -4.8217371e+07
   4.3481160e-10  -5.6600539e-03   4.8295138e+00   3.1090214e+00  -4.7952632e+07
   4.3547849e-10  -5.6281571e-03   4.8257208e+00   3.1142999e+00  -4.7689258e+07
   4.3614538e-10  -5.5964355e-03   4.8219441e+00   3.1195534e+00  -4.7427240e+07
   4.3681227e-10  -5.5648883e-03   4.8181838e+00   3.1247822e+00  -4.7166575e+07
   4.3747916e-10  -5.5335145e-03   4.8144398e+00   3.1299861e+00  -4.6907256e+07
   4.3814605e-10  -5.5023133e-03   4.8107121e+00   3.1351654e+00  -4.6649278e+07
   4.3881294e-10  -5.4712837e-03   4.8070006e+00   3.1403199e+00  -4.6392634e+07
   4.3947983e-10  -5.4404249e-03   4.8033053e+00   3.1454500e+00  -4.6137318e+07
   4.4014672e-10  -5.4097360e-03   4.7996263e+00   3.1505555e+00  -4.5883326e+07
   4.4081360e-10  -5.3792161e-03   4.7959634e+00   3.1556366e+00  -4.5630651e+07
   4.4148049e-10  -5.3488643e-03   4.7923167e+00   3.1606933e+00  -4.5379287e+07
   4.4214738e-10  -5.3186798e-03   4.7886860e+00   3.1657257e+00  -4.5129230e+07
   4.4281427e-10  -5.2886616e-03   4.7850715e+00   3.1707340e+00  -4.4880472e+07
   4.4348116e-10  -5.2588090e-03   4.7814729e+00   3.1757181e+00  -4.4633008e+07
   4.4414805e-10  -5.2291210e-03   4.7778904e+00   3.1806781e+00  -4.4386834e+07
   4.4481494e-10  -5.1995969e-03   4.7743239e+00   3.1856142e+00  -4.4141942e+07
   4.4548183e-10  -5.1702356e-03   4.7707733e+00   3.1905263e+00  -4.3898327e+07
   4.4614872e-10  -5.1410365e-03   4.7672386e+00   3.1954146e+00  -4.3655984e+07
   4.4681561e-10  -5.1119986e-03   4.7637198e+00   3.2002791e+00  -4.3414906e+07
   4.4748249e-10  -5.0831211e-03   4.7602168e+00   3.2051200e+00  -4.3175089e+07
   4.4814938e-10  -5.0544032e-03   4.7567297e+00   3.2099372e+00  -4.2936526e+07
   4.4881627e-10  -5.0258440e-03   4.7532583e+00   3.2147309e+00  -4.2699213e+07
   4.4948316e-10  -4.9974427e-03   4.7498026e+00   3.2195012e+00  -4.2463142e+07
   4.5015005e-10  -4.9691984e-03   4.7463626e+00   3.2242481e+00  -4.2228310e+07
   4.5081694e-10  -4.9411104e-03   4.7429383e+00   3.2289717e+00  -4.1994709e+07
   4.5148383e-10  -4.9131779e-03   4.7395296e+00   3.2336720e+00  -4.1762335e+07
   4.5215072e-10  -4.8853999e-03   4.7361365e+00   3.2383493e+00  -4.1531182e+07
   4.5281761e-10  -4.8577758e-03   4.7327589e+00   3.2430034e+00  -4.1301245e+07
   4.5348449e-10  -4.8303046e-03   4.7293968e+00   3.2476346e+00  -4.1072517e+07
   4.5415138e-10  -4.8029856e-03   4.7260502e+00   3.2522429e+00  -4.0844994e+07
   4.5481827e-10  -4.7758180e-03   4.7227190e+00   3.2568284e+00  -4.0618669e+07
   4.5548516e-10  -4.7488010e-03   4.7194032e+00   3.2613911e+00  -4.0393538e+07
   4.5615205e-10  -4.7219337e-03   4.7161028e+00   3.2659312e+00  -4.0169595e+07
   4.5681894e-10  -4.6952155e-03   4.7128176e+00   3.2704486e+00  -3.9946834e+07
   4.5748583e-10  -4.6686454e-03   4.7095477e+00   3.2749436e+00  -3.9725250e+07
   4.5815272e-10  -4.6422228e-03   4.7062930e+00   3.2794162e+00  -3.9504838e+07
   4.5881961e-10  -4.6159468e-03   4.7030535e+00   3.2838664e+00  -3.9285592e+07
   4.5948650e-10  -4.5898167e-03   4.6998291e+00   3.2882943e+00  -3.9067506e+07
   4.6015338e-10  -4.5638317e-03   4.6966198e+00   3.2927001e+00  -3.8850576e+07
   4.6082027e-10  -4.5379910e-03   4.6934256e+00   3.2970838e+00  -3.8634795e+07
   4.6148716e-10  -4.5122939e-03   4.6902464e+00   3.3014455e+00  -3.8420159e+07
   4.6215405e-10  -4.4867396e-03   4.6870821e+00   3.3057852e+00  -3.8206662e+07
   4.6282094e-10  -4.4613273e-03   4.6839328e+00   3.3101031e+00  -3.7994299e+07
   4.6348783e-10  -4.4360563e-03   4.6807983e+00   3.3143993e+00  -3.7783065e+07
   4.6415472e-10  -4.4109259e-03   4.6776786e+00   3.3186737e+00  -3.7572954e+07
   4.6482161e-10  -4.3859352e-03   4.6745738e+00   3.3229266e+00  -3.7363960e+07
   4.6548850e-10  -4.3610836e-03   4.6714837e+00   3.3271579e+00  -3.7156079e+07
   4.6615539e-10  -4.3363703e-03   4.6684082e+00   3.3313678e+00  -3.6949306e+07
   4.6682227e-10  -4.3117945e-03   4.6653475e+00   3.3355564e+00  -3.6743635e+07
   4.6748916e-10  -4.2873556e-03   4.6623013e+00   3.3397236e+00  -3.6539060e+07
   4.6815605e-10  -4.2630527e-03   4.6592697e+00   3.3438697e+00  -3.6335578e+07
   4.6882294e-10  -4.2388853e-03   4.6562526e+00   3.3479947e+00  -3.6133181e+07
   4.6948983e-10  -4.2148525e-03   4.6532499e+00   3.3520987e+00  -3.5931866e+07
   4.7015672e-10  -4.1909536e-03   4.6502617e+00   3.3561817e+00  -3.5731628e+07
   4.7082361e-10  -4.1671880e-03   4.6472879e+00   3.3602439e+00  -3.5532460e+07
   4.7149050e-10  -4.1435548e-03   4.6443284e+00   3.3642853e+00  -3.5334358e+07
   4.7215739e-10  -4.1200534e-03   4.6413831e+00   3.3683060e+00  -3.5137316e+07
   4.7282427e-10  -4.0966832e-03   4.6384521e+00   3.3723061e+00  -3.4941331e+07
   4.7349116e-10  -4.0734433e-03   4.6355353e+00   3.3762857e+00  -3.4746396e+07
   4.7415805e-10  -4.0503331e-03   4.6326326e+00   3.3802448e+00  -3.4552506e+07
   4.7482494e-10  -4.0273519e-03   4.6297440e+00   3.3841836e+00  -3.4359657e+07
   4.7549183e-10  -4.0044989e-03   4.6268695e+00   3.3881021e+00  -3.4167843e+07
   4.7615872e-10  -3.9817736e-03   4.6240089e+00   3.3920004e+00  -3.3977060e+07
   4.7682561e-10  -3.9591752e-03   4.6211623e+00   3.3958787e+00  -3.3787302e+07
   4.7749250e-10  -3.9367031e-03   4.6183296e+00   3.3997369e+00  -3.3598564e+07
   4.7815939e-10  -3.9143565e-03   4.6155107e+00   3.4035751e+00  -3.3410842e+07
   4.7882628e-10  -3.8921348e-03   4.6127056e+00   3.4073935e+00  -3.3224131e+07
   4.7949316e-10  -3.8700373e-03   4.6099143e+00   3.4111922e+00  -3.3038424e+07
   4.8016005e-10  -3.8480633e-03   4.6071367e+00   3.4149711e+00  -3.2853719e+07
   4.8082694e-10  -3.8262122e-03   4.6043728e+00   3.4187305e+00  -3.2670009e+07
   4.8149383e-10  -3.8044834e-03   4.6016224e+00   3.4224703e+00  -3.2487290e+07
   4.8216072e-10  -3.7828761e-03   4.5988856e+00   3.4261907e+00  -3.2305558e+07
   4.8282761e-10  -3.7613896e-03   4.5961623e+00   3.4298917e+00  -3.2124806e+07
   4.8349450e-10  -3.7400235e-03   4.5934525e+00   3.4335734e+00  -3.1945031e+07
   4.8416139e-10  -3.7187769e-03   4.5907561e+00   3.4372360e+00  -3.1766227e+07
   4.8482828e-10  -3.6976492e-03   4.5880730e+00   3.4408794e+00  -3.1588390e+07
   4.8549517e-10  -3.6766399e-03   4.5854033e+00   3.4445038e+00  -3.1411514e+07
   4.8616205e-10  -3.6557483e-03   4.5827468e+00   3.4481093e+00  -3.1235596e+07
   4.8682894e-10  -3.6349736e-03   4.5801035e+00   3.4516959e+00  -3.1060631e+07
   4.8749583e-10  -3.6143154e-03   4.5774734e+00   3.4552638e+00  -3.0886613e+07
   4.8816272e-10  -3.5937729e-03   4.5748564e+00   3.4588129e+00  -3.0713538e+07
   4.8882961e-10  -3.5733455e-03   4.5722525e+00   3.4623434e+00  -3.0541402e+07
   4.8949650e-10  -3.5530327e-03   4.5696616e+00   3.4658554e+00  -3.0370199e+07
   4.9016339e-10  -3.5328337e-03   4.5670836e+00   3.4693489e+00  -3.0199925e+07
   4.9083028e-10  -3.5127481e-03   4.5645186e+00   3.4728241e+00  -3.0030576e+07
   4.9149717e-10  -3.4927750e-03   4.5619664e+00   3.4762810e+00  -2.9862146e+07
   4.9216405e-10  -3.4729141e-03   4.5594270e+00   3.4797196e+00  -2.9694631e+07
   4.9283094e-10  -3.4531645e-03   4.5569004e+00   3.4831402e+00  -2.9528027e+07
   4.9349783e-10  -3.4335258e-03   4.5543865e+00   3.4865427e+00  -2.9362329e+07
   4.9416472e-10  -3.4139973e-03   4.5518853e+00   3.4899272e+00  -2.9197533e+07
   4.9483161e-10  -3.3945784e-03   4.5493967e+00   3.4932939e+00  -2.9033633e+07
   4.9549850e-10  -3.3752686e-03   4.5469207e+00   3.4966427e+00  -2.8870626e+07
   4.9616539e-10  -3.3560672e-03   4.5444571e+00   3.4999738e+00  -2.8708506e+07
   4.9683228e-10  -3.3369736e-03   4.5420061e+00   3.5032873e+00  -2.8547270e+07
   4.9749917e-10  -3.3179873e-03   4.5395674e+00   3.5065832e+00  -2.8386913e+07
   4.9816606e-10  -3.2991077e-03   4.5371411e+00   3.5098617e+00  -2.8227431e+07
   4.9883294e-10  -3.2803341e-03   4.5347271e+00   3.5131227e+00  -2.8068819e+07
   4.9949983e-10  -3.2616661e-03   4.5323254e+00   3.5163664e+00  -2.7911072e+07
   5.0016672e-10  -3.2431030e-03   4.5299359e+00   3.5195929e+00  -2.7754187e+07
   5.0083361e-10  -3.2246442e-03   4.5275586e+00   3.5228022e+00  -2.7598158e+07
   5.0150050e-10  -3.2062893e-03   4.5251934e+00   3.5259945e+00  -2.7442982e+07
   5.0216739e-10  -3.1880375e-03   4.5228403e+00   3.5291697e+00  -2.7288655e+07
   5.0283428e-10  -3.1698885e-03   4.5204991e+00   3.5323280e+00  -2.7135171e+07
   5.0350117e-10  -3.1518415e-03   4.5181700e+00   3.5354695e+00  -2.6982527e+07
   5.0416806e-10  -3.1338960e-03   4.5158527e+00   3.5385942e+00  -2.6830719e+07
   5.0483494e-10  -3.1160516e-03   4.5135473e+00   3.5417022e+00  -2.6679741e+07
   5.0550183e-10  -3.0983075e-03   4.5112538e+00   3.5447936e+00  -2.6529590e+07
   5.0616872e-10  -3.0806634e-03   4.5089720e+00   3.5478684e+00  -2.6380262e+07
   5.0683561e-10  -3.0631186e-03   4.5067019e+00   3.5509268e+00  -2.6231752e+07
   5.0750250e-10  -3.0456725e-03   4.5044435e+00   3.5539689e+00  -2.6084057e+07
   5.0816939e-10  -3.0283247e-03   4.5021967e+00   3.5569946e+00  -2.5937171e+07
   5.0883628e-10  -3.0110747e-03   4.4999615e+00   3.5600041e+00  -2.5791091e+07
   5.0950317e-10  -2.9939217e-03   4.4977378e+00   3.5629974e+00  -2.5645813e+07
   5.1017006e-10  -2.9768655e-03   4.4955256e+00   3.5659747e+00  -2.5501333e+07
   5.1083695e-10  -2.9599053e-03   4.4933248e+00   3.5689360e+00  -2.5357646e+07
   5.1150383e-10  -2.9430407e-03   4.4911353e+00   3.5718814e+00  -2.5214748e+07
   5.1217072e-10  -2.9262711e-03   4.4889572e+00   3.5748109e+00  -2.5072636e+07
   5.1283761e-10  -2.9095961e-03   4.4867904e+00   3.5777247e+00  -2.4931305e+07
   5.1350450e-10  -2.8930151e-03   4.4846348e+00   3.5806227e+00  -2.4790751e+07
   5.1417139e-10  -2.8765276e-03   4.4824904e+00   3.5835052e+00  -2.4650971e+07
   5.1483828e-10  -2.8601331e-03   4.4803571e+00   3.5863721e+00  -2.4511959e+07
   5.1550517e-10  -2.8438310e-03   4.4782348e+00   3.5892236e+00  -2.4373713e+07
   5.1617206e-10  -2.8276209e-03   4.4761237e+00   3.5920596e+00  -2.4236228e+07
   5.1683895e-10  -2.8115022e-03   4.4740235e+00   3.5948804e+00  -2.4099500e+07
   5.1750584e-10  -2.7954745e-03   4.4719342e+00   3.5976859e+00  -2.3963526e+07
   5.1817272e-10  -2.7795372e-03   4.4698558e+00   3.6004762e+00  -2.3828301e+07
   5.1883961e-10  -2.7636899e-03   4.4677883e+00   3.6032515e+00  -2.3693822e+07
   5.1950650e-10  -2.7479320e-03   4.4657315e+00   3.6060117e+00  -2.3560084e+07
   5.2017339e-10  -2.7322631e-03   4.4636855e+00   3.6087570e+00  -2.3427084e+07
   5.2084028e-10  -2.7166826e-03   4.4616502e+00   3.6114874e+00  -2.3294819e+07
   5.2150717e-10  -2.7011901e-03   4.4596255e+00   3.6142030e+00  -2.3163283e+07
   5.2217406e-10  -2.6857852e-03   4.4576114e+00   3.6169038e+00  -2.3032473e+07
   5.2284095e-10  -2.6704672e-03   4.4556079e+00   3.6195901e+00  -2.2902386e+07
   5.2350784e-10  -2.6552357e-03   4.4536149e+00   3.6222617e+00  -2.2773018e+07
   5.2417472e-10  -2.6400903e-03   4.4516323e+00   3.6249188e+00  -2.2644365e+07
   5.2484161e-10  -2.6250305e-03   4.4496602e+00   3.6275615e+00  -2.2516423e+07
   5.2550850e-10  -2.6100558e-03   4.4476984e+00   3.6301898e+00  -2.2389188e+07
   5.2617539e-10  -2.5951657e-03   4.4457469e+00   3.6328038e+00  -2.2262657e+07
   5.2684228e-10  -2.5803597e-03   4.4438057e+00   3.6354036e+00  -2.2136826e+07
   5.2750917e-10  -2.5656375e-03   4.4418747e+00   3.6379892e+00  -2.2011692e+07
   5.2817606e-10  -2.5509985e-03   4.4399539e+00   3.6405608e+00  -2.1887251e+07
   5.2884295e-10  -2.5364423e-03   4.4380432e+00   3.6431183e+00  -2.1763498e+07
   5.2950984e-10  -2.5219683e-03   4.4361426e+00   3.6456619e+00  -2.1640431e+07
   5.3017673e-10  -2.5075763e-03   4.4342520e+00   3.6481916e+00  -2.1518046e+07
   5.3084361e-10  -2.4932656e-03   4.4323715e+00   3.6507075e+00  -2.1396339e+07
   5.3151050e-10  -2.4790359e-03   4.4305008e+00   3.6532097e+00  -2.1275306e+07
   5.3217739e-10  -2.4648867e-03   4.4286401e+00   3.6556982e+00  -2.1154945e+07
   5.3284428e-10  -2.4508175e-03   4.4267892e+00   3.6581731e+00  -2.1035252e+07
   5.3351117e-10  -2.4368280e-03   4.4249481e+00   3.6606344e+00  -2.0916222e+07
   5.3417806e-10  -2.4229176e-03   4.4231167e+00   3.6630823e+00  -2.0797853e+07
   5.3484495e-10  -2.4090860e-03   4.4212951e+00   3.6655168e+00  -2.0680141e+07
   5.3551184e-10  -2.3953326e-03   4.4194831e+00   3.6679380e+00  -2.0563083e+07
   5.3617873e-10  -2.3816572e-03   4.4176808e+00   3.6703459e+00  -2.0446674e+07
   5.3684562e-10  -2.3680591e-03   4.4158881e+00   3.6727406e+00  -2.0330912e+07
   5.3751250e-10  -2.3545380e-03   4.4141048e+00   3.6751222e+00  -2.0215794e+07
   5.3817939e-10  -2.3410935e-03   4.4123311e+00   3.6774907e+00  -2.0101315e+07
   5.3884628e-10  -2.3277252e-03   4.4105668e+00   3.6798463e+00  -1.9987473e+07
   5.3951317e-10  -2.3144326e-03   4.4088119e+00   3.6821889e+00  -1.9874263e+07
   5.4018006e-10  -2.3012152e-03   4.4070663e+00   3.6845186e+00  -1.9761683e+07
   5.4084695e-10  -2.2880728e-03   4.4053301e+00   3.6868356e+00  -1.9649730e+07
   5.4151384e-10  -2.2750048e-03   4.4036031e+00   3.6891398e+00  -1.9538399e+07
   5.4218073e-10  -2.2620108e-03   4.4018853e+00   3.6914313e+00  -1.9427688e+07
   5.4284762e-10  -2.2490905e-03   4.4001768e+00   3.6937103e+00  -1.9317594e+07
   5.4351450e-10  -2.2362435e-03   4.3984773e+00   3.6959767e+00  -1.9208112e+07
   5.4418139e-10  -2.2234692e-03   4.3967869e+00   3.6982306e+00  -1.9099240e+07
   5.4484828e-10  -2.2107673e-03   4.3951056e+00   3.7004722e+00  -1.8990975e+07
   5.4551517e-10  -2.1981375e-03   4.3934333e+00   3.7027014e+00  -1.8883313e+07
   5.4618206e-10  -2.1855793e-03   4.3917699e+00   3.7049183e+00  -1.8776251e+07
   5.4684895e-10  -2.1730922e-03   4.3901155e+00   3.7071230e+00  -1.8669785e+07
   5.4751584e-10  -2.1606760e-03   4.3884699e+00   3.7093155e+00  -1.8563914e+07
   5.4818273e-10  -2.1483302e-03   4.3868332e+00   3.7114959e+00  -1.8458632e+07
   5.4884962e-10  -2.1360545e-03   4.3852052e+00   3.7136643e+00  -1.8353938e+07
   5.4951651e-10  -2.1238483e-03   4.3835860e+00   3.7158208e+00  -1.8249828e+07
   5.5018339e-10  -2.1117114e-03   4.3819755e+00   3.7179653e+00  -1.8146300e+07
   5.5085028e-10  -2.0996434e-03   4.3803736e+00   3.7200980e+00  -1.8043349e+07
   5.5151717e-10  -2.0876438e-03   4.3787804e+00   3.7222189e+00  -1.7940972e+07
   5.5218406e-10  -2.0757123e-03   4.3771957e+00   3.7243281e+00  -1.7839168e+07
   5.5285095e-10  -2.0638486e-03   4.3756196e+00   3.7264256e+00  -1.7737932e+07
   5.5351784e-10  -2.0520521e-03   4.3740519e+00   3.7285115e+00  -1.7637261e+07
   5.5418473e-10  -2.0403227e-03   4.3724927e+00   3.7305859e+00  -1.7537153e+07
   5.5485162e-10  -2.0286598e-03   4.3709419e+00   3.7326488e+00  -1.7437605e+07
   5.5551851e-10  -2.0170631e-03   4.3693995e+00   3.7347003e+00  -1.7338613e+07
   5.5618540e-10  -2.0055323e-03   4.3678654e+00   3.7367404e+00  -1.7240174e+07
   5.5685228e-10  -1.9940669e-03   4.3663396e+00   3.7387692e+00  -1.7142286e+07
   5.5751917e-10  -1.9826666e-03   4.3648220e+00   3.7407868e+00  -1.7044945e+07
   5.5818606e-10  -1.9713311e-03   4.3633127e+00   3.7427932e+00  -1.6948149e+07
   5.5885295e-10  -1.9600599e-03   4.3618115e+00   3.7447885e+00  -1.6851895e+07
   5.5951984e-10  -1.9488528e-03   4.3603184e+00   3.7467727e+00  -1.6756179e+07
   5.6018673e-10  -1.9377093e-03   4.3588334e+00   3.7487459e+00  -1.6660999e+07
   5.6085362e-10  -1.9266292e-03   4.3573564e+00   3.7507081e+00  -1.6566351e+07
   5.6152051e-10  -1.9156120e-03   4.3558875e+00   3.7526595e+00  -1.6472234e+07
   5.6218740e-10  -1.9046573e-03   4.3544265e+00   3.7546000e+00  -1.6378644e+07
   5.6285428e-10  -1.8937650e-03   4.3529734e+00   3.7565297e+00  -1.6285578e+07
   5.6352117e-10  -1.8829345e-03   4.3515282e+00   3.7584488e+00  -1.6193033e+07
   5.6418806e-10  -1.8721656e-03   4.3500908e+00   3.7603571e+00  -1.6101007e+07
   5.6485495e-10  -1.8614579e-03   4.3486613e+00   3.7622549e+00  -1.6009497e+07
   5.6552184e-10  -1.8508110e-03   4.3472395e+00   3.7641420e+00  -1.5918500e+07
   5.6618873e-10  -1.8402247e-03   4.3458254e+00   3.7660187e+00  -1.5828013e+07
   5.6685562e-10  -1.8296985e-03   4.3444191e+00   3.7678850e+00  -1.5738033e+07
   5.6752251e-10  -1.8192322e-03   4.3430204e+00   3.7697409e+00  -1.5648558e+07
   5.6818940e-10  -1.8088254e-03   4.3416292e+00   3.7715864e+00  -1.5559585e+07
   5.6885629e-10  -1.7984778e-03   4.3402457e+00   3.7734216e+00  -1.5471111e+07
   5.6952317e-10  -1.7881890e-03   4.3388697e+00   3.7752467e+00  -1.5383134e+07
   5.7019006e-10  -1.7779587e-03   4.3375012e+00   3.7770615e+00  -1.5295650e+07
   5.7085695e-10  -1.7677866e-03   4.3361401e+00   3.7788663e+00  -1.5208657e+07
   5.7152384e-10  -1.7576724e-03   4.3347865e+00   3.7806610e+00  -1.5122153e+07
   5.7219073e-10  -1.7476157e-03   4.3334402e+00   3.7824457e+00  -1.5036135e+07
   5.7285762e-10  -1.7376162e-03   4.3321013e+00   3.7842204e+00  -1.4950599e+07
   5.7352451e-10  -1.7276736e-03   4.3307697e+00   3.7859853e+00  -1.4865544e+07
   5.7419140e-10  -1.7177876e-03   4.3294454e+00   3.7877402e+00  -1.4780967e+07
   5.7485829e-10  -1.7079578e-03   4.3281283e+00   3.7894854e+00  -1.4696865e+07
   5.7552518e-10  -1.6981839e-03   4.3268184e+00   3.7912209e+00  -1.4613236e+07
   5.7619206e-10  -1.6884657e-03   4.3255157e+00   3.7929466e+00  -1.4530077e+07
   5.7685895e-10  -1.6788028e-03   4.3242201e+00   3.7946628e+00  -1.4447385e+07
   5.7752584e-10  -1.6691949e-03   4.3229315e+00   3.7963693e+00  -1.4365158e+07
   5.7819273e-10  -1.6596416e-03   4.3216501e+00   3.7980663e+00  -1.4283394e+07
   5.7885962e-10  -1.6501428e-03   4.3203756e+00   3.7997538e+00  -1.4202090e+07
   5.7952651e-10  -1.6406980e-03   4.3191081e+00   3.8014319e+00  -1.4121242e+07
   5.8019340e-10  -1.6313070e-03   4.3178476e+00   3.8031006e+00  -1.4040850e+07
   5.8086029e-10  -1.6219694e-03   4.3165939e+00   3.8047599e+00  -1.3960910e+07
   5.8152718e-10  -1.6126850e-03   4.3153472e+00   3.8064100e+00  -1.3881420e+07
   5.8219406e-10  -1.6034535e-03   4.3141073e+00   3.8080509e+00  -1.3802377e+07
   5.8286095e-10  -1.5942746e-03   4.3128741e+00   3.8096825e+00  -1.3723779e+07
   5.8352784e-10  -1.5851479e-03   4.3116478e+00   3.8113051e+00  -1.3645624e+07
   5.8419473e-10  -1.5760732e-03   4.3104282e+00   3.8129185e+00  -1.3567909e+07
   5.8486162e-10  -1.5670502e-03   4.3092152e+00   3.8145229e+00  -1.3490631e+07
   5.8552851e-10  -1.5580786e-03   4.3080090e+00   3.8161183e+00  -1.3413789e+07
   5.8619540e-10  -1.5491581e-03   4.3068093e+00   3.8177048e+00  -1.3337379e+07
   5.8686229e-10  -1.5402884e-03   4.3056163e+00   3.8192824e+00  -1.3261400e+07
   5.8752918e-10  -1.5314692e-03   4.3044298e+00   3.8208512e+00  -1.3185849e+07
   5.8819607e-10  -1.5227003e-03   4.3032498e+00   3.8224111e+00  -1.3110724e+07
   5.8886295e-10  -1.5139813e-03   4.3020764e+00   3.8239623e+00  -1.3036023e+07
   5.8952984e-10  -1.5053121e-03   4.3009094e+00   3.8255048e+00  -1.2961742e+07
   5.9019673e-10  -1.4966922e-03   4.2997488e+00   3.8270387e+00  -1.2887881e+07
   5.9086362e-10  -1.4881215e-03   4.2985946e+00   3.8285639e+00  -1.2814435e+07
   5.9153051e-10  -1.4795996e-03   4.2974468e+00   3.8300806e+00  -1.2741404e+07
   5.9219740e-10  -1.4711262e-03   4.2963053e+00   3.8315888e+00  -1.2668785e+07
   5.9286429e-10  -1.4627012e-03   4.2951701e+00   3.8330885e+00  -1.2596576e+07
   5.9353118e-10  -1.4543242e-03   4.2940411e+00   3.8345798e+00  -1.2524773e+07
   5.9419807e-10  -1.4459949e-03   4.2929184e+00   3.8360627e+00  -1.2453376e+07
   5.9486495e-10  -1.4377131e-03   4.2918018e+00   3.8375373e+00  -1.2382382e+07
   5.9553184e-10  -1.4294786e-03   4.2906915e+00   3.8390036e+00  -1.2311789e+07
   5.9619873e-10  -1.4212910e-03   4.2895872e+00   3.8404616e+00  -1.2241594e+07
   5.9686562e-10  -1.4131500e-03   4.2884891e+00   3.8419115e+00  -1.2171795e+07
   5.9753251e-10  -1.4050555e-03   4.2873970e+00   3.8433532e+00  -1.2102391e+07
   5.9819940e-10  -1.3970072e-03   4.2863110e+00   3.8447868e+00  -1.2033378e+07
   5.9886629e-10  -1.3890047e-03   4.2852309e+00   3.8462124e+00  -1.1964755e+07
   5.9953318e-10  -1.3810479e-03   4.2841568e+00   3.8476299e+00  -1.1896520e+07
   6.0020007e-10  -1.3731365e-03   4.2830887e+00   3.8490395e+00  -1.1828670e+07
   6.0086696e-10  -1.3652702e-03   4.2820265e+00   3.8504411e+00  -1.1761203e+07
   6.0153384e-10  -1.3574487e-03   4.2809701e+00   3.8518348e+00  -1.1694118e+07
   6.0220073e-10  -1.3496719e-03   4.2799196e+00   3.8532207e+00  -1.1627411e+07
   6.0286762e-10  -1.3419394e-03   4.2788750e+00   3.8545988e+00  -1.1561082e+07
   6.0353451e-10  -1.3342511e-03   4.2778361e+00   3.8559691e+00  -1.1495128e+07
   6.0420140e-10  -1.3266066e-03   4.2768029e+00   3.8573318e+00  -1.1429546e+07
   6.0486829e-10  -1.3190057e-03   4.2757755e+00   3.8586867e+00  -1.1364335e+07
   6.0553518e-10  -1.3114482e-03   4.2747538e+00   3.8600340e+00  -1.1299493e+07
   6.0620207e-10  -1.3039338e-03   4.2737377e+00   3.8613737e+00  -1.1235017e+07
   6.0686896e-10  -1.2964623e-03   4.2727273e+00   3.8627059e+00  -1.1170907e+07
   6.0753585e-10  -1.2890335e-03   4.2717224e+00   3.8640306e+00  -1.1107158e+07
   6.0820273e-10  -1.2816470e-03   4.2707232e+00   3.8653478e+00  -1.1043771e+07
   6.0886962e-10  -1.2743027e-03   4.2697295e+00   3.8666575e+00  -1.0980742e+07
   6.0953651e-10  -1.2670003e-03   4.2687413e+00   3.8679599e+00  -1.0918069e+07
   6.1020340e-10  -1.2597396e-03   4.2677586e+00   3.8692550e+00  -1.0855751e+07
   6.1087029e-10  -1.2525203e-03   4.2667813e+00   3.8705427e+00  -1.0793786e+07
   6.1153718e-10  -1.2453422e-03   4.2658095e+00   3.8718232e+00  -1.0732172e+07
   6.1220407e-10  -1.2382052e-03   4.2648431e+00   3.8730964e+00  -1.0670906e+07
   6.1287096e-10  -1.2311088e-03   4.2638820e+00   3.8743625e+00  -1.0609987e+07
   6.1353785e-10  -1.2240530e-03   4.2629263e+00   3.8756214e+00  -1.0549413e+07
   6.1420473e-10  -1.2170374e-03   4.2619759e+00   3.8768732e+00  -1.0489182e+07
   6.1487162e-10  -1.2100620e-03   4.2610308e+00   3.8781180e+00  -1.0429292e+07
   6.1553851e-10  -1.2031263e-03   4.2600909e+00   3.8793557e+00  -1.0369741e+07
   6.1620540e-10  -1.1962302e-03   4.2591563e+00   3.8805864e+00  -1.0310528e+07
   6.1687229e-10  -1.1893736e-03   4.2582269e+00   3.8818102e+00  -1.0251650e+07
   6.1753918e-10  -1.1825561e-03   4.2573026e+00   3.8830271e+00  -1.0193105e+07
   6.1820607e-10  -1.1757775e-03   4.2563835e+00   3.8842371e+00  -1.0134892e+07
   6.1887296e-10  -1.1690376e-03   4.2554695e+00   3.8854402e+00  -1.0077009e+07
   6.1953985e-10  -1.1623362e-03   4.2545606e+00   3.8866366e+00  -1.0019454e+07
   6.2020674e-10  -1.1556731e-03   4.2536568e+00   3.8878262e+00  -9.9622253e+06
   6.2087362e-10  -1.1490481e-03   4.2527580e+00   3.8890091e+00  -9.9053208e+06
   6.2154051e-10  -1.1424609e-03   4.2518642e+00   3.8901853e+00  -9.8487388e+06
   6.2220740e-10  -1.1359113e-03   4.2509754e+00   3.8913548e+00  -9.7924776e+06
   6.2287429e-10  -1.1293992e-03   4.2500915e+00   3.8925177e+00  -9.7365354e+06
   6.2354118e-10  -1.1229242e-03   4.2492126e+00   3.8936741e+00  -9.6809104e+06
   6.2420807e-10  -1.1164863e-03   4.2483386e+00   3.8948239e+00  -9.6256008e+06
   6.2487496e-10  -1.1100851e-03   4.2474694e+00   3.8959672e+00  -9.5706048e+06
   6.2554185e-10  -1.1037205e-03   4.2466051e+00   3.8971040e+00  -9.5159208e+06
   6.2620874e-10  -1.0973923e-03   4.2457457e+00   3.8982344e+00  -9.4615469e+06
   6.2687563e-10  -1.0911002e-03   4.2448910e+00   3.8993585e+00  -9.4074814e+06
   6.2754251e-10  -1.0848441e-03   4.2440411e+00   3.9004761e+00  -9.3537227e+06
   6.2820940e-10  -1.0786237e-03   4.2431959e+00   3.9015874e+00  -9.3002690e+06
   6.2887629e-10  -1.0724389e-03   4.2423555e+00   3.9026925e+00  -9.2471186e+06
   6.2954318e-10  -1.0662895e-03   4.2415198e+00   3.9037912e+00  -9.1942697e+06
   6.3021007e-10  -1.0601751e-03   4.2406887e+00   3.9048838e+00  -9.1417208e+06
   6.3087696e-10  -1.0540958e-03   4.2398623e+00   3.9059702e+00  -9.0894702e+06
   6.3154385e-10  -1.0480512e-03   4.2390405e+00   3.9070504e+00  -9.0375161e+06
   6.3221074e-10  -1.0420411e-03   4.2382233e+00   3.9081245e+00  -8.9858570e+06
   6.3287763e-10  -1.0360654e-03   4.2374106e+00   3.9091925e+00  -8.9344911e+06
   6.3354451e-10  -1.0301238e-03   4.2366026e+00   3.9102545e+00  -8.8834168e+06
   6.3421140e-10  -1.0242162e-03   4.2357990e+00   3.9113104e+00  -8.8326326e+06
   6.3487829e-10  -1.0183424e-03   4.2349999e+00   3.9123604e+00  -8.7821367e+06
   6.3554518e-10  -1.0125022e-03   4.2342053e+00   3.9134044e+00  -8.7319276e+06
   6.3621207e-10  -1.0066953e-03   4.2334152e+00   3.9144425e+00  -8.6820036e+06
   6.3687896e-10  -1.0009217e-03   4.2326294e+00   3.9154747e+00  -8.6323633e+06
   6.3754585e-10  -9.9518103e-04   4.2318481e+00   3.9165011e+00  -8.5830048e+06
   6.3821274e-10  -9.8947322e-04   4.2310712e+00   3.9175216e+00  -8.5339268e+06
   6.3887963e-10  -9.8379805e-04   4.2302986e+00   3.9185363e+00  -8.4851276e+06
   6.3954652e-10  -9.7815533e-04   4.2295303e+00   3.9195453e+00  -8.4366057e+06
   6.4021340e-10  -9.7254488e-04   4.2287663e+00   3.9205486e+00  -8.3883595e+06
   6.4088029e-10  -9.6696652e-04   4.2280066e+00   3.9215462e+00  -8.3403874e+06
   6.4154718e-10  -9.6142006e-04   4.2272512e+00   3.9225381e+00  -8.2926880e+06
   6.4221407e-10  -9.5590532e-04   4.2265000e+00   3.9235244e+00  -8.2452597e+06
   6.4288096e-10  -9.5042212e-04   4.2257530e+00   3.9245051e+00  -8.1981009e+06
   6.4354785e-10  -9.4497029e-04   4.2250103e+00   3.9254803e+00  -8.1512102e+06
   6.4421474e-10  -9.3954963e-04   4.2242716e+00   3.9264499e+00  -8.1045861e+06
   6.4488163e-10  -9.3415999e-04   4.2235372e+00   3.9274140e+00  -8.0582271e+06
   6.4554852e-10  -9.2880117e-04   4.2228068e+00   3.9283726e+00  -8.0121316e+06
   6.4621541e-10  -9.2347301e-04   4.2220806e+00   3.9293258e+00  -7.9662982e+06
   6.4688229e-10  -9.1817533e-04   4.2213584e+00   3.9302736e+00  -7.9207255e+06
   6.4754918e-10  -9.1290795e-04   4.2206403e+00   3.9312160e+00  -7.8754119e+06
   6.4821607e-10  -9.0767072e-04   4.2199262e+00   3.9321530e+00  -7.8303561e+06
   6.4888296e-10  -9.0246344e-04   4.2192161e+00   3.9330848e+00  -7.7855565e+06
   6.4954985e-10  -8.9728596e-04   4.2185100e+00   3.9340112e+00  -7.7410118e+06
   6.5021674e-10  -8.9213810e-04   4.2178079e+00   3.9349324e+00  -7.6967204e+06
   6.5088363e-10  -8.8701969e-04   4.2171097e+00   3.9358483e+00  -7.6526810e+06
   6.5155052e-10  -8.8193057e-04   4.2164154e+00   3.9367590e+00  -7.6088922e+06
   6.5221741e-10  -8.7687058e-04   4.2157251e+00   3.9376646e+00  -7.5653525e+06
   6.5288429e-10  -8.7183954e-04   4.2150386e+00   3.9385650e+00  -7.5220606e+06
   6.5355118e-10  -8.6683728e-04   4.2143560e+00   3.9394603e+00  -7.4790150e+06
   6.5421807e-10  -8.6186366e-04   4.2136772e+00   3.9403505e+00  -7.4362144e+06
   6.5488496e-10  -8.5691850e-04   4.2130022e+00   3.9412357e+00  -7.3936574e+06
   6.5555185e-10  -8.5200164e-04   4.2123311e+00   3.9421158e+00  -7.3513426e+06
   6.5621874e-10  -8.4711292e-04   4.2116637e+00   3.9429909e+00  -7.3092687e+06
   6.5688563e-10  -8.4225218e-04   4.2110001e+00   3.9438611e+00  -7.2674342e+06
   6.5755252e-10  -8.3741926e-04   4.2103402e+00   3.9447263e+00  -7.2258380e+06
   6.5821941e-10  -8.3261400e-04   4.2096840e+00   3.9455865e+00  -7.1844785e+06
   6.5888630e-10  -8.2783625e-04   4.2090315e+00   3.9464419e+00  -7.1433546e+06
   6.5955318e-10  -8.2308584e-04   4.2083827e+00   3.9472924e+00  -7.1024648e+06
   6.6022007e-10  -8.1836263e-04   4.2077375e+00   3.9481381e+00  -7.0618078e+06
   6.6088696e-10  -8.1366646e-04   4.2070960e+00   3.9489790e+00  -7.0213824e+06
   6.6155385e-10  -8.0899717e-04   4.2064581e+00   3.9498151e+00  -6.9811871e+06
   6.6222074e-10  -8.0435461e-04   4.2058237e+00   3.9506464e+00  -6.9412209e+06
   6.6288763e-10  -7.9973863e-04   4.2051930e+00   3.9514730e+00  -6.9014822e+06
   6.6355452e-10  -7.9514908e-04   4.2045658e+00   3.9522949e+00  -6.8619700e+06
   6.6422141e-10  -7.9058580e-04   4.2039421e+00   3.9531122e+00  -6.8226828e+06
   6.6488830e-10  -7.8604865e-04   4.2033220e+00   3.9539247e+00  -6.7836194e+06
   6.6555519e-10  -7.8153748e-04   4.2027053e+00   3.9547327e+00  -6.7447786e+06
   6.6622207e-10  -7.7705214e-04   4.2020922e+00   3.9555360e+00  -6.7061590e+06
   6.6688896e-10  -7.7259248e-04   4.2014824e+00   3.9563348e+00  -6.6677596e+06
   6.6755585e-10  -7.6815835e-04   4.2008762e+00   3.9571290e+00  -6.6295789e+06
   6.6822274e-10  -7.6374962e-04   4.2002733e+00   3.9579188e+00  -6.5916158e+06
   6.6888963e-10  -7.5936614e-04   4.1996738e+00   3.9587040e+00  -6.5538690e+06
   6.6955652e-10  -7.5500775e-04   4.1990778e+00   3.9594847e+00  -6.5163374e+06
   6.7022341e-10  -7.5067433e-04   4.1984850e+00   3.9602610e+00  -6.4790197e+06
   6.7089030e-10  -7.4636572e-04   4.1978957e+00   3.9610329e+00  -6.4419147e+06
   6.7155719e-10  -7.4208179e-04   4.1973096e+00   3.9618004e+00  -6.4050212e+06
   6.7222407e-10  -7.3782239e-04   4.1967269e+00   3.9625635e+00  -6.3683381e+06
   6.7289096e-10  -7.3358739e-04   4.1961474e+00   3.9633223e+00  -6.3318640e+06
   6.7355785e-10  -7.2937664e-04   4.1955712e+00   3.9640767e+00  -6.2955979e+06
   6.7422474e-10  -7.2519001e-04   4.1949983e+00   3.9648269e+00  -6.2595386e+06
   6.7489163e-10  -7.2102736e-04   4.1944286e+00   3.9655727e+00  -6.2236849e+06
   6.7555852e-10  -7.1688856e-04   4.1938622e+00   3.9663144e+00  -6.1880356e+06
   6.7622541e-10  -7.1277346e-04   4.1932989e+00   3.9670518e+00  -6.1525896e+06
   6.7689230e-10  -7.0868194e-04   4.1927388e+00   3.9677850e+00  -6.1173458e+06
   6.7755919e-10  -7.0461385e-04   4.1921819e+00   3.9685140e+00  -6.0823029e+06
   6.7822608e-10  -7.0056906e-04   4.1916281e+00   3.9692389e+00  -6.0474599e+06
   6.7889296e-10  -6.9654745e-04   4.1910774e+00   3.9699596e+00  -6.0128157e+06
   6.7955985e-10  -6.9254888e-04   4.1905299e+00   3.9706762e+00  -5.9783691e+06
   6.8022674e-10  -6.8857321e-04   4.1899854e+00   3.9713888e+00  -5.9441189e+06
   6.8089363e-10  -6.8462032e-04   4.1894441e+00   3.9720973e+00  -5.9100642e+06
   6.8156052e-10  -6.8069008e-04   4.1889058e+00   3.9728017e+00  -5.8762037e+06
   6.8222741e-10  -6.7678235e-04   4.1883705e+00   3.9735021e+00  -5.8425364e+06
   6.8289430e-10  -6.7289702e-04   4.1878383e+00   3.9741986e+00  -5.8090612e+06
   6.8356119e-10  -6.6903395e-04   4.1873090e+00   3.9748910e+00  -5.7757770e+06
   6.8422808e-10  -6.6519301e-04   4.1867828e+00   3.9755795e+00  -5.7426827e+06
   6.8489496e-10  -6.6137408e-04   4.1862595e+00   3.9762641e+00  -5.7097773e+06
   6.8556185e-10  -6.5757703e-04   4.1857392e+00   3.9769448e+00  -5.6770596e+06
   6.8622874e-10  -6.5380174e-04   4.1852219e+00   3.9776216e+00  -5.6445287e+06
   6.8689563e-10  -6.5004808e-04   4.1847075e+00   3.9782946e+00  -5.6121834e+06
   6.8756252e-10  -6.4631593e-04   4.1841959e+00   3.9789637e+00  -5.5800228e+06
   6.8822941e-10  -6.4260517e-04   4.1836873e+00   3.9796290e+00  -5.5480457e+06
   6.8889630e-10  -6.3891568e-04   4.1831816e+00   3.9802905e+00  -5.5162511e+06
   6.8956319e-10  -6.3524733e-04   4.1826787e+00   3.9809482e+00  -5.4846381e+06
   6.9023008e-10  -6.3160000e-04   4.1821787e+00   3.9816022e+00  -5.4532054e+06
   6.9089697e-10  -6.2797357e-04   4.1816815e+00   3.9822524e+00  -5.4219523e+06
   6.9156385e-10  -6.2436793e-04   4.1811871e+00   3.9828989e+00  -5.3908776e+06
   6.9223074e-10  -6.2078296e-04   4.1806955e+00   3.9835418e+00  -5.3599802e+06
   6.9289763e-10  -6.1721853e-04   4.1802067e+00   3.9841809e+00  -5.3292593e+06
   6.9356452e-10  -6.1367453e-04   4.1797206e+00   3.9848165e+00  -5.2987139e+06
   6.9423141e-10  -6.1015085e-04   4.1792374e+00   3.9854484e+00  -5.2683428e+06
   6.9489830e-10  -6.0664736e-04   4.1787568e+00   3.9860767e+00  -5.2381452e+06
   6.9556519e-10  -6.0316395e-04   4.1782790e+00   3.9867014e+00  -5.2081200e+06
   6.9623208e-10  -5.9970051e-04   4.1778039e+00   3.9873225e+00  -5.1782663e+06
   6.9689897e-10  -5.9625693e-04   4.1773315e+00   3.9879401e+00  -5.1485831e+06
   6.9756586e-10  -5.9283308e-04   4.1768617e+00   3.9885542e+00  -5.1190694e+06
   6.9823274e-10  -5.8942886e-04   4.1763946e+00   3.9891647e+00  -5.0897244e+06
   6.9889963e-10  -5.8604416e-04   4.1759302e+00   3.9897718e+00  -5.0605469e+06
   6.9956652e-10  -5.8267886e-04   4.1754684e+00   3.9903754e+00  -5.0315361e+06
   7.0023341e-10  -5.7933285e-04   4.1750092e+00   3.9909756e+00  -5.0026910e+06
   7.0090030e-10  -5.7600602e-04   4.1745526e+00   3.9915723e+00  -4.9740107e+06
   7.0156719e-10  -5.7269827e-04   4.1740986e+00   3.9921657e+00  -4.9454943e+06
   7.0223408e-10  -5.6940948e-04   4.1736472e+00   3.9927556e+00  -4.9171408e+06
   7.0290097e-10  -5.6613954e-04   4.1731984e+00   3.9933422e+00  -4.8889493e+06
   7.0356786e-10  -5.6288836e-04   4.1727521e+00   3.9939254e+00  -4.8609188e+06
   7.0423474e-10  -5.5965581e-04   4.1723083e+00   3.9945053e+00  -4.8330485e+06
   7.0490163e-10  -5.5644180e-04   4.1718670e+00   3.9950819e+00  -4.8053375e+06
   7.0556852e-10  -5.5324622e-04   4.1714283e+00   3.9956552e+00  -4.7777849e+06
   7.0623541e-10  -5.5006895e-04   4.1709920e+00   3.9962252e+00  -4.7503896e+06
   7.0690230e-10  -5.4690991e-04   4.1705582e+00   3.9967919e+00  -4.7231510e+06
   7.0756919e-10  -5.4376898e-04   4.1701269e+00   3.9973555e+00  -4.6960680e+06
   7.0823608e-10  -5.4064607e-04   4.1696980e+00   3.9979158e+00  -4.6691398e+06
   7.0890297e-10  -5.3754106e-04   4.1692715e+00   3.9984729e+00  -4.6423656e+06
   7.0956986e-10  -5.3445385e-04   4.1688475e+00   3.9990268e+00  -4.6157443e+06
   7.1023675e-10  -5.3138435e-04   4.1684259e+00   3.9995775e+00  -4.5892752e+06
   7.1090363e-10  -5.2833245e-04   4.1680067e+00   4.0001251e+00  -4.5629575e+06
   7.1157052e-10  -5.2529805e-04   4.1675898e+00   4.0006696e+00  -4.5367901e+06
   7.1223741e-10  -5.2228105e-04   4.1671753e+00   4.0012110e+00  -4.5107724e+06
   7.1290430e-10  -5.1928136e-04   4.1667632e+00   4.0017493e+00  -4.4849034e+06
   7.1357119e-10  -5.1629887e-04   4.1663534e+00   4.0022844e+00  -4.4591823e+06
   7.1423808e-10  -5.1333348e-04   4.1659459e+00   4.0028166e+00  -4.4336083e+06
   7.1490497e-10  -5.1038510e-04   4.1655408e+00   4.0033457e+00  -4.4081805e+06
   7.1557186e-10  -5.0745363e-04   4.1651380e+00   4.0038718e+00  -4.3828981e+06
   7.1623875e-10  -5.0453898e-04   4.1647374e+00   4.0043948e+00  -4.3577602e+06
   7.1690564e-10  -5.0164104e-04   4.1643391e+00   4.0049149e+00  -4.3327661e+06
   7.1757252e-10  -4.9875972e-04   4.1639431e+00   4.0054320e+00  -4.3079149e+06
   7.1823941e-10  -4.9589493e-04   4.1635493e+00   4.0059461e+00  -4.2832058e+06
   7.1890630e-10  -4.9304657e-04   4.1631578e+00   4.0064573e+00  -4.2586381e+06
   7.1957319e-10  -4.9021455e-04   4.1627685e+00   4.0069656e+00  -4.2342108e+06
   7.2024008e-10  -4.8739877e-04   4.1623814e+00   4.0074710e+00  -4.2099232e+06
   7.2090697e-10  -4.8459914e-04   4.1619965e+00   4.0079735e+00  -4.1857746e+06
   7.2157386e-10  -4.8181558e-04   4.1616138e+00   4.0084731e+00  -4.1617641e+06
   7.2224075e-10  -4.7904798e-04   4.1612333e+00   4.0089699e+00  -4.1378909e+06
   7.2290764e-10  -4.7629625e-04   4.1608549e+00   4.0094638e+00  -4.1141543e+06
   7.2357452e-10  -4.7356031e-04   4.1604787e+00   4.0099549e+00  -4.0905534e+06
   7.2424141e-10  -4.7084007e-04   4.1601046e+00   4.0104432e+00  -4.0670876e+06
   7.2490830e-10  -4.6813543e-04   4.1597327e+00   4.0109287e+00  -4.0437560e+06
   7.2557519e-10  -4.6544631e-04   4.1593629e+00   4.0114114e+00  -4.0205578e+06
   7.2624208e-10  -4.6277261e-04   4.1589951e+00   4.0118913e+00  -3.9974924e+06
   7.2690897e-10  -4.6011425e-04   4.1586295e+00   4.0123685e+00  -3.9745590e+06
   7.2757586e-10  -4.5747115e-04   4.1582659e+00   4.0128430e+00  -3.9517567e+06
   7.2824275e-10  -4.5484320e-04   4.1579045e+00   4.0133148e+00  -3.9290850e+06
   7.2890964e-10  -4.5223034e-04   4.1575450e+00   4.0137839e+00  -3.9065429e+06
   7.2957653e-10  -4.4963246e-04   4.1571876e+00   4.0142502e+00  -3.8841299e+06
   7.3024341e-10  -4.4704949e-04   4.1568323e+00   4.0147140e+00  -3.8618450e+06
   7.3091030e-10  -4.4448134e-04   4.1564790e+00   4.0151750e+00  -3.8396878e+06
   7.3157719e-10  -4.4192793e-04   4.1561276e+00   4.0156335e+00  -3.8176573e+06
   7.3224408e-10  -4.3938916e-04   4.1557783e+00   4.0160893e+00  -3.7957529e+06
   7.3291097e-10  -4.3686497e-04   4.1554310e+00   4.0165425e+00  -3.7739738e+06
   7.3357786e-10  -4.3435525e-04   4.1550856e+00   4.0169931e+00  -3.7523194e+06
   7.3424475e-10  -4.3185994e-04   4.1547422e+00   4.0174411e+00  -3.7307889e+06
   7.3491164e-10  -4.2937894e-04   4.1544008e+00   4.0178865e+00  -3.7093816e+06
   7.3557853e-10  -4.2691218e-04   4.1540613e+00   4.0183295e+00  -3.6880969e+06
   7.3624542e-10  -4.2445957e-04   4.1537237e+00   4.0187698e+00  -3.6669340e+06
   7.3691230e-10  -4.2202104e-04   4.1533881e+00   4.0192077e+00  -3.6458922e+06
   7.3757919e-10  -4.1959650e-04   4.1530544e+00   4.0196430e+00  -3.6249709e+06
   7.3824608e-10  -4.1718588e-04   4.1527225e+00   4.0200759e+00  -3.6041694e+06
   7.3891297e-10  -4.1478908e-04   4.1523926e+00   4.0205063e+00  -3.5834869e+06
   7.3957986e-10  -4.1240604e-04   4.1520646e+00   4.0209342e+00  -3.5629228e+06
   7.4024675e-10  -4.1003668e-04   4.1517384e+00   4.0213597e+00  -3.5424764e+06
   7.4091364e-10  -4.0768091e-04   4.1514140e+00   4.0217827e+00  -3.5221471e+06
   7.4158053e-10  -4.0533867e-04   4.1510915e+00   4.0222033e+00  -3.5019342e+06
   7.4224742e-10  -4.0300986e-04   4.1507709e+00   4.0226215e+00  -3.4818370e+06
   7.4291430e-10  -4.0069442e-04   4.1504521e+00   4.0230373e+00  -3.4618549e+06
   7.4358119e-10  -3.9839227e-04   4.1501351e+00   4.0234508e+00  -3.4419872e+06
   7.4424808e-10  -3.9610333e-04   4.1498199e+00   4.0238618e+00  -3.4222332e+06
   7.4491497e-10  -3.9382752e-04   4.1495065e+00   4.0242706e+00  -3.4025924e+06
   7.4558186e-10  -3.9156478e-04   4.1491948e+00   4.0246769e+00  -3.3830640e+06
   7.4624875e-10  -3.8931502e-04   4.1488850e+00   4.0250810e+00  -3.3636475e+06
   7.4691564e-10  -3.8707818e-04   4.1485769e+00   4.0254827e+00  -3.3443421e+06
   7.4758253e-10  -3.8485418e-04   4.1482706e+00   4.0258821e+00  -3.3251473e+06
   7.4824942e-10  -3.8264294e-04   4.1479660e+00   4.0262793e+00  -3.3060624e+06
   7.4891631e-10  -3.8044439e-04   4.1476632e+00   4.0266742e+00  -3.2870868e+06
   7.4958319e-10  -3.7825846e-04   4.1473621e+00   4.0270668e+00  -3.2682199e+06
   7.5025008e-10  -3.7608507e-04   4.1470627e+00   4.0274571e+00  -3.2494610e+06
   7.5091697e-10  -3.7392417e-04   4.1467650e+00   4.0278453e+00  -3.2308096e+06
   7.5158386e-10  -3.7177566e-04   4.1464690e+00   4.0282312e+00  -3.2122650e+06
   7.5225075e-10  -3.6963949e-04   4.1461747e+00   4.0286148e+00  -3.1938266e+06
   7.5291764e-10  -3.6751558e-04   4.1458821e+00   4.0289963e+00  -3.1754938e+06
   7.5358453e-10  -3.6540386e-04   4.1455911e+00   4.0293757e+00  -3.1572661e+06
   7.5425142e-10  -3.6330426e-04   4.1453018e+00   4.0297528e+00  -3.1391427e+06
   7.5491831e-10  -3.6121672e-04   4.1450142e+00   4.0301278e+00  -3.1211232e+06
   7.5558520e-10  -3.5914115e-04   4.1447282e+00   4.0305006e+00  -3.1032069e+06
   7.5625208e-10  -3.5707751e-04   4.1444438e+00   4.0308713e+00  -3.0853932e+06
   7.5691897e-10  -3.5502570e-04   4.1441610e+00   4.0312399e+00  -3.0676816e+06
   7.5758586e-10  -3.5298568e-04   4.1438799e+00   4.0316063e+00  -3.0500714e+06
   7.5825275e-10  -3.5095737e-04   4.1436003e+00   4.0319707e+00  -3.0325622e+06
   7.5891964e-10  -3.4894070e-04   4.1433224e+00   4.0323330e+00  -3.0151532e+06
   7.5958653e-10  -3.4693561e-04   4.1430460e+00   4.0326932e+00  -2.9978440e+06
   7.6025342e-10  -3.4494203e-04   4.1427712e+00   4.0330513e+00  -2.9806340e+06
   7.6092031e-10  -3.4295989e-04   4.1424980e+00   4.0334074e+00  -2.9635225e+06
   7.6158720e-10  -3.4098914e-04   4.1422264e+00   4.0337614e+00  -2.9465091e+06
   7.6225408e-10  -3.3902970e-04   4.1419563e+00   4.0341135e+00  -2.9295932e+06
   7.6292097e-10  -3.3708150e-04   4.1416877e+00   4.0344635e+00  -2.9127742e+06
   7.6358786e-10  -3.3514450e-04   4.1414207e+00   4.0348115e+00  -2.8960516e+06
   7.6425475e-10  -3.3321861e-04   4.1411552e+00   4.0351575e+00  -2.8794248e+06
   7.6492164e-10  -3.3130378e-04   4.1408912e+00   4.0355015e+00  -2.8628933e+06
   7.6558853e-10  -3.2939994e-04   4.1406287e+00   4.0358435e+00  -2.8464565e+06
   7.6625542e-10  -3.2750704e-04   4.1403677e+00   4.0361836e+00  -2.8301139e+06
   7.6692231e-10  -3.2562500e-04   4.1401082e+00   4.0365218e+00  -2.8138650e+06
   7.6758920e-10  -3.2375377e-04   4.1398502e+00   4.0368580e+00  -2.7977092e+06
   7.6825609e-10  -3.2189328e-04   4.1395936e+00   4.0371922e+00  -2.7816460e+06
   7.6892297e-10  -3.2004347e-04   4.1393385e+00   4.0375246e+00  -2.7656748e+06
   7.6958986e-10  -3.1820429e-04   4.1390849e+00   4.0378550e+00  -2.7497952e+06
   7.7025675e-10  -3.1637566e-04   4.1388327e+00   4.0381836e+00  -2.7340066e+06
   7.7092364e-10  -3.1455754e-04   4.1385820e+00   4.0385103e+00  -2.7183085e+06
   7.7159053e-10  -3.1274985e-04   4.1383327e+00   4.0388351e+00  -2.7027003e+06
   7.7225742e-10  -3.1095255e-04   4.1380848e+00   4.0391580e+00  -2.6871816e+06
   7.7292431e-10  -3.0916556e-04   4.1378383e+00   4.0394791e+00  -2.6717519e+06
   7.7359120e-10  -3.0738884e-04   4.1375933e+00   4.0397984e+00  -2.6564106e+06
   7.7425809e-10  -3.0562231e-04   4.1373496e+00   4.0401158e+00  -2.6411573e+06
   7.7492497e-10  -3.0386593e-04   4.1371073e+00   4.0404314e+00  -2.6259914e+06
   7.7559186e-10  -3.0211964e-04   4.1368665e+00   4.0407452e+00  -2.6109124e+06
   7.7625875e-10  -3.0038337e-04   4.1366269e+00   4.0410572e+00  -2.5959198e+06
   7.7692564e-10  -2.9865708e-04   4.1363888e+00   4.0413674e+00  -2.5810133e+06
   7.7759253e-10  -2.9694069e-04   4.1361520e+00   4.0416758e+00  -2.5661921e+06
   7.7825942e-10  -2.9523417e-04   4.1359166e+00   4.0419825e+00  -2.5514559e+06
   7.7892631e-10  -2.9353744e-04   4.1356825e+00   4.0422874e+00  -2.5368043e+06
   7.7959320e-10  -2.9185046e-04   4.1354498e+00   4.0425906e+00  -2.5222366e+06
   7.8026009e-10  -2.9017316e-04   4.1352183e+00   4.0428920e+00  -2.5077524e+06
   7.8092698e-10  -2.8850550e-04   4.1349882e+00   4.0431917e+00  -2.4933513e+06
   7.8159386e-10  -2.8684741e-04   4.1347595e+00   4.0434896e+00  -2.4790327e+06
   7.8226075e-10  -2.8519885e-04   4.1345320e+00   4.0437859e+00  -2.4647963e+06
   7.8292764e-10  -2.8355975e-04   4.1343058e+00   4.0440805e+00  -2.4506414e+06
   7.8359453e-10  -2.8193007e-04   4.1340809e+00   4.0443733e+00  -2.4365678e+06
   7.8426142e-10  -2.8030974e-04   4.1338573e+00   4.0446645e+00  -2.4225748e+06
   7.8492831e-10  -2.7869872e-04   4.1336350e+00   4.0449541e+00  -2.4086620e+06
   7.8559520e-10  -2.7709695e-04   4.1334140e+00   4.0452419e+00  -2.3948291e+06
   7.8626209e-10  -2.7550439e-04   4.1331942e+00   4.0455281e+00  -2.3810754e+06
   7.8692898e-10  -2.7392096e-04   4.1329757e+00   4.0458127e+00  -2.3674006e+06
   7.8759587e-10  -2.7234664e-04   4.1327584e+00   4.0460957e+00  -2.3538043e+06
   7.8826275e-10  -2.7078135e-04   4.1325423e+00   4.0463770e+00  -2.3402859e+06
   7.8892964e-10  -2.6922505e-04   4.1323275e+00   4.0466567e+00  -2.3268450e+06
   7.8959653e-10  -2.6767770e-04   4.1321140e+00   4.0469348e+00  -2.3134812e+06
   7.9026342e-10  -2.6613922e-04   4.1319016e+00   4.0472113e+00  -2.3001941e+06
   7.9093031e-10  -2.6460959e-04   4.1316905e+00   4.0474862e+00  -2.2869831e+06
   7.9159720e-10  -2.6308874e-04   4.1314805e+00   4.0477596e+00  -2.2738479e+06
   7.9226409e-10  -2.6157663e-04   4.1312718e+00   4.0480314e+00  -2.2607881e+06
   7.9293098e-10  -2.6007320e-04   4.1310642e+00   4.0483016e+00  -2.2478031e+06
   7.9359787e-10  -2.5857840e-04   4.1308579e+00   4.0485703e+00  -2.2348927e+06
   7.9426475e-10  -2.5709219e-04   4.1306527e+00   4.0488374e+00  -2.2220562e+06
   7.9493164e-10  -2.5561452e-04   4.1304487e+00   4.0491030e+00  -2.2092934e+06
   7.9559853e-10  -2.5414534e-04   4.1302459e+00   4.0493671e+00  -2.1966038e+06
   7.9626542e-10  -2.5268459e-04   4.1300442e+00   4.0496296e+00  -2.1839870e+06
   7.9693231e-10  -2.5123224e-04   4.1298437e+00   4.0498907e+00  -2.1714425e+06
   7.9759920e-10  -2.4978822e-04   4.1296443e+00   4.0501502e+00  -2.1589700e+06
   7.9826609e-10  -2.4835250e-04   4.1294461e+00   4.0504083e+00  -2.1465691e+06
   7.9893298e-10  -2.4692503e-04   4.1292490e+00   4.0506649e+00  -2.1342393e+06
   7.9959987e-10  -2.4550576e-04   4.1290530e+00   4.0509200e+00  -2.1219802e+06
   8.0026676e-10  -2.4409464e-04   4.1288581e+00   4.0511737e+00  -2.1097914e+06
   8.0093364e-10  -2.4269162e-04   4.1286644e+00   4.0514259e+00  -2.0976725e+06
   8.0160053e-10  -2.4129667e-04   4.1284718e+00   4.0516766e+00  -2.0856232e+06
   8.0226742e-10  -2.3990973e-04   4.1282802e+00   4.0519259e+00  -2.0736430e+06
   8.0293431e-10  -2.3853075e-04   4.1280898e+00   4.0521738e+00  -2.0617315e+06
   8.0360120e-10  -2.3715970e-04   4.1279004e+00   4.0524203e+00  -2.0498884e+06
   8.0426809e-10  -2.3579652e-04   4.1277122e+00   4.0526653e+00  -2.0381131e+06
   8.0493498e-10  -2.3444117e-04   4.1275250e+00   4.0529090e+00  -2.0264055e+06
   8.0560187e-10  -2.3309361e-04   4.1273389e+00   4.0531512e+00  -2.0147650e+06
   8.0626876e-10  -2.3175379e-04   4.1271538e+00   4.0533921e+00  -2.0031913e+06
   8.0693565e-10  -2.3042166e-04   4.1269698e+00   4.0536315e+00  -1.9916840e+06
   8.0760253e-10  -2.2909719e-04   4.1267869e+00   4.0538696e+00  -1.9802427e+06
   8.0826942e-10  -2.2778033e-04   4.1266050e+00   4.0541064e+00  -1.9688670e+06
   8.0893631e-10  -2.2647103e-04   4.1264242e+00   4.0543417e+00  -1.9575567e+06
   8.0960320e-10  -2.2516925e-04   4.1262443e+00   4.0545758e+00  -1.9463112e+06
   8.1027009e-10  -2.2387495e-04   4.1260656e+00   4.0548084e+00  -1.9351302e+06
   8.1093698e-10  -2.2258809e-04   4.1258878e+00   4.0550398e+00  -1.9240134e+06
   8.1160387e-10  -2.2130862e-04   4.1257111e+00   4.0552698e+00  -1.9129604e+06
   8.1227076e-10  -2.2003650e-04   4.1255353e+00   4.0554985e+00  -1.9019708e+06
   8.1293765e-10  -2.1877169e-04   4.1253606e+00   4.0557259e+00  -1.8910443e+06
   8.1360453e-10  -2.1751414e-04   4.1251869e+00   4.0559520e+00  -1.8801804e+06
   8.1427142e-10  -2.1626382e-04   4.1250141e+00   4.0561768e+00  -1.8693789e+06
   8.1493831e-10  -2.1502069e-04   4.1248424e+00   4.0564003e+00  -1.8586394e+06
   8.1560520e-10  -2.1378469e-04   4.1246716e+00   4.0566225e+00  -1.8479615e+06
   8.1627209e-10  -2.1255580e-04   4.1245018e+00   4.0568434e+00  -1.8373449e+06
   8.1693898e-10  -2.1133396e-04   4.1243330e+00   4.0570631e+00  -1.8267892e+06
   8.1760587e-10  -2.1011915e-04   4.1241652e+00   4.0572815e+00  -1.8162941e+06
   8.1827276e-10  -2.0891131e-04   4.1239983e+00   4.0574986e+00  -1.8058592e+06
   8.1893965e-10  -2.0771042e-04   4.1238323e+00   4.0577146e+00  -1.7954842e+06
   8.1960654e-10  -2.0651642e-04   4.1236674e+00   4.0579292e+00  -1.7851687e+06
   8.2027342e-10  -2.0532928e-04   4.1235033e+00   4.0581427e+00  -1.7749124e+06
   8.2094031e-10  -2.0414897e-04   4.1233402e+00   4.0583549e+00  -1.7647150e+06
   8.2160720e-10  -2.0297543e-04   4.1231781e+00   4.0585659e+00  -1.7545761e+06
   8.2227409e-10  -2.0180864e-04   4.1230168e+00   4.0587757e+00  -1.7444954e+06
   8.2294098e-10  -2.0064855e-04   4.1228565e+00   4.0589842e+00  -1.7344726e+06
   8.2360787e-10  -1.9949513e-04   4.1226971e+00   4.0591916e+00  -1.7245073e+06
   8.2427476e-10  -1.9834833e-04   4.1225386e+00   4.0593978e+00  -1.7145992e+06
   8.2494165e-10  -1.9720813e-04   4.1223810e+00   4.0596028e+00  -1.7047479e+06
   8.2560854e-10  -1.9607447e-04   4.1222244e+00   4.0598067e+00  -1.6949532e+06
   8.2627543e-10  -1.9494733e-04   4.1220686e+00   4.0600093e+00  -1.6852147e+06
   8.2694231e-10  -1.9382666e-04   4.1219137e+00   4.0602108e+00  -1.6755321e+06
   8.2760920e-10  -1.9271244e-04   4.1217597e+00   4.0604112e+00  -1.6659050e+06
   8.2827609e-10  -1.9160461e-04   4.1216066e+00   4.0606104e+00  -1.6563333e+06
   8.2894298e-10  -1.9050315e-04   4.1214544e+00   4.0608084e+00  -1.6468164e+06
   8.2960987e-10  -1.8940802e-04   4.1213030e+00   4.0610053e+00  -1.6373542e+06
   8.3027676e-10  -1.8831918e-04   4.1211525e+00   4.0612011e+00  -1.6279463e+06
   8.3094365e-10  -1.8723660e-04   4.1210028e+00   4.0613958e+00  -1.6185924e+06
   8.3161054e-10  -1.8616024e-04   4.1208541e+00   4.0615893e+00  -1.6092922e+06
   8.3227743e-10  -1.8509006e-04   4.1207061e+00   4.0617818e+00  -1.6000454e+06
   8.3294431e-10  -1.8402604e-04   4.1205591e+00   4.0619731e+00  -1.5908517e+06
   8.3361120e-10  -1.8296812e-04   4.1204128e+00   4.0621633e+00  -1.5817107e+06
   8.3427809e-10  -1.8191629e-04   4.1202674e+00   4.0623525e+00  -1.5726223e+06
   8.3494498e-10  -1.8087050e-04   4.1201228e+00   4.0625405e+00  -1.5635859e+06
   8.3561187e-10  -1.7983072e-04   4.1199791e+00   4.0627275e+00  -1.5546015e+06
   8.3627876e-10  -1.7879691e-04   4.1198362e+00   4.0629134e+00  -1.5456686e+06
   8.3694565e-10  -1.7776904e-04   4.1196941e+00   4.0630982e+00  -1.5367871e+06
   8.3761254e-10  -1.7674708e-04   4.1195528e+00   4.0632820e+00  -1.5279565e+06
   8.3827943e-10  -1.7573100e-04   4.1194123e+00   4.0634647e+00  -1.5191766e+06
   8.3894632e-10  -1.7472075e-04   4.1192727e+00   4.0636464e+00  -1.5104471e+06
   8.3961320e-10  -1.7371630e-04   4.1191338e+00   4.0638270e+00  -1.5017677e+06
   8.4028009e-10  -1.7271763e-04   4.1189957e+00   4.0640066e+00  -1.4931382e+06
   8.4094698e-10  -1.7172470e-04   4.1188584e+00   4.0641851e+00  -1.4845582e+06
   8.4161387e-10  -1.7073747e-04   4.1187219e+00   4.0643627e+00  -1.4760274e+06
   8.4228076e-10  -1.6975592e-04   4.1185862e+00   4.0645392e+00  -1.4675457e+06
   8.4294765e-10  -1.6878001e-04   4.1184513e+00   4.0647147e+00  -1.4591126e+06
   8.4361454e-10  -1.6780970e-04   4.1183171e+00   4.0648892e+00  -1.4507279e+06
   8.4428143e-10  -1.6684497e-04   4.1181837e+00   4.0650627e+00  -1.4423914e+06
   8.4494832e-10  -1.6588579e-04   4.1180511e+00   4.0652351e+00  -1.4341027e+06
   8.4561521e-10  -1.6493211e-04   4.1179192e+00   4.0654066e+00  -1.4258617e+06
   8.4628209e-10  -1.6398392e-04   4.1177881e+00   4.0655772e+00  -1.4176679e+06
   8.4694898e-10  -1.6304117e-04   4.1176577e+00   4.0657467e+00  -1.4095212e+06
   8.4761587e-10  -1.6210385e-04   4.1175281e+00   4.0659153e+00  -1.4014213e+06
   8.4828276e-10  -1.6117191e-04   4.1173992e+00   4.0660829e+00  -1.3933679e+06
   8.4894965e-10  -1.6024532e-04   4.1172711e+00   4.0662495e+00  -1.3853607e+06
   8.4961654e-10  -1.5932406e-04   4.1171437e+00   4.0664152e+00  -1.3773995e+06
   8.5028343e-10  -1.5840810e-04   4.1170170e+00   4.0665799e+00  -1.3694840e+06
   8.5095032e-10  -1.5749740e-04   4.1168911e+00   4.0667437e+00  -1.3616140e+06
   8.5161721e-10  -1.5659193e-04   4.1167658e+00   4.0669065e+00  -1.3537891e+06
   8.5228409e-10  -1.5569167e-04   4.1166413e+00   4.0670684e+00  -1.3460092e+06
   8.5295098e-10  -1.5479658e-04   4.1165175e+00   4.0672294e+00  -1.3382739e+06
   8.5361787e-10  -1.5390663e-04   4.1163945e+00   4.0673895e+00  -1.3305831e+06
   8.5428476e-10  -1.5302180e-04   4.1162721e+00   4.0675486e+00  -1.3229364e+06
   8.5495165e-10  -1.5214205e-04   4.1161504e+00   4.0677068e+00  -1.3153337e+06
   8.5561854e-10  -1.5126736e-04   4.1160294e+00   4.0678641e+00  -1.3077746e+06
   8.5628543e-10  -1.5039770e-04   4.1159091e+00   4.0680205e+00  -1.3002589e+06
   8.5695232e-10  -1.4953303e-04   4.1157895e+00   4.0681760e+00  -1.2927864e+06
   8.5761921e-10  -1.4867333e-04   4.1156706e+00   4.0683307e+00  -1.2853567e+06
   8.5828610e-10  -1.4781858e-04   4.1155524e+00   4.0684844e+00  -1.2779698e+06
   8.5895298e-10  -1.4696873e-04   4.1154348e+00   4.0686372e+00  -1.2706253e+06
   8.5961987e-10  -1.4612377e-04   4.1153180e+00   4.0687892e+00  -1.2633229e+06
   8.6028676e-10  -1.4528367e-04   4.1152018e+00   4.0689403e+00  -1.2560625e+06
   8.6095365e-10  -1.4444840e-04   4.1150862e+00   4.0690905e+00  -1.2488438e+06
   8.6162054e-10  -1.4361792e-04   4.1149713e+00   4.0692399e+00  -1.2416665e+06
   8.6228743e-10  -1.4279222e-04   4.1148571e+00   4.0693884e+00  -1.2345304e+06
   8.6295432e-10  -1.4197127e-04   4.1147436e+00   4.0695361e+00  -1.2274354e+06
   8.6362121e-10  -1.4115503e-04   4.1146306e+00   4.0696829e+00  -1.2203810e+06
   8.6428810e-10  -1.4034348e-04   4.1145184e+00   4.0698288e+00  -1.2133672e+06
   8.6495498e-10  -1.3953660e-04   4.1144067e+00   4.0699739e+00  -1.2063937e+06
   8.6562187e-10  -1.3873435e-04   4.1142958e+00   4.0701182e+00  -1.1994602e+06
   8.6628876e-10  -1.3793672e-04   4.1141854e+00   4.0702617e+00  -1.1925666e+06
   8.6695565e-10  -1.3714367e-04   4.1140757e+00   4.0704043e+00  -1.1857125e+06
   8.6762254e-10  -1.3635518e-04   4.1139666e+00   4.0705462e+00  -1.1788978e+06
   8.6828943e-10  -1.3557122e-04   4.1138582e+00   4.0706872e+00  -1.1721222e+06
   8.6895632e-10  -1.3479177e-04   4.1137503e+00   4.0708274e+00  -1.1653856e+06
   8.6962321e-10  -1.3401679e-04   4.1136431e+00   4.0709667e+00  -1.1586876e+06
   8.7029010e-10  -1.3324627e-04   4.1135365e+00   4.0711053e+00  -1.1520282e+06
   8.7095699e-10  -1.3248018e-04   4.1134305e+00   4.0712431e+00  -1.1454069e+06
   8.7162387e-10  -1.3171849e-04   4.1133251e+00   4.0713801e+00  -1.1388237e+06
   8.7229076e-10  -1.3096118e-04   4.1132203e+00   4.0715163e+00  -1.1322783e+06
   8.7295765e-10  -1.3020823e-04   4.1131162e+00   4.0716518e+00  -1.1257705e+06
   8.7362454e-10  -1.2945960e-04   4.1130126e+00   4.0717864e+00  -1.1193001e+06
   8.7429143e-10  -1.2871527e-04   4.1129096e+00   4.0719203e+00  -1.1128669e+06
   8.7495832e-10  -1.2797522e-04   4.1128072e+00   4.0720534e+00  -1.1064706e+06
   8.7562521e-10  -1.2723943e-04   4.1127054e+00   4.0721858e+00  -1.1001110e+06
   8.7629210e-10  -1.2650786e-04   4.1126041e+00   4.0723174e+00  -1.0937879e+06
   8.7695899e-10  -1.2578050e-04   4.1125035e+00   4.0724482e+00  -1.0875012e+06
   8.7762588e-10  -1.2505732e-04   4.1124034e+00   4.0725783e+00  -1.0812506e+06
   8.7829276e-10  -1.2433830e-04   4.1123039e+00   4.0727076e+00  -1.0750359e+06
   8.7895965e-10  -1.2362341e-04   4.1122050e+00   4.0728362e+00  -1.0688569e+06
   8.7962654e-10  -1.2291263e-04   4.1121066e+00   4.0729641e+00  -1.0627134e+06
   8.8029343e-10  -1.2220593e-04   4.1120089e+00   4.0730912e+00  -1.0566052e+06
   8.8096032e-10  -1.2150330e-04   4.1119116e+00   4.0732176e+00  -1.0505320e+06
   8.8162721e-10  -1.2080470e-04   4.1118149e+00   4.0733432e+00  -1.0444938e+06
   8.8229410e-10  -1.2011012e-04   4.1117188e+00   4.0734682e+00  -1.0384902e+06
   8.8296099e-10  -1.1941953e-04   4.1116233e+00   4.0735924e+00  -1.0325211e+06
   8.8362788e-10  -1.1873292e-04   4.1115282e+00   4.0737159e+00  -1.0265864e+06
   8.8429476e-10  -1.1805024e-04   4.1114338e+00   4.0738387e+00  -1.0206857e+06
   8.8496165e-10  -1.1737150e-04   4.1113398e+00   4.0739608e+00  -1.0148189e+06
   8.8562854e-10  -1.1669665e-04   4.1112464e+00   4.0740822e+00  -1.0089858e+06
   8.8629543e-10  -1.1602569e-04   4.1111536e+00   4.0742029e+00  -1.0031862e+06
   8.8696232e-10  -1.1535858e-04   4.1110612e+00   4.0743229e+00  -9.9741989e+05
   8.8762921e-10  -1.1469530e-04   4.1109695e+00   4.0744422e+00  -9.9168673e+05
   8.8829610e-10  -1.1403584e-04   4.1108782e+00   4.0745608e+00  -9.8598652e+05
   8.8896299e-10  -1.1338017e-04   4.1107874e+00   4.0746787e+00  -9.8031904e+05
   8.8962988e-10  -1.1272826e-04   4.1106972e+00   4.0747960e+00  -9.7468413e+05
   8.9029677e-10  -1.1208011e-04   4.1106075e+00   4.0749126e+00  -9.6908159e+05
   8.9096365e-10  -1.1143568e-04   4.1105183e+00   4.0750285e+00  -9.6351124e+05
   8.9163054e-10  -1.1079495e-04   4.1104296e+00   4.0751438e+00  -9.5797289e+05
   8.9229743e-10  -1.1015791e-04   4.1103415e+00   4.0752584e+00  -9.5246636e+05
   8.9296432e-10  -1.0952453e-04   4.1102538e+00   4.0753723e+00  -9.4699146e+05
   8.9363121e-10  -1.0889479e-04   4.1101666e+00   4.0754856e+00  -9.4154802e+05
   8.9429810e-10  -1.0826867e-04   4.1100800e+00   4.0755982e+00  -9.3613585e+05
   8.9496499e-10  -1.0764615e-04   4.1099938e+00   4.0757102e+00  -9.3075477e+05
   8.9563188e-10  -1.0702720e-04   4.1099081e+00   4.0758216e+00  -9.2540460e+05
   8.9629877e-10  -1.0641182e-04   4.1098229e+00   4.0759323e+00  -9.2008517e+05
   8.9696566e-10  -1.0579997e-04   4.1097382e+00   4.0760423e+00  -9.1479630e+05
   8.9763254e-10  -1.0519164e-04   4.1096540e+00   4.0761518e+00  -9.0953782e+05
   8.9829943e-10  -1.0458681e-04   4.1095703e+00   4.0762606e+00  -9.0430955e+05
   8.9896632e-10  -1.0398545e-04   4.1094871e+00   4.0763687e+00  -8.9911132e+05
   8.9963321e-10  -1.0338755e-04   4.1094043e+00   4.0764763e+00  -8.9394295e+05
   9.0030010e-10  -1.0279309e-04   4.1093220e+00   4.0765832e+00  -8.8880428e+05
   9.0096699e-10  -1.0220204e-04   4.1092402e+00   4.0766896e+00  -8.8369514e+05
   9.0163388e-10  -1.0161440e-04   4.1091588e+00   4.0767953e+00  -8.7861535e+05
   9.0230077e-10  -1.0103013e-04   4.1090780e+00   4.0769004e+00  -8.7356475e+05
   9.0296766e-10  -1.0044922e-04   4.1089975e+00   4.0770049e+00  -8.6854316e+05
   9.0363454e-10  -9.9871644e-05   4.1089176e+00   4.0771088e+00  -8.6355043e+05
   9.0430143e-10  -9.9297392e-05   4.1088381e+00   4.0772121e+00  -8.5858639e+05
   9.0496832e-10  -9.8726442e-05   4.1087591e+00   4.0773148e+00  -8.5365086e+05
   9.0563521e-10  -9.8158774e-05   4.1086805e+00   4.0774169e+00  -8.4874368e+05
   9.0630210e-10  -9.7594369e-05   4.1086023e+00   4.0775185e+00  -8.4386470e+05
   9.0696899e-10  -9.7033209e-05   4.1085246e+00   4.0776194e+00  -8.3901376e+05
   9.0763588e-10  -9.6475275e-05   4.1084474e+00   4.0777198e+00  -8.3419068e+05
   9.0830277e-10  -9.5920547e-05   4.1083706e+00   4.0778196e+00  -8.2939532e+05
   9.0896966e-10  -9.5369009e-05   4.1082942e+00   4.0779188e+00  -8.2462751e+05
   9.0963655e-10  -9.4820642e-05   4.1082183e+00   4.0780175e+00  -8.1988710e+05
   9.1030343e-10  -9.4275427e-05   4.1081428e+00   4.0781156e+00  -8.1517392e+05
   9.1097032e-10  -9.3733346e-05   4.1080678e+00   4.0782131e+00  -8.1048784e+05
   9.1163721e-10  -9.3194381e-05   4.1079932e+00   4.0783100e+00  -8.0582868e+05
   9.1230410e-10  -9.2658515e-05   4.1079190e+00   4.0784064e+00  -8.0119628e+05
   9.1297099e-10  -9.2125730e-05   4.1078452e+00   4.0785023e+00  -7.9659050e+05
   9.1363788e-10  -9.1596007e-05   4.1077719e+00   4.0785976e+00  -7.9201119e+05
   9.1430477e-10  -9.1069329e-05   4.1076989e+00   4.0786923e+00  -7.8745819e+05
   9.1497166e-10  -9.0545680e-05   4.1076264e+00   4.0787866e+00  -7.8293134e+05
   9.1563855e-10  -9.0025040e-05   4.1075544e+00   4.0788802e+00  -7.7843052e+05
   9.1630544e-10  -8.9507394e-05   4.1074827e+00   4.0789733e+00  -7.7395556e+05
   9.1697232e-10  -8.8992723e-05   4.1074114e+00   4.0790659e+00  -7.6950631e+05
   9.1763921e-10  -8.8481012e-05   4.1073406e+00   4.0791580e+00  -7.6508263e+05
   9.1830610e-10  -8.7972242e-05   4.1072701e+00   4.0792495e+00  -7.6068437e+05
   9.1897299e-10  -8.7466396e-05   4.1072001e+00   4.0793405e+00  -7.5631138e+05
   9.1963988e-10  -8.6963459e-05   4.1071304e+00   4.0794310e+00  -7.5196353e+05
   9.2030677e-10  -8.6463414e-05   4.1070612e+00   4.0795210e+00  -7.4764065e+05
   9.2097366e-10  -8.5966243e-05   4.1069924e+00   4.0796104e+00  -7.4334261e+05
   9.2164055e-10  -8.5471930e-05   4.1069239e+00   4.0796994e+00  -7.3906928e+05
   9.2230744e-10  -8.4980459e-05   4.1068559e+00   4.0797878e+00  -7.3482049e+05
   9.2297432e-10  -8.4491813e-05   4.1067882e+00   4.0798757e+00  -7.3059613e+05
   9.2364121e-10  -8.4005977e-05   4.1067209e+00   4.0799631e+00  -7.2639604e+05
   9.2430810e-10  -8.3522933e-05   4.1066540e+00   4.0800500e+00  -7.2222009e+05
   9.2497499e-10  -8.3042667e-05   4.1065875e+00   4.0801364e+00  -7.1806813e+05
   9.2564188e-10  -8.2565162e-05   4.1065214e+00   4.0802223e+00  -7.1394004e+05
   9.2630877e-10  -8.2090402e-05   4.1064557e+00   4.0803077e+00  -7.0983566e+05
   9.2697566e-10  -8.1618371e-05   4.1063903e+00   4.0803927e+00  -7.0575487e+05
   9.2764255e-10  -8.1149054e-05   4.1063253e+00   4.0804771e+00  -7.0169753e+05
   9.2830944e-10  -8.0682435e-05   4.1062607e+00   4.0805611e+00  -6.9766350e+05
   9.2897633e-10  -8.0218499e-05   4.1061964e+00   4.0806445e+00  -6.9365265e+05
   9.2964321e-10  -7.9757230e-05   4.1061326e+00   4.0807275e+00  -6.8966487e+05
   9.3031010e-10  -7.9298613e-05   4.1060691e+00   4.0808100e+00  -6.8569999e+05
   9.3097699e-10  -7.8842632e-05   4.1060059e+00   4.0808921e+00  -6.8175789e+05
   9.3164388e-10  -7.8389273e-05   4.1059431e+00   4.0809736e+00  -6.7783845e+05
   9.3231077e-10  -7.7938521e-05   4.1058807e+00   4.0810547e+00  -6.7394155e+05
   9.3297766e-10  -7.7490360e-05   4.1058186e+00   4.0811354e+00  -6.7006703e+05
   9.3364455e-10  -7.7044775e-05   4.1057569e+00   4.0812155e+00  -6.6621478e+05
   9.3431144e-10  -7.6601752e-05   4.1056956e+00   4.0812952e+00  -6.6238467e+05
   9.3497833e-10  -7.6161277e-05   4.1056346e+00   4.0813745e+00  -6.5857657e+05
   9.3564522e-10  -7.5723333e-05   4.1055739e+00   4.0814533e+00  -6.5479036e+05
   9.3631210e-10  -7.5287908e-05   4.1055136e+00   4.0815316e+00  -6.5102590e+05
   9.3697899e-10  -7.4854985e-05   4.1054537e+00   4.0816095e+00  -6.4728307e+05
   9.3764588e-10  -7.4424552e-05   4.1053940e+00   4.0816870e+00  -6.4356176e+05
   9.3831277e-10  -7.3996594e-05   4.1053348e+00   4.0817640e+00  -6.3986183e+05
   9.3897966e-10  -7.3571095e-05   4.1052758e+00   4.0818405e+00  -6.3618317e+05
   9.3964655e-10  -7.3148044e-05   4.1052172e+00   4.0819166e+00  -6.3252565e+05
   9.4031344e-10  -7.2727424e-05   4.1051590e+00   4.0819923e+00  -6.2888915e+05
   9.4098033e-10  -7.2309223e-05   4.1051011e+00   4.0820676e+00  -6.2527355e+05
   9.4164722e-10  -7.1893426e-05   4.1050435e+00   4.0821424e+00  -6.2167874e+05
   9.4231410e-10  -7.1480019e-05   4.1049862e+00   4.0822167e+00  -6.1810458e+05
   9.4298099e-10  -7.1068990e-05   4.1049293e+00   4.0822907e+00  -6.1455097e+05
   9.4364788e-10  -7.0660323e-05   4.1048727e+00   4.0823642e+00  -6.1101777e+05
   9.4431477e-10  -7.0254006e-05   4.1048164e+00   4.0824373e+00  -6.0750489e+05
   9.4498166e-10  -6.9850026e-05   4.1047605e+00   4.0825100e+00  -6.0401219e+05
   9.4564855e-10  -6.9448367e-05   4.1047048e+00   4.0825823e+00  -6.0053956e+05
   9.4631544e-10  -6.9049018e-05   4.1046495e+00   4.0826541e+00  -5.9708689e+05
   9.4698233e-10  -6.8651965e-05   4.1045945e+00   4.0827256e+00  -5.9365406e+05
   9.4764922e-10  -6.8257195e-05   4.1045398e+00   4.0827966e+00  -5.9024097e+05
   9.4831611e-10  -6.7864695e-05   4.1044855e+00   4.0828672e+00  -5.8684749e+05
   9.4898299e-10  -6.7474451e-05   4.1044314e+00   4.0829374e+00  -5.8347352e+05
   9.4964988e-10  -6.7086451e-05   4.1043777e+00   4.0830073e+00  -5.8011894e+05
   9.5031677e-10  -6.6700682e-05   4.1043242e+00   4.0830767e+00  -5.7678364e+05
   9.5098366e-10  -6.6317131e-05   4.1042711e+00   4.0831457e+00  -5.7346751e+05
   9.5165055e-10  -6.5935784e-05   4.1042183e+00   4.0832143e+00  -5.7017043e+05
   9.5231744e-10  -6.5556631e-05   4.1041658e+00   4.0832825e+00  -5.6689231e+05
   9.5298433e-10  -6.5179657e-05   4.1041136e+00   4.0833503e+00  -5.6363303e+05
   9.5365122e-10  -6.4804851e-05   4.1040616e+00   4.0834178e+00  -5.6039248e+05
   9.5431811e-10  -6.4432200e-05   4.1040100e+00   4.0834848e+00  -5.5717056e+05
   9.5498499e-10  -6.4061691e-05   4.1039587e+00   4.0835515e+00  -5.5396715e+05
   9.5565188e-10  -6.3693313e-05   4.1039077e+00   4.0836178e+00  -5.5078215e+05
   9.5631877e-10  -6.3327052e-05   4.1038569e+00   4.0836837e+00  -5.4761547e+05
   9.5698566e-10  -6.2962898e-05   4.1038065e+00   4.0837492e+00  -5.4446698e+05
   9.5765255e-10  -6.2600837e-05   4.1037563e+00   4.0838144e+00  -5.4133659e+05
   9.5831944e-10  -6.2240857e-05   4.1037065e+00   4.0838791e+00  -5.3822420e+05
   9.5898633e-10  -6.1882948e-05   4.1036569e+00   4.0839435e+00  -5.3512968e+05
   9.5965322e-10  -6.1527096e-05   4.1036076e+00   4.0840076e+00  -5.3205296e+05
   9.6032011e-10  -6.1173291e-05   4.1035586e+00   4.0840712e+00  -5.2899392e+05
   9.6098700e-10  -6.0821519e-05   4.1035099e+00   4.0841345e+00  -5.2595247e+05
   9.6165388e-10  -6.0471770e-05   4.1034614e+00   4.0841974e+00  -5.2292849e+05
   9.6232077e-10  -6.0124033e-05   4.1034132e+00   4.0842600e+00  -5.1992190e+05
   9.6298766e-10  -5.9778294e-05   4.1033653e+00   4.0843222e+00  -5.1693259e+05
   9.6365455e-10  -5.9434543e-05   4.1033177e+00   4.0843841e+00  -5.1396046e+05
   9.6432144e-10  -5.9092769e-05   4.1032704e+00   4.0844456e+00  -5.1100542e+05
   9.6498833e-10  -5.8752960e-05   4.1032233e+00   4.0845067e+00  -5.0806737e+05
   9.6565522e-10  -5.8415105e-05   4.1031765e+00   4.0845675e+00  -5.0514620e+05
   9.6632211e-10  -5.8079192e-05   4.1031300e+00   4.0846280e+00  -5.0224182e+05
   9.6698900e-10  -5.7745210e-05   4.1030837e+00   4.0846880e+00  -4.9935413e+05
   9.6765589e-10  -5.7413149e-05   4.1030377e+00   4.0847478e+00  -4.9648305e+05
   9.6832277e-10  -5.7082997e-05   4.1029919e+00   4.0848072e+00  -4.9362847e+05
   9.6898966e-10  -5.6754744e-05   4.1029465e+00   4.0848663e+00  -4.9079030e+05
   9.6965655e-10  -5.6428378e-05   4.1029013e+00   4.0849250e+00  -4.8796844e+05
   9.7032344e-10  -5.6103888e-05   4.1028563e+00   4.0849834e+00  -4.8516279e+05
   9.7099033e-10  -5.5781264e-05   4.1028116e+00   4.0850414e+00  -4.8237328e+05
   9.7165722e-10  -5.5460495e-05   4.1027672e+00   4.0850992e+00  -4.7959980e+05
   9.7232411e-10  -5.5141570e-05   4.1027230e+00   4.0851565e+00  -4.7684225e+05
   9.7299100e-10  -5.4824479e-05   4.1026791e+00   4.0852136e+00  -4.7410057e+05
   9.7365789e-10  -5.4509212e-05   4.1026354e+00   4.0852703e+00  -4.7137465e+05
   9.7432477e-10  -5.4195757e-05   4.1025919e+00   4.0853267e+00  -4.6866439e+05
   9.7499166e-10  -5.3884104e-05   4.1025488e+00   4.0853828e+00  -4.6596972e+05
