   0.0000000e+00  -1.2197417e-01   6.3489456e+00   4.7931807e-04  -5.2128839e+08
   1.0003334e-12  -1.2145341e-01   6.3480278e+00   4.9906826e-04  -5.1989294e+08
   2.0006669e-12  -1.2093404e-01   6.3470938e+00   5.1957445e-04  -5.1849739e+08
   3.0010003e-12  -1.2041607e-01   6.3461432e+00   5.4086305e-04  -5.1710176e+08
   4.0013338e-12  -1.1989950e-01   6.3451759e+00   5.6296124e-04  -5.1570604e+08
   5.0016672e-12  -1.1938433e-01   6.3441916e+00   5.8589707e-04  -5.1431024e+08
   6.0020007e-12  -1.1887055e-01   6.3431900e+00   6.0969941e-04  -5.1291436e+08
   7.0023341e-12  -1.1835816e-01   6.3421709e+00   6.3439803e-04  -5.1151841e+08
   8.0026676e-12  -1.1784718e-01   6.3411341e+00   6.6002359e-04  -5.1012237e+08
   9.0030010e-12  -1.1733759e-01   6.3400794e+00   6.8660767e-04  -5.0872626e+08
   1.0003334e-11  -1.1682939e-01   6.3390064e+00   7.1418281e-04  -5.0733007e+08
   1.1003668e-11  -1.1632259e-01   6.3379150e+00   7.4278248e-04  -5.0593381e+08
   1.2004001e-11  -1.1581719e-01   6.3368049e+00   7.7244117e-04  -5.0453749e+08
   1.3004335e-11  -1.1531319e-01   6.3356758e+00   8.0319438e-04  -5.0314109e+08
   1.4004668e-11  -1.1481058e-01   6.3345275e+00   8.3507863e-04  -5.0174463e+08
   1.5005002e-11  -1.1430937e-01   6.3333597e+00   8.6813151e-04  -5.0034811e+08
   1.6005335e-11  -1.1380956e-01   6.3321722e+00   9.0239170e-04  -4.9895153e+08
   1.7005669e-11  -1.1331115e-01   6.3309647e+00   9.3789899e-04  -4.9755489e+08
   1.8006002e-11  -1.1281413e-01   6.3297369e+00   9.7469429e-04  -4.9615819e+08
   1.9006335e-11  -1.1231851e-01   6.3284887e+00   1.0128197e-03  -4.9476145e+08
   2.0006669e-11  -1.1182428e-01   6.3272196e+00   1.0523185e-03  -4.9336465e+08
   2.1007002e-11  -1.1133146e-01   6.3259296e+00   1.0932351e-03  -4.9196781e+08
   2.2007336e-11  -1.1084003e-01   6.3246182e+00   1.1356153e-03  -4.9057093e+08
   2.3007669e-11  -1.1034999e-01   6.3232852e+00   1.1795060e-03  -4.8917401e+08
   2.4008003e-11  -1.0986136e-01   6.3219304e+00   1.2249557e-03  -4.8777705e+08
   2.5008336e-11  -1.0937412e-01   6.3205535e+00   1.2720138e-03  -4.8638006e+08
   2.6008670e-11  -1.0888828e-01   6.3191541e+00   1.3207313e-03  -4.8498304e+08
   2.7009003e-11  -1.0840384e-01   6.3177321e+00   1.3711605e-03  -4.8358600e+08
   2.8009336e-11  -1.0792079e-01   6.3162872e+00   1.4233553e-03  -4.8218893e+08
   2.9009670e-11  -1.0743914e-01   6.3148190e+00   1.4773707e-03  -4.8079185e+08
   3.0010003e-11  -1.0695889e-01   6.3133273e+00   1.5332635e-03  -4.7939476e+08
   3.1010337e-11  -1.0648004e-01   6.3118118e+00   1.5910916e-03  -4.7799765e+08
   3.2010670e-11  -1.0600259e-01   6.3102722e+00   1.6509149e-03  -4.7660055e+08
   3.3011004e-11  -1.0552653e-01   6.3087082e+00   1.7127945e-03  -4.7520344e+08
   3.4011337e-11  -1.0505187e-01   6.3071196e+00   1.7767931e-03  -4.7380634e+08
   3.5011671e-11  -1.0457861e-01   6.3055061e+00   1.8429753e-03  -4.7240925e+08
   3.6012004e-11  -1.0410674e-01   6.3038673e+00   1.9114069e-03  -4.7101217e+08
   3.7012337e-11  -1.0363627e-01   6.3022030e+00   1.9821557e-03  -4.6961511e+08
   3.8012671e-11  -1.0316720e-01   6.3005129e+00   2.0552912e-03  -4.6821808e+08
   3.9013004e-11  -1.0269953e-01   6.2987966e+00   2.1308845e-03  -4.6682108e+08
   4.0013338e-11  -1.0223326e-01   6.2970540e+00   2.2090084e-03  -4.6542411e+08
   4.1013671e-11  -1.0176838e-01   6.2952847e+00   2.2897376e-03  -4.6402719e+08
   4.2014005e-11  -1.0130490e-01   6.2934884e+00   2.3731487e-03  -4.6263031e+08
   4.3014338e-11  -1.0084281e-01   6.2916648e+00   2.4593201e-03  -4.6123349e+08
   4.4014672e-11  -1.0038213e-01   6.2898136e+00   2.5483320e-03  -4.5983672e+08
   4.5015005e-11  -9.9922838e-02   6.2879345e+00   2.6402665e-03  -4.5844003e+08
   4.6015338e-11  -9.9464946e-02   6.2860272e+00   2.7352078e-03  -4.5704340e+08
   4.7015672e-11  -9.9008451e-02   6.2840915e+00   2.8332420e-03  -4.5564685e+08
   4.8016005e-11  -9.8553353e-02   6.2821269e+00   2.9344572e-03  -4.5425039e+08
   4.9016339e-11  -9.8099652e-02   6.2801332e+00   3.0389434e-03  -4.5285402e+08
   5.0016672e-11  -9.7647347e-02   6.2781102e+00   3.1467931e-03  -4.5145775e+08
   5.1017006e-11  -9.7196439e-02   6.2760574e+00   3.2581003e-03  -4.5006159e+08
   5.2017339e-11  -9.6746927e-02   6.2739747e+00   3.3729616e-03  -4.4866554e+08
   5.3017673e-11  -9.6298812e-02   6.2718616e+00   3.4914756e-03  -4.4726962e+08
   5.4018006e-11  -9.5852093e-02   6.2697179e+00   3.6137430e-03  -4.4587382e+08
   5.5018339e-11  -9.5406771e-02   6.2675433e+00   3.7398669e-03  -4.4447816e+08
   5.6018673e-11  -9.4962844e-02   6.2653374e+00   3.8699524e-03  -4.4308265e+08
   5.7019006e-11  -9.4520313e-02   6.2631000e+00   4.0041073e-03  -4.4168729e+08
   5.8019340e-11  -9.4079178e-02   6.2608308e+00   4.1424411e-03  -4.4029210e+08
   5.9019673e-11  -9.3639438e-02   6.2585294e+00   4.2850662e-03  -4.3889707e+08
   6.0020007e-11  -9.3201094e-02   6.2561955e+00   4.4320971e-03  -4.3750223e+08
   6.1020340e-11  -9.2764144e-02   6.2538289e+00   4.5836507e-03  -4.3610758e+08
   6.2020674e-11  -9.2328590e-02   6.2514292e+00   4.7398462e-03  -4.3471312e+08
   6.3021007e-11  -9.1894430e-02   6.2489962e+00   4.9008056e-03  -4.3331887e+08
   6.4021340e-11  -9.1461665e-02   6.2465294e+00   5.0666530e-03  -4.3192484e+08
   6.5021674e-11  -9.1030294e-02   6.2440286e+00   5.2375153e-03  -4.3053104e+08
   6.6022007e-11  -9.0600318e-02   6.2414936e+00   5.4135215e-03  -4.2913747e+08
   6.7022341e-11  -9.0171735e-02   6.2389239e+00   5.5948037e-03  -4.2774416e+08
   6.8022674e-11  -8.9744545e-02   6.2363194e+00   5.7814961e-03  -4.2635110e+08
   6.9023008e-11  -8.9318749e-02   6.2336796e+00   5.9737357e-03  -4.2495831e+08
   7.0023341e-11  -8.8894346e-02   6.2310043e+00   6.1716621e-03  -4.2356580e+08
   7.1023675e-11  -8.8471336e-02   6.2282931e+00   6.3754175e-03  -4.2217357e+08
   7.2024008e-11  -8.8049718e-02   6.2255459e+00   6.5851468e-03  -4.2078166e+08
   7.3024341e-11  -8.7629493e-02   6.2227622e+00   6.8009976e-03  -4.1939005e+08
   7.4024675e-11  -8.7210659e-02   6.2199418e+00   7.0231200e-03  -4.1799877e+08
   7.5025008e-11  -8.6793217e-02   6.2170843e+00   7.2516671e-03  -4.1660783e+08
   7.6025342e-11  -8.6377165e-02   6.2141895e+00   7.4867945e-03  -4.1521723e+08
   7.7025675e-11  -8.5962505e-02   6.2112571e+00   7.7286607e-03  -4.1382700e+08
   7.8026009e-11  -8.5549235e-02   6.2082868e+00   7.9774269e-03  -4.1243713e+08
   7.9026342e-11  -8.5137355e-02   6.2052782e+00   8.2332570e-03  -4.1104766e+08
   8.0026676e-11  -8.4726865e-02   6.2022312e+00   8.4963178e-03  -4.0965858e+08
   8.1027009e-11  -8.4317764e-02   6.1991453e+00   8.7667789e-03  -4.0826992e+08
   8.2027342e-11  -8.3910051e-02   6.1960203e+00   9.0448127e-03  -4.0688168e+08
   8.3027676e-11  -8.3503728e-02   6.1928560e+00   9.3305943e-03  -4.0549388e+08
   8.4028009e-11  -8.3098792e-02   6.1896519e+00   9.6243018e-03  -4.0410653e+08
   8.5028343e-11  -8.2695243e-02   6.1864080e+00   9.9261161e-03  -4.0271965e+08
   8.6028676e-11  -8.2293082e-02   6.1831237e+00   1.0236221e-02  -4.0133325e+08
   8.7029010e-11  -8.1892307e-02   6.1797990e+00   1.0554803e-02  -3.9994735e+08
   8.8029343e-11  -8.1492918e-02   6.1764334e+00   1.0882051e-02  -3.9856196e+08
   8.9029677e-11  -8.1094915e-02   6.1730268e+00   1.1218158e-02  -3.9717709e+08
   9.0030010e-11  -8.0698296e-02   6.1695788e+00   1.1563318e-02  -3.9579276e+08
   9.1030343e-11  -8.0303062e-02   6.1660892e+00   1.1917731e-02  -3.9440898e+08
   9.2030677e-11  -7.9909212e-02   6.1625576e+00   1.2281596e-02  -3.9302577e+08
   9.3031010e-11  -7.9516746e-02   6.1589840e+00   1.2655117e-02  -3.9164315e+08
   9.4031344e-11  -7.9125661e-02   6.1553678e+00   1.3038501e-02  -3.9026114e+08
   9.5031677e-11  -7.8735959e-02   6.1517090e+00   1.3431957e-02  -3.8887974e+08
   9.6032011e-11  -7.8347639e-02   6.1480073e+00   1.3835698e-02  -3.8749897e+08
   9.7032344e-11  -7.7960699e-02   6.1442623e+00   1.4249937e-02  -3.8611886e+08
   9.8032678e-11  -7.7575139e-02   6.1404739e+00   1.4674893e-02  -3.8473941e+08
   9.9033011e-11  -7.7190959e-02   6.1366417e+00   1.5110787e-02  -3.8336065e+08
   1.0003334e-10  -7.6808158e-02   6.1327656e+00   1.5557841e-02  -3.8198259e+08
   1.0103368e-10  -7.6426735e-02   6.1288453e+00   1.6016281e-02  -3.8060525e+08
   1.0203401e-10  -7.6046689e-02   6.1248806e+00   1.6486337e-02  -3.7922865e+08
   1.0303434e-10  -7.5668019e-02   6.1208712e+00   1.6968240e-02  -3.7785280e+08
   1.0403468e-10  -7.5290726e-02   6.1168169e+00   1.7462224e-02  -3.7647772e+08
   1.0503501e-10  -7.4914808e-02   6.1127174e+00   1.7968525e-02  -3.7510343e+08
   1.0603535e-10  -7.4540263e-02   6.1085726e+00   1.8487384e-02  -3.7372996e+08
   1.0703568e-10  -7.4167093e-02   6.1043821e+00   1.9019041e-02  -3.7235731e+08
   1.0803601e-10  -7.3795294e-02   6.1001459e+00   1.9563742e-02  -3.7098551e+08
   1.0903635e-10  -7.3424868e-02   6.0958637e+00   2.0121734e-02  -3.6961458e+08
   1.1003668e-10  -7.3055813e-02   6.0915352e+00   2.0693265e-02  -3.6824453e+08
   1.1103701e-10  -7.2688127e-02   6.0871604e+00   2.1278589e-02  -3.6687538e+08
   1.1203735e-10  -7.2321811e-02   6.0827388e+00   2.1877959e-02  -3.6550716e+08
   1.1303768e-10  -7.1956862e-02   6.0782705e+00   2.2491632e-02  -3.6413989e+08
   1.1403801e-10  -7.1593281e-02   6.0737552e+00   2.3119867e-02  -3.6277358e+08
   1.1503835e-10  -7.1231066e-02   6.0691926e+00   2.3762926e-02  -3.6140825e+08
   1.1603868e-10  -7.0870216e-02   6.0645827e+00   2.4421071e-02  -3.6004394e+08
   1.1703901e-10  -7.0510731e-02   6.0599252e+00   2.5094570e-02  -3.5868064e+08
   1.1803935e-10  -7.0152608e-02   6.0552200e+00   2.5783689e-02  -3.5731840e+08
   1.1903968e-10  -6.9795848e-02   6.0504669e+00   2.6488698e-02  -3.5595722e+08
   1.2004001e-10  -6.9440449e-02   6.0456657e+00   2.7209869e-02  -3.5459713e+08
   1.2104035e-10  -6.9086409e-02   6.0408164e+00   2.7947477e-02  -3.5323815e+08
   1.2204068e-10  -6.8733729e-02   6.0359186e+00   2.8701796e-02  -3.5188030e+08
   1.2304101e-10  -6.8382406e-02   6.0309724e+00   2.9473105e-02  -3.5052361e+08
   1.2404135e-10  -6.8032439e-02   6.0259775e+00   3.0261682e-02  -3.4916810e+08
   1.2504168e-10  -6.7683828e-02   6.0209339e+00   3.1067808e-02  -3.4781378e+08
   1.2604201e-10  -6.7336571e-02   6.0158413e+00   3.1891765e-02  -3.4646068e+08
   1.2704235e-10  -6.6990667e-02   6.0106997e+00   3.2733839e-02  -3.4510883e+08
   1.2804268e-10  -6.6646115e-02   6.0055090e+00   3.3594314e-02  -3.4375824e+08
   1.2904301e-10  -6.6302912e-02   6.0002690e+00   3.4473476e-02  -3.4240894e+08
   1.3004335e-10  -6.5961059e-02   5.9949797e+00   3.5371615e-02  -3.4106095e+08
   1.3104368e-10  -6.5620554e-02   5.9896410e+00   3.6289019e-02  -3.3971430e+08
   1.3204401e-10  -6.5281395e-02   5.9842526e+00   3.7225979e-02  -3.3836900e+08
   1.3304435e-10  -6.4943581e-02   5.9788147e+00   3.8182786e-02  -3.3702509e+08
   1.3404468e-10  -6.4607111e-02   5.9733271e+00   3.9159733e-02  -3.3568257e+08
   1.3504502e-10  -6.4271982e-02   5.9677896e+00   4.0157113e-02  -3.3434149e+08
   1.3604535e-10  -6.3938195e-02   5.9622024e+00   4.1175220e-02  -3.3300186e+08
   1.3704568e-10  -6.3605747e-02   5.9565652e+00   4.2214349e-02  -3.3166371e+08
   1.3804602e-10  -6.3274637e-02   5.9508781e+00   4.3274794e-02  -3.3032705e+08
   1.3904635e-10  -6.2944863e-02   5.9451410e+00   4.4356852e-02  -3.2899192e+08
   1.4004668e-10  -6.2616424e-02   5.9393539e+00   4.5460819e-02  -3.2765834e+08
   1.4104702e-10  -6.2289318e-02   5.9335167e+00   4.6586992e-02  -3.2632633e+08
   1.4204735e-10  -6.1963544e-02   5.9276295e+00   4.7735665e-02  -3.2499592e+08
   1.4304768e-10  -6.1639099e-02   5.9216921e+00   4.8907137e-02  -3.2366713e+08
   1.4404802e-10  -6.1315984e-02   5.9157046e+00   5.0101704e-02  -3.2233999e+08
   1.4504835e-10  -6.0994194e-02   5.9096671e+00   5.1319662e-02  -3.2101452e+08
   1.4604868e-10  -6.0673730e-02   5.9035794e+00   5.2561308e-02  -3.1969074e+08
   1.4704902e-10  -6.0354590e-02   5.8974416e+00   5.3826936e-02  -3.1836869e+08
   1.4804935e-10  -6.0036771e-02   5.8912538e+00   5.5116843e-02  -3.1704838e+08
   1.4904968e-10  -5.9720271e-02   5.8850159e+00   5.6431323e-02  -3.1572985e+08
   1.5005002e-10  -5.9405090e-02   5.8787280e+00   5.7770670e-02  -3.1441311e+08
   1.5105035e-10  -5.9091226e-02   5.8723901e+00   5.9135177e-02  -3.1309819e+08
   1.5205068e-10  -5.8778675e-02   5.8660024e+00   6.0525136e-02  -3.1178513e+08
   1.5305102e-10  -5.8467437e-02   5.8595647e+00   6.1940838e-02  -3.1047393e+08
   1.5405135e-10  -5.8157510e-02   5.8530773e+00   6.3382573e-02  -3.0916463e+08
   1.5505168e-10  -5.7848892e-02   5.8465402e+00   6.4850631e-02  -3.0785726e+08
   1.5605202e-10  -5.7541581e-02   5.8399535e+00   6.6345297e-02  -3.0655184e+08
   1.5705235e-10  -5.7235574e-02   5.8333172e+00   6.7866857e-02  -3.0524839e+08
   1.5805268e-10  -5.6930870e-02   5.8266315e+00   6.9415596e-02  -3.0394694e+08
   1.5905302e-10  -5.6627468e-02   5.8198964e+00   7.0991795e-02  -3.0264752e+08
   1.6005335e-10  -5.6325364e-02   5.8131121e+00   7.2595734e-02  -3.0135015e+08
   1.6105368e-10  -5.6024557e-02   5.8062787e+00   7.4227693e-02  -3.0005486e+08
   1.6205402e-10  -5.5725044e-02   5.7993963e+00   7.5887945e-02  -2.9876167e+08
   1.6305435e-10  -5.5426825e-02   5.7924651e+00   7.7576766e-02  -2.9747061e+08
   1.6405468e-10  -5.5129896e-02   5.7854852e+00   7.9294427e-02  -2.9618171e+08
   1.6505502e-10  -5.4834255e-02   5.7784568e+00   8.1041195e-02  -2.9489499e+08
   1.6605535e-10  -5.4539900e-02   5.7713800e+00   8.2817337e-02  -2.9361047e+08
   1.6705569e-10  -5.4246829e-02   5.7642550e+00   8.4623116e-02  -2.9232818e+08
   1.6805602e-10  -5.3955040e-02   5.7570819e+00   8.6458793e-02  -2.9104815e+08
   1.6905635e-10  -5.3664530e-02   5.7498611e+00   8.8324624e-02  -2.8977040e+08
   1.7005669e-10  -5.3375297e-02   5.7425925e+00   9.0220863e-02  -2.8849496e+08
   1.7105702e-10  -5.3087339e-02   5.7352766e+00   9.2147761e-02  -2.8722186e+08
   1.7205735e-10  -5.2800653e-02   5.7279134e+00   9.4105566e-02  -2.8595111e+08
   1.7305769e-10  -5.2515238e-02   5.7205031e+00   9.6094521e-02  -2.8468275e+08
   1.7405802e-10  -5.2231090e-02   5.7130461e+00   9.8114866e-02  -2.8341680e+08
   1.7505835e-10  -5.1948207e-02   5.7055425e+00   1.0016684e-01  -2.8215328e+08
   1.7605869e-10  -5.1666587e-02   5.6979926e+00   1.0225067e-01  -2.8089222e+08
   1.7705902e-10  -5.1386228e-02   5.6903967e+00   1.0436658e-01  -2.7963365e+08
   1.7805935e-10  -5.1107126e-02   5.6827549e+00   1.0651481e-01  -2.7837759e+08
   1.7905969e-10  -5.0829280e-02   5.6750676e+00   1.0869557e-01  -2.7712406e+08
   1.8006002e-10  -5.0552686e-02   5.6673350e+00   1.1090907e-01  -2.7587310e+08
   1.8106035e-10  -5.0277343e-02   5.6595574e+00   1.1315554e-01  -2.7462472e+08
   1.8206069e-10  -5.0003247e-02   5.6517351e+00   1.1543516e-01  -2.7337894e+08
   1.8306102e-10  -4.9730396e-02   5.6438684e+00   1.1774815e-01  -2.7213580e+08
   1.8406135e-10  -4.9458788e-02   5.6359577e+00   1.2009470e-01  -2.7089532e+08
   1.8506169e-10  -4.9188419e-02   5.6280031e+00   1.2247501e-01  -2.6965752e+08
   1.8606202e-10  -4.8919287e-02   5.6200050e+00   1.2488926e-01  -2.6842243e+08
   1.8706235e-10  -4.8651390e-02   5.6119638e+00   1.2733763e-01  -2.6719007e+08
   1.8806269e-10  -4.8384724e-02   5.6038798e+00   1.2982030e-01  -2.6596046e+08
   1.8906302e-10  -4.8119287e-02   5.5957534e+00   1.3233744e-01  -2.6473363e+08
   1.9006335e-10  -4.7855075e-02   5.5875848e+00   1.3488921e-01  -2.6350961e+08
   1.9106369e-10  -4.7592087e-02   5.5793744e+00   1.3747578e-01  -2.6228840e+08
   1.9206402e-10  -4.7330319e-02   5.5711227e+00   1.4009730e-01  -2.6107005e+08
   1.9306435e-10  -4.7069769e-02   5.5628299e+00   1.4275392e-01  -2.5985456e+08
   1.9406469e-10  -4.6810433e-02   5.5544965e+00   1.4544578e-01  -2.5864197e+08
   1.9506502e-10  -4.6552309e-02   5.5461228e+00   1.4817302e-01  -2.5743230e+08
   1.9606536e-10  -4.6295394e-02   5.5377092e+00   1.5093577e-01  -2.5622557e+08
   1.9706569e-10  -4.6039684e-02   5.5292562e+00   1.5373415e-01  -2.5502180e+08
   1.9806602e-10  -4.5785178e-02   5.5207640e+00   1.5656829e-01  -2.5382101e+08
   1.9906636e-10  -4.5531871e-02   5.5122333e+00   1.5943829e-01  -2.5262322e+08
   2.0006669e-10  -4.5279761e-02   5.5036642e+00   1.6234426e-01  -2.5142847e+08
   2.0106702e-10  -4.5028845e-02   5.4950574e+00   1.6528631e-01  -2.5023676e+08
   2.0206736e-10  -4.4779119e-02   5.4864131e+00   1.6826452e-01  -2.4904812e+08
   2.0306769e-10  -4.4530581e-02   5.4777319e+00   1.7127898e-01  -2.4786258e+08
   2.0406802e-10  -4.4283228e-02   5.4690142e+00   1.7432978e-01  -2.4668015e+08
   2.0506836e-10  -4.4037056e-02   5.4602604e+00   1.7741698e-01  -2.4550085e+08
   2.0606869e-10  -4.3792062e-02   5.4514710e+00   1.8054066e-01  -2.4432470e+08
   2.0706902e-10  -4.3548244e-02   5.4426465e+00   1.8370087e-01  -2.4315172e+08
   2.0806936e-10  -4.3305597e-02   5.4337873e+00   1.8689766e-01  -2.4198194e+08
   2.0906969e-10  -4.3064119e-02   5.4248939e+00   1.9013110e-01  -2.4081538e+08
   2.1007002e-10  -4.2823807e-02   5.4159667e+00   1.9340120e-01  -2.3965204e+08
   2.1107036e-10  -4.2584657e-02   5.4070063e+00   1.9670802e-01  -2.3849196e+08
   2.1207069e-10  -4.2346666e-02   5.3980131e+00   2.0005156e-01  -2.3733515e+08
   2.1307102e-10  -4.2109831e-02   5.3889876e+00   2.0343186e-01  -2.3618162e+08
   2.1407136e-10  -4.1874148e-02   5.3799303e+00   2.0684893e-01  -2.3503141e+08
   2.1507169e-10  -4.1639614e-02   5.3708418e+00   2.1030276e-01  -2.3388452e+08
   2.1607202e-10  -4.1406226e-02   5.3617225e+00   2.1379336e-01  -2.3274097e+08
   2.1707236e-10  -4.1173980e-02   5.3525729e+00   2.1732073e-01  -2.3160079e+08
   2.1807269e-10  -4.0942873e-02   5.3433936e+00   2.2088483e-01  -2.3046398e+08
   2.1907302e-10  -4.0712903e-02   5.3341851e+00   2.2448566e-01  -2.2933057e+08
   2.2007336e-10  -4.0484064e-02   5.3249478e+00   2.2812318e-01  -2.2820058e+08
   2.2107369e-10  -4.0256354e-02   5.3156824e+00   2.3179735e-01  -2.2707401e+08
   2.2207402e-10  -4.0029770e-02   5.3063893e+00   2.3550813e-01  -2.2595089e+08
   2.2307436e-10  -3.9804307e-02   5.2970691e+00   2.3925546e-01  -2.2483123e+08
   2.2407469e-10  -3.9579963e-02   5.2877224e+00   2.4303930e-01  -2.2371504e+08
   2.2507503e-10  -3.9356734e-02   5.2783496e+00   2.4685957e-01  -2.2260235e+08
   2.2607536e-10  -3.9134616e-02   5.2689513e+00   2.5071620e-01  -2.2149317e+08
   2.2707569e-10  -3.8913606e-02   5.2595281e+00   2.5460911e-01  -2.2038751e+08
   2.2807603e-10  -3.8693701e-02   5.2500805e+00   2.5853822e-01  -2.1928539e+08
   2.2907636e-10  -3.8474897e-02   5.2406091e+00   2.6250342e-01  -2.1818682e+08
   2.3007669e-10  -3.8257190e-02   5.2311143e+00   2.6650463e-01  -2.1709181e+08
   2.3107703e-10  -3.8040576e-02   5.2215969e+00   2.7054173e-01  -2.1600038e+08
   2.3207736e-10  -3.7825053e-02   5.2120573e+00   2.7461461e-01  -2.1491254e+08
   2.3307769e-10  -3.7610617e-02   5.2024961e+00   2.7872315e-01  -2.1382831e+08
   2.3407803e-10  -3.7397263e-02   5.1929139e+00   2.8286722e-01  -2.1274770e+08
   2.3507836e-10  -3.7184989e-02   5.1833112e+00   2.8704668e-01  -2.1167071e+08
   2.3607869e-10  -3.6973790e-02   5.1736886e+00   2.9126139e-01  -2.1059737e+08
   2.3707903e-10  -3.6763663e-02   5.1640467e+00   2.9551121e-01  -2.0952769e+08
   2.3807936e-10  -3.6554605e-02   5.1543861e+00   2.9979598e-01  -2.0846166e+08
   2.3907969e-10  -3.6346612e-02   5.1447073e+00   3.0411553e-01  -2.0739932e+08
   2.4008003e-10  -3.6139679e-02   5.1350109e+00   3.0846970e-01  -2.0634066e+08
   2.4108036e-10  -3.5933804e-02   5.1252974e+00   3.1285832e-01  -2.0528570e+08
   2.4208069e-10  -3.5728982e-02   5.1155675e+00   3.1728120e-01  -2.0423444e+08
   2.4308103e-10  -3.5525210e-02   5.1058217e+00   3.2173816e-01  -2.0318691e+08
   2.4408136e-10  -3.5322485e-02   5.0960607e+00   3.2622900e-01  -2.0214310e+08
   2.4508169e-10  -3.5120801e-02   5.0862849e+00   3.3075352e-01  -2.0110303e+08
   2.4608203e-10  -3.4920157e-02   5.0764950e+00   3.3531152e-01  -2.0006670e+08
   2.4708236e-10  -3.4720547e-02   5.0666916e+00   3.3990278e-01  -1.9903413e+08
   2.4808269e-10  -3.4521969e-02   5.0568751e+00   3.4452709e-01  -1.9800532e+08
   2.4908303e-10  -3.4324418e-02   5.0470463e+00   3.4918422e-01  -1.9698029e+08
   2.5008336e-10  -3.4127890e-02   5.0372057e+00   3.5387394e-01  -1.9595903e+08
   2.5108369e-10  -3.3932383e-02   5.0273538e+00   3.5859602e-01  -1.9494156e+08
   2.5208403e-10  -3.3737891e-02   5.0174912e+00   3.6335022e-01  -1.9392788e+08
   2.5308436e-10  -3.3544412e-02   5.0076186e+00   3.6813628e-01  -1.9291799e+08
   2.5408469e-10  -3.3351941e-02   4.9977365e+00   3.7295396e-01  -1.9191192e+08
   2.5508503e-10  -3.3160475e-02   4.9878454e+00   3.7780299e-01  -1.9090966e+08
   2.5608536e-10  -3.2970009e-02   4.9779460e+00   3.8268312e-01  -1.8991122e+08
   2.5708570e-10  -3.2780540e-02   4.9680388e+00   3.8759408e-01  -1.8891660e+08
   2.5808603e-10  -3.2592065e-02   4.9581244e+00   3.9253559e-01  -1.8792581e+08
   2.5908636e-10  -3.2404579e-02   4.9482034e+00   3.9750738e-01  -1.8693885e+08
   2.6008670e-10  -3.2218078e-02   4.9382763e+00   4.0250916e-01  -1.8595573e+08
   2.6108703e-10  -3.2032559e-02   4.9283437e+00   4.0754064e-01  -1.8497646e+08
   2.6208736e-10  -3.1848018e-02   4.9184061e+00   4.1260153e-01  -1.8400103e+08
   2.6308770e-10  -3.1664451e-02   4.9084642e+00   4.1769154e-01  -1.8302946e+08
   2.6408803e-10  -3.1481853e-02   4.8985185e+00   4.2281036e-01  -1.8206174e+08
   2.6508836e-10  -3.1300222e-02   4.8885695e+00   4.2795768e-01  -1.8109788e+08
   2.6608870e-10  -3.1119554e-02   4.8786178e+00   4.3313320e-01  -1.8013787e+08
   2.6708903e-10  -3.0939843e-02   4.8686640e+00   4.3833660e-01  -1.7918174e+08
   2.6808936e-10  -3.0761088e-02   4.8587086e+00   4.4356755e-01  -1.7822946e+08
   2.6908970e-10  -3.0583283e-02   4.8487522e+00   4.4882575e-01  -1.7728106e+08
   2.7009003e-10  -3.0406425e-02   4.8387953e+00   4.5411086e-01  -1.7633652e+08
   2.7109036e-10  -3.0230509e-02   4.8288385e+00   4.5942255e-01  -1.7539586e+08
   2.7209070e-10  -3.0055533e-02   4.8188822e+00   4.6476049e-01  -1.7445907e+08
   2.7309103e-10  -2.9881493e-02   4.8089271e+00   4.7012434e-01  -1.7352615e+08
   2.7409136e-10  -2.9708383e-02   4.7989736e+00   4.7551376e-01  -1.7259710e+08
   2.7509170e-10  -2.9536201e-02   4.7890224e+00   4.8092841e-01  -1.7167193e+08
   2.7609203e-10  -2.9364943e-02   4.7790739e+00   4.8636793e-01  -1.7075063e+08
   2.7709236e-10  -2.9194604e-02   4.7691287e+00   4.9183198e-01  -1.6983321e+08
   2.7809270e-10  -2.9025181e-02   4.7591872e+00   4.9732020e-01  -1.6891966e+08
   2.7909303e-10  -2.8856670e-02   4.7492500e+00   5.0283225e-01  -1.6800999e+08
   2.8009336e-10  -2.8689067e-02   4.7393177e+00   5.0836775e-01  -1.6710419e+08
   2.8109370e-10  -2.8522369e-02   4.7293907e+00   5.1392635e-01  -1.6620226e+08
   2.8209403e-10  -2.8356571e-02   4.7194695e+00   5.1950769e-01  -1.6530419e+08
   2.8309436e-10  -2.8191669e-02   4.7095546e+00   5.2511139e-01  -1.6441000e+08
   2.8409470e-10  -2.8027659e-02   4.6996466e+00   5.3073709e-01  -1.6351967e+08
   2.8509503e-10  -2.7864539e-02   4.6897459e+00   5.3638443e-01  -1.6263321e+08
   2.8609537e-10  -2.7702303e-02   4.6798530e+00   5.4205302e-01  -1.6175061e+08
   2.8709570e-10  -2.7540948e-02   4.6699684e+00   5.4774249e-01  -1.6087187e+08
   2.8809603e-10  -2.7380471e-02   4.6600926e+00   5.5345246e-01  -1.5999698e+08
   2.8909637e-10  -2.7220867e-02   4.6502261e+00   5.5918257e-01  -1.5912595e+08
   2.9009670e-10  -2.7062132e-02   4.6403694e+00   5.6493242e-01  -1.5825877e+08
   2.9109703e-10  -2.6904262e-02   4.6305228e+00   5.7070164e-01  -1.5739543e+08
   2.9209737e-10  -2.6747255e-02   4.6206869e+00   5.7648984e-01  -1.5653594e+08
   2.9309770e-10  -2.6591105e-02   4.6108622e+00   5.8229665e-01  -1.5568029e+08
   2.9409803e-10  -2.6435809e-02   4.6010490e+00   5.8812167e-01  -1.5482847e+08
   2.9509837e-10  -2.6281363e-02   4.5912479e+00   5.9396452e-01  -1.5398048e+08
   2.9609870e-10  -2.6127764e-02   4.5814592e+00   5.9982481e-01  -1.5313631e+08
   2.9709903e-10  -2.5975007e-02   4.5716835e+00   6.0570216e-01  -1.5229597e+08
   2.9809937e-10  -2.5823089e-02   4.5619212e+00   6.1159618e-01  -1.5145944e+08
   2.9909970e-10  -2.5672006e-02   4.5521726e+00   6.1750647e-01  -1.5062673e+08
   3.0010003e-10  -2.5521754e-02   4.5424383e+00   6.2343266e-01  -1.4979781e+08
   3.0110037e-10  -2.5372329e-02   4.5327186e+00   6.2937434e-01  -1.4897270e+08
   3.0210070e-10  -2.5223728e-02   4.5230140e+00   6.3533114e-01  -1.4815138e+08
   3.0310103e-10  -2.5075946e-02   4.5133248e+00   6.4130265e-01  -1.4733385e+08
   3.0410137e-10  -2.4928980e-02   4.5036515e+00   6.4728849e-01  -1.4652010e+08
   3.0510170e-10  -2.4782827e-02   4.4939945e+00   6.5328827e-01  -1.4571012e+08
   3.0610203e-10  -2.4637481e-02   4.4843542e+00   6.5930160e-01  -1.4490391e+08
   3.0710237e-10  -2.4492941e-02   4.4747309e+00   6.6532809e-01  -1.4410147e+08
   3.0810270e-10  -2.4349201e-02   4.4651251e+00   6.7136734e-01  -1.4330278e+08
   3.0910303e-10  -2.4206258e-02   4.4555372e+00   6.7741898e-01  -1.4250784e+08
   3.1010337e-10  -2.4064108e-02   4.4459674e+00   6.8348260e-01  -1.4171664e+08
   3.1110370e-10  -2.3922748e-02   4.4364162e+00   6.8955783e-01  -1.4092917e+08
   3.1210403e-10  -2.3782174e-02   4.4268840e+00   6.9564426e-01  -1.4014542e+08
   3.1310437e-10  -2.3642382e-02   4.4173710e+00   7.0174153e-01  -1.3936540e+08
   3.1410470e-10  -2.3503368e-02   4.4078777e+00   7.0784923e-01  -1.3858908e+08
   3.1510504e-10  -2.3365129e-02   4.3984044e+00   7.1396699e-01  -1.3781647e+08
   3.1610537e-10  -2.3227661e-02   4.3889515e+00   7.2009442e-01  -1.3704755e+08
   3.1710570e-10  -2.3090960e-02   4.3795193e+00   7.2623114e-01  -1.3628232e+08
   3.1810604e-10  -2.2955023e-02   4.3701081e+00   7.3237676e-01  -1.3552076e+08
   3.1910637e-10  -2.2819845e-02   4.3607182e+00   7.3853091e-01  -1.3476288e+08
   3.2010670e-10  -2.2685424e-02   4.3513500e+00   7.4469320e-01  -1.3400865e+08
   3.2110704e-10  -2.2551756e-02   4.3420038e+00   7.5086325e-01  -1.3325807e+08
   3.2210737e-10  -2.2418836e-02   4.3326799e+00   7.5704070e-01  -1.3251114e+08
   3.2310770e-10  -2.2286662e-02   4.3233786e+00   7.6322516e-01  -1.3176784e+08
   3.2410804e-10  -2.2155230e-02   4.3141002e+00   7.6941626e-01  -1.3102816e+08
   3.2510837e-10  -2.2024535e-02   4.3048450e+00   7.7561363e-01  -1.3029210e+08
   3.2610870e-10  -2.1894575e-02   4.2956134e+00   7.8181689e-01  -1.2955964e+08
   3.2710904e-10  -2.1765346e-02   4.2864055e+00   7.8802568e-01  -1.2883078e+08
   3.2810937e-10  -2.1636844e-02   4.2772216e+00   7.9423964e-01  -1.2810550e+08
   3.2910970e-10  -2.1509066e-02   4.2680621e+00   8.0045839e-01  -1.2738380e+08
   3.3011004e-10  -2.1382008e-02   4.2589273e+00   8.0668158e-01  -1.2666566e+08
   3.3111037e-10  -2.1255666e-02   4.2498172e+00   8.1290884e-01  -1.2595108e+08
   3.3211070e-10  -2.1130037e-02   4.2407324e+00   8.1913982e-01  -1.2524005e+08
   3.3311104e-10  -2.1005118e-02   4.2316729e+00   8.2537415e-01  -1.2453255e+08
   3.3411137e-10  -2.0880905e-02   4.2226390e+00   8.3161149e-01  -1.2382857e+08
   3.3511170e-10  -2.0757394e-02   4.2136310e+00   8.3785148e-01  -1.2312812e+08
   3.3611204e-10  -2.0634582e-02   4.2046491e+00   8.4409377e-01  -1.2243116e+08
   3.3711237e-10  -2.0512465e-02   4.1956936e+00   8.5033802e-01  -1.2173770e+08
   3.3811270e-10  -2.0391040e-02   4.1867647e+00   8.5658388e-01  -1.2104772e+08
   3.3911304e-10  -2.0270304e-02   4.1778626e+00   8.6283100e-01  -1.2036122e+08
   3.4011337e-10  -2.0150252e-02   4.1689874e+00   8.6907905e-01  -1.1967817e+08
   3.4111370e-10  -2.0030882e-02   4.1601396e+00   8.7532768e-01  -1.1899858e+08
   3.4211404e-10  -1.9912190e-02   4.1513191e+00   8.8157657e-01  -1.1832242e+08
   3.4311437e-10  -1.9794173e-02   4.1425263e+00   8.8782538e-01  -1.1764969e+08
   3.4411470e-10  -1.9676827e-02   4.1337614e+00   8.9407379e-01  -1.1698038e+08
   3.4511504e-10  -1.9560148e-02   4.1250245e+00   9.0032145e-01  -1.1631448e+08
   3.4611537e-10  -1.9444134e-02   4.1163158e+00   9.0656806e-01  -1.1565197e+08
   3.4711571e-10  -1.9328781e-02   4.1076355e+00   9.1281329e-01  -1.1499284e+08
   3.4811604e-10  -1.9214085e-02   4.0989839e+00   9.1905681e-01  -1.1433709e+08
   3.4911637e-10  -1.9100044e-02   4.0903610e+00   9.2529832e-01  -1.1368469e+08
   3.5011671e-10  -1.8986654e-02   4.0817670e+00   9.3153750e-01  -1.1303565e+08
   3.5111704e-10  -1.8873911e-02   4.0732021e+00   9.3777404e-01  -1.1238994e+08
   3.5211737e-10  -1.8761812e-02   4.0646665e+00   9.4400763e-01  -1.1174755e+08
   3.5311771e-10  -1.8650354e-02   4.0561603e+00   9.5023797e-01  -1.1110848e+08
   3.5411804e-10  -1.8539534e-02   4.0476836e+00   9.5646475e-01  -1.1047272e+08
   3.5511837e-10  -1.8429348e-02   4.0392367e+00   9.6268769e-01  -1.0984024e+08
   3.5611871e-10  -1.8319792e-02   4.0308196e+00   9.6890648e-01  -1.0921104e+08
   3.5711904e-10  -1.8210865e-02   4.0224326e+00   9.7512083e-01  -1.0858510e+08
   3.5811937e-10  -1.8102562e-02   4.0140756e+00   9.8133045e-01  -1.0796243e+08
   3.5911971e-10  -1.7994880e-02   4.0057489e+00   9.8753505e-01  -1.0734299e+08
   3.6012004e-10  -1.7887816e-02   3.9974526e+00   9.9373436e-01  -1.0672678e+08
   3.6112037e-10  -1.7781367e-02   3.9891868e+00   9.9992809e-01  -1.0611379e+08
   3.6212071e-10  -1.7675530e-02   3.9809516e+00   1.0061160e+00  -1.0550401e+08
   3.6312104e-10  -1.7570301e-02   3.9727471e+00   1.0122977e+00  -1.0489742e+08
   3.6412137e-10  -1.7465676e-02   3.9645735e+00   1.0184731e+00  -1.0429402e+08
   3.6512171e-10  -1.7361654e-02   3.9564308e+00   1.0246417e+00  -1.0369378e+08
   3.6612204e-10  -1.7258231e-02   3.9483191e+00   1.0308035e+00  -1.0309670e+08
   3.6712237e-10  -1.7155403e-02   3.9402386e+00   1.0369580e+00  -1.0250276e+08
   3.6812271e-10  -1.7053168e-02   3.9321893e+00   1.0431051e+00  -1.0191196e+08
   3.6912304e-10  -1.6951522e-02   3.9241713e+00   1.0492445e+00  -1.0132428e+08
   3.7012337e-10  -1.6850462e-02   3.9161847e+00   1.0553760e+00  -1.0073971e+08
   3.7112371e-10  -1.6749985e-02   3.9082296e+00   1.0614992e+00  -1.0015823e+08
   3.7212404e-10  -1.6650089e-02   3.9003060e+00   1.0676140e+00  -9.9579839e+07
   3.7312437e-10  -1.6550770e-02   3.8924140e+00   1.0737201e+00  -9.9004516e+07
   3.7412471e-10  -1.6452024e-02   3.8845538e+00   1.0798173e+00  -9.8432252e+07
   3.7512504e-10  -1.6353849e-02   3.8767253e+00   1.0859053e+00  -9.7863035e+07
   3.7612538e-10  -1.6256242e-02   3.8689286e+00   1.0919839e+00  -9.7296851e+07
   3.7712571e-10  -1.6159200e-02   3.8611637e+00   1.0980528e+00  -9.6733689e+07
   3.7812604e-10  -1.6062720e-02   3.8534308e+00   1.1041119e+00  -9.6173536e+07
   3.7912638e-10  -1.5966798e-02   3.8457299e+00   1.1101610e+00  -9.5616379e+07
   3.8012671e-10  -1.5871432e-02   3.8380610e+00   1.1161997e+00  -9.5062206e+07
   3.8112704e-10  -1.5776619e-02   3.8304242e+00   1.1222280e+00  -9.4511005e+07
   3.8212738e-10  -1.5682356e-02   3.8228195e+00   1.1282455e+00  -9.3962763e+07
   3.8312771e-10  -1.5588640e-02   3.8152469e+00   1.1342520e+00  -9.3417467e+07
   3.8412804e-10  -1.5495468e-02   3.8077065e+00   1.1402475e+00  -9.2875105e+07
   3.8512838e-10  -1.5402836e-02   3.8001983e+00   1.1462315e+00  -9.2335665e+07
   3.8612871e-10  -1.5310743e-02   3.7927223e+00   1.1522041e+00  -9.1799134e+07
   3.8712904e-10  -1.5219185e-02   3.7852786e+00   1.1581648e+00  -9.1265500e+07
   3.8812938e-10  -1.5128159e-02   3.7778672e+00   1.1641137e+00  -9.0734750e+07
   3.8912971e-10  -1.5037663e-02   3.7704880e+00   1.1700504e+00  -9.0206871e+07
   3.9013004e-10  -1.4947693e-02   3.7631412e+00   1.1759748e+00  -8.9681852e+07
   3.9113038e-10  -1.4858247e-02   3.7558267e+00   1.1818867e+00  -8.9159679e+07
   3.9213071e-10  -1.4769322e-02   3.7485445e+00   1.1877859e+00  -8.8640341e+07
   3.9313104e-10  -1.4680915e-02   3.7412946e+00   1.1936723e+00  -8.8123824e+07
   3.9413138e-10  -1.4593023e-02   3.7340771e+00   1.1995456e+00  -8.7610116e+07
   3.9513171e-10  -1.4505643e-02   3.7268920e+00   1.2054057e+00  -8.7099206e+07
   3.9613204e-10  -1.4418773e-02   3.7197391e+00   1.2112524e+00  -8.6591079e+07
   3.9713238e-10  -1.4332410e-02   3.7126186e+00   1.2170856e+00  -8.6085725e+07
   3.9813271e-10  -1.4246551e-02   3.7055304e+00   1.2229051e+00  -8.5583130e+07
   3.9913304e-10  -1.4161194e-02   3.6984745e+00   1.2287107e+00  -8.5083283e+07
   4.0013338e-10  -1.4076335e-02   3.6914509e+00   1.2345023e+00  -8.4586170e+07
   4.0113371e-10  -1.3991971e-02   3.6844596e+00   1.2402797e+00  -8.4091779e+07
   4.0213404e-10  -1.3908101e-02   3.6775006e+00   1.2460427e+00  -8.3600099e+07
   4.0313438e-10  -1.3824722e-02   3.6705738e+00   1.2517913e+00  -8.3111116e+07
   4.0413471e-10  -1.3741830e-02   3.6636792e+00   1.2575253e+00  -8.2624819e+07
   4.0513505e-10  -1.3659423e-02   3.6568168e+00   1.2632444e+00  -8.2141194e+07
   4.0613538e-10  -1.3577498e-02   3.6499866e+00   1.2689487e+00  -8.1660231e+07
   4.0713571e-10  -1.3496054e-02   3.6431885e+00   1.2746379e+00  -8.1181916e+07
   4.0813605e-10  -1.3415086e-02   3.6364225e+00   1.2803120e+00  -8.0706237e+07
   4.0913638e-10  -1.3334593e-02   3.6296886e+00   1.2859707e+00  -8.0233182e+07
   4.1013671e-10  -1.3254572e-02   3.6229867e+00   1.2916140e+00  -7.9762739e+07
   4.1113705e-10  -1.3175019e-02   3.6163168e+00   1.2972417e+00  -7.9294896e+07
   4.1213738e-10  -1.3095934e-02   3.6096789e+00   1.3028538e+00  -7.8829640e+07
   4.1313771e-10  -1.3017313e-02   3.6030728e+00   1.3084500e+00  -7.8366959e+07
   4.1413805e-10  -1.2939153e-02   3.5964987e+00   1.3140303e+00  -7.7906842e+07
   4.1513838e-10  -1.2861452e-02   3.5899563e+00   1.3195946e+00  -7.7449275e+07
   4.1613871e-10  -1.2784207e-02   3.5834457e+00   1.3251427e+00  -7.6994248e+07
   4.1713905e-10  -1.2707417e-02   3.5769668e+00   1.3306745e+00  -7.6541747e+07
   4.1813938e-10  -1.2631077e-02   3.5705196e+00   1.3361900e+00  -7.6091762e+07
   4.1913971e-10  -1.2555187e-02   3.5641040e+00   1.3416890e+00  -7.5644279e+07
   4.2014005e-10  -1.2479743e-02   3.5577200e+00   1.3471714e+00  -7.5199288e+07
   4.2114038e-10  -1.2404742e-02   3.5513674e+00   1.3526372e+00  -7.4756776e+07
   4.2214071e-10  -1.2330183e-02   3.5450463e+00   1.3580862e+00  -7.4316730e+07
   4.2314105e-10  -1.2256063e-02   3.5387565e+00   1.3635183e+00  -7.3879140e+07
   4.2414138e-10  -1.2182380e-02   3.5324981e+00   1.3689334e+00  -7.3443994e+07
   4.2514171e-10  -1.2109130e-02   3.5262709e+00   1.3743315e+00  -7.3011279e+07
   4.2614205e-10  -1.2036312e-02   3.5200749e+00   1.3797125e+00  -7.2580984e+07
   4.2714238e-10  -1.1963923e-02   3.5139100e+00   1.3850763e+00  -7.2153097e+07
   4.2814271e-10  -1.1891961e-02   3.5077761e+00   1.3904227e+00  -7.1727606e+07
   4.2914305e-10  -1.1820424e-02   3.5016732e+00   1.3957518e+00  -7.1304500e+07
   4.3014338e-10  -1.1749308e-02   3.4956012e+00   1.4010634e+00  -7.0883766e+07
   4.3114371e-10  -1.1678612e-02   3.4895600e+00   1.4063575e+00  -7.0465395e+07
   4.3214405e-10  -1.1608333e-02   3.4835496e+00   1.4116340e+00  -7.0049372e+07
   4.3314438e-10  -1.1538469e-02   3.4775698e+00   1.4168928e+00  -6.9635688e+07
   4.3414471e-10  -1.1469018e-02   3.4716207e+00   1.4221339e+00  -6.9224331e+07
   4.3514505e-10  -1.1399977e-02   3.4657020e+00   1.4273571e+00  -6.8815289e+07
   4.3614538e-10  -1.1331344e-02   3.4598138e+00   1.4325625e+00  -6.8408550e+07
   4.3714572e-10  -1.1263117e-02   3.4539560e+00   1.4377500e+00  -6.8004104e+07
   4.3814605e-10  -1.1195293e-02   3.4481284e+00   1.4429194e+00  -6.7601938e+07
   4.3914638e-10  -1.1127871e-02   3.4423310e+00   1.4480709e+00  -6.7202042e+07
   4.4014672e-10  -1.1060847e-02   3.4365637e+00   1.4532042e+00  -6.6804404e+07
   4.4114705e-10  -1.0994219e-02   3.4308264e+00   1.4583193e+00  -6.6409012e+07
   4.4214738e-10  -1.0927986e-02   3.4251191e+00   1.4634163e+00  -6.6015856e+07
   4.4314772e-10  -1.0862146e-02   3.4194416e+00   1.4684950e+00  -6.5624925e+07
   4.4414805e-10  -1.0796695e-02   3.4137938e+00   1.4735554e+00  -6.5236207e+07
   4.4514838e-10  -1.0731631e-02   3.4081757e+00   1.4785974e+00  -6.4849690e+07
   4.4614872e-10  -1.0666954e-02   3.4025872e+00   1.4836210e+00  -6.4465365e+07
   4.4714905e-10  -1.0602659e-02   3.3970282e+00   1.4886263e+00  -6.4083219e+07
   4.4814938e-10  -1.0538746e-02   3.3914985e+00   1.4936130e+00  -6.3703242e+07
   4.4914972e-10  -1.0475212e-02   3.3859982e+00   1.4985813e+00  -6.3325423e+07
   4.5015005e-10  -1.0412054e-02   3.3805270e+00   1.5035310e+00  -6.2949750e+07
   4.5115038e-10  -1.0349272e-02   3.3750849e+00   1.5084621e+00  -6.2576213e+07
   4.5215072e-10  -1.0286861e-02   3.3696719e+00   1.5133746e+00  -6.2204802e+07
   4.5315105e-10  -1.0224822e-02   3.3642878e+00   1.5182685e+00  -6.1835504e+07
   4.5415138e-10  -1.0163150e-02   3.3589324e+00   1.5231437e+00  -6.1468310e+07
   4.5515172e-10  -1.0101845e-02   3.3536058e+00   1.5280002e+00  -6.1103208e+07
   4.5615205e-10  -1.0040904e-02   3.3483078e+00   1.5328380e+00  -6.0740188e+07
   4.5715238e-10  -9.9803247e-03   3.3430383e+00   1.5376571e+00  -6.0379238e+07
   4.5815272e-10  -9.9201056e-03   3.3377972e+00   1.5424574e+00  -6.0020350e+07
   4.5915305e-10  -9.8602445e-03   3.3325845e+00   1.5472389e+00  -5.9663511e+07
   4.6015338e-10  -9.8007393e-03   3.3273999e+00   1.5520016e+00  -5.9308711e+07
   4.6115372e-10  -9.7415879e-03   3.3222435e+00   1.5567455e+00  -5.8955940e+07
   4.6215405e-10  -9.6827883e-03   3.3171150e+00   1.5614706e+00  -5.8605187e+07
   4.6315438e-10  -9.6243386e-03   3.3120145e+00   1.5661768e+00  -5.8256441e+07
   4.6415472e-10  -9.5662367e-03   3.3069418e+00   1.5708642e+00  -5.7909693e+07
   4.6515505e-10  -9.5084806e-03   3.3018967e+00   1.5755327e+00  -5.7564932e+07
   4.6615539e-10  -9.4510684e-03   3.2968792e+00   1.5801824e+00  -5.7222147e+07
   4.6715572e-10  -9.3939980e-03   3.2918893e+00   1.5848132e+00  -5.6881329e+07
   4.6815605e-10  -9.3372675e-03   3.2869267e+00   1.5894251e+00  -5.6542466e+07
   4.6915639e-10  -9.2808750e-03   3.2819913e+00   1.5940181e+00  -5.6205549e+07
   4.7015672e-10  -9.2248185e-03   3.2770832e+00   1.5985922e+00  -5.5870568e+07
   4.7115705e-10  -9.1690961e-03   3.2722020e+00   1.6031474e+00  -5.5537512e+07
   4.7215739e-10  -9.1137059e-03   3.2673479e+00   1.6076837e+00  -5.5206371e+07
   4.7315772e-10  -9.0586459e-03   3.2625206e+00   1.6122011e+00  -5.4877135e+07
   4.7415805e-10  -9.0039143e-03   3.2577200e+00   1.6166997e+00  -5.4549795e+07
   4.7515839e-10  -8.9495091e-03   3.2529460e+00   1.6211794e+00  -5.4224339e+07
   4.7615872e-10  -8.8954285e-03   3.2481985e+00   1.6256401e+00  -5.3900759e+07
   4.7715905e-10  -8.8416706e-03   3.2434775e+00   1.6300821e+00  -5.3579044e+07
   4.7815939e-10  -8.7882336e-03   3.2387827e+00   1.6345051e+00  -5.3259185e+07
   4.7915972e-10  -8.7351156e-03   3.2341142e+00   1.6389093e+00  -5.2941171e+07
   4.8016005e-10  -8.6823147e-03   3.2294717e+00   1.6432947e+00  -5.2624993e+07
   4.8116039e-10  -8.6298292e-03   3.2248552e+00   1.6476612e+00  -5.2310641e+07
   4.8216072e-10  -8.5776571e-03   3.2202645e+00   1.6520089e+00  -5.1998106e+07
   4.8316105e-10  -8.5257968e-03   3.2156996e+00   1.6563378e+00  -5.1687377e+07
   4.8416139e-10  -8.4742463e-03   3.2111603e+00   1.6606479e+00  -5.1378445e+07
   4.8516172e-10  -8.4230040e-03   3.2066465e+00   1.6649392e+00  -5.1071301e+07
   4.8616205e-10  -8.3720680e-03   3.2021582e+00   1.6692117e+00  -5.0765935e+07
   4.8716239e-10  -8.3214365e-03   3.1976951e+00   1.6734656e+00  -5.0462337e+07
   4.8816272e-10  -8.2711077e-03   3.1932573e+00   1.6777007e+00  -5.0160498e+07
   4.8916305e-10  -8.2210801e-03   3.1888445e+00   1.6819171e+00  -4.9860409e+07
   4.9016339e-10  -8.1713516e-03   3.1844567e+00   1.6861148e+00  -4.9562060e+07
   4.9116372e-10  -8.1219208e-03   3.1800937e+00   1.6902939e+00  -4.9265442e+07
   4.9216405e-10  -8.0727857e-03   3.1757555e+00   1.6944543e+00  -4.8970545e+07
   4.9316439e-10  -8.0239447e-03   3.1714420e+00   1.6985961e+00  -4.8677361e+07
   4.9416472e-10  -7.9753962e-03   3.1671529e+00   1.7027194e+00  -4.8385879e+07
   4.9516506e-10  -7.9271383e-03   3.1628883e+00   1.7068241e+00  -4.8096092e+07
   4.9616539e-10  -7.8791694e-03   3.1586479e+00   1.7109102e+00  -4.7807989e+07
   4.9716572e-10  -7.8314878e-03   3.1544318e+00   1.7149779e+00  -4.7521562e+07
   4.9816606e-10  -7.7840919e-03   3.1502397e+00   1.7190270e+00  -4.7236802e+07
   4.9916639e-10  -7.7369800e-03   3.1460715e+00   1.7230578e+00  -4.6953699e+07
   5.0016672e-10  -7.6901504e-03   3.1419273e+00   1.7270701e+00  -4.6672244e+07
   5.0116706e-10  -7.6436015e-03   3.1378067e+00   1.7310640e+00  -4.6392430e+07
   5.0216739e-10  -7.5973317e-03   3.1337098e+00   1.7350396e+00  -4.6114246e+07
   5.0316772e-10  -7.5513392e-03   3.1296365e+00   1.7389969e+00  -4.5837684e+07
   5.0416806e-10  -7.5056226e-03   3.1255865e+00   1.7429359e+00  -4.5562735e+07
   5.0516839e-10  -7.4601802e-03   3.1215598e+00   1.7468566e+00  -4.5289390e+07
   5.0616872e-10  -7.4150104e-03   3.1175563e+00   1.7507592e+00  -4.5017641e+07
   5.0716906e-10  -7.3701116e-03   3.1135758e+00   1.7546435e+00  -4.4747478e+07
   5.0816939e-10  -7.3254822e-03   3.1096184e+00   1.7585097e+00  -4.4478894e+07
   5.0916972e-10  -7.2811206e-03   3.1056837e+00   1.7623578e+00  -4.4211879e+07
   5.1017006e-10  -7.2370254e-03   3.1017718e+00   1.7661879e+00  -4.3946425e+07
   5.1117039e-10  -7.1931949e-03   3.0978826e+00   1.7699999e+00  -4.3682524e+07
   5.1217072e-10  -7.1496275e-03   3.0940158e+00   1.7737939e+00  -4.3420167e+07
   5.1317106e-10  -7.1063218e-03   3.0901715e+00   1.7775700e+00  -4.3159345e+07
   5.1417139e-10  -7.0632762e-03   3.0863495e+00   1.7813282e+00  -4.2900050e+07
   5.1517172e-10  -7.0204892e-03   3.0825496e+00   1.7850685e+00  -4.2642274e+07
   5.1617206e-10  -6.9779592e-03   3.0787718e+00   1.7887910e+00  -4.2386008e+07
   5.1717239e-10  -6.9356849e-03   3.0750160e+00   1.7924958e+00  -4.2131244e+07
   5.1817272e-10  -6.8936645e-03   3.0712821e+00   1.7961827e+00  -4.1877974e+07
   5.1917306e-10  -6.8518968e-03   3.0675698e+00   1.7998520e+00  -4.1626189e+07
   5.2017339e-10  -6.8103802e-03   3.0638793e+00   1.8035037e+00  -4.1375881e+07
   5.2117372e-10  -6.7691131e-03   3.0602102e+00   1.8071377e+00  -4.1127043e+07
   5.2217406e-10  -6.7280943e-03   3.0565626e+00   1.8107542e+00  -4.0879666e+07
   5.2317439e-10  -6.6873221e-03   3.0529363e+00   1.8143532e+00  -4.0633741e+07
   5.2417472e-10  -6.6467952e-03   3.0493312e+00   1.8179347e+00  -4.0389262e+07
   5.2517506e-10  -6.6065120e-03   3.0457472e+00   1.8214988e+00  -4.0146219e+07
   5.2617539e-10  -6.5664713e-03   3.0421841e+00   1.8250456e+00  -3.9904606e+07
   5.2717573e-10  -6.5266715e-03   3.0386420e+00   1.8285750e+00  -3.9664413e+07
   5.2817606e-10  -6.4871112e-03   3.0351206e+00   1.8320871e+00  -3.9425634e+07
   5.2917639e-10  -6.4477891e-03   3.0316199e+00   1.8355820e+00  -3.9188260e+07
   5.3017673e-10  -6.4087036e-03   3.0281398e+00   1.8390597e+00  -3.8952283e+07
   5.3117706e-10  -6.3698535e-03   3.0246801e+00   1.8425203e+00  -3.8717696e+07
   5.3217739e-10  -6.3312374e-03   3.0212407e+00   1.8459639e+00  -3.8484491e+07
   5.3317773e-10  -6.2928538e-03   3.0178216e+00   1.8493904e+00  -3.8252661e+07
   5.3417806e-10  -6.2547014e-03   3.0144227e+00   1.8527999e+00  -3.8022197e+07
   5.3517839e-10  -6.2167788e-03   3.0110437e+00   1.8561925e+00  -3.7793092e+07
   5.3617873e-10  -6.1790847e-03   3.0076847e+00   1.8595683e+00  -3.7565338e+07
   5.3717906e-10  -6.1416177e-03   3.0043455e+00   1.8629272e+00  -3.7338928e+07
   5.3817939e-10  -6.1043765e-03   3.0010260e+00   1.8662693e+00  -3.7113855e+07
   5.3917973e-10  -6.0673597e-03   2.9977261e+00   1.8695947e+00  -3.6890110e+07
   5.4018006e-10  -6.0305661e-03   2.9944458e+00   1.8729035e+00  -3.6667687e+07
   5.4118039e-10  -5.9939943e-03   2.9911848e+00   1.8761957e+00  -3.6446578e+07
   5.4218073e-10  -5.9576430e-03   2.9879431e+00   1.8794713e+00  -3.6226776e+07
   5.4318106e-10  -5.9215109e-03   2.9847207e+00   1.8827304e+00  -3.6008273e+07
   5.4418139e-10  -5.8855966e-03   2.9815173e+00   1.8859731e+00  -3.5791062e+07
   5.4518173e-10  -5.8498990e-03   2.9783329e+00   1.8891993e+00  -3.5575135e+07
   5.4618206e-10  -5.8144167e-03   2.9751674e+00   1.8924093e+00  -3.5360487e+07
   5.4718239e-10  -5.7791485e-03   2.9720207e+00   1.8956029e+00  -3.5147108e+07
   5.4818273e-10  -5.7440931e-03   2.9688927e+00   1.8987803e+00  -3.4934993e+07
   5.4918306e-10  -5.7092491e-03   2.9657833e+00   1.9019416e+00  -3.4724134e+07
   5.5018339e-10  -5.6746155e-03   2.9626923e+00   1.9050867e+00  -3.4514524e+07
   5.5118373e-10  -5.6401909e-03   2.9596198e+00   1.9082158e+00  -3.4306156e+07
   5.5218406e-10  -5.6059741e-03   2.9565655e+00   1.9113288e+00  -3.4099023e+07
   5.5318439e-10  -5.5719638e-03   2.9535294e+00   1.9144260e+00  -3.3893118e+07
   5.5418473e-10  -5.5381589e-03   2.9505114e+00   1.9175072e+00  -3.3688435e+07
   5.5518506e-10  -5.5045580e-03   2.9475114e+00   1.9205726e+00  -3.3484965e+07
   5.5618540e-10  -5.4711601e-03   2.9445293e+00   1.9236222e+00  -3.3282702e+07
   5.5718573e-10  -5.4379639e-03   2.9415650e+00   1.9266561e+00  -3.3081640e+07
   5.5818606e-10  -5.4049682e-03   2.9386183e+00   1.9296743e+00  -3.2881772e+07
   5.5918640e-10  -5.3721718e-03   2.9356893e+00   1.9326770e+00  -3.2683091e+07
   5.6018673e-10  -5.3395736e-03   2.9327778e+00   1.9356640e+00  -3.2485590e+07
   5.6118706e-10  -5.3071722e-03   2.9298836e+00   1.9386356e+00  -3.2289262e+07
   5.6218740e-10  -5.2749667e-03   2.9270068e+00   1.9415918e+00  -3.2094101e+07
   5.6318773e-10  -5.2429558e-03   2.9241472e+00   1.9445326e+00  -3.1900101e+07
   5.6418806e-10  -5.2111384e-03   2.9213047e+00   1.9474580e+00  -3.1707254e+07
   5.6518840e-10  -5.1795132e-03   2.9184792e+00   1.9503682e+00  -3.1515554e+07
   5.6618873e-10  -5.1480793e-03   2.9156706e+00   1.9532632e+00  -3.1324994e+07
   5.6718906e-10  -5.1168353e-03   2.9128789e+00   1.9561431e+00  -3.1135569e+07
   5.6818940e-10  -5.0857803e-03   2.9101039e+00   1.9590079e+00  -3.0947271e+07
   5.6918973e-10  -5.0549130e-03   2.9073456e+00   1.9618576e+00  -3.0760094e+07
   5.7019006e-10  -5.0242324e-03   2.9046038e+00   1.9646924e+00  -3.0574032e+07
   5.7119040e-10  -4.9937374e-03   2.9018784e+00   1.9675123e+00  -3.0389078e+07
   5.7219073e-10  -4.9634267e-03   2.8991695e+00   1.9703174e+00  -3.0205227e+07
   5.7319106e-10  -4.9332995e-03   2.8964768e+00   1.9731076e+00  -3.0022471e+07
   5.7419140e-10  -4.9033544e-03   2.8938002e+00   1.9758832e+00  -2.9840804e+07
   5.7519173e-10  -4.8735905e-03   2.8911398e+00   1.9786440e+00  -2.9660221e+07
   5.7619206e-10  -4.8440068e-03   2.8884954e+00   1.9813903e+00  -2.9480715e+07
   5.7719240e-10  -4.8146020e-03   2.8858668e+00   1.9841219e+00  -2.9302280e+07
   5.7819273e-10  -4.7853751e-03   2.8832541e+00   1.9868391e+00  -2.9124910e+07
   5.7919306e-10  -4.7563252e-03   2.8806572e+00   1.9895419e+00  -2.8948598e+07
   5.8019340e-10  -4.7274510e-03   2.8780758e+00   1.9922303e+00  -2.8773339e+07
   5.8119373e-10  -4.6987517e-03   2.8755100e+00   1.9949044e+00  -2.8599127e+07
   5.8219406e-10  -4.6702260e-03   2.8729597e+00   1.9975642e+00  -2.8425955e+07
   5.8319440e-10  -4.6418731e-03   2.8704248e+00   2.0002098e+00  -2.8253817e+07
   5.8419473e-10  -4.6136918e-03   2.8679051e+00   2.0028413e+00  -2.8082708e+07
   5.8519507e-10  -4.5856811e-03   2.8654006e+00   2.0054587e+00  -2.7912622e+07
   5.8619540e-10  -4.5578401e-03   2.8629113e+00   2.0080621e+00  -2.7743553e+07
   5.8719573e-10  -4.5301676e-03   2.8604369e+00   2.0106516e+00  -2.7575495e+07
   5.8819607e-10  -4.5026628e-03   2.8579776e+00   2.0132271e+00  -2.7408442e+07
   5.8919640e-10  -4.4753245e-03   2.8555330e+00   2.0157888e+00  -2.7242388e+07
   5.9019673e-10  -4.4481518e-03   2.8531032e+00   2.0183367e+00  -2.7077328e+07
   5.9119707e-10  -4.4211438e-03   2.8506882e+00   2.0208709e+00  -2.6913256e+07
   5.9219740e-10  -4.3942993e-03   2.8482877e+00   2.0233915e+00  -2.6750166e+07
   5.9319773e-10  -4.3676175e-03   2.8459017e+00   2.0258984e+00  -2.6588053e+07
   5.9419807e-10  -4.3410973e-03   2.8435302e+00   2.0283918e+00  -2.6426910e+07
   5.9519840e-10  -4.3147379e-03   2.8411730e+00   2.0308717e+00  -2.6266733e+07
   5.9619873e-10  -4.2885382e-03   2.8388300e+00   2.0333382e+00  -2.6107515e+07
   5.9719907e-10  -4.2624972e-03   2.8365013e+00   2.0357913e+00  -2.5949252e+07
   5.9819940e-10  -4.2366141e-03   2.8341866e+00   2.0382311e+00  -2.5791937e+07
   5.9919973e-10  -4.2108879e-03   2.8318860e+00   2.0406577e+00  -2.5635565e+07
   6.0020007e-10  -4.1853176e-03   2.8295993e+00   2.0430711e+00  -2.5480131e+07
   6.0120040e-10  -4.1599023e-03   2.8273264e+00   2.0454713e+00  -2.5325629e+07
   6.0220073e-10  -4.1346410e-03   2.8250674e+00   2.0478585e+00  -2.5172054e+07
   6.0320107e-10  -4.1095330e-03   2.8228220e+00   2.0502327e+00  -2.5019401e+07
   6.0420140e-10  -4.0845771e-03   2.8205902e+00   2.0525939e+00  -2.4867664e+07
   6.0520173e-10  -4.0597726e-03   2.8183720e+00   2.0549422e+00  -2.4716837e+07
   6.0620207e-10  -4.0351185e-03   2.8161673e+00   2.0572777e+00  -2.4566916e+07
   6.0720240e-10  -4.0106139e-03   2.8139759e+00   2.0596004e+00  -2.4417896e+07
   6.0820273e-10  -3.9862579e-03   2.8117978e+00   2.0619103e+00  -2.4269770e+07
   6.0920307e-10  -3.9620496e-03   2.8096329e+00   2.0642077e+00  -2.4122534e+07
   6.1020340e-10  -3.9379881e-03   2.8074812e+00   2.0664924e+00  -2.3976183e+07
   6.1120373e-10  -3.9140726e-03   2.8053425e+00   2.0687645e+00  -2.3830711e+07
   6.1220407e-10  -3.8903022e-03   2.8032168e+00   2.0710242e+00  -2.3686114e+07
   6.1320440e-10  -3.8666760e-03   2.8011041e+00   2.0732715e+00  -2.3542386e+07
   6.1420473e-10  -3.8431931e-03   2.7990042e+00   2.0755064e+00  -2.3399522e+07
   6.1520507e-10  -3.8198526e-03   2.7969170e+00   2.0777289e+00  -2.3257517e+07
   6.1620540e-10  -3.7966538e-03   2.7948425e+00   2.0799392e+00  -2.3116367e+07
   6.1720574e-10  -3.7735957e-03   2.7927807e+00   2.0821373e+00  -2.2976066e+07
   6.1820607e-10  -3.7506776e-03   2.7907314e+00   2.0843233e+00  -2.2836609e+07
   6.1920640e-10  -3.7278985e-03   2.7886945e+00   2.0864972e+00  -2.2697991e+07
   6.2020674e-10  -3.7052577e-03   2.7866700e+00   2.0886591e+00  -2.2560208e+07
   6.2120707e-10  -3.6827543e-03   2.7846579e+00   2.0908089e+00  -2.2423254e+07
   6.2220740e-10  -3.6603874e-03   2.7826580e+00   2.0929469e+00  -2.2287125e+07
   6.2320774e-10  -3.6381563e-03   2.7806703e+00   2.0950730e+00  -2.2151816e+07
   6.2420807e-10  -3.6160601e-03   2.7786946e+00   2.0971874e+00  -2.2017321e+07
   6.2520840e-10  -3.5940981e-03   2.7767310e+00   2.0992899e+00  -2.1883638e+07
   6.2620874e-10  -3.5722694e-03   2.7747794e+00   2.1013808e+00  -2.1750759e+07
   6.2720907e-10  -3.5505732e-03   2.7728396e+00   2.1034601e+00  -2.1618682e+07
   6.2820940e-10  -3.5290087e-03   2.7709117e+00   2.1055277e+00  -2.1487401e+07
   6.2920974e-10  -3.5075751e-03   2.7689955e+00   2.1075839e+00  -2.1356911e+07
   6.3021007e-10  -3.4862717e-03   2.7670910e+00   2.1096286e+00  -2.1227208e+07
   6.3121040e-10  -3.4650976e-03   2.7651980e+00   2.1116619e+00  -2.1098287e+07
   6.3221074e-10  -3.4440521e-03   2.7633166e+00   2.1136838e+00  -2.0970144e+07
   6.3321107e-10  -3.4231344e-03   2.7614467e+00   2.1156944e+00  -2.0842774e+07
   6.3421140e-10  -3.4023437e-03   2.7595882e+00   2.1176938e+00  -2.0716172e+07
   6.3521174e-10  -3.3816792e-03   2.7577410e+00   2.1196820e+00  -2.0590334e+07
   6.3621207e-10  -3.3611403e-03   2.7559051e+00   2.1216591e+00  -2.0465256e+07
   6.3721240e-10  -3.3407261e-03   2.7540804e+00   2.1236251e+00  -2.0340933e+07
   6.3821274e-10  -3.3204358e-03   2.7522668e+00   2.1255801e+00  -2.0217361e+07
   6.3921307e-10  -3.3002688e-03   2.7504643e+00   2.1275241e+00  -2.0094535e+07
   6.4021340e-10  -3.2802243e-03   2.7486727e+00   2.1294572e+00  -1.9972450e+07
   6.4121374e-10  -3.2603016e-03   2.7468921e+00   2.1313794e+00  -1.9851103e+07
   6.4221407e-10  -3.2404998e-03   2.7451224e+00   2.1332908e+00  -1.9730489e+07
   6.4321440e-10  -3.2208184e-03   2.7433635e+00   2.1351915e+00  -1.9610604e+07
   6.4421474e-10  -3.2012565e-03   2.7416153e+00   2.1370815e+00  -1.9491443e+07
   6.4521507e-10  -3.1818135e-03   2.7398778e+00   2.1389608e+00  -1.9373003e+07
   6.4621541e-10  -3.1624885e-03   2.7381508e+00   2.1408295e+00  -1.9255278e+07
   6.4721574e-10  -3.1432810e-03   2.7364345e+00   2.1426877e+00  -1.9138266e+07
   6.4821607e-10  -3.1241902e-03   2.7347286e+00   2.1445354e+00  -1.9021960e+07
   6.4921641e-10  -3.1052154e-03   2.7330331e+00   2.1463727e+00  -1.8906358e+07
   6.5021674e-10  -3.0863558e-03   2.7313480e+00   2.1481996e+00  -1.8791456e+07
   6.5121707e-10  -3.0676109e-03   2.7296732e+00   2.1500162e+00  -1.8677248e+07
   6.5221741e-10  -3.0489798e-03   2.7280086e+00   2.1518225e+00  -1.8563731e+07
   6.5321774e-10  -3.0304620e-03   2.7263541e+00   2.1536185e+00  -1.8450901e+07
   6.5421807e-10  -3.0120567e-03   2.7247098e+00   2.1554044e+00  -1.8338754e+07
   6.5521841e-10  -2.9937632e-03   2.7230756e+00   2.1571802e+00  -1.8227286e+07
   6.5621874e-10  -2.9755809e-03   2.7214513e+00   2.1589459e+00  -1.8116492e+07
   6.5721907e-10  -2.9575091e-03   2.7198369e+00   2.1607016e+00  -1.8006369e+07
   6.5821941e-10  -2.9395471e-03   2.7182324e+00   2.1624473e+00  -1.7896913e+07
   6.5921974e-10  -2.9216943e-03   2.7166378e+00   2.1641831e+00  -1.7788120e+07
   6.6022007e-10  -2.9039500e-03   2.7150528e+00   2.1659091e+00  -1.7679985e+07
   6.6122041e-10  -2.8863135e-03   2.7134776e+00   2.1676252e+00  -1.7572506e+07
   6.6222074e-10  -2.8687842e-03   2.7119120e+00   2.1693316e+00  -1.7465677e+07
   6.6322107e-10  -2.8513615e-03   2.7103559e+00   2.1710283e+00  -1.7359496e+07
   6.6422141e-10  -2.8340447e-03   2.7088094e+00   2.1727153e+00  -1.7253958e+07
   6.6522174e-10  -2.8168331e-03   2.7072723e+00   2.1743927e+00  -1.7149060e+07
   6.6622207e-10  -2.7997261e-03   2.7057447e+00   2.1760605e+00  -1.7044798e+07
   6.6722241e-10  -2.7827232e-03   2.7042263e+00   2.1777188e+00  -1.6941167e+07
   6.6822274e-10  -2.7658235e-03   2.7027173e+00   2.1793677e+00  -1.6838165e+07
   6.6922307e-10  -2.7490267e-03   2.7012175e+00   2.1810071e+00  -1.6735787e+07
   6.7022341e-10  -2.7323319e-03   2.6997268e+00   2.1826372e+00  -1.6634031e+07
   6.7122374e-10  -2.7157386e-03   2.6982453e+00   2.1842579e+00  -1.6532891e+07
   6.7222407e-10  -2.6992461e-03   2.6967729e+00   2.1858694e+00  -1.6432364e+07
   6.7322441e-10  -2.6828540e-03   2.6953094e+00   2.1874717e+00  -1.6332448e+07
   6.7422474e-10  -2.6665615e-03   2.6938549e+00   2.1890648e+00  -1.6233137e+07
   6.7522508e-10  -2.6503680e-03   2.6924093e+00   2.1906488e+00  -1.6134429e+07
   6.7622541e-10  -2.6342730e-03   2.6909726e+00   2.1922237e+00  -1.6036320e+07
   6.7722574e-10  -2.6182758e-03   2.6895446e+00   2.1937896e+00  -1.5938806e+07
   6.7822608e-10  -2.6023759e-03   2.6881254e+00   2.1953465e+00  -1.5841885e+07
   6.7922641e-10  -2.5865727e-03   2.6867149e+00   2.1968944e+00  -1.5745551e+07
   6.8022674e-10  -2.5708655e-03   2.6853130e+00   2.1984335e+00  -1.5649802e+07
   6.8122708e-10  -2.5552539e-03   2.6839197e+00   2.1999638e+00  -1.5554635e+07
   6.8222741e-10  -2.5397371e-03   2.6825349e+00   2.2014852e+00  -1.5460045e+07
   6.8322774e-10  -2.5243147e-03   2.6811586e+00   2.2029979e+00  -1.5366030e+07
   6.8422808e-10  -2.5089861e-03   2.6797907e+00   2.2045020e+00  -1.5272585e+07
   6.8522841e-10  -2.4937506e-03   2.6784311e+00   2.2059973e+00  -1.5179708e+07
   6.8622874e-10  -2.4786078e-03   2.6770799e+00   2.2074841e+00  -1.5087396e+07
   6.8722908e-10  -2.4635571e-03   2.6757370e+00   2.2089623e+00  -1.4995644e+07
   6.8822941e-10  -2.4485979e-03   2.6744023e+00   2.2104320e+00  -1.4904449e+07
   6.8922974e-10  -2.4337296e-03   2.6730758e+00   2.2118932e+00  -1.4813809e+07
   6.9023008e-10  -2.4189518e-03   2.6717574e+00   2.2133460e+00  -1.4723719e+07
   6.9123041e-10  -2.4042638e-03   2.6704470e+00   2.2147904e+00  -1.4634177e+07
   6.9223074e-10  -2.3896651e-03   2.6691447e+00   2.2162265e+00  -1.4545179e+07
   6.9323108e-10  -2.3751552e-03   2.6678503e+00   2.2176543e+00  -1.4456721e+07
   6.9423141e-10  -2.3607335e-03   2.6665639e+00   2.2190739e+00  -1.4368802e+07
   6.9523174e-10  -2.3463995e-03   2.6652854e+00   2.2204853e+00  -1.4281417e+07
   6.9623208e-10  -2.3321527e-03   2.6640146e+00   2.2218885e+00  -1.4194563e+07
   6.9723241e-10  -2.3179925e-03   2.6627517e+00   2.2232836e+00  -1.4108237e+07
   6.9823274e-10  -2.3039184e-03   2.6614965e+00   2.2246706e+00  -1.4022437e+07
   6.9923308e-10  -2.2899298e-03   2.6602490e+00   2.2260496e+00  -1.3937158e+07
   7.0023341e-10  -2.2760264e-03   2.6590091e+00   2.2274207e+00  -1.3852397e+07
   7.0123374e-10  -2.2622075e-03   2.6577768e+00   2.2287838e+00  -1.3768152e+07
   7.0223408e-10  -2.2484726e-03   2.6565521e+00   2.2301390e+00  -1.3684420e+07
   7.0323441e-10  -2.2348212e-03   2.6553348e+00   2.2314863e+00  -1.3601197e+07
   7.0423474e-10  -2.2212528e-03   2.6541250e+00   2.2328259e+00  -1.3518480e+07
   7.0523508e-10  -2.2077670e-03   2.6529227e+00   2.2341576e+00  -1.3436266e+07
   7.0623541e-10  -2.1943631e-03   2.6517276e+00   2.2354817e+00  -1.3354553e+07
   7.0723575e-10  -2.1810408e-03   2.6505399e+00   2.2367981e+00  -1.3273337e+07
   7.0823608e-10  -2.1677995e-03   2.6493595e+00   2.2381068e+00  -1.3192615e+07
   7.0923641e-10  -2.1546387e-03   2.6481863e+00   2.2394079e+00  -1.3112384e+07
   7.1023675e-10  -2.1415579e-03   2.6470203e+00   2.2407015e+00  -1.3032642e+07
   7.1123708e-10  -2.1285566e-03   2.6458614e+00   2.2419876e+00  -1.2953385e+07
   7.1223741e-10  -2.1156344e-03   2.6447096e+00   2.2432662e+00  -1.2874610e+07
   7.1323775e-10  -2.1027908e-03   2.6435649e+00   2.2445374e+00  -1.2796315e+07
   7.1423808e-10  -2.0900253e-03   2.6424272e+00   2.2458011e+00  -1.2718497e+07
   7.1523841e-10  -2.0773374e-03   2.6412964e+00   2.2470576e+00  -1.2641152e+07
   7.1623875e-10  -2.0647267e-03   2.6401726e+00   2.2483067e+00  -1.2564279e+07
   7.1723908e-10  -2.0521926e-03   2.6390557e+00   2.2495485e+00  -1.2487873e+07
   7.1823941e-10  -2.0397348e-03   2.6379456e+00   2.2507831e+00  -1.2411933e+07
   7.1923975e-10  -2.0273527e-03   2.6368423e+00   2.2520105e+00  -1.2336455e+07
   7.2024008e-10  -2.0150459e-03   2.6357457e+00   2.2532308e+00  -1.2261437e+07
   7.2124041e-10  -2.0028139e-03   2.6346559e+00   2.2544440e+00  -1.2186875e+07
   7.2224075e-10  -1.9906563e-03   2.6335727e+00   2.2556501e+00  -1.2112768e+07
   7.2324108e-10  -1.9785726e-03   2.6324962e+00   2.2568491e+00  -1.2039112e+07
   7.2424141e-10  -1.9665624e-03   2.6314263e+00   2.2580412e+00  -1.1965905e+07
   7.2524175e-10  -1.9546252e-03   2.6303629e+00   2.2592263e+00  -1.1893144e+07
   7.2624208e-10  -1.9427606e-03   2.6293060e+00   2.2604045e+00  -1.1820826e+07
   7.2724241e-10  -1.9309682e-03   2.6282556e+00   2.2615758e+00  -1.1748949e+07
   7.2824275e-10  -1.9192474e-03   2.6272116e+00   2.2627403e+00  -1.1677510e+07
   7.2924308e-10  -1.9075979e-03   2.6261741e+00   2.2638979e+00  -1.1606506e+07
   7.3024341e-10  -1.8960193e-03   2.6251428e+00   2.2650489e+00  -1.1535934e+07
   7.3124375e-10  -1.8845110e-03   2.6241179e+00   2.2661930e+00  -1.1465793e+07
   7.3224408e-10  -1.8730727e-03   2.6230993e+00   2.2673305e+00  -1.1396079e+07
   7.3324441e-10  -1.8617040e-03   2.6220869e+00   2.2684614e+00  -1.1326790e+07
   7.3424475e-10  -1.8504043e-03   2.6210807e+00   2.2695856e+00  -1.1257923e+07
   7.3524508e-10  -1.8391734e-03   2.6200806e+00   2.2707033e+00  -1.1189476e+07
   7.3624542e-10  -1.8280108e-03   2.6190867e+00   2.2718144e+00  -1.1121446e+07
   7.3724575e-10  -1.8169160e-03   2.6180989e+00   2.2729190e+00  -1.1053831e+07
   7.3824608e-10  -1.8058886e-03   2.6171171e+00   2.2740171e+00  -1.0986628e+07
   7.3924642e-10  -1.7949283e-03   2.6161413e+00   2.2751088e+00  -1.0919835e+07
   7.4024675e-10  -1.7840347e-03   2.6151715e+00   2.2761941e+00  -1.0853449e+07
   7.4124708e-10  -1.7732073e-03   2.6142077e+00   2.2772731e+00  -1.0787467e+07
   7.4224742e-10  -1.7624456e-03   2.6132497e+00   2.2783457e+00  -1.0721888e+07
   7.4324775e-10  -1.7517494e-03   2.6122976e+00   2.2794121e+00  -1.0656709e+07
   7.4424808e-10  -1.7411183e-03   2.6113513e+00   2.2804721e+00  -1.0591927e+07
   7.4524842e-10  -1.7305517e-03   2.6104108e+00   2.2815260e+00  -1.0527540e+07
   7.4624875e-10  -1.7200494e-03   2.6094761e+00   2.2825737e+00  -1.0463545e+07
   7.4724908e-10  -1.7096110e-03   2.6085471e+00   2.2836152e+00  -1.0399941e+07
   7.4824942e-10  -1.6992359e-03   2.6076238e+00   2.2846507e+00  -1.0336725e+07
   7.4924975e-10  -1.6889240e-03   2.6067061e+00   2.2856800e+00  -1.0273894e+07
   7.5025008e-10  -1.6786747e-03   2.6057941e+00   2.2867033e+00  -1.0211446e+07
   7.5125042e-10  -1.6684878e-03   2.6048876e+00   2.2877206e+00  -1.0149379e+07
   7.5225075e-10  -1.6583627e-03   2.6039867e+00   2.2887319e+00  -1.0087691e+07
   7.5325108e-10  -1.6482992e-03   2.6030913e+00   2.2897373e+00  -1.0026379e+07
   7.5425142e-10  -1.6382969e-03   2.6022014e+00   2.2907368e+00  -9.9654404e+06
   7.5525175e-10  -1.6283553e-03   2.6013169e+00   2.2917303e+00  -9.9048738e+06
   7.5625208e-10  -1.6184742e-03   2.6004378e+00   2.2927181e+00  -9.8446766e+06
   7.5725242e-10  -1.6086532e-03   2.5995641e+00   2.2937000e+00  -9.7848466e+06
   7.5825275e-10  -1.5988918e-03   2.5986958e+00   2.2946762e+00  -9.7253815e+06
   7.5925308e-10  -1.5891897e-03   2.5978328e+00   2.2956466e+00  -9.6662792e+06
   7.6025342e-10  -1.5795467e-03   2.5969750e+00   2.2966113e+00  -9.6075373e+06
   7.6125375e-10  -1.5699622e-03   2.5961225e+00   2.2975703e+00  -9.5491537e+06
   7.6225408e-10  -1.5604359e-03   2.5952752e+00   2.2985237e+00  -9.4911263e+06
   7.6325442e-10  -1.5509676e-03   2.5944331e+00   2.2994715e+00  -9.4334528e+06
   7.6425475e-10  -1.5415568e-03   2.5935962e+00   2.3004137e+00  -9.3761312e+06
   7.6525509e-10  -1.5322032e-03   2.5927643e+00   2.3013503e+00  -9.3191592e+06
   7.6625542e-10  -1.5229064e-03   2.5919376e+00   2.3022814e+00  -9.2625347e+06
   7.6725575e-10  -1.5136662e-03   2.5911159e+00   2.3032070e+00  -9.2062557e+06
   7.6825609e-10  -1.5044820e-03   2.5902992e+00   2.3041272e+00  -9.1503200e+06
   7.6925642e-10  -1.4953537e-03   2.5894876e+00   2.3050419e+00  -9.0947256e+06
   7.7025675e-10  -1.4862809e-03   2.5886809e+00   2.3059513e+00  -9.0394703e+06
   7.7125709e-10  -1.4772632e-03   2.5878791e+00   2.3068553e+00  -8.9845520e+06
   7.7225742e-10  -1.4683002e-03   2.5870822e+00   2.3077539e+00  -8.9299689e+06
   7.7325775e-10  -1.4593918e-03   2.5862903e+00   2.3086473e+00  -8.8757187e+06
   7.7425809e-10  -1.4505374e-03   2.5855031e+00   2.3095354e+00  -8.8217995e+06
   7.7525842e-10  -1.4417369e-03   2.5847208e+00   2.3104182e+00  -8.7682092e+06
   7.7625875e-10  -1.4329898e-03   2.5839432e+00   2.3112958e+00  -8.7149458e+06
   7.7725909e-10  -1.4242959e-03   2.5831704e+00   2.3121683e+00  -8.6620075e+06
   7.7825942e-10  -1.4156548e-03   2.5824024e+00   2.3130356e+00  -8.6093921e+06
   7.7925975e-10  -1.4070661e-03   2.5816390e+00   2.3138977e+00  -8.5570976e+06
   7.8026009e-10  -1.3985297e-03   2.5808803e+00   2.3147548e+00  -8.5051223e+06
   7.8126042e-10  -1.3900451e-03   2.5801262e+00   2.3156068e+00  -8.4534640e+06
   7.8226075e-10  -1.3816121e-03   2.5793768e+00   2.3164538e+00  -8.4021209e+06
   7.8326109e-10  -1.3732303e-03   2.5786319e+00   2.3172958e+00  -8.3510910e+06
   7.8426142e-10  -1.3648994e-03   2.5778916e+00   2.3181328e+00  -8.3003725e+06
   7.8526175e-10  -1.3566191e-03   2.5771558e+00   2.3189648e+00  -8.2499634e+06
   7.8626209e-10  -1.3483891e-03   2.5764245e+00   2.3197920e+00  -8.1998618e+06
   7.8726242e-10  -1.3402091e-03   2.5756976e+00   2.3206142e+00  -8.1500659e+06
   7.8826275e-10  -1.3320788e-03   2.5749753e+00   2.3214316e+00  -8.1005737e+06
   7.8926309e-10  -1.3239979e-03   2.5742573e+00   2.3222441e+00  -8.0513835e+06
   7.9026342e-10  -1.3159660e-03   2.5735437e+00   2.3230518e+00  -8.0024934e+06
   7.9126375e-10  -1.3079829e-03   2.5728345e+00   2.3238548e+00  -7.9539016e+06
   7.9226409e-10  -1.3000484e-03   2.5721296e+00   2.3246530e+00  -7.9056062e+06
   7.9326442e-10  -1.2921620e-03   2.5714290e+00   2.3254464e+00  -7.8576055e+06
   7.9426475e-10  -1.2843235e-03   2.5707327e+00   2.3262352e+00  -7.8098976e+06
   7.9526509e-10  -1.2765326e-03   2.5700407e+00   2.3270193e+00  -7.7624807e+06
   7.9626542e-10  -1.2687890e-03   2.5693528e+00   2.3277988e+00  -7.7153530e+06
   7.9726576e-10  -1.2610924e-03   2.5686692e+00   2.3285736e+00  -7.6685129e+06
   7.9826609e-10  -1.2534426e-03   2.5679898e+00   2.3293438e+00  -7.6219585e+06
   7.9926642e-10  -1.2458392e-03   2.5673145e+00   2.3301095e+00  -7.5756881e+06
   8.0026676e-10  -1.2382820e-03   2.5666433e+00   2.3308707e+00  -7.5297000e+06
   8.0126709e-10  -1.2307707e-03   2.5659763e+00   2.3316273e+00  -7.4839923e+06
   8.0226742e-10  -1.2233050e-03   2.5653133e+00   2.3323795e+00  -7.4385635e+06
   8.0326776e-10  -1.2158847e-03   2.5646543e+00   2.3331271e+00  -7.3934118e+06
   8.0426809e-10  -1.2085094e-03   2.5639994e+00   2.3338704e+00  -7.3485355e+06
   8.0526842e-10  -1.2011788e-03   2.5633485e+00   2.3346093e+00  -7.3039330e+06
   8.0626876e-10  -1.1938928e-03   2.5627016e+00   2.3353437e+00  -7.2596024e+06
   8.0726909e-10  -1.1866510e-03   2.5620586e+00   2.3360738e+00  -7.2155423e+06
   8.0826942e-10  -1.1794532e-03   2.5614195e+00   2.3367996e+00  -7.1717509e+06
   8.0926976e-10  -1.1722991e-03   2.5607844e+00   2.3375211e+00  -7.1282266e+06
   8.1027009e-10  -1.1651884e-03   2.5601531e+00   2.3382383e+00  -7.0849678e+06
   8.1127042e-10  -1.1581209e-03   2.5595256e+00   2.3389512e+00  -7.0419728e+06
   8.1227076e-10  -1.1510962e-03   2.5589020e+00   2.3396599e+00  -6.9992399e+06
   8.1327109e-10  -1.1441143e-03   2.5582823e+00   2.3403644e+00  -6.9567678e+06
   8.1427142e-10  -1.1371747e-03   2.5576663e+00   2.3410647e+00  -6.9145546e+06
   8.1527176e-10  -1.1302772e-03   2.5570540e+00   2.3417609e+00  -6.8725988e+06
   8.1627209e-10  -1.1234216e-03   2.5564455e+00   2.3424529e+00  -6.8308989e+06
   8.1727242e-10  -1.1166076e-03   2.5558407e+00   2.3431408e+00  -6.7894533e+06
   8.1827276e-10  -1.1098350e-03   2.5552396e+00   2.3438246e+00  -6.7482604e+06
   8.1927309e-10  -1.1031034e-03   2.5546422e+00   2.3445044e+00  -6.7073187e+06
   8.2027342e-10  -1.0964128e-03   2.5540484e+00   2.3451801e+00  -6.6666266e+06
   8.2127376e-10  -1.0897627e-03   2.5534582e+00   2.3458518e+00  -6.6261827e+06
   8.2227409e-10  -1.0831530e-03   2.5528717e+00   2.3465195e+00  -6.5859853e+06
   8.2327442e-10  -1.0765834e-03   2.5522887e+00   2.3471833e+00  -6.5460330e+06
   8.2427476e-10  -1.0700537e-03   2.5517093e+00   2.3478431e+00  -6.5063243e+06
   8.2527509e-10  -1.0635636e-03   2.5511334e+00   2.3484990e+00  -6.4668577e+06
   8.2627543e-10  -1.0571129e-03   2.5505610e+00   2.3491509e+00  -6.4276317e+06
   8.2727576e-10  -1.0507013e-03   2.5499921e+00   2.3497990e+00  -6.3886448e+06
   8.2827609e-10  -1.0443286e-03   2.5494267e+00   2.3504433e+00  -6.3498956e+06
   8.2927643e-10  -1.0379947e-03   2.5488647e+00   2.3510837e+00  -6.3113826e+06
   8.3027676e-10  -1.0316991e-03   2.5483062e+00   2.3517203e+00  -6.2731044e+06
   8.3127709e-10  -1.0254417e-03   2.5477511e+00   2.3523531e+00  -6.2350594e+06
   8.3227743e-10  -1.0192224e-03   2.5471993e+00   2.3529822e+00  -6.1972464e+06
   8.3327776e-10  -1.0130407e-03   2.5466510e+00   2.3536075e+00  -6.1596638e+06
   8.3427809e-10  -1.0068966e-03   2.5461059e+00   2.3542291e+00  -6.1223103e+06
   8.3527843e-10  -1.0007897e-03   2.5455642e+00   2.3548470e+00  -6.0851845e+06
   8.3627876e-10  -9.9471988e-04   2.5450258e+00   2.3554612e+00  -6.0482849e+06
   8.3727909e-10  -9.8868688e-04   2.5444907e+00   2.3560718e+00  -6.0116101e+06
   8.3827943e-10  -9.8269049e-04   2.5439588e+00   2.3566787e+00  -5.9751589e+06
   8.3927976e-10  -9.7673047e-04   2.5434302e+00   2.3572820e+00  -5.9389297e+06
   8.4028009e-10  -9.7080661e-04   2.5429048e+00   2.3578817e+00  -5.9029214e+06
   8.4128043e-10  -9.6491869e-04   2.5423827e+00   2.3584778e+00  -5.8671324e+06
   8.4228076e-10  -9.5906648e-04   2.5418637e+00   2.3590704e+00  -5.8315615e+06
   8.4328109e-10  -9.5324978e-04   2.5413478e+00   2.3596595e+00  -5.7962073e+06
   8.4428143e-10  -9.4746835e-04   2.5408351e+00   2.3602451e+00  -5.7610685e+06
   8.4528176e-10  -9.4172199e-04   2.5403256e+00   2.3608271e+00  -5.7261438e+06
   8.4628209e-10  -9.3601049e-04   2.5398191e+00   2.3614057e+00  -5.6914318e+06
   8.4728243e-10  -9.3033363e-04   2.5393157e+00   2.3619809e+00  -5.6569313e+06
   8.4828276e-10  -9.2469121e-04   2.5388154e+00   2.3625526e+00  -5.6226409e+06
   8.4928309e-10  -9.1908300e-04   2.5383182e+00   2.3631209e+00  -5.5885594e+06
   8.5028343e-10  -9.1350881e-04   2.5378239e+00   2.3636858e+00  -5.5546855e+06
   8.5128376e-10  -9.0796842e-04   2.5373327e+00   2.3642474e+00  -5.5210179e+06
   8.5228409e-10  -9.0246164e-04   2.5368445e+00   2.3648056e+00  -5.4875554e+06
   8.5328443e-10  -8.9698825e-04   2.5363593e+00   2.3653605e+00  -5.4542966e+06
   8.5428476e-10  -8.9154805e-04   2.5358770e+00   2.3659121e+00  -5.4212404e+06
   8.5528510e-10  -8.8614085e-04   2.5353976e+00   2.3664604e+00  -5.3883854e+06
   8.5628543e-10  -8.8076643e-04   2.5349212e+00   2.3670054e+00  -5.3557306e+06
   8.5728576e-10  -8.7542461e-04   2.5344477e+00   2.3675472e+00  -5.3232745e+06
   8.5828610e-10  -8.7011518e-04   2.5339770e+00   2.3680857e+00  -5.2910161e+06
   8.5928643e-10  -8.6483794e-04   2.5335093e+00   2.3686210e+00  -5.2589541e+06
   8.6028676e-10  -8.5959270e-04   2.5330444e+00   2.3691531e+00  -5.2270872e+06
   8.6128710e-10  -8.5437926e-04   2.5325823e+00   2.3696821e+00  -5.1954144e+06
   8.6228743e-10  -8.4919744e-04   2.5321230e+00   2.3702079e+00  -5.1639344e+06
   8.6328776e-10  -8.4404703e-04   2.5316665e+00   2.3707306e+00  -5.1326459e+06
   8.6428810e-10  -8.3892786e-04   2.5312128e+00   2.3712501e+00  -5.1015480e+06
   8.6528843e-10  -8.3383971e-04   2.5307619e+00   2.3717665e+00  -5.0706393e+06
   8.6628876e-10  -8.2878242e-04   2.5303137e+00   2.3722799e+00  -5.0399187e+06
   8.6728910e-10  -8.2375579e-04   2.5298682e+00   2.3727902e+00  -5.0093851e+06
   8.6828943e-10  -8.1875963e-04   2.5294255e+00   2.3732975e+00  -4.9790374e+06
   8.6928976e-10  -8.1379376e-04   2.5289855e+00   2.3738017e+00  -4.9488742e+06
   8.7029010e-10  -8.0885799e-04   2.5285481e+00   2.3743029e+00  -4.9188947e+06
   8.7129043e-10  -8.0395215e-04   2.5281134e+00   2.3748011e+00  -4.8890975e+06
   8.7229076e-10  -7.9907604e-04   2.5276813e+00   2.3752963e+00  -4.8594817e+06
   8.7329110e-10  -7.9422949e-04   2.5272519e+00   2.3757886e+00  -4.8300460e+06
   8.7429143e-10  -7.8941233e-04   2.5268251e+00   2.3762780e+00  -4.8007894e+06
   8.7529176e-10  -7.8462436e-04   2.5264009e+00   2.3767644e+00  -4.7717108e+06
   8.7629210e-10  -7.7986541e-04   2.5259792e+00   2.3772479e+00  -4.7428091e+06
   8.7729243e-10  -7.7513531e-04   2.5255602e+00   2.3777285e+00  -4.7140832e+06
   8.7829276e-10  -7.7043388e-04   2.5251437e+00   2.3782063e+00  -4.6855320e+06
   8.7929310e-10  -7.6576094e-04   2.5247297e+00   2.3786812e+00  -4.6571545e+06
   8.8029343e-10  -7.6111633e-04   2.5243182e+00   2.3791533e+00  -4.6289495e+06
   8.8129376e-10  -7.5649987e-04   2.5239093e+00   2.3796225e+00  -4.6009161e+06
   8.8229410e-10  -7.5191139e-04   2.5235028e+00   2.3800890e+00  -4.5730532e+06
   8.8329443e-10  -7.4735071e-04   2.5230988e+00   2.3805526e+00  -4.5453596e+06
   8.8429476e-10  -7.4281768e-04   2.5226973e+00   2.3810135e+00  -4.5178345e+06
   8.8529510e-10  -7.3831212e-04   2.5222982e+00   2.3814716e+00  -4.4904768e+06
   8.8629543e-10  -7.3383386e-04   2.5219016e+00   2.3819270e+00  -4.4632853e+06
   8.8729577e-10  -7.2938275e-04   2.5215073e+00   2.3823797e+00  -4.4362592e+06
   8.8829610e-10  -7.2495860e-04   2.5211155e+00   2.3828296e+00  -4.4093974e+06
   8.8929643e-10  -7.2056127e-04   2.5207260e+00   2.3832769e+00  -4.3826988e+06
   8.9029677e-10  -7.1619059e-04   2.5203389e+00   2.3837215e+00  -4.3561626e+06
   8.9129710e-10  -7.1184639e-04   2.5199542e+00   2.3841634e+00  -4.3297876e+06
   8.9229743e-10  -7.0752851e-04   2.5195718e+00   2.3846027e+00  -4.3035729e+06
   8.9329777e-10  -7.0323680e-04   2.5191917e+00   2.3850394e+00  -4.2775176e+06
   8.9429810e-10  -6.9897109e-04   2.5188140e+00   2.3854735e+00  -4.2516206e+06
   8.9529843e-10  -6.9473123e-04   2.5184385e+00   2.3859049e+00  -4.2258810e+06
   8.9629877e-10  -6.9051706e-04   2.5180653e+00   2.3863338e+00  -4.2002977e+06
   8.9729910e-10  -6.8632843e-04   2.5176944e+00   2.3867601e+00  -4.1748700e+06
   8.9829943e-10  -6.8216517e-04   2.5173258e+00   2.3871839e+00  -4.1495967e+06
   8.9929977e-10  -6.7802714e-04   2.5169594e+00   2.3876051e+00  -4.1244769e+06
   9.0030010e-10  -6.7391418e-04   2.5165952e+00   2.3880238e+00  -4.0995098e+06
   9.0130043e-10  -6.6982614e-04   2.5162332e+00   2.3884400e+00  -4.0746943e+06
   9.0230077e-10  -6.6576287e-04   2.5158735e+00   2.3888537e+00  -4.0500296e+06
   9.0330110e-10  -6.6172421e-04   2.5155159e+00   2.3892649e+00  -4.0255147e+06
   9.0430143e-10  -6.5771002e-04   2.5151605e+00   2.3896737e+00  -4.0011487e+06
   9.0530177e-10  -6.5372015e-04   2.5148073e+00   2.3900800e+00  -3.9769306e+06
   9.0630210e-10  -6.4975446e-04   2.5144562e+00   2.3904839e+00  -3.9528597e+06
   9.0730243e-10  -6.4581278e-04   2.5141072e+00   2.3908854e+00  -3.9289349e+06
   9.0830277e-10  -6.4189499e-04   2.5137604e+00   2.3912845e+00  -3.9051554e+06
   9.0930310e-10  -6.3800093e-04   2.5134157e+00   2.3916812e+00  -3.8815203e+06
   9.1030343e-10  -6.3413046e-04   2.5130731e+00   2.3920755e+00  -3.8580286e+06
   9.1130377e-10  -6.3028343e-04   2.5127325e+00   2.3924674e+00  -3.8346796e+06
   9.1230410e-10  -6.2645971e-04   2.5123941e+00   2.3928570e+00  -3.8114724e+06
   9.1330443e-10  -6.2265916e-04   2.5120576e+00   2.3932443e+00  -3.7884060e+06
   9.1430477e-10  -6.1888162e-04   2.5117233e+00   2.3936293e+00  -3.7654797e+06
   9.1530510e-10  -6.1512697e-04   2.5113909e+00   2.3940119e+00  -3.7426925e+06
   9.1630544e-10  -6.1139506e-04   2.5110606e+00   2.3943923e+00  -3.7200436e+06
   9.1730577e-10  -6.0768575e-04   2.5107323e+00   2.3947703e+00  -3.6975322e+06
   9.1830610e-10  -6.0399891e-04   2.5104060e+00   2.3951461e+00  -3.6751573e+06
   9.1930644e-10  -6.0033441e-04   2.5100817e+00   2.3955197e+00  -3.6529183e+06
   9.2030677e-10  -5.9669210e-04   2.5097593e+00   2.3958910e+00  -3.6308142e+06
   9.2130710e-10  -5.9307185e-04   2.5094389e+00   2.3962601e+00  -3.6088443e+06
   9.2230744e-10  -5.8947353e-04   2.5091205e+00   2.3966270e+00  -3.5870076e+06
   9.2330777e-10  -5.8589700e-04   2.5088040e+00   2.3969917e+00  -3.5653034e+06
   9.2430810e-10  -5.8234214e-04   2.5084894e+00   2.3973542e+00  -3.5437309e+06
   9.2530844e-10  -5.7880881e-04   2.5081767e+00   2.3977145e+00  -3.5222893e+06
   9.2630877e-10  -5.7529687e-04   2.5078659e+00   2.3980727e+00  -3.5009777e+06
   9.2730910e-10  -5.7180621e-04   2.5075570e+00   2.3984287e+00  -3.4797954e+06
   9.2830944e-10  -5.6833668e-04   2.5072500e+00   2.3987826e+00  -3.4587416e+06
   9.2930977e-10  -5.6488817e-04   2.5069449e+00   2.3991344e+00  -3.4378154e+06
   9.3031010e-10  -5.6146055e-04   2.5066416e+00   2.3994840e+00  -3.4170162e+06
   9.3131044e-10  -5.5805368e-04   2.5063401e+00   2.3998316e+00  -3.3963431e+06
   9.3231077e-10  -5.5466745e-04   2.5060405e+00   2.4001771e+00  -3.3757953e+06
   9.3331110e-10  -5.5130172e-04   2.5057427e+00   2.4005205e+00  -3.3553722e+06
   9.3431144e-10  -5.4795638e-04   2.5054467e+00   2.4008618e+00  -3.3350729e+06
   9.3531177e-10  -5.4463130e-04   2.5051526e+00   2.4012011e+00  -3.3148966e+06
   9.3631210e-10  -5.4132635e-04   2.5048602e+00   2.4015384e+00  -3.2948427e+06
   9.3731244e-10  -5.3804142e-04   2.5045695e+00   2.4018736e+00  -3.2749103e+06
   9.3831277e-10  -5.3477638e-04   2.5042807e+00   2.4022069e+00  -3.2550988e+06
   9.3931310e-10  -5.3153111e-04   2.5039936e+00   2.4025381e+00  -3.2354073e+06
   9.4031344e-10  -5.2830550e-04   2.5037082e+00   2.4028674e+00  -3.2158352e+06
   9.4131377e-10  -5.2509942e-04   2.5034246e+00   2.4031946e+00  -3.1963818e+06
   9.4231410e-10  -5.2191275e-04   2.5031427e+00   2.4035200e+00  -3.1770462e+06
   9.4331444e-10  -5.1874538e-04   2.5028625e+00   2.4038433e+00  -3.1578278e+06
   9.4431477e-10  -5.1559720e-04   2.5025840e+00   2.4041647e+00  -3.1387258e+06
   9.4531511e-10  -5.1246807e-04   2.5023072e+00   2.4044842e+00  -3.1197396e+06
   9.4631544e-10  -5.0935790e-04   2.5020321e+00   2.4048018e+00  -3.1008685e+06
   9.4731577e-10  -5.0626655e-04   2.5017587e+00   2.4051175e+00  -3.0821117e+06
   9.4831611e-10  -5.0319393e-04   2.5014869e+00   2.4054313e+00  -3.0634685e+06
   9.4931644e-10  -5.0013991e-04   2.5012167e+00   2.4057432e+00  -3.0449383e+06
   9.5031677e-10  -4.9710439e-04   2.5009482e+00   2.4060532e+00  -3.0265203e+06
   9.5131711e-10  -4.9408724e-04   2.5006814e+00   2.4063613e+00  -3.0082139e+06
   9.5231744e-10  -4.9108837e-04   2.5004161e+00   2.4066677e+00  -2.9900183e+06
   9.5331777e-10  -4.8810766e-04   2.5001525e+00   2.4069721e+00  -2.9719330e+06
   9.5431811e-10  -4.8514499e-04   2.4998905e+00   2.4072748e+00  -2.9539572e+06
   9.5531844e-10  -4.8220026e-04   2.4996301e+00   2.4075756e+00  -2.9360903e+06
   9.5631877e-10  -4.7927337e-04   2.4993712e+00   2.4078746e+00  -2.9183316e+06
   9.5731911e-10  -4.7636419e-04   2.4991139e+00   2.4081719e+00  -2.9006804e+06
   9.5831944e-10  -4.7347263e-04   2.4988582e+00   2.4084673e+00  -2.8831361e+06
   9.5931977e-10  -4.7059858e-04   2.4986040e+00   2.4087610e+00  -2.8656980e+06
   9.6032011e-10  -4.6774194e-04   2.4983514e+00   2.4090529e+00  -2.8483655e+06
   9.6132044e-10  -4.6490259e-04   2.4981003e+00   2.4093430e+00  -2.8311379e+06
   9.6232077e-10  -4.6208043e-04   2.4978507e+00   2.4096315e+00  -2.8140146e+06
   9.6332111e-10  -4.5927536e-04   2.4976027e+00   2.4099181e+00  -2.7969950e+06
   9.6432144e-10  -4.5648727e-04   2.4973562e+00   2.4102031e+00  -2.7800784e+06
   9.6532177e-10  -4.5371607e-04   2.4971111e+00   2.4104864e+00  -2.7632642e+06
   9.6632211e-10  -4.5096164e-04   2.4968676e+00   2.4107679e+00  -2.7465518e+06
   9.6732244e-10  -4.4822390e-04   2.4966255e+00   2.4110478e+00  -2.7299405e+06
   9.6832277e-10  -4.4550273e-04   2.4963849e+00   2.4113259e+00  -2.7134298e+06
   9.6932311e-10  -4.4279803e-04   2.4961457e+00   2.4116025e+00  -2.6970190e+06
   9.7032344e-10  -4.4010971e-04   2.4959080e+00   2.4118773e+00  -2.6807075e+06
   9.7132377e-10  -4.3743767e-04   2.4956718e+00   2.4121505e+00  -2.6644947e+06
   9.7232411e-10  -4.3478181e-04   2.4954369e+00   2.4124220e+00  -2.6483800e+06
   9.7332444e-10  -4.3214203e-04   2.4952036e+00   2.4126920e+00  -2.6323628e+06
   9.7432477e-10  -4.2951823e-04   2.4949716e+00   2.4129603e+00  -2.6164425e+06
   9.7532511e-10  -4.2691032e-04   2.4947410e+00   2.4132270e+00  -2.6006185e+06
   9.7632544e-10  -4.2431820e-04   2.4945118e+00   2.4134920e+00  -2.5848903e+06
   9.7732578e-10  -4.2174178e-04   2.4942841e+00   2.4137555e+00  -2.5692572e+06
   9.7832611e-10  -4.1918095e-04   2.4940577e+00   2.4140174e+00  -2.5537186e+06
   9.7932644e-10  -4.1663563e-04   2.4938326e+00   2.4142778e+00  -2.5382741e+06
   9.8032678e-10  -4.1410572e-04   2.4936090e+00   2.4145366e+00  -2.5229230e+06
   9.8132711e-10  -4.1159113e-04   2.4933867e+00   2.4147938e+00  -2.5076647e+06
   9.8232744e-10  -4.0909177e-04   2.4931657e+00   2.4150494e+00  -2.4924987e+06
   9.8332778e-10  -4.0660753e-04   2.4929461e+00   2.4153036e+00  -2.4774244e+06
   9.8432811e-10  -4.0413834e-04   2.4927279e+00   2.4155562e+00  -2.4624413e+06
   9.8532844e-10  -4.0168410e-04   2.4925109e+00   2.4158073e+00  -2.4475488e+06
   9.8632878e-10  -3.9924472e-04   2.4922953e+00   2.4160569e+00  -2.4327463e+06
   9.8732911e-10  -3.9682011e-04   2.4920810e+00   2.4163049e+00  -2.4180334e+06
   9.8832944e-10  -3.9441018e-04   2.4918679e+00   2.4165515e+00  -2.4034094e+06
   9.8932978e-10  -3.9201485e-04   2.4916562e+00   2.4167966e+00  -2.3888738e+06
   9.9033011e-10  -3.8963401e-04   2.4914458e+00   2.4170403e+00  -2.3744261e+06
   9.9133044e-10  -3.8726759e-04   2.4912366e+00   2.4172824e+00  -2.3600658e+06
   9.9233078e-10  -3.8491550e-04   2.4910287e+00   2.4175231e+00  -2.3457922e+06
   9.9333111e-10  -3.8257766e-04   2.4908221e+00   2.4177624e+00  -2.3316050e+06
   9.9433144e-10  -3.8025396e-04   2.4906167e+00   2.4180002e+00  -2.3175035e+06
   9.9533178e-10  -3.7794434e-04   2.4904126e+00   2.4182366e+00  -2.3034872e+06
   9.9633211e-10  -3.7564870e-04   2.4902097e+00   2.4184716e+00  -2.2895557e+06
   9.9733244e-10  -3.7336697e-04   2.4900080e+00   2.4187051e+00  -2.2757083e+06
   9.9833278e-10  -3.7109905e-04   2.4898076e+00   2.4189373e+00  -2.2619447e+06
   9.9933311e-10  -3.6884486e-04   2.4896084e+00   2.4191681e+00  -2.2482642e+06
   1.0003334e-09  -3.6660432e-04   2.4894103e+00   2.4193974e+00  -2.2346664e+06
   1.0013338e-09  -3.6437735e-04   2.4892135e+00   2.4196254e+00  -2.2211508e+06
   1.0023341e-09  -3.6216386e-04   2.4890179e+00   2.4198520e+00  -2.2077169e+06
   1.0033344e-09  -3.5996378e-04   2.4888235e+00   2.4200773e+00  -2.1943641e+06
   1.0043348e-09  -3.5777701e-04   2.4886302e+00   2.4203012e+00  -2.1810920e+06
   1.0053351e-09  -3.5560349e-04   2.4884382e+00   2.4205237e+00  -2.1679001e+06
   1.0063354e-09  -3.5344313e-04   2.4882472e+00   2.4207449e+00  -2.1547879e+06
   1.0073358e-09  -3.5129586e-04   2.4880575e+00   2.4209648e+00  -2.1417550e+06
   1.0083361e-09  -3.4916158e-04   2.4878689e+00   2.4211834e+00  -2.1288007e+06
   1.0093364e-09  -3.4704023e-04   2.4876814e+00   2.4214006e+00  -2.1159248e+06
   1.0103368e-09  -3.4493172e-04   2.4874951e+00   2.4216166e+00  -2.1031266e+06
   1.0113371e-09  -3.4283599e-04   2.4873099e+00   2.4218312e+00  -2.0904057e+06
   1.0123374e-09  -3.4075294e-04   2.4871259e+00   2.4220446e+00  -2.0777616e+06
   1.0133378e-09  -3.3868251e-04   2.4869429e+00   2.4222566e+00  -2.0651940e+06
   1.0143381e-09  -3.3662462e-04   2.4867611e+00   2.4224674e+00  -2.0527022e+06
   1.0153384e-09  -3.3457918e-04   2.4865803e+00   2.4226769e+00  -2.0402859e+06
   1.0163388e-09  -3.3254614e-04   2.4864007e+00   2.4228852e+00  -2.0279446e+06
   1.0173391e-09  -3.3052540e-04   2.4862222e+00   2.4230922e+00  -2.0156778e+06
   1.0183394e-09  -3.2851691e-04   2.4860447e+00   2.4232979e+00  -2.0034851e+06
   1.0193398e-09  -3.2652058e-04   2.4858683e+00   2.4235024e+00  -1.9913661e+06
   1.0203401e-09  -3.2453633e-04   2.4856930e+00   2.4237057e+00  -1.9793202e+06
   1.0213404e-09  -3.2256410e-04   2.4855188e+00   2.4239078e+00  -1.9673471e+06
   1.0223408e-09  -3.2060382e-04   2.4853456e+00   2.4241086e+00  -1.9554462e+06
   1.0233411e-09  -3.1865541e-04   2.4851734e+00   2.4243083e+00  -1.9436173e+06
   1.0243414e-09  -3.1671880e-04   2.4850023e+00   2.4245067e+00  -1.9318597e+06
   1.0253418e-09  -3.1479392e-04   2.4848323e+00   2.4247039e+00  -1.9201732e+06
   1.0263421e-09  -3.1288069e-04   2.4846632e+00   2.4249000e+00  -1.9085572e+06
   1.0273424e-09  -3.1097905e-04   2.4844952e+00   2.4250949e+00  -1.8970113e+06
   1.0283428e-09  -3.0908893e-04   2.4843282e+00   2.4252885e+00  -1.8855352e+06
   1.0293431e-09  -3.0721026e-04   2.4841623e+00   2.4254811e+00  -1.8741283e+06
   1.0303434e-09  -3.0534297e-04   2.4839973e+00   2.4256724e+00  -1.8627903e+06
   1.0313438e-09  -3.0348698e-04   2.4838334e+00   2.4258627e+00  -1.8515207e+06
   1.0323441e-09  -3.0164224e-04   2.4836704e+00   2.4260517e+00  -1.8403192e+06
   1.0333444e-09  -2.9980867e-04   2.4835084e+00   2.4262397e+00  -1.8291853e+06
   1.0343448e-09  -2.9798620e-04   2.4833474e+00   2.4264265e+00  -1.8181186e+06
   1.0353451e-09  -2.9617477e-04   2.4831874e+00   2.4266121e+00  -1.8071187e+06
   1.0363454e-09  -2.9437432e-04   2.4830284e+00   2.4267967e+00  -1.7961852e+06
   1.0373458e-09  -2.9258477e-04   2.4828703e+00   2.4269801e+00  -1.7853177e+06
   1.0383461e-09  -2.9080606e-04   2.4827132e+00   2.4271625e+00  -1.7745158e+06
   1.0393464e-09  -2.8903812e-04   2.4825570e+00   2.4273437e+00  -1.7637791e+06
   1.0403468e-09  -2.8728090e-04   2.4824018e+00   2.4275239e+00  -1.7531072e+06
   1.0413471e-09  -2.8553431e-04   2.4822475e+00   2.4277029e+00  -1.7424997e+06
   1.0423474e-09  -2.8379831e-04   2.4820941e+00   2.4278809e+00  -1.7319562e+06
   1.0433478e-09  -2.8207282e-04   2.4819417e+00   2.4280578e+00  -1.7214764e+06
   1.0443481e-09  -2.8035779e-04   2.4817903e+00   2.4282336e+00  -1.7110598e+06
   1.0453484e-09  -2.7865314e-04   2.4816397e+00   2.4284084e+00  -1.7007061e+06
   1.0463488e-09  -2.7695882e-04   2.4814900e+00   2.4285822e+00  -1.6904148e+06
   1.0473491e-09  -2.7527477e-04   2.4813413e+00   2.4287548e+00  -1.6801857e+06
   1.0483494e-09  -2.7360091e-04   2.4811934e+00   2.4289265e+00  -1.6700182e+06
   1.0493498e-09  -2.7193720e-04   2.4810465e+00   2.4290971e+00  -1.6599122e+06
   1.0503501e-09  -2.7028356e-04   2.4809004e+00   2.4292667e+00  -1.6498671e+06
   1.0513505e-09  -2.6863995e-04   2.4807553e+00   2.4294352e+00  -1.6398826e+06
   1.0523508e-09  -2.6700629e-04   2.4806110e+00   2.4296028e+00  -1.6299584e+06
   1.0533511e-09  -2.6538253e-04   2.4804676e+00   2.4297693e+00  -1.6200940e+06
   1.0543515e-09  -2.6376860e-04   2.4803250e+00   2.4299348e+00  -1.6102892e+06
   1.0553518e-09  -2.6216446e-04   2.4801834e+00   2.4300993e+00  -1.6005436e+06
   1.0563521e-09  -2.6057003e-04   2.4800426e+00   2.4302629e+00  -1.5908567e+06
   1.0573525e-09  -2.5898526e-04   2.4799026e+00   2.4304254e+00  -1.5812283e+06
   1.0583528e-09  -2.5741010e-04   2.4797635e+00   2.4305870e+00  -1.5716579e+06
   1.0593531e-09  -2.5584447e-04   2.4796252e+00   2.4307476e+00  -1.5621454e+06
   1.0603535e-09  -2.5428834e-04   2.4794878e+00   2.4309072e+00  -1.5526902e+06
   1.0613538e-09  -2.5274163e-04   2.4793512e+00   2.4310659e+00  -1.5432920e+06
   1.0623541e-09  -2.5120430e-04   2.4792154e+00   2.4312236e+00  -1.5339506e+06
   1.0633545e-09  -2.4967628e-04   2.4790805e+00   2.4313803e+00  -1.5246655e+06
   1.0643548e-09  -2.4815752e-04   2.4789464e+00   2.4315361e+00  -1.5154364e+06
   1.0653551e-09  -2.4664796e-04   2.4788131e+00   2.4316910e+00  -1.5062630e+06
   1.0663555e-09  -2.4514755e-04   2.4786806e+00   2.4318449e+00  -1.4971450e+06
   1.0673558e-09  -2.4365623e-04   2.4785489e+00   2.4319979e+00  -1.4880819e+06
   1.0683561e-09  -2.4217395e-04   2.4784180e+00   2.4321500e+00  -1.4790735e+06
   1.0693565e-09  -2.4070065e-04   2.4782879e+00   2.4323012e+00  -1.4701195e+06
   1.0703568e-09  -2.3923628e-04   2.4781586e+00   2.4324514e+00  -1.4612195e+06
   1.0713571e-09  -2.3778078e-04   2.4780300e+00   2.4326008e+00  -1.4523732e+06
   1.0723575e-09  -2.3633410e-04   2.4779023e+00   2.4327492e+00  -1.4435802e+06
   1.0733578e-09  -2.3489620e-04   2.4777753e+00   2.4328968e+00  -1.4348403e+06
   1.0743581e-09  -2.3346700e-04   2.4776491e+00   2.4330434e+00  -1.4261531e+06
   1.0753585e-09  -2.3204647e-04   2.4775237e+00   2.4331892e+00  -1.4175183e+06
   1.0763588e-09  -2.3063455e-04   2.4773990e+00   2.4333341e+00  -1.4089356e+06
   1.0773591e-09  -2.2923118e-04   2.4772751e+00   2.4334781e+00  -1.4004046e+06
   1.0783595e-09  -2.2783632e-04   2.4771519e+00   2.4336213e+00  -1.3919251e+06
   1.0793598e-09  -2.2644991e-04   2.4770295e+00   2.4337635e+00  -1.3834968e+06
   1.0803601e-09  -2.2507191e-04   2.4769079e+00   2.4339050e+00  -1.3751193e+06
   1.0813605e-09  -2.2370226e-04   2.4767869e+00   2.4340455e+00  -1.3667923e+06
   1.0823608e-09  -2.2234091e-04   2.4766667e+00   2.4341853e+00  -1.3585156e+06
   1.0833611e-09  -2.2098782e-04   2.4765473e+00   2.4343241e+00  -1.3502888e+06
   1.0843615e-09  -2.1964292e-04   2.4764285e+00   2.4344622e+00  -1.3421116e+06
   1.0853618e-09  -2.1830618e-04   2.4763105e+00   2.4345994e+00  -1.3339837e+06
   1.0863621e-09  -2.1697754e-04   2.4761932e+00   2.4347358e+00  -1.3259049e+06
   1.0873625e-09  -2.1565696e-04   2.4760766e+00   2.4348713e+00  -1.3178748e+06
   1.0883628e-09  -2.1434438e-04   2.4759607e+00   2.4350061e+00  -1.3098931e+06
   1.0893631e-09  -2.1303975e-04   2.4758455e+00   2.4351400e+00  -1.3019596e+06
   1.0903635e-09  -2.1174304e-04   2.4757310e+00   2.4352731e+00  -1.2940739e+06
   1.0913638e-09  -2.1045419e-04   2.4756172e+00   2.4354054e+00  -1.2862358e+06
   1.0923641e-09  -2.0917315e-04   2.4755041e+00   2.4355369e+00  -1.2784449e+06
   1.0933645e-09  -2.0789988e-04   2.4753917e+00   2.4356676e+00  -1.2707011e+06
   1.0943648e-09  -2.0663433e-04   2.4752800e+00   2.4357976e+00  -1.2630040e+06
   1.0953651e-09  -2.0537645e-04   2.4751689e+00   2.4359267e+00  -1.2553532e+06
   1.0963655e-09  -2.0412619e-04   2.4750586e+00   2.4360551e+00  -1.2477487e+06
   1.0973658e-09  -2.0288352e-04   2.4749489e+00   2.4361826e+00  -1.2401900e+06
   1.0983661e-09  -2.0164838e-04   2.4748398e+00   2.4363095e+00  -1.2326769e+06
   1.0993665e-09  -2.0042074e-04   2.4747314e+00   2.4364355e+00  -1.2252091e+06
   1.1003668e-09  -1.9920053e-04   2.4746237e+00   2.4365608e+00  -1.2177863e+06
   1.1013671e-09  -1.9798773e-04   2.4745166e+00   2.4366853e+00  -1.2104084e+06
   1.1023675e-09  -1.9678228e-04   2.4744102e+00   2.4368091e+00  -1.2030749e+06
   1.1033678e-09  -1.9558413e-04   2.4743045e+00   2.4369321e+00  -1.1957856e+06
   1.1043681e-09  -1.9439326e-04   2.4741993e+00   2.4370544e+00  -1.1885404e+06
   1.1053685e-09  -1.9320961e-04   2.4740948e+00   2.4371760e+00  -1.1813388e+06
   1.1063688e-09  -1.9203313e-04   2.4739910e+00   2.4372968e+00  -1.1741807e+06
   1.1073691e-09  -1.9086379e-04   2.4738878e+00   2.4374169e+00  -1.1670657e+06
   1.1083695e-09  -1.8970154e-04   2.4737852e+00   2.4375362e+00  -1.1599937e+06
   1.1093698e-09  -1.8854634e-04   2.4736832e+00   2.4376549e+00  -1.1529643e+06
   1.1103701e-09  -1.8739814e-04   2.4735818e+00   2.4377728e+00  -1.1459773e+06
   1.1113705e-09  -1.8625691e-04   2.4734811e+00   2.4378900e+00  -1.1390325e+06
   1.1123708e-09  -1.8512261e-04   2.4733810e+00   2.4380065e+00  -1.1321295e+06
   1.1133711e-09  -1.8399518e-04   2.4732814e+00   2.4381223e+00  -1.1252682e+06
   1.1143715e-09  -1.8287459e-04   2.4731825e+00   2.4382374e+00  -1.1184483e+06
   1.1153718e-09  -1.8176079e-04   2.4730842e+00   2.4383518e+00  -1.1116695e+06
   1.1163721e-09  -1.8065376e-04   2.4729865e+00   2.4384655e+00  -1.1049316e+06
   1.1173725e-09  -1.7955343e-04   2.4728894e+00   2.4385785e+00  -1.0982344e+06
   1.1183728e-09  -1.7845979e-04   2.4727928e+00   2.4386908e+00  -1.0915775e+06
   1.1193731e-09  -1.7737277e-04   2.4726969e+00   2.4388025e+00  -1.0849608e+06
   1.1203735e-09  -1.7629235e-04   2.4726015e+00   2.4389134e+00  -1.0783841e+06
   1.1213738e-09  -1.7521849e-04   2.4725067e+00   2.4390238e+00  -1.0718469e+06
   1.1223741e-09  -1.7415114e-04   2.4724125e+00   2.4391334e+00  -1.0653493e+06
   1.1233745e-09  -1.7309026e-04   2.4723189e+00   2.4392424e+00  -1.0588908e+06
   1.1243748e-09  -1.7203583e-04   2.4722258e+00   2.4393507e+00  -1.0524713e+06
   1.1253751e-09  -1.7098778e-04   2.4721333e+00   2.4394584e+00  -1.0460905e+06
   1.1263755e-09  -1.6994610e-04   2.4720414e+00   2.4395654e+00  -1.0397482e+06
   1.1273758e-09  -1.6891074e-04   2.4719500e+00   2.4396717e+00  -1.0334442e+06
   1.1283761e-09  -1.6788166e-04   2.4718592e+00   2.4397775e+00  -1.0271782e+06
   1.1293765e-09  -1.6685882e-04   2.4717689e+00   2.4398825e+00  -1.0209500e+06
   1.1303768e-09  -1.6584219e-04   2.4716791e+00   2.4399870e+00  -1.0147594e+06
   1.1313771e-09  -1.6483173e-04   2.4715900e+00   2.4400908e+00  -1.0086061e+06
   1.1323775e-09  -1.6382740e-04   2.4715013e+00   2.4401940e+00  -1.0024900e+06
   1.1333778e-09  -1.6282917e-04   2.4714132e+00   2.4402965e+00  -9.9641075e+05
   1.1343781e-09  -1.6183699e-04   2.4713256e+00   2.4403985e+00  -9.9036818e+05
   1.1353785e-09  -1.6085083e-04   2.4712386e+00   2.4404998e+00  -9.8436207e+05
   1.1363788e-09  -1.5987066e-04   2.4711521e+00   2.4406005e+00  -9.7839220e+05
   1.1373791e-09  -1.5889644e-04   2.4710661e+00   2.4407006e+00  -9.7245835e+05
   1.1383795e-09  -1.5792813e-04   2.4709807e+00   2.4408001e+00  -9.6656031e+05
   1.1393798e-09  -1.5696569e-04   2.4708957e+00   2.4408990e+00  -9.6069785e+05
   1.1403801e-09  -1.5600910e-04   2.4708113e+00   2.4409973e+00  -9.5487076e+05
   1.1413805e-09  -1.5505832e-04   2.4707274e+00   2.4410950e+00  -9.4907884e+05
   1.1423808e-09  -1.5411330e-04   2.4706440e+00   2.4411921e+00  -9.4332186e+05
   1.1433811e-09  -1.5317402e-04   2.4705611e+00   2.4412886e+00  -9.3759963e+05
   1.1443815e-09  -1.5224044e-04   2.4704787e+00   2.4413846e+00  -9.3191192e+05
   1.1453818e-09  -1.5131253e-04   2.4703968e+00   2.4414799e+00  -9.2625854e+05
   1.1463821e-09  -1.5039025e-04   2.4703154e+00   2.4415747e+00  -9.2063927e+05
   1.1473825e-09  -1.4947357e-04   2.4702345e+00   2.4416689e+00  -9.1505391e+05
   1.1483828e-09  -1.4856246e-04   2.4701541e+00   2.4417626e+00  -9.0950226e+05
   1.1493831e-09  -1.4765687e-04   2.4700742e+00   2.4418556e+00  -9.0398411e+05
   1.1503835e-09  -1.4675679e-04   2.4699948e+00   2.4419481e+00  -8.9849927e+05
   1.1513838e-09  -1.4586216e-04   2.4699158e+00   2.4420401e+00  -8.9304753e+05
   1.1523841e-09  -1.4497297e-04   2.4698373e+00   2.4421315e+00  -8.8762868e+05
   1.1533845e-09  -1.4408918e-04   2.4697593e+00   2.4422223e+00  -8.8224255e+05
   1.1543848e-09  -1.4321075e-04   2.4696818e+00   2.4423126e+00  -8.7688892e+05
   1.1553851e-09  -1.4233766e-04   2.4696048e+00   2.4424023e+00  -8.7156761e+05
   1.1563855e-09  -1.4146987e-04   2.4695282e+00   2.4424915e+00  -8.6627841e+05
   1.1573858e-09  -1.4060735e-04   2.4694521e+00   2.4425802e+00  -8.6102114e+05
   1.1583861e-09  -1.3975006e-04   2.4693764e+00   2.4426683e+00  -8.5579560e+05
   1.1593865e-09  -1.3889798e-04   2.4693012e+00   2.4427558e+00  -8.5060160e+05
   1.1603868e-09  -1.3805108e-04   2.4692265e+00   2.4428429e+00  -8.4543896e+05
   1.1613871e-09  -1.3720931e-04   2.4691522e+00   2.4429294e+00  -8.4030748e+05
   1.1623875e-09  -1.3637266e-04   2.4690784e+00   2.4430154e+00  -8.3520697e+05
   1.1633878e-09  -1.3554109e-04   2.4690050e+00   2.4431009e+00  -8.3013726e+05
   1.1643881e-09  -1.3471457e-04   2.4689321e+00   2.4431859e+00  -8.2509815e+05
   1.1653885e-09  -1.3389307e-04   2.4688596e+00   2.4432703e+00  -8.2008946e+05
   1.1663888e-09  -1.3307656e-04   2.4687875e+00   2.4433542e+00  -8.1511101e+05
   1.1673891e-09  -1.3226501e-04   2.4687159e+00   2.4434377e+00  -8.1016262e+05
   1.1683895e-09  -1.3145839e-04   2.4686447e+00   2.4435206e+00  -8.0524410e+05
   1.1693898e-09  -1.3065667e-04   2.4685740e+00   2.4436030e+00  -8.0035528e+05
   1.1703901e-09  -1.2985982e-04   2.4685037e+00   2.4436849e+00  -7.9549598e+05
   1.1713905e-09  -1.2906780e-04   2.4684338e+00   2.4437663e+00  -7.9066601e+05
   1.1723908e-09  -1.2828060e-04   2.4683643e+00   2.4438473e+00  -7.8586521e+05
   1.1733911e-09  -1.2749818e-04   2.4682953e+00   2.4439277e+00  -7.8109340e+05
   1.1743915e-09  -1.2672051e-04   2.4682267e+00   2.4440077e+00  -7.7635040e+05
   1.1753918e-09  -1.2594757e-04   2.4681585e+00   2.4440871e+00  -7.7163605e+05
   1.1763921e-09  -1.2517932e-04   2.4680907e+00   2.4441661e+00  -7.6695016e+05
   1.1773925e-09  -1.2441574e-04   2.4680233e+00   2.4442446e+00  -7.6229257e+05
   1.1783928e-09  -1.2365680e-04   2.4679564e+00   2.4443227e+00  -7.5766310e+05
   1.1793931e-09  -1.2290247e-04   2.4678898e+00   2.4444002e+00  -7.5306160e+05
   1.1803935e-09  -1.2215273e-04   2.4678236e+00   2.4444773e+00  -7.4848788e+05
   1.1813938e-09  -1.2140754e-04   2.4677579e+00   2.4445539e+00  -7.4394179e+05
   1.1823941e-09  -1.2066687e-04   2.4676925e+00   2.4446301e+00  -7.3942315e+05
   1.1833945e-09  -1.1993071e-04   2.4676276e+00   2.4447058e+00  -7.3493181e+05
   1.1843948e-09  -1.1919902e-04   2.4675630e+00   2.4447810e+00  -7.3046759e+05
   1.1853951e-09  -1.1847178e-04   2.4674989e+00   2.4448558e+00  -7.2603034e+05
   1.1863955e-09  -1.1774895e-04   2.4674351e+00   2.4449301e+00  -7.2161989e+05
   1.1873958e-09  -1.1703052e-04   2.4673717e+00   2.4450040e+00  -7.1723608e+05
   1.1883961e-09  -1.1631646e-04   2.4673087e+00   2.4450774e+00  -7.1287876e+05
   1.1893965e-09  -1.1560673e-04   2.4672461e+00   2.4451504e+00  -7.0854775e+05
   1.1903968e-09  -1.1490132e-04   2.4671838e+00   2.4452229e+00  -7.0424291e+05
   1.1913971e-09  -1.1420019e-04   2.4671220e+00   2.4452950e+00  -6.9996408e+05
   1.1923975e-09  -1.1350333e-04   2.4670605e+00   2.4453667e+00  -6.9571110e+05
   1.1933978e-09  -1.1281070e-04   2.4669994e+00   2.4454379e+00  -6.9148381e+05
   1.1943981e-09  -1.1212228e-04   2.4669386e+00   2.4455087e+00  -6.8728206e+05
   1.1953985e-09  -1.1143805e-04   2.4668783e+00   2.4455790e+00  -6.8310570e+05
   1.1963988e-09  -1.1075797e-04   2.4668183e+00   2.4456490e+00  -6.7895458e+05
   1.1973991e-09  -1.1008203e-04   2.4667586e+00   2.4457185e+00  -6.7482853e+05
   1.1983995e-09  -1.0941020e-04   2.4666993e+00   2.4457876e+00  -6.7072742e+05
   1.1993998e-09  -1.0874245e-04   2.4666404e+00   2.4458563e+00  -6.6665109e+05
   1.2004001e-09  -1.0807876e-04   2.4665819e+00   2.4459245e+00  -6.6259940e+05
   1.2014005e-09  -1.0741910e-04   2.4665237e+00   2.4459924e+00  -6.5857219e+05
   1.2024008e-09  -1.0676346e-04   2.4664658e+00   2.4460598e+00  -6.5456931e+05
   1.2034011e-09  -1.0611180e-04   2.4664083e+00   2.4461268e+00  -6.5059063e+05
   1.2044015e-09  -1.0546411e-04   2.4663512e+00   2.4461934e+00  -6.4663600e+05
   1.2054018e-09  -1.0482035e-04   2.4662944e+00   2.4462596e+00  -6.4270526e+05
   1.2064021e-09  -1.0418050e-04   2.4662380e+00   2.4463254e+00  -6.3879829e+05
   1.2074025e-09  -1.0354455e-04   2.4661818e+00   2.4463908e+00  -6.3491493e+05
   1.2084028e-09  -1.0291247e-04   2.4661261e+00   2.4464559e+00  -6.3105504e+05
   1.2094031e-09  -1.0228422e-04   2.4660707e+00   2.4465205e+00  -6.2721849e+05
   1.2104035e-09  -1.0165980e-04   2.4660156e+00   2.4465847e+00  -6.2340512e+05
   1.2114038e-09  -1.0103917e-04   2.4659608e+00   2.4466485e+00  -6.1961481e+05
   1.2124041e-09  -1.0042232e-04   2.4659064e+00   2.4467120e+00  -6.1584742e+05
   1.2134045e-09  -9.9809223e-05   2.4658523e+00   2.4467750e+00  -6.1210279e+05
   1.2144048e-09  -9.9199851e-05   2.4657985e+00   2.4468377e+00  -6.0838081e+05
   1.2154051e-09  -9.8594186e-05   2.4657451e+00   2.4469000e+00  -6.0468134e+05
   1.2164055e-09  -9.7992204e-05   2.4656920e+00   2.4469619e+00  -6.0100422e+05
   1.2174058e-09  -9.7393883e-05   2.4656392e+00   2.4470235e+00  -5.9734935e+05
   1.2184061e-09  -9.6799202e-05   2.4655868e+00   2.4470846e+00  -5.9371657e+05
   1.2194065e-09  -9.6208138e-05   2.4655346e+00   2.4471454e+00  -5.9010576e+05
   1.2204068e-09  -9.5620669e-05   2.4654828e+00   2.4472059e+00  -5.8651678e+05
   1.2214071e-09  -9.5036773e-05   2.4654313e+00   2.4472659e+00  -5.8294951e+05
   1.2224075e-09  -9.4456429e-05   2.4653801e+00   2.4473256e+00  -5.7940381e+05
   1.2234078e-09  -9.3879616e-05   2.4653292e+00   2.4473850e+00  -5.7587956e+05
   1.2244081e-09  -9.3306311e-05   2.4652786e+00   2.4474439e+00  -5.7237662e+05
   1.2254085e-09  -9.2736494e-05   2.4652284e+00   2.4475026e+00  -5.6889486e+05
   1.2264088e-09  -9.2170144e-05   2.4651784e+00   2.4475608e+00  -5.6543417e+05
   1.2274091e-09  -9.1607239e-05   2.4651287e+00   2.4476187e+00  -5.6199440e+05
   1.2284095e-09  -9.1047759e-05   2.4650794e+00   2.4476763e+00  -5.5857545e+05
   1.2294098e-09  -9.0491683e-05   2.4650303e+00   2.4477335e+00  -5.5517717e+05
   1.2304101e-09  -8.9938991e-05   2.4649816e+00   2.4477903e+00  -5.5179945e+05
   1.2314105e-09  -8.9389661e-05   2.4649331e+00   2.4478469e+00  -5.4844217e+05
   1.2324108e-09  -8.8843673e-05   2.4648849e+00   2.4479030e+00  -5.4510519e+05
   1.2334111e-09  -8.8301008e-05   2.4648371e+00   2.4479589e+00  -5.4178841e+05
   1.2344115e-09  -8.7761645e-05   2.4647895e+00   2.4480143e+00  -5.3849169e+05
   1.2354118e-09  -8.7225565e-05   2.4647422e+00   2.4480695e+00  -5.3521492e+05
   1.2364121e-09  -8.6692746e-05   2.4646952e+00   2.4481243e+00  -5.3195797e+05
   1.2374125e-09  -8.6163170e-05   2.4646485e+00   2.4481788e+00  -5.2872073e+05
   1.2384128e-09  -8.5636817e-05   2.4646021e+00   2.4482329e+00  -5.2550308e+05
   1.2394131e-09  -8.5113667e-05   2.4645559e+00   2.4482868e+00  -5.2230490e+05
   1.2404135e-09  -8.4593701e-05   2.4645100e+00   2.4483403e+00  -5.1912608e+05
   1.2414138e-09  -8.4076900e-05   2.4644645e+00   2.4483934e+00  -5.1596649e+05
   1.2424141e-09  -8.3563244e-05   2.4644191e+00   2.4484463e+00  -5.1282603e+05
   1.2434145e-09  -8.3052715e-05   2.4643741e+00   2.4484988e+00  -5.0970457e+05
   1.2444148e-09  -8.2545293e-05   2.4643293e+00   2.4485510e+00  -5.0660200e+05
   1.2454151e-09  -8.2040960e-05   2.4642849e+00   2.4486029e+00  -5.0351821e+05
   1.2464155e-09  -8.1539697e-05   2.4642406e+00   2.4486545e+00  -5.0045309e+05
   1.2474158e-09  -8.1041485e-05   2.4641967e+00   2.4487057e+00  -4.9740653e+05
   1.2484161e-09  -8.0546306e-05   2.4641530e+00   2.4487567e+00  -4.9437840e+05
   1.2494165e-09  -8.0054142e-05   2.4641096e+00   2.4488073e+00  -4.9136861e+05
   1.2504168e-09  -7.9564973e-05   2.4640665e+00   2.4488577e+00  -4.8837703e+05
   1.2514171e-09  -7.9078783e-05   2.4640236e+00   2.4489077e+00  -4.8540357e+05
   1.2524175e-09  -7.8595553e-05   2.4639809e+00   2.4489574e+00  -4.8244811e+05
   1.2534178e-09  -7.8115265e-05   2.4639386e+00   2.4490068e+00  -4.7951055e+05
   1.2544181e-09  -7.7637901e-05   2.4638965e+00   2.4490560e+00  -4.7659077e+05
   1.2554185e-09  -7.7163444e-05   2.4638546e+00   2.4491048e+00  -4.7368867e+05
   1.2564188e-09  -7.6691875e-05   2.4638130e+00   2.4491533e+00  -4.7080414e+05
   1.2574191e-09  -7.6223178e-05   2.4637717e+00   2.4492015e+00  -4.6793708e+05
   1.2584195e-09  -7.5757335e-05   2.4637306e+00   2.4492495e+00  -4.6508739e+05
   1.2594198e-09  -7.5294329e-05   2.4636897e+00   2.4492971e+00  -4.6225495e+05
   1.2604201e-09  -7.4834142e-05   2.4636492e+00   2.4493445e+00  -4.5943967e+05
   1.2614205e-09  -7.4376758e-05   2.4636088e+00   2.4493915e+00  -4.5664143e+05
   1.2624208e-09  -7.3922159e-05   2.4635687e+00   2.4494383e+00  -4.5386015e+05
   1.2634211e-09  -7.3470329e-05   2.4635289e+00   2.4494848e+00  -4.5109571e+05
   1.2644215e-09  -7.3021250e-05   2.4634892e+00   2.4495310e+00  -4.4834801e+05
   1.2654218e-09  -7.2574907e-05   2.4634499e+00   2.4495769e+00  -4.4561696e+05
   1.2664221e-09  -7.2131282e-05   2.4634107e+00   2.4496226e+00  -4.4290246e+05
   1.2674225e-09  -7.1690359e-05   2.4633719e+00   2.4496680e+00  -4.4020440e+05
   1.2684228e-09  -7.1252122e-05   2.4633332e+00   2.4497131e+00  -4.3752268e+05
   1.2694231e-09  -7.0816554e-05   2.4632948e+00   2.4497579e+00  -4.3485721e+05
   1.2704235e-09  -7.0383639e-05   2.4632566e+00   2.4498024e+00  -4.3220789e+05
   1.2714238e-09  -6.9953361e-05   2.4632186e+00   2.4498467e+00  -4.2957463e+05
   1.2724241e-09  -6.9525705e-05   2.4631809e+00   2.4498907e+00  -4.2695731e+05
   1.2734245e-09  -6.9100654e-05   2.4631434e+00   2.4499345e+00  -4.2435586e+05
   1.2744248e-09  -6.8678192e-05   2.4631062e+00   2.4499779e+00  -4.2177017e+05
   1.2754251e-09  -6.8258304e-05   2.4630691e+00   2.4500212e+00  -4.1920015e+05
   1.2764255e-09  -6.7840974e-05   2.4630323e+00   2.4500641e+00  -4.1664571e+05
   1.2774258e-09  -6.7426186e-05   2.4629957e+00   2.4501068e+00  -4.1410675e+05
   1.2784261e-09  -6.7013926e-05   2.4629594e+00   2.4501492e+00  -4.1158317e+05
   1.2794265e-09  -6.6604178e-05   2.4629232e+00   2.4501914e+00  -4.0907489e+05
   1.2804268e-09  -6.6196926e-05   2.4628873e+00   2.4502333e+00  -4.0658182e+05
   1.2814271e-09  -6.5792156e-05   2.4628516e+00   2.4502750e+00  -4.0410385e+05
   1.2824275e-09  -6.5389852e-05   2.4628161e+00   2.4503164e+00  -4.0164091e+05
   1.2834278e-09  -6.4990000e-05   2.4627809e+00   2.4503575e+00  -3.9919289e+05
   1.2844281e-09  -6.4592584e-05   2.4627458e+00   2.4503984e+00  -3.9675972e+05
   1.2854285e-09  -6.4197590e-05   2.4627110e+00   2.4504391e+00  -3.9434130e+05
   1.2864288e-09  -6.3805003e-05   2.4626763e+00   2.4504795e+00  -3.9193754e+05
   1.2874291e-09  -6.3414809e-05   2.4626419e+00   2.4505196e+00  -3.8954835e+05
   1.2884295e-09  -6.3026993e-05   2.4626077e+00   2.4505596e+00  -3.8717365e+05
   1.2894298e-09  -6.2641540e-05   2.4625737e+00   2.4505992e+00  -3.8481335e+05
   1.2904301e-09  -6.2258437e-05   2.4625399e+00   2.4506387e+00  -3.8246736e+05
   1.2914305e-09  -6.1877668e-05   2.4625064e+00   2.4506778e+00  -3.8013560e+05
   1.2924308e-09  -6.1499221e-05   2.4624730e+00   2.4507168e+00  -3.7781798e+05
   1.2934311e-09  -6.1123080e-05   2.4624398e+00   2.4507555e+00  -3.7551441e+05
   1.2944315e-09  -6.0749232e-05   2.4624068e+00   2.4507940e+00  -3.7322481e+05
   1.2954318e-09  -6.0377662e-05   2.4623741e+00   2.4508322e+00  -3.7094910e+05
   1.2964321e-09  -6.0008358e-05   2.4623415e+00   2.4508702e+00  -3.6868719e+05
   1.2974325e-09  -5.9641305e-05   2.4623091e+00   2.4509080e+00  -3.6643900e+05
   1.2984328e-09  -5.9276490e-05   2.4622769e+00   2.4509456e+00  -3.6420445e+05
   1.2994331e-09  -5.8913898e-05   2.4622450e+00   2.4509829e+00  -3.6198346e+05
   1.3004335e-09  -5.8553518e-05   2.4622132e+00   2.4510200e+00  -3.5977593e+05
   1.3014338e-09  -5.8195334e-05   2.4621816e+00   2.4510569e+00  -3.5758180e+05
   1.3024341e-09  -5.7839334e-05   2.4621502e+00   2.4510935e+00  -3.5540098e+05
   1.3034345e-09  -5.7485505e-05   2.4621190e+00   2.4511299e+00  -3.5323339e+05
   1.3044348e-09  -5.7133833e-05   2.4620880e+00   2.4511661e+00  -3.5107895e+05
   1.3054351e-09  -5.6784305e-05   2.4620571e+00   2.4512021e+00  -3.4893759e+05
   1.3064355e-09  -5.6436908e-05   2.4620265e+00   2.4512379e+00  -3.4680921e+05
   1.3074358e-09  -5.6091630e-05   2.4619960e+00   2.4512734e+00  -3.4469376e+05
   1.3084361e-09  -5.5748458e-05   2.4619658e+00   2.4513087e+00  -3.4259114e+05
   1.3094365e-09  -5.5407377e-05   2.4619357e+00   2.4513438e+00  -3.4050128e+05
   1.3104368e-09  -5.5068377e-05   2.4619058e+00   2.4513787e+00  -3.3842410e+05
   1.3114371e-09  -5.4731445e-05   2.4618761e+00   2.4514134e+00  -3.3635953e+05
   1.3124375e-09  -5.4396567e-05   2.4618466e+00   2.4514479e+00  -3.3430749e+05
   1.3134378e-09  -5.4063731e-05   2.4618172e+00   2.4514821e+00  -3.3226790e+05
   1.3144381e-09  -5.3732925e-05   2.4617880e+00   2.4515162e+00  -3.3024069e+05
   1.3154385e-09  -5.3404137e-05   2.4617590e+00   2.4515500e+00  -3.2822579e+05
   1.3164388e-09  -5.3077354e-05   2.4617302e+00   2.4515837e+00  -3.2622312e+05
   1.3174391e-09  -5.2752564e-05   2.4617016e+00   2.4516171e+00  -3.2423261e+05
   1.3184395e-09  -5.2429756e-05   2.4616731e+00   2.4516504e+00  -3.2225418e+05
   1.3194398e-09  -5.2108916e-05   2.4616448e+00   2.4516834e+00  -3.2028777e+05
   1.3204401e-09  -5.1790034e-05   2.4616167e+00   2.4517162e+00  -3.1833329e+05
   1.3214405e-09  -5.1473096e-05   2.4615887e+00   2.4517488e+00  -3.1639067e+05
   1.3224408e-09  -5.1158093e-05   2.4615609e+00   2.4517813e+00  -3.1445986e+05
   1.3234411e-09  -5.0845010e-05   2.4615333e+00   2.4518135e+00  -3.1254077e+05
   1.3244415e-09  -5.0533838e-05   2.4615059e+00   2.4518455e+00  -3.1063333e+05
   1.3254418e-09  -5.0224564e-05   2.4614786e+00   2.4518774e+00  -3.0873747e+05
   1.3264421e-09  -4.9917177e-05   2.4614515e+00   2.4519090e+00  -3.0685313e+05
   1.3274425e-09  -4.9611665e-05   2.4614246e+00   2.4519405e+00  -3.0498023e+05
   1.3284428e-09  -4.9308017e-05   2.4613978e+00   2.4519717e+00  -3.0311870e+05
   1.3294431e-09  -4.9006222e-05   2.4613712e+00   2.4520028e+00  -3.0126849e+05
   1.3304435e-09  -4.8706268e-05   2.4613447e+00   2.4520337e+00  -2.9942951e+05
   1.3314438e-09  -4.8408145e-05   2.4613184e+00   2.4520644e+00  -2.9760169e+05
   1.3324441e-09  -4.8111840e-05   2.4612923e+00   2.4520949e+00  -2.9578499e+05
   1.3334445e-09  -4.7817344e-05   2.4612663e+00   2.4521252e+00  -2.9397932e+05
   1.3344448e-09  -4.7524644e-05   2.4612405e+00   2.4521553e+00  -2.9218461e+05
   1.3354451e-09  -4.7233731e-05   2.4612148e+00   2.4521853e+00  -2.9040081e+05
   1.3364455e-09  -4.6944593e-05   2.4611894e+00   2.4522150e+00  -2.8862785e+05
   1.3374458e-09  -4.6657220e-05   2.4611640e+00   2.4522446e+00  -2.8686566e+05
   1.3384461e-09  -4.6371600e-05   2.4611388e+00   2.4522740e+00  -2.8511418e+05
   1.3394465e-09  -4.6087724e-05   2.4611138e+00   2.4523032e+00  -2.8337333e+05
   1.3404468e-09  -4.5805580e-05   2.4610889e+00   2.4523323e+00  -2.8164307e+05
   1.3414471e-09  -4.5525158e-05   2.4610642e+00   2.4523612e+00  -2.7992332e+05
   1.3424475e-09  -4.5246447e-05   2.4610396e+00   2.4523899e+00  -2.7821402e+05
   1.3434478e-09  -4.4969438e-05   2.4610152e+00   2.4524184e+00  -2.7651511e+05
   1.3444481e-09  -4.4694120e-05   2.4609909e+00   2.4524467e+00  -2.7482653e+05
   1.3454485e-09  -4.4420482e-05   2.4609668e+00   2.4524749e+00  -2.7314820e+05
   1.3464488e-09  -4.4148514e-05   2.4609428e+00   2.4525029e+00  -2.7148008e+05
   1.3474491e-09  -4.3878206e-05   2.4609189e+00   2.4525307e+00  -2.6982209e+05
   1.3484495e-09  -4.3609549e-05   2.4608952e+00   2.4525584e+00  -2.6817419e+05
   1.3494498e-09  -4.3342532e-05   2.4608717e+00   2.4525859e+00  -2.6653630e+05
   1.3504502e-09  -4.3077144e-05   2.4608483e+00   2.4526132e+00  -2.6490837e+05
   1.3514505e-09  -4.2813377e-05   2.4608250e+00   2.4526404e+00  -2.6329033e+05
   1.3524508e-09  -4.2551220e-05   2.4608019e+00   2.4526674e+00  -2.6168213e+05
   1.3534512e-09  -4.2290664e-05   2.4607789e+00   2.4526942e+00  -2.6008371e+05
   1.3544515e-09  -4.2031698e-05   2.4607561e+00   2.4527208e+00  -2.5849500e+05
   1.3554518e-09  -4.1774314e-05   2.4607334e+00   2.4527473e+00  -2.5691596e+05
   1.3564522e-09  -4.1518501e-05   2.4607108e+00   2.4527737e+00  -2.5534651e+05
   1.3574525e-09  -4.1264250e-05   2.4606884e+00   2.4527999e+00  -2.5378661e+05
   1.3584528e-09  -4.1011551e-05   2.4606661e+00   2.4528259e+00  -2.5223619e+05
   1.3594532e-09  -4.0760396e-05   2.4606440e+00   2.4528517e+00  -2.5069521e+05
   1.3604535e-09  -4.0510774e-05   2.4606220e+00   2.4528774e+00  -2.4916359e+05
   1.3614538e-09  -4.0262676e-05   2.4606001e+00   2.4529030e+00  -2.4764129e+05
   1.3624542e-09  -4.0016094e-05   2.4605783e+00   2.4529284e+00  -2.4612825e+05
   1.3634545e-09  -3.9771017e-05   2.4605567e+00   2.4529536e+00  -2.4462440e+05
   1.3644548e-09  -3.9527437e-05   2.4605353e+00   2.4529787e+00  -2.4312971e+05
   1.3654552e-09  -3.9285345e-05   2.4605139e+00   2.4530036e+00  -2.4164411e+05
   1.3664555e-09  -3.9044731e-05   2.4604927e+00   2.4530284e+00  -2.4016754e+05
   1.3674558e-09  -3.8805586e-05   2.4604716e+00   2.4530530e+00  -2.3869996e+05
   1.3684562e-09  -3.8567902e-05   2.4604506e+00   2.4530775e+00  -2.3724130e+05
   1.3694565e-09  -3.8331670e-05   2.4604298e+00   2.4531018e+00  -2.3579152e+05
   1.3704568e-09  -3.8096881e-05   2.4604091e+00   2.4531260e+00  -2.3435056e+05
   1.3714572e-09  -3.7863526e-05   2.4603885e+00   2.4531500e+00  -2.3291836e+05
   1.3724575e-09  -3.7631596e-05   2.4603681e+00   2.4531739e+00  -2.3149488e+05
   1.3734578e-09  -3.7401083e-05   2.4603477e+00   2.4531976e+00  -2.3008006e+05
   1.3744582e-09  -3.7171978e-05   2.4603275e+00   2.4532212e+00  -2.2867385e+05
   1.3754585e-09  -3.6944272e-05   2.4603075e+00   2.4532447e+00  -2.2727619e+05
   1.3764588e-09  -3.6717958e-05   2.4602875e+00   2.4532680e+00  -2.2588704e+05
   1.3774592e-09  -3.6493026e-05   2.4602677e+00   2.4532911e+00  -2.2450634e+05
   1.3784595e-09  -3.6269468e-05   2.4602480e+00   2.4533141e+00  -2.2313405e+05
   1.3794598e-09  -3.6047276e-05   2.4602284e+00   2.4533370e+00  -2.2177011e+05
   1.3804602e-09  -3.5826441e-05   2.4602089e+00   2.4533598e+00  -2.2041447e+05
   1.3814605e-09  -3.5606956e-05   2.4601895e+00   2.4533824e+00  -2.1906708e+05
   1.3824608e-09  -3.5388811e-05   2.4601703e+00   2.4534048e+00  -2.1772789e+05
   1.3834612e-09  -3.5172000e-05   2.4601512e+00   2.4534272e+00  -2.1639685e+05
   1.3844615e-09  -3.4956513e-05   2.4601322e+00   2.4534493e+00  -2.1507391e+05
   1.3854618e-09  -3.4742342e-05   2.4601133e+00   2.4534714e+00  -2.1375903e+05
   1.3864622e-09  -3.4529481e-05   2.4600945e+00   2.4534933e+00  -2.1245215e+05
   1.3874625e-09  -3.4317920e-05   2.4600759e+00   2.4535151e+00  -2.1115323e+05
   1.3884628e-09  -3.4107652e-05   2.4600573e+00   2.4535368e+00  -2.0986222e+05
   1.3894632e-09  -3.3898668e-05   2.4600389e+00   2.4535583e+00  -2.0857906e+05
   1.3904635e-09  -3.3690962e-05   2.4600206e+00   2.4535797e+00  -2.0730372e+05
   1.3914638e-09  -3.3484525e-05   2.4600024e+00   2.4536009e+00  -2.0603615e+05
   1.3924642e-09  -3.3279350e-05   2.4599843e+00   2.4536221e+00  -2.0477629e+05
   1.3934645e-09  -3.3075428e-05   2.4599663e+00   2.4536431e+00  -2.0352410e+05
   1.3944648e-09  -3.2872753e-05   2.4599484e+00   2.4536639e+00  -2.0227954e+05
   1.3954652e-09  -3.2671316e-05   2.4599307e+00   2.4536847e+00  -2.0104256e+05
   1.3964655e-09  -3.2471111e-05   2.4599130e+00   2.4537053e+00  -1.9981311e+05
   1.3974658e-09  -3.2272129e-05   2.4598955e+00   2.4537258e+00  -1.9859115e+05
   1.3984662e-09  -3.2074364e-05   2.4598780e+00   2.4537461e+00  -1.9737663e+05
   1.3994665e-09  -3.1877807e-05   2.4598607e+00   2.4537664e+00  -1.9616951e+05
   1.4004668e-09  -3.1682451e-05   2.4598435e+00   2.4537865e+00  -1.9496974e+05
   1.4014672e-09  -3.1488290e-05   2.4598263e+00   2.4538065e+00  -1.9377727e+05
   1.4024675e-09  -3.1295316e-05   2.4598093e+00   2.4538264e+00  -1.9259208e+05
   1.4034678e-09  -3.1103521e-05   2.4597924e+00   2.4538461e+00  -1.9141410e+05
   1.4044682e-09  -3.0912898e-05   2.4597756e+00   2.4538657e+00  -1.9024329e+05
   1.4054685e-09  -3.0723441e-05   2.4597589e+00   2.4538853e+00  -1.8907962e+05
   1.4064688e-09  -3.0535142e-05   2.4597423e+00   2.4539046e+00  -1.8792304e+05
   1.4074692e-09  -3.0347994e-05   2.4597258e+00   2.4539239e+00  -1.8677351e+05
   1.4084695e-09  -3.0161991e-05   2.4597094e+00   2.4539431e+00  -1.8563098e+05
   1.4094698e-09  -2.9977124e-05   2.4596931e+00   2.4539621e+00  -1.8449541e+05
   1.4104702e-09  -2.9793388e-05   2.4596769e+00   2.4539810e+00  -1.8336676e+05
   1.4114705e-09  -2.9610775e-05   2.4596608e+00   2.4539998e+00  -1.8224499e+05
   1.4124708e-09  -2.9429278e-05   2.4596448e+00   2.4540185e+00  -1.8113005e+05
   1.4134712e-09  -2.9248892e-05   2.4596289e+00   2.4540371e+00  -1.8002191e+05
   1.4144715e-09  -2.9069608e-05   2.4596131e+00   2.4540556e+00  -1.7892052e+05
   1.4154718e-09  -2.8891420e-05   2.4595973e+00   2.4540739e+00  -1.7782584e+05
   1.4164722e-09  -2.8714322e-05   2.4595817e+00   2.4540922e+00  -1.7673783e+05
   1.4174725e-09  -2.8538307e-05   2.4595662e+00   2.4541103e+00  -1.7565646e+05
   1.4184728e-09  -2.8363368e-05   2.4595508e+00   2.4541283e+00  -1.7458167e+05
   1.4194732e-09  -2.8189499e-05   2.4595355e+00   2.4541462e+00  -1.7351344e+05
   1.4204735e-09  -2.8016693e-05   2.4595202e+00   2.4541640e+00  -1.7245172e+05
   1.4214738e-09  -2.7844944e-05   2.4595051e+00   2.4541817e+00  -1.7139647e+05
   1.4224742e-09  -2.7674246e-05   2.4594900e+00   2.4541993e+00  -1.7034765e+05
   1.4234745e-09  -2.7504591e-05   2.4594751e+00   2.4542167e+00  -1.6930522e+05
   1.4244748e-09  -2.7335974e-05   2.4594602e+00   2.4542341e+00  -1.6826915e+05
   1.4254752e-09  -2.7168388e-05   2.4594454e+00   2.4542514e+00  -1.6723940e+05
   1.4264755e-09  -2.7001826e-05   2.4594307e+00   2.4542685e+00  -1.6621593e+05
   1.4274758e-09  -2.6836284e-05   2.4594161e+00   2.4542856e+00  -1.6519869e+05
   1.4284762e-09  -2.6671754e-05   2.4594016e+00   2.4543025e+00  -1.6418766e+05
   1.4294765e-09  -2.6508231e-05   2.4593872e+00   2.4543194e+00  -1.6318279e+05
   1.4304768e-09  -2.6345707e-05   2.4593729e+00   2.4543361e+00  -1.6218405e+05
   1.4314772e-09  -2.6184178e-05   2.4593586e+00   2.4543527e+00  -1.6119140e+05
   1.4324775e-09  -2.6023637e-05   2.4593445e+00   2.4543693e+00  -1.6020480e+05
   1.4334778e-09  -2.5864078e-05   2.4593304e+00   2.4543857e+00  -1.5922422e+05
   1.4344782e-09  -2.5705495e-05   2.4593164e+00   2.4544020e+00  -1.5824962e+05
   1.4354785e-09  -2.5547882e-05   2.4593025e+00   2.4544183e+00  -1.5728096e+05
   1.4364788e-09  -2.5391233e-05   2.4592887e+00   2.4544344e+00  -1.5631821e+05
   1.4374792e-09  -2.5235542e-05   2.4592750e+00   2.4544504e+00  -1.5536133e+05
   1.4384795e-09  -2.5080804e-05   2.4592613e+00   2.4544664e+00  -1.5441029e+05
   1.4394798e-09  -2.4927013e-05   2.4592478e+00   2.4544822e+00  -1.5346505e+05
   1.4404802e-09  -2.4774162e-05   2.4592343e+00   2.4544979e+00  -1.5252557e+05
   1.4414805e-09  -2.4622247e-05   2.4592209e+00   2.4545136e+00  -1.5159183e+05
   1.4424808e-09  -2.4471261e-05   2.4592076e+00   2.4545291e+00  -1.5066378e+05
   1.4434812e-09  -2.4321199e-05   2.4591944e+00   2.4545446e+00  -1.4974139e+05
   1.4444815e-09  -2.4172054e-05   2.4591812e+00   2.4545600e+00  -1.4882463e+05
   1.4454818e-09  -2.4023823e-05   2.4591681e+00   2.4545752e+00  -1.4791347e+05
   1.4464822e-09  -2.3876498e-05   2.4591551e+00   2.4545904e+00  -1.4700786e+05
   1.4474825e-09  -2.3730075e-05   2.4591422e+00   2.4546055e+00  -1.4610777e+05
   1.4484828e-09  -2.3584548e-05   2.4591294e+00   2.4546205e+00  -1.4521318e+05
   1.4494832e-09  -2.3439911e-05   2.4591167e+00   2.4546354e+00  -1.4432405e+05
   1.4504835e-09  -2.3296160e-05   2.4591040e+00   2.4546502e+00  -1.4344034e+05
   1.4514838e-09  -2.3153288e-05   2.4590914e+00   2.4546649e+00  -1.4256203e+05
   1.4524842e-09  -2.3011290e-05   2.4590789e+00   2.4546795e+00  -1.4168907e+05
   1.4534845e-09  -2.2870161e-05   2.4590664e+00   2.4546940e+00  -1.4082144e+05
   1.4544848e-09  -2.2729896e-05   2.4590540e+00   2.4547085e+00  -1.3995911e+05
   1.4554852e-09  -2.2590490e-05   2.4590418e+00   2.4547228e+00  -1.3910204e+05
   1.4564855e-09  -2.2451936e-05   2.4590295e+00   2.4547371e+00  -1.3825020e+05
   1.4574858e-09  -2.2314231e-05   2.4590174e+00   2.4547513e+00  -1.3740355e+05
   1.4584862e-09  -2.2177368e-05   2.4590053e+00   2.4547654e+00  -1.3656208e+05
   1.4594865e-09  -2.2041343e-05   2.4589933e+00   2.4547794e+00  -1.3572574e+05
   1.4604868e-09  -2.1906150e-05   2.4589814e+00   2.4547933e+00  -1.3489451e+05
   1.4614872e-09  -2.1771785e-05   2.4589696e+00   2.4548072e+00  -1.3406835e+05
   1.4624875e-09  -2.1638243e-05   2.4589578e+00   2.4548209e+00  -1.3324723e+05
