   0.0000000e+00  -1.1823350e-01   6.3749936e+00   6.4389726e-04  -5.2199417e+08
   6.6688896e-13  -1.1788570e-01   6.3747323e+00   6.6153469e-04  -5.2106839e+08
   1.3337779e-12  -1.1753851e-01   6.3744676e+00   6.7962224e-04  -5.2014260e+08
   2.0006669e-12  -1.1719195e-01   6.3741997e+00   6.9817043e-04  -5.1921680e+08
   2.6675559e-12  -1.1684600e-01   6.3739284e+00   7.1719000e-04  -5.1829099e+08
   3.3344448e-12  -1.1650066e-01   6.3736538e+00   7.3669192e-04  -5.1736517e+08
   4.0013338e-12  -1.1615595e-01   6.3733758e+00   7.5668738e-04  -5.1643933e+08
   4.6682227e-12  -1.1581185e-01   6.3730943e+00   7.7718779e-04  -5.1551349e+08
   5.3351117e-12  -1.1546837e-01   6.3728094e+00   7.9820483e-04  -5.1458763e+08
   6.0020007e-12  -1.1512551e-01   6.3725209e+00   8.1975037e-04  -5.1366177e+08
   6.6688896e-12  -1.1478326e-01   6.3722289e+00   8.4183656e-04  -5.1273590e+08
   7.3357786e-12  -1.1444164e-01   6.3719333e+00   8.6447578e-04  -5.1181001e+08
   8.0026676e-12  -1.1410063e-01   6.3716341e+00   8.8768067e-04  -5.1088412e+08
   8.6695565e-12  -1.1376023e-01   6.3713312e+00   9.1146412e-04  -5.0995822e+08
   9.3364455e-12  -1.1342046e-01   6.3710246e+00   9.3583929e-04  -5.0903231e+08
   1.0003334e-11  -1.1308130e-01   6.3707143e+00   9.6081958e-04  -5.0810640e+08
   1.0670223e-11  -1.1274276e-01   6.3704002e+00   9.8641868e-04  -5.0718048e+08
   1.1337112e-11  -1.1240484e-01   6.3700823e+00   1.0126505e-03  -5.0625455e+08
   1.2004001e-11  -1.1206753e-01   6.3697605e+00   1.0395294e-03  -5.0532861e+08
   1.2670890e-11  -1.1173085e-01   6.3694348e+00   1.0670698e-03  -5.0440267e+08
   1.3337779e-11  -1.1139478e-01   6.3691051e+00   1.0952865e-03  -5.0347672e+08
   1.4004668e-11  -1.1105932e-01   6.3687715e+00   1.1241946e-03  -5.0255077e+08
   1.4671557e-11  -1.1072449e-01   6.3684339e+00   1.1538096e-03  -5.0162482e+08
   1.5338446e-11  -1.1039027e-01   6.3680921e+00   1.1841470e-03  -5.0069886e+08
   1.6005335e-11  -1.1005667e-01   6.3677463e+00   1.2152229e-03  -4.9977289e+08
   1.6672224e-11  -1.0972369e-01   6.3673963e+00   1.2470535e-03  -4.9884693e+08
   1.7339113e-11  -1.0939132e-01   6.3670421e+00   1.2796556e-03  -4.9792096e+08
   1.8006002e-11  -1.0905957e-01   6.3666837e+00   1.3130461e-03  -4.9699498e+08
   1.8672891e-11  -1.0872844e-01   6.3663210e+00   1.3472422e-03  -4.9606901e+08
   1.9339780e-11  -1.0839793e-01   6.3659540e+00   1.3822614e-03  -4.9514304e+08
   2.0006669e-11  -1.0806804e-01   6.3655826e+00   1.4181219e-03  -4.9421706e+08
   2.0673558e-11  -1.0773876e-01   6.3652068e+00   1.4548417e-03  -4.9329109e+08
   2.1340447e-11  -1.0741010e-01   6.3648265e+00   1.4924396e-03  -4.9236511e+08
   2.2007336e-11  -1.0708206e-01   6.3644417e+00   1.5309344e-03  -4.9143914e+08
   2.2674225e-11  -1.0675463e-01   6.3640523e+00   1.5703456e-03  -4.9051317e+08
   2.3341114e-11  -1.0642782e-01   6.3636584e+00   1.6106927e-03  -4.8958720e+08
   2.4008003e-11  -1.0610163e-01   6.3632598e+00   1.6519960e-03  -4.8866124e+08
   2.4674892e-11  -1.0577606e-01   6.3628565e+00   1.6942757e-03  -4.8773528e+08
   2.5341781e-11  -1.0545111e-01   6.3624485e+00   1.7375526e-03  -4.8680932e+08
   2.6008670e-11  -1.0512677e-01   6.3620356e+00   1.7818480e-03  -4.8588337e+08
   2.6675559e-11  -1.0480305e-01   6.3616180e+00   1.8271835e-03  -4.8495742e+08
   2.7342447e-11  -1.0447995e-01   6.3611954e+00   1.8735809e-03  -4.8403148e+08
   2.8009336e-11  -1.0415746e-01   6.3607679e+00   1.9210627e-03  -4.8310555e+08
   2.8676225e-11  -1.0383559e-01   6.3603354e+00   1.9696516e-03  -4.8217963e+08
   2.9343114e-11  -1.0351434e-01   6.3598979e+00   2.0193708e-03  -4.8125371e+08
   3.0010003e-11  -1.0319371e-01   6.3594553e+00   2.0702439e-03  -4.8032781e+08
   3.0676892e-11  -1.0287370e-01   6.3590076e+00   2.1222950e-03  -4.7940191e+08
   3.1343781e-11  -1.0255430e-01   6.3585547e+00   2.1755484e-03  -4.7847603e+08
   3.2010670e-11  -1.0223552e-01   6.3580965e+00   2.2300291e-03  -4.7755016e+08
   3.2677559e-11  -1.0191736e-01   6.3576330e+00   2.2857623e-03  -4.7662430e+08
   3.3344448e-11  -1.0159981e-01   6.3571642e+00   2.3427739e-03  -4.7569845e+08
   3.4011337e-11  -1.0128288e-01   6.3566900e+00   2.4010901e-03  -4.7477262e+08
   3.4678226e-11  -1.0096657e-01   6.3562104e+00   2.4607375e-03  -4.7384681e+08
   3.5345115e-11  -1.0065088e-01   6.3557252e+00   2.5217433e-03  -4.7292101e+08
   3.6012004e-11  -1.0033581e-01   6.3552345e+00   2.5841351e-03  -4.7199523e+08
   3.6678893e-11  -1.0002135e-01   6.3547382e+00   2.6479410e-03  -4.7106946e+08
   3.7345782e-11  -9.9707507e-02   6.3542362e+00   2.7131896e-03  -4.7014372e+08
   3.8012671e-11  -9.9394284e-02   6.3537284e+00   2.7799099e-03  -4.6921799e+08
   3.8679560e-11  -9.9081678e-02   6.3532149e+00   2.8481315e-03  -4.6829229e+08
   3.9346449e-11  -9.8769689e-02   6.3526956e+00   2.9178845e-03  -4.6736661e+08
   4.0013338e-11  -9.8458318e-02   6.3521704e+00   2.9891994e-03  -4.6644095e+08
   4.0680227e-11  -9.8147564e-02   6.3516392e+00   3.0621072e-03  -4.6551532e+08
   4.1347116e-11  -9.7837427e-02   6.3511020e+00   3.1366397e-03  -4.6458971e+08
   4.2014005e-11  -9.7527908e-02   6.3505587e+00   3.2128289e-03  -4.6366413e+08
   4.2680894e-11  -9.7219005e-02   6.3500093e+00   3.2907075e-03  -4.6273857e+08
   4.3347783e-11  -9.6910720e-02   6.3494538e+00   3.3703086e-03  -4.6181304e+08
   4.4014672e-11  -9.6603053e-02   6.3488919e+00   3.4516661e-03  -4.6088755e+08
   4.4681561e-11  -9.6296002e-02   6.3483238e+00   3.5348142e-03  -4.5996208e+08
   4.5348449e-11  -9.5989569e-02   6.3477493e+00   3.6197878e-03  -4.5903665e+08
   4.6015338e-11  -9.5683752e-02   6.3471684e+00   3.7066222e-03  -4.5811125e+08
   4.6682227e-11  -9.5378553e-02   6.3465811e+00   3.7953536e-03  -4.5718588e+08
   4.7349116e-11  -9.5073971e-02   6.3459871e+00   3.8860184e-03  -4.5626055e+08
   4.8016005e-11  -9.4770006e-02   6.3453866e+00   3.9786538e-03  -4.5533526e+08
   4.8682894e-11  -9.4466658e-02   6.3447794e+00   4.0732975e-03  -4.5441000e+08
   4.9349783e-11  -9.4163927e-02   6.3441654e+00   4.1699879e-03  -4.5348479e+08
   5.0016672e-11  -9.3861813e-02   6.3435447e+00   4.2687640e-03  -4.5255962e+08
   5.0683561e-11  -9.3560316e-02   6.3429170e+00   4.3696652e-03  -4.5163448e+08
   5.1350450e-11  -9.3259436e-02   6.3422825e+00   4.4727318e-03  -4.5070940e+08
   5.2017339e-11  -9.2959173e-02   6.3416410e+00   4.5780046e-03  -4.4978435e+08
   5.2684228e-11  -9.2659527e-02   6.3409924e+00   4.6855249e-03  -4.4885936e+08
   5.3351117e-11  -9.2360498e-02   6.3403367e+00   4.7953349e-03  -4.4793441e+08
   5.4018006e-11  -9.2062085e-02   6.3396738e+00   4.9074772e-03  -4.4700951e+08
   5.4684895e-11  -9.1764290e-02   6.3390036e+00   5.0219951e-03  -4.4608466e+08
   5.5351784e-11  -9.1467111e-02   6.3383262e+00   5.1389328e-03  -4.4515987e+08
   5.6018673e-11  -9.1170548e-02   6.3376413e+00   5.2583348e-03  -4.4423513e+08
   5.6685562e-11  -9.0874603e-02   6.3369490e+00   5.3802466e-03  -4.4331044e+08
   5.7352451e-11  -9.0579274e-02   6.3362491e+00   5.5047140e-03  -4.4238582e+08
   5.8019340e-11  -9.0284561e-02   6.3355417e+00   5.6317838e-03  -4.4146125e+08
   5.8686229e-11  -8.9990466e-02   6.3348266e+00   5.7615035e-03  -4.4053674e+08
   5.9353118e-11  -8.9696986e-02   6.3341037e+00   5.8939209e-03  -4.3961229e+08
   6.0020007e-11  -8.9404123e-02   6.3333731e+00   6.0290850e-03  -4.3868791e+08
   6.0686896e-11  -8.9111877e-02   6.3326345e+00   6.1670453e-03  -4.3776360e+08
   6.1353785e-11  -8.8820247e-02   6.3318880e+00   6.3078518e-03  -4.3683935e+08
   6.2020674e-11  -8.8529234e-02   6.3311335e+00   6.4515555e-03  -4.3591517e+08
   6.2687563e-11  -8.8238836e-02   6.3303709e+00   6.5982081e-03  -4.3499106e+08
   6.3354451e-11  -8.7949055e-02   6.3296002e+00   6.7478619e-03  -4.3406702e+08
   6.4021340e-11  -8.7659890e-02   6.3288212e+00   6.9005700e-03  -4.3314306e+08
   6.4688229e-11  -8.7371341e-02   6.3280339e+00   7.0563863e-03  -4.3221918e+08
   6.5355118e-11  -8.7083409e-02   6.3272381e+00   7.2153653e-03  -4.3129537e+08
   6.6022007e-11  -8.6796092e-02   6.3264340e+00   7.3775625e-03  -4.3037165e+08
   6.6688896e-11  -8.6509392e-02   6.3256213e+00   7.5430339e-03  -4.2944801e+08
   6.7355785e-11  -8.6223307e-02   6.3248000e+00   7.7118364e-03  -4.2852445e+08
   6.8022674e-11  -8.5937838e-02   6.3239699e+00   7.8840276e-03  -4.2760098e+08
   6.8689563e-11  -8.5652985e-02   6.3231312e+00   8.0596660e-03  -4.2667759e+08
   6.9356452e-11  -8.5368748e-02   6.3222836e+00   8.2388107e-03  -4.2575430e+08
   7.0023341e-11  -8.5085127e-02   6.3214270e+00   8.4215219e-03  -4.2483110e+08
   7.0690230e-11  -8.4802121e-02   6.3205615e+00   8.6078602e-03  -4.2390799e+08
   7.1357119e-11  -8.4519730e-02   6.3196869e+00   8.7978873e-03  -4.2298499e+08
   7.2024008e-11  -8.4237956e-02   6.3188031e+00   8.9916656e-03  -4.2206208e+08
   7.2690897e-11  -8.3956796e-02   6.3179101e+00   9.1892582e-03  -4.2113927e+08
   7.3357786e-11  -8.3676252e-02   6.3170077e+00   9.3907292e-03  -4.2021657e+08
   7.4024675e-11  -8.3396324e-02   6.3160960e+00   9.5961435e-03  -4.1929397e+08
   7.4691564e-11  -8.3117010e-02   6.3151748e+00   9.8055666e-03  -4.1837148e+08
   7.5358453e-11  -8.2838312e-02   6.3142441e+00   1.0019065e-02  -4.1744911e+08
   7.6025342e-11  -8.2560229e-02   6.3133036e+00   1.0236706e-02  -4.1652684e+08
   7.6692231e-11  -8.2282760e-02   6.3123535e+00   1.0458559e-02  -4.1560469e+08
   7.7359120e-11  -8.2005907e-02   6.3113936e+00   1.0684691e-02  -4.1468266e+08
   7.8026009e-11  -8.1729669e-02   6.3104238e+00   1.0915173e-02  -4.1376075e+08
   7.8692898e-11  -8.1454045e-02   6.3094440e+00   1.1150075e-02  -4.1283897e+08
   7.9359787e-11  -8.1179036e-02   6.3084541e+00   1.1389469e-02  -4.1191731e+08
   8.0026676e-11  -8.0904642e-02   6.3074541e+00   1.1633428e-02  -4.1099577e+08
   8.0693565e-11  -8.0630862e-02   6.3064439e+00   1.1882025e-02  -4.1007437e+08
   8.1360453e-11  -8.0357696e-02   6.3054234e+00   1.2135333e-02  -4.0915310e+08
   8.2027342e-11  -8.0085145e-02   6.3043925e+00   1.2393429e-02  -4.0823197e+08
   8.2694231e-11  -7.9813208e-02   6.3033510e+00   1.2656387e-02  -4.0731098e+08
   8.3361120e-11  -7.9541885e-02   6.3022991e+00   1.2924285e-02  -4.0639013e+08
   8.4028009e-11  -7.9271177e-02   6.3012364e+00   1.3197200e-02  -4.0546942e+08
   8.4694898e-11  -7.9001082e-02   6.3001630e+00   1.3475211e-02  -4.0454886e+08
   8.5361787e-11  -7.8731601e-02   6.2990788e+00   1.3758397e-02  -4.0362845e+08
   8.6028676e-11  -7.8462734e-02   6.2979837e+00   1.4046839e-02  -4.0270820e+08
   8.6695565e-11  -7.8194480e-02   6.2968775e+00   1.4340618e-02  -4.0178810e+08
   8.7362454e-11  -7.7926840e-02   6.2957603e+00   1.4639816e-02  -4.0086816e+08
   8.8029343e-11  -7.7659814e-02   6.2946318e+00   1.4944516e-02  -3.9994838e+08
   8.8696232e-11  -7.7393401e-02   6.2934921e+00   1.5254801e-02  -3.9902876e+08
   8.9363121e-11  -7.7127601e-02   6.2923410e+00   1.5570757e-02  -3.9810932e+08
   9.0030010e-11  -7.6862414e-02   6.2911784e+00   1.5892470e-02  -3.9719004e+08
   9.0696899e-11  -7.6597840e-02   6.2900043e+00   1.6220025e-02  -3.9627094e+08
   9.1363788e-11  -7.6333879e-02   6.2888186e+00   1.6553511e-02  -3.9535202e+08
   9.2030677e-11  -7.6070531e-02   6.2876211e+00   1.6893016e-02  -3.9443328e+08
   9.2697566e-11  -7.5807795e-02   6.2864118e+00   1.7238629e-02  -3.9351472e+08
   9.3364455e-11  -7.5545672e-02   6.2851906e+00   1.7590440e-02  -3.9259635e+08
   9.4031344e-11  -7.5284161e-02   6.2839573e+00   1.7948541e-02  -3.9167817e+08
   9.4698233e-11  -7.5023263e-02   6.2827120e+00   1.8313024e-02  -3.9076019e+08
   9.5365122e-11  -7.4762977e-02   6.2814544e+00   1.8683981e-02  -3.8984240e+08
   9.6032011e-11  -7.4503302e-02   6.2801845e+00   1.9061506e-02  -3.8892481e+08
   9.6698900e-11  -7.4244240e-02   6.2789023e+00   1.9445695e-02  -3.8800743e+08
   9.7365789e-11  -7.3985789e-02   6.2776076e+00   1.9836643e-02  -3.8709025e+08
   9.8032678e-11  -7.3727950e-02   6.2763003e+00   2.0234446e-02  -3.8617329e+08
   9.8699567e-11  -7.3470722e-02   6.2749803e+00   2.0639202e-02  -3.8525654e+08
   9.9366455e-11  -7.3214106e-02   6.2736475e+00   2.1051009e-02  -3.8434001e+08
   1.0003334e-10  -7.2958100e-02   6.2723019e+00   2.1469967e-02  -3.8342371e+08
   1.0070023e-10  -7.2702706e-02   6.2709433e+00   2.1896176e-02  -3.8250763e+08
   1.0136712e-10  -7.2447922e-02   6.2695717e+00   2.2329736e-02  -3.8159178e+08
   1.0203401e-10  -7.2193749e-02   6.2681869e+00   2.2770750e-02  -3.8067616e+08
   1.0270090e-10  -7.1940187e-02   6.2667889e+00   2.3219322e-02  -3.7976078e+08
   1.0336779e-10  -7.1687235e-02   6.2653775e+00   2.3675553e-02  -3.7884564e+08
   1.0403468e-10  -7.1434893e-02   6.2639526e+00   2.4139550e-02  -3.7793075e+08
   1.0470157e-10  -7.1183162e-02   6.2625142e+00   2.4611417e-02  -3.7701610e+08
   1.0536846e-10  -7.0932040e-02   6.2610622e+00   2.5091261e-02  -3.7610171e+08
   1.0603535e-10  -7.0681528e-02   6.2595964e+00   2.5579190e-02  -3.7518758e+08
   1.0670223e-10  -7.0431625e-02   6.2581168e+00   2.6075310e-02  -3.7427370e+08
   1.0736912e-10  -7.0182332e-02   6.2566232e+00   2.6579733e-02  -3.7336010e+08
   1.0803601e-10  -6.9933648e-02   6.2551156e+00   2.7092566e-02  -3.7244676e+08
   1.0870290e-10  -6.9685573e-02   6.2535938e+00   2.7613922e-02  -3.7153369e+08
   1.0936979e-10  -6.9438107e-02   6.2520579e+00   2.8143911e-02  -3.7062091e+08
   1.1003668e-10  -6.9191249e-02   6.2505075e+00   2.8682647e-02  -3.6970840e+08
   1.1070357e-10  -6.8945000e-02   6.2489428e+00   2.9230241e-02  -3.6879619e+08
   1.1137046e-10  -6.8699359e-02   6.2473635e+00   2.9786809e-02  -3.6788426e+08
   1.1203735e-10  -6.8454326e-02   6.2457696e+00   3.0352465e-02  -3.6697263e+08
   1.1270423e-10  -6.8209901e-02   6.2441609e+00   3.0927326e-02  -3.6606130e+08
   1.1337112e-10  -6.7966084e-02   6.2425374e+00   3.1511506e-02  -3.6515027e+08
   1.1403801e-10  -6.7722874e-02   6.2408989e+00   3.2105125e-02  -3.6423955e+08
   1.1470490e-10  -6.7480271e-02   6.2392455e+00   3.2708300e-02  -3.6332914e+08
   1.1537179e-10  -6.7238275e-02   6.2375768e+00   3.3321149e-02  -3.6241906e+08
   1.1603868e-10  -6.6996887e-02   6.2358930e+00   3.3943793e-02  -3.6150929e+08
   1.1670557e-10  -6.6756104e-02   6.2341938e+00   3.4576353e-02  -3.6059985e+08
   1.1737246e-10  -6.6515928e-02   6.2324792e+00   3.5218948e-02  -3.5969075e+08
   1.1803935e-10  -6.6276359e-02   6.2307490e+00   3.5871702e-02  -3.5878197e+08
   1.1870624e-10  -6.6037395e-02   6.2290032e+00   3.6534737e-02  -3.5787355e+08
   1.1937312e-10  -6.5799037e-02   6.2272416e+00   3.7208177e-02  -3.5696546e+08
   1.2004001e-10  -6.5561284e-02   6.2254642e+00   3.7892145e-02  -3.5605773e+08
   1.2070690e-10  -6.5324137e-02   6.2236709e+00   3.8586766e-02  -3.5515035e+08
   1.2137379e-10  -6.5087594e-02   6.2218615e+00   3.9292167e-02  -3.5424334e+08
   1.2204068e-10  -6.4851657e-02   6.2200359e+00   4.0008473e-02  -3.5333669e+08
   1.2270757e-10  -6.4616323e-02   6.2181942e+00   4.0735811e-02  -3.5243041e+08
   1.2337446e-10  -6.4381594e-02   6.2163361e+00   4.1474309e-02  -3.5152451e+08
   1.2404135e-10  -6.4147470e-02   6.2144615e+00   4.2224096e-02  -3.5061899e+08
   1.2470824e-10  -6.3913948e-02   6.2125704e+00   4.2985299e-02  -3.4971385e+08
   1.2537513e-10  -6.3681031e-02   6.2106626e+00   4.3758049e-02  -3.4880911e+08
   1.2604201e-10  -6.3448716e-02   6.2087381e+00   4.4542475e-02  -3.4790476e+08
   1.2670890e-10  -6.3217005e-02   6.2067968e+00   4.5338708e-02  -3.4700082e+08
   1.2737579e-10  -6.2985896e-02   6.2048385e+00   4.6146880e-02  -3.4609728e+08
   1.2804268e-10  -6.2755389e-02   6.2028632e+00   4.6967123e-02  -3.4519415e+08
   1.2870957e-10  -6.2525485e-02   6.2008707e+00   4.7799568e-02  -3.4429145e+08
   1.2937646e-10  -6.2296183e-02   6.1988610e+00   4.8644349e-02  -3.4338916e+08
   1.3004335e-10  -6.2067482e-02   6.1968340e+00   4.9501599e-02  -3.4248731e+08
   1.3071024e-10  -6.1839382e-02   6.1947895e+00   5.0371452e-02  -3.4158589e+08
   1.3137713e-10  -6.1611884e-02   6.1927275e+00   5.1254043e-02  -3.4068491e+08
   1.3204401e-10  -6.1384986e-02   6.1906478e+00   5.2149506e-02  -3.3978437e+08
   1.3271090e-10  -6.1158688e-02   6.1885504e+00   5.3057977e-02  -3.3888429e+08
   1.3337779e-10  -6.0932991e-02   6.1864352e+00   5.3979591e-02  -3.3798466e+08
   1.3404468e-10  -6.0707893e-02   6.1843021e+00   5.4914485e-02  -3.3708550e+08
   1.3471157e-10  -6.0483395e-02   6.1821509e+00   5.5862796e-02  -3.3618680e+08
   1.3537846e-10  -6.0259496e-02   6.1799817e+00   5.6824660e-02  -3.3528858e+08
   1.3604535e-10  -6.0036196e-02   6.1777942e+00   5.7800214e-02  -3.3439083e+08
   1.3671224e-10  -5.9813495e-02   6.1755884e+00   5.8789597e-02  -3.3349358e+08
   1.3737913e-10  -5.9591391e-02   6.1733642e+00   5.9792946e-02  -3.3259681e+08
   1.3804602e-10  -5.9369886e-02   6.1711215e+00   6.0810399e-02  -3.3170055e+08
   1.3871290e-10  -5.9148978e-02   6.1688602e+00   6.1842096e-02  -3.3080478e+08
   1.3937979e-10  -5.8928667e-02   6.1665803e+00   6.2888175e-02  -3.2990953e+08
   1.4004668e-10  -5.8708953e-02   6.1642815e+00   6.3948775e-02  -3.2901479e+08
   1.4071357e-10  -5.8489836e-02   6.1619639e+00   6.5024035e-02  -3.2812057e+08
   1.4138046e-10  -5.8271315e-02   6.1596273e+00   6.6114095e-02  -3.2722688e+08
   1.4204735e-10  -5.8053389e-02   6.1572717e+00   6.7219095e-02  -3.2633373e+08
   1.4271424e-10  -5.7836059e-02   6.1548970e+00   6.8339174e-02  -3.2544111e+08
   1.4338113e-10  -5.7619324e-02   6.1525030e+00   6.9474472e-02  -3.2454904e+08
   1.4404802e-10  -5.7403184e-02   6.1500897e+00   7.0625130e-02  -3.2365753e+08
   1.4471490e-10  -5.7187638e-02   6.1476569e+00   7.1791287e-02  -3.2276657e+08
   1.4538179e-10  -5.6972686e-02   6.1452047e+00   7.2973084e-02  -3.2187618e+08
   1.4604868e-10  -5.6758328e-02   6.1427329e+00   7.4170660e-02  -3.2098636e+08
   1.4671557e-10  -5.6544563e-02   6.1402414e+00   7.5384157e-02  -3.2009712e+08
   1.4738246e-10  -5.6331391e-02   6.1377302e+00   7.6613714e-02  -3.1920846e+08
   1.4804935e-10  -5.6118811e-02   6.1351991e+00   7.7859471e-02  -3.1832039e+08
   1.4871624e-10  -5.5906823e-02   6.1326481e+00   7.9121570e-02  -3.1743292e+08
   1.4938313e-10  -5.5695427e-02   6.1300771e+00   8.0400148e-02  -3.1654605e+08
   1.5005002e-10  -5.5484622e-02   6.1274860e+00   8.1695347e-02  -3.1565980e+08
   1.5071691e-10  -5.5274408e-02   6.1248748e+00   8.3007307e-02  -3.1477416e+08
   1.5138379e-10  -5.5064785e-02   6.1222432e+00   8.4336166e-02  -3.1388914e+08
   1.5205068e-10  -5.4855751e-02   6.1195914e+00   8.5682065e-02  -3.1300476e+08
   1.5271757e-10  -5.4647307e-02   6.1169191e+00   8.7045142e-02  -3.1212101e+08
   1.5338446e-10  -5.4439452e-02   6.1142263e+00   8.8425537e-02  -3.1123791e+08
   1.5405135e-10  -5.4232186e-02   6.1115130e+00   8.9823388e-02  -3.1035545e+08
   1.5471824e-10  -5.4025508e-02   6.1087790e+00   9.1238833e-02  -3.0947366e+08
   1.5538513e-10  -5.3819418e-02   6.1060243e+00   9.2672011e-02  -3.0859252e+08
   1.5605202e-10  -5.3613915e-02   6.1032488e+00   9.4123059e-02  -3.0771206e+08
   1.5671891e-10  -5.3408999e-02   6.1004525e+00   9.5592114e-02  -3.0683228e+08
   1.5738580e-10  -5.3204670e-02   6.0976352e+00   9.7079314e-02  -3.0595318e+08
   1.5805268e-10  -5.3000926e-02   6.0947968e+00   9.8584795e-02  -3.0507477e+08
   1.5871957e-10  -5.2797769e-02   6.0919374e+00   1.0010869e-01  -3.0419706e+08
   1.5938646e-10  -5.2595196e-02   6.0890569e+00   1.0165114e-01  -3.0332005e+08
   1.6005335e-10  -5.2393208e-02   6.0861551e+00   1.0321228e-01  -3.0244376e+08
   1.6072024e-10  -5.2191804e-02   6.0832321e+00   1.0479224e-01  -3.0156819e+08
   1.6138713e-10  -5.1990984e-02   6.0802877e+00   1.0639115e-01  -3.0069334e+08
   1.6205402e-10  -5.1790747e-02   6.0773219e+00   1.0800916e-01  -2.9981923e+08
   1.6272091e-10  -5.1591092e-02   6.0743346e+00   1.0964638e-01  -2.9894585e+08
   1.6338780e-10  -5.1392020e-02   6.0713258e+00   1.1130296e-01  -2.9807323e+08
   1.6405468e-10  -5.1193530e-02   6.0682954e+00   1.1297902e-01  -2.9720136e+08
   1.6472157e-10  -5.0995620e-02   6.0652433e+00   1.1467470e-01  -2.9633025e+08
   1.6538846e-10  -5.0798292e-02   6.0621695e+00   1.1639012e-01  -2.9545991e+08
   1.6605535e-10  -5.0601543e-02   6.0590739e+00   1.1812541e-01  -2.9459034e+08
   1.6672224e-10  -5.0405374e-02   6.0559565e+00   1.1988071e-01  -2.9372156e+08
   1.6738913e-10  -5.0209785e-02   6.0528173e+00   1.2165613e-01  -2.9285357e+08
   1.6805602e-10  -5.0014774e-02   6.0496561e+00   1.2345181e-01  -2.9198638e+08
   1.6872291e-10  -4.9820340e-02   6.0464729e+00   1.2526787e-01  -2.9111999e+08
   1.6938980e-10  -4.9626485e-02   6.0432677e+00   1.2710443e-01  -2.9025441e+08
   1.7005669e-10  -4.9433206e-02   6.0400403e+00   1.2896163e-01  -2.8938966e+08
   1.7072357e-10  -4.9240504e-02   6.0367909e+00   1.3083957e-01  -2.8852573e+08
   1.7139046e-10  -4.9048378e-02   6.0335193e+00   1.3273838e-01  -2.8766264e+08
   1.7205735e-10  -4.8856827e-02   6.0302255e+00   1.3465819e-01  -2.8680038e+08
   1.7272424e-10  -4.8665850e-02   6.0269094e+00   1.3659911e-01  -2.8593898e+08
   1.7339113e-10  -4.8475448e-02   6.0235710e+00   1.3856126e-01  -2.8507843e+08
   1.7405802e-10  -4.8285620e-02   6.0202103e+00   1.4054475e-01  -2.8421875e+08
   1.7472491e-10  -4.8096364e-02   6.0168272e+00   1.4254971e-01  -2.8335994e+08
   1.7539180e-10  -4.7907681e-02   6.0134217e+00   1.4457625e-01  -2.8250201e+08
   1.7605869e-10  -4.7719570e-02   6.0099938e+00   1.4662448e-01  -2.8164496e+08
   1.7672558e-10  -4.7532030e-02   6.0065433e+00   1.4869451e-01  -2.8078880e+08
   1.7739246e-10  -4.7345061e-02   6.0030704e+00   1.5078645e-01  -2.7993355e+08
   1.7805935e-10  -4.7158661e-02   5.9995749e+00   1.5290041e-01  -2.7907921e+08
   1.7872624e-10  -4.6972831e-02   5.9960569e+00   1.5503651e-01  -2.7822578e+08
   1.7939313e-10  -4.6787570e-02   5.9925163e+00   1.5719484e-01  -2.7737327e+08
   1.8006002e-10  -4.6602878e-02   5.9889530e+00   1.5937552e-01  -2.7652170e+08
   1.8072691e-10  -4.6418752e-02   5.9853671e+00   1.6157864e-01  -2.7567106e+08
   1.8139380e-10  -4.6235194e-02   5.9817586e+00   1.6380431e-01  -2.7482137e+08
   1.8206069e-10  -4.6052202e-02   5.9781274e+00   1.6605263e-01  -2.7397263e+08
   1.8272758e-10  -4.5869776e-02   5.9744735e+00   1.6832370e-01  -2.7312485e+08
   1.8339446e-10  -4.5687915e-02   5.9707969e+00   1.7061762e-01  -2.7227805e+08
   1.8406135e-10  -4.5506618e-02   5.9670975e+00   1.7293448e-01  -2.7143221e+08
   1.8472824e-10  -4.5325885e-02   5.9633755e+00   1.7527437e-01  -2.7058736e+08
   1.8539513e-10  -4.5145715e-02   5.9596307e+00   1.7763739e-01  -2.6974350e+08
   1.8606202e-10  -4.4966108e-02   5.9558631e+00   1.8002364e-01  -2.6890064e+08
   1.8672891e-10  -4.4787062e-02   5.9520728e+00   1.8243319e-01  -2.6805879e+08
   1.8739580e-10  -4.4608577e-02   5.9482597e+00   1.8486614e-01  -2.6721795e+08
   1.8806269e-10  -4.4430653e-02   5.9444239e+00   1.8732257e-01  -2.6637813e+08
   1.8872958e-10  -4.4253288e-02   5.9405653e+00   1.8980257e-01  -2.6553933e+08
   1.8939647e-10  -4.4076483e-02   5.9366840e+00   1.9230622e-01  -2.6470158e+08
   1.9006335e-10  -4.3900236e-02   5.9327799e+00   1.9483360e-01  -2.6386486e+08
   1.9073024e-10  -4.3724546e-02   5.9288530e+00   1.9738479e-01  -2.6302920e+08
   1.9139713e-10  -4.3549414e-02   5.9249034e+00   1.9995986e-01  -2.6219460e+08
   1.9206402e-10  -4.3374837e-02   5.9209311e+00   2.0255889e-01  -2.6136106e+08
   1.9273091e-10  -4.3200816e-02   5.9169361e+00   2.0518195e-01  -2.6052859e+08
   1.9339780e-10  -4.3027350e-02   5.9129183e+00   2.0782911e-01  -2.5969721e+08
   1.9406469e-10  -4.2854438e-02   5.9088779e+00   2.1050045e-01  -2.5886691e+08
   1.9473158e-10  -4.2682080e-02   5.9048148e+00   2.1319602e-01  -2.5803771e+08
   1.9539847e-10  -4.2510274e-02   5.9007290e+00   2.1591589e-01  -2.5720962e+08
   1.9606536e-10  -4.2339020e-02   5.8966206e+00   2.1866013e-01  -2.5638263e+08
   1.9673224e-10  -4.2168317e-02   5.8924896e+00   2.2142880e-01  -2.5555676e+08
   1.9739913e-10  -4.1998164e-02   5.8883361e+00   2.2422195e-01  -2.5473202e+08
   1.9806602e-10  -4.1828561e-02   5.8841600e+00   2.2703963e-01  -2.5390841e+08
   1.9873291e-10  -4.1659507e-02   5.8799613e+00   2.2988191e-01  -2.5308594e+08
   1.9939980e-10  -4.1491001e-02   5.8757402e+00   2.3274884e-01  -2.5226462e+08
   2.0006669e-10  -4.1323042e-02   5.8714966e+00   2.3564046e-01  -2.5144445e+08
   2.0073358e-10  -4.1155630e-02   5.8672306e+00   2.3855682e-01  -2.5062545e+08
   2.0140047e-10  -4.0988764e-02   5.8629422e+00   2.4149798e-01  -2.4980761e+08
   2.0206736e-10  -4.0822443e-02   5.8586315e+00   2.4446396e-01  -2.4899095e+08
   2.0273424e-10  -4.0656666e-02   5.8542985e+00   2.4745481e-01  -2.4817548e+08
   2.0340113e-10  -4.0491432e-02   5.8499433e+00   2.5047057e-01  -2.4736120e+08
   2.0406802e-10  -4.0326741e-02   5.8455658e+00   2.5351128e-01  -2.4654811e+08
   2.0473491e-10  -4.0162592e-02   5.8411662e+00   2.5657696e-01  -2.4573624e+08
   2.0540180e-10  -3.9998984e-02   5.8367445e+00   2.5966766e-01  -2.4492557e+08
   2.0606869e-10  -3.9835916e-02   5.8323007e+00   2.6278340e-01  -2.4411613e+08
   2.0673558e-10  -3.9673387e-02   5.8278350e+00   2.6592420e-01  -2.4330791e+08
   2.0740247e-10  -3.9511397e-02   5.8233473e+00   2.6909009e-01  -2.4250093e+08
   2.0806936e-10  -3.9349945e-02   5.8188377e+00   2.7228109e-01  -2.4169519e+08
   2.0873625e-10  -3.9189030e-02   5.8143064e+00   2.7549722e-01  -2.4089070e+08
   2.0940313e-10  -3.9028651e-02   5.8097532e+00   2.7873850e-01  -2.4008747e+08
   2.1007002e-10  -3.8868807e-02   5.8051784e+00   2.8200494e-01  -2.3928550e+08
   2.1073691e-10  -3.8709497e-02   5.8005820e+00   2.8529656e-01  -2.3848480e+08
   2.1140380e-10  -3.8550721e-02   5.7959641e+00   2.8861336e-01  -2.3768538e+08
   2.1207069e-10  -3.8392478e-02   5.7913246e+00   2.9195535e-01  -2.3688724e+08
   2.1273758e-10  -3.8234767e-02   5.7866638e+00   2.9532253e-01  -2.3609039e+08
   2.1340447e-10  -3.8077586e-02   5.7819817e+00   2.9871491e-01  -2.3529484e+08
   2.1407136e-10  -3.7920936e-02   5.7772783e+00   3.0213249e-01  -2.3450060e+08
   2.1473825e-10  -3.7764815e-02   5.7725537e+00   3.0557526e-01  -2.3370766e+08
   2.1540514e-10  -3.7609222e-02   5.7678081e+00   3.0904322e-01  -2.3291605e+08
   2.1607202e-10  -3.7454157e-02   5.7630415e+00   3.1253635e-01  -2.3212576e+08
   2.1673891e-10  -3.7299618e-02   5.7582540e+00   3.1605466e-01  -2.3133681e+08
   2.1740580e-10  -3.7145605e-02   5.7534457e+00   3.1959812e-01  -2.3054919e+08
   2.1807269e-10  -3.6992117e-02   5.7486166e+00   3.2316672e-01  -2.2976292e+08
   2.1873958e-10  -3.6839153e-02   5.7437669e+00   3.2676044e-01  -2.2897800e+08
   2.1940647e-10  -3.6686711e-02   5.7388967e+00   3.3037926e-01  -2.2819444e+08
   2.2007336e-10  -3.6534792e-02   5.7340061e+00   3.3402315e-01  -2.2741225e+08
   2.2074025e-10  -3.6383394e-02   5.7290951e+00   3.3769210e-01  -2.2663143e+08
   2.2140714e-10  -3.6232516e-02   5.7241639e+00   3.4138607e-01  -2.2585198e+08
   2.2207402e-10  -3.6082158e-02   5.7192125e+00   3.4510503e-01  -2.2507393e+08
   2.2274091e-10  -3.5932318e-02   5.7142412e+00   3.4884894e-01  -2.2429726e+08
   2.2340780e-10  -3.5782996e-02   5.7092499e+00   3.5261777e-01  -2.2352199e+08
   2.2407469e-10  -3.5634190e-02   5.7042388e+00   3.5641149e-01  -2.2274813e+08
   2.2474158e-10  -3.5485899e-02   5.6992080e+00   3.6023004e-01  -2.2197568e+08
   2.2540847e-10  -3.5338124e-02   5.6941576e+00   3.6407339e-01  -2.2120464e+08
   2.2607536e-10  -3.5190862e-02   5.6890878e+00   3.6794149e-01  -2.2043503e+08
   2.2674225e-10  -3.5044113e-02   5.6839986e+00   3.7183428e-01  -2.1966685e+08
   2.2740914e-10  -3.4897875e-02   5.6788902e+00   3.7575172e-01  -2.1890010e+08
   2.2807603e-10  -3.4752149e-02   5.6737627e+00   3.7969375e-01  -2.1813479e+08
   2.2874291e-10  -3.4606932e-02   5.6686161e+00   3.8366032e-01  -2.1737094e+08
   2.2940980e-10  -3.4462224e-02   5.6634508e+00   3.8765136e-01  -2.1660853e+08
   2.3007669e-10  -3.4318025e-02   5.6582667e+00   3.9166682e-01  -2.1584759e+08
   2.3074358e-10  -3.4174332e-02   5.6530640e+00   3.9570662e-01  -2.1508811e+08
   2.3141047e-10  -3.4031145e-02   5.6478428e+00   3.9977071e-01  -2.1433011e+08
   2.3207736e-10  -3.3888463e-02   5.6426033e+00   4.0385901e-01  -2.1357358e+08
   2.3274425e-10  -3.3746286e-02   5.6373456e+00   4.0797144e-01  -2.1281853e+08
   2.3341114e-10  -3.3604611e-02   5.6320698e+00   4.1210794e-01  -2.1206498e+08
   2.3407803e-10  -3.3463438e-02   5.6267760e+00   4.1626842e-01  -2.1131292e+08
   2.3474491e-10  -3.3322767e-02   5.6214645e+00   4.2045281e-01  -2.1056236e+08
   2.3541180e-10  -3.3182595e-02   5.6161353e+00   4.2466103e-01  -2.0981330e+08
   2.3607869e-10  -3.3042923e-02   5.6107887e+00   4.2889298e-01  -2.0906576e+08
   2.3674558e-10  -3.2903748e-02   5.6054246e+00   4.3314859e-01  -2.0831974e+08
   2.3741247e-10  -3.2765071e-02   5.6000433e+00   4.3742776e-01  -2.0757523e+08
   2.3807936e-10  -3.2626889e-02   5.5946450e+00   4.4173039e-01  -2.0683226e+08
   2.3874625e-10  -3.2489203e-02   5.5892298e+00   4.4605641e-01  -2.0609082e+08
   2.3941314e-10  -3.2352010e-02   5.5837977e+00   4.5040570e-01  -2.0535092e+08
   2.4008003e-10  -3.2215311e-02   5.5783491e+00   4.5477817e-01  -2.0461256e+08
   2.4074692e-10  -3.2079103e-02   5.5728840e+00   4.5917371e-01  -2.0387575e+08
   2.4141380e-10  -3.1943386e-02   5.5674026e+00   4.6359223e-01  -2.0314050e+08
   2.4208069e-10  -3.1808159e-02   5.5619050e+00   4.6803362e-01  -2.0240680e+08
   2.4274758e-10  -3.1673420e-02   5.5563914e+00   4.7249776e-01  -2.0167467e+08
   2.4341447e-10  -3.1539170e-02   5.5508620e+00   4.7698455e-01  -2.0094411e+08
   2.4408136e-10  -3.1405406e-02   5.5453170e+00   4.8149387e-01  -2.0021512e+08
   2.4474825e-10  -3.1272128e-02   5.5397564e+00   4.8602561e-01  -1.9948772e+08
   2.4541514e-10  -3.1139334e-02   5.5341805e+00   4.9057964e-01  -1.9876190e+08
   2.4608203e-10  -3.1007024e-02   5.5285894e+00   4.9515586e-01  -1.9803766e+08
   2.4674892e-10  -3.0875196e-02   5.5229833e+00   4.9975413e-01  -1.9731502e+08
   2.4741581e-10  -3.0743850e-02   5.5173624e+00   5.0437433e-01  -1.9659398e+08
   2.4808269e-10  -3.0612984e-02   5.5117268e+00   5.0901634e-01  -1.9587454e+08
   2.4874958e-10  -3.0482597e-02   5.5060767e+00   5.1368002e-01  -1.9515671e+08
   2.4941647e-10  -3.0352688e-02   5.5004122e+00   5.1836525e-01  -1.9444050e+08
   2.5008336e-10  -3.0223257e-02   5.4947336e+00   5.2307189e-01  -1.9372589e+08
   2.5075025e-10  -3.0094301e-02   5.4890411e+00   5.2779981e-01  -1.9301291e+08
   2.5141714e-10  -2.9965821e-02   5.4833347e+00   5.3254886e-01  -1.9230156e+08
   2.5208403e-10  -2.9837814e-02   5.4776147e+00   5.3731891e-01  -1.9159183e+08
   2.5275092e-10  -2.9710280e-02   5.4718812e+00   5.4210982e-01  -1.9088374e+08
   2.5341781e-10  -2.9583218e-02   5.4661345e+00   5.4692145e-01  -1.9017729e+08
   2.5408469e-10  -2.9456626e-02   5.4603746e+00   5.5175365e-01  -1.8947247e+08
   2.5475158e-10  -2.9330504e-02   5.4546019e+00   5.5660626e-01  -1.8876931e+08
   2.5541847e-10  -2.9204850e-02   5.4488164e+00   5.6147915e-01  -1.8806779e+08
   2.5608536e-10  -2.9079664e-02   5.4430184e+00   5.6637216e-01  -1.8736793e+08
   2.5675225e-10  -2.8954943e-02   5.4372080e+00   5.7128514e-01  -1.8666973e+08
   2.5741914e-10  -2.8830688e-02   5.4313855e+00   5.7621794e-01  -1.8597318e+08
   2.5808603e-10  -2.8706897e-02   5.4255509e+00   5.8117039e-01  -1.8527831e+08
   2.5875292e-10  -2.8583568e-02   5.4197046e+00   5.8614234e-01  -1.8458510e+08
   2.5941981e-10  -2.8460702e-02   5.4138466e+00   5.9113363e-01  -1.8389356e+08
   2.6008670e-10  -2.8338296e-02   5.4079772e+00   5.9614409e-01  -1.8320370e+08
   2.6075358e-10  -2.8216349e-02   5.4020966e+00   6.0117357e-01  -1.8251552e+08
   2.6142047e-10  -2.8094861e-02   5.3962049e+00   6.0622190e-01  -1.8182903e+08
   2.6208736e-10  -2.7973830e-02   5.3903023e+00   6.1128891e-01  -1.8114422e+08
   2.6275425e-10  -2.7853255e-02   5.3843891e+00   6.1637443e-01  -1.8046110e+08
   2.6342114e-10  -2.7733135e-02   5.3784654e+00   6.2147830e-01  -1.7977967e+08
   2.6408803e-10  -2.7613469e-02   5.3725314e+00   6.2660034e-01  -1.7909994e+08
   2.6475492e-10  -2.7494256e-02   5.3665873e+00   6.3174037e-01  -1.7842191e+08
   2.6542181e-10  -2.7375495e-02   5.3606333e+00   6.3689823e-01  -1.7774558e+08
   2.6608870e-10  -2.7257184e-02   5.3546696e+00   6.4207374e-01  -1.7707096e+08
   2.6675559e-10  -2.7139322e-02   5.3486964e+00   6.4726672e-01  -1.7639804e+08
   2.6742247e-10  -2.7021908e-02   5.3427139e+00   6.5247699e-01  -1.7572684e+08
   2.6808936e-10  -2.6904942e-02   5.3367223e+00   6.5770438e-01  -1.7505735e+08
   2.6875625e-10  -2.6788421e-02   5.3307217e+00   6.6294869e-01  -1.7438958e+08
   2.6942314e-10  -2.6672345e-02   5.3247124e+00   6.6820975e-01  -1.7372353e+08
   2.7009003e-10  -2.6556713e-02   5.3186946e+00   6.7348738e-01  -1.7305920e+08
   2.7075692e-10  -2.6441523e-02   5.3126684e+00   6.7878138e-01  -1.7239660e+08
   2.7142381e-10  -2.6326775e-02   5.3066341e+00   6.8409158e-01  -1.7173572e+08
   2.7209070e-10  -2.6212466e-02   5.3005918e+00   6.8941778e-01  -1.7107657e+08
   2.7275759e-10  -2.6098597e-02   5.2945419e+00   6.9475979e-01  -1.7041916e+08
   2.7342447e-10  -2.5985166e-02   5.2884843e+00   7.0011743e-01  -1.6976348e+08
   2.7409136e-10  -2.5872171e-02   5.2824194e+00   7.0549051e-01  -1.6910954e+08
   2.7475825e-10  -2.5759611e-02   5.2763474e+00   7.1087883e-01  -1.6845733e+08
   2.7542514e-10  -2.5647487e-02   5.2702684e+00   7.1628220e-01  -1.6780687e+08
   2.7609203e-10  -2.5535795e-02   5.2641827e+00   7.2170042e-01  -1.6715815e+08
   2.7675892e-10  -2.5424535e-02   5.2580904e+00   7.2713330e-01  -1.6651118e+08
   2.7742581e-10  -2.5313706e-02   5.2519917e+00   7.3258066e-01  -1.6586596e+08
   2.7809270e-10  -2.5203307e-02   5.2458869e+00   7.3804227e-01  -1.6522248e+08
   2.7875959e-10  -2.5093337e-02   5.2397762e+00   7.4351796e-01  -1.6458076e+08
   2.7942648e-10  -2.4983794e-02   5.2336596e+00   7.4900752e-01  -1.6394079e+08
   2.8009336e-10  -2.4874677e-02   5.2275375e+00   7.5451076e-01  -1.6330257e+08
   2.8076025e-10  -2.4765985e-02   5.2214101e+00   7.6002747e-01  -1.6266612e+08
   2.8142714e-10  -2.4657717e-02   5.2152775e+00   7.6555745e-01  -1.6203142e+08
   2.8209403e-10  -2.4549872e-02   5.2091399e+00   7.7110050e-01  -1.6139848e+08
   2.8276092e-10  -2.4442448e-02   5.2029976e+00   7.7665643e-01  -1.6076730e+08
   2.8342781e-10  -2.4335444e-02   5.1968506e+00   7.8222502e-01  -1.6013788e+08
   2.8409470e-10  -2.4228860e-02   5.1906993e+00   7.8780607e-01  -1.5951023e+08
   2.8476159e-10  -2.4122694e-02   5.1845439e+00   7.9339939e-01  -1.5888434e+08
   2.8542848e-10  -2.4016944e-02   5.1783844e+00   7.9900476e-01  -1.5826022e+08
   2.8609537e-10  -2.3911610e-02   5.1722212e+00   8.0462198e-01  -1.5763787e+08
   2.8676225e-10  -2.3806691e-02   5.1660544e+00   8.1025085e-01  -1.5701729e+08
   2.8742914e-10  -2.3702185e-02   5.1598842e+00   8.1589116e-01  -1.5639848e+08
   2.8809603e-10  -2.3598091e-02   5.1537108e+00   8.2154270e-01  -1.5578144e+08
   2.8876292e-10  -2.3494408e-02   5.1475344e+00   8.2720527e-01  -1.5516617e+08
   2.8942981e-10  -2.3391134e-02   5.1413553e+00   8.3287867e-01  -1.5455267e+08
   2.9009670e-10  -2.3288269e-02   5.1351735e+00   8.3856268e-01  -1.5394095e+08
   2.9076359e-10  -2.3185812e-02   5.1289893e+00   8.4425709e-01  -1.5333100e+08
   2.9143048e-10  -2.3083761e-02   5.1228028e+00   8.4996171e-01  -1.5272283e+08
   2.9209737e-10  -2.2982114e-02   5.1166144e+00   8.5567632e-01  -1.5211644e+08
   2.9276425e-10  -2.2880872e-02   5.1104241e+00   8.6140071e-01  -1.5151182e+08
   2.9343114e-10  -2.2780032e-02   5.1042322e+00   8.6713468e-01  -1.5090898e+08
   2.9409803e-10  -2.2679593e-02   5.0980388e+00   8.7287802e-01  -1.5030792e+08
   2.9476492e-10  -2.2579555e-02   5.0918441e+00   8.7863052e-01  -1.4970864e+08
   2.9543181e-10  -2.2479916e-02   5.0856484e+00   8.8439197e-01  -1.4911114e+08
   2.9609870e-10  -2.2380675e-02   5.0794519e+00   8.9016216e-01  -1.4851541e+08
   2.9676559e-10  -2.2281830e-02   5.0732546e+00   8.9594089e-01  -1.4792147e+08
   2.9743248e-10  -2.2183381e-02   5.0670568e+00   9.0172795e-01  -1.4732930e+08
   2.9809937e-10  -2.2085326e-02   5.0608587e+00   9.0752312e-01  -1.4673892e+08
   2.9876626e-10  -2.1987665e-02   5.0546605e+00   9.1332621e-01  -1.4615031e+08
   2.9943314e-10  -2.1890395e-02   5.0484623e+00   9.1913700e-01  -1.4556349e+08
   3.0010003e-10  -2.1793516e-02   5.0422644e+00   9.2495528e-01  -1.4497844e+08
   3.0076692e-10  -2.1697027e-02   5.0360669e+00   9.3078085e-01  -1.4439518e+08
   3.0143381e-10  -2.1600926e-02   5.0298701e+00   9.3661350e-01  -1.4381370e+08
   3.0210070e-10  -2.1505212e-02   5.0236740e+00   9.4245302e-01  -1.4323399e+08
   3.0276759e-10  -2.1409884e-02   5.0174789e+00   9.4829921e-01  -1.4265607e+08
   3.0343448e-10  -2.1314941e-02   5.0112850e+00   9.5415186e-01  -1.4207992e+08
   3.0410137e-10  -2.1220382e-02   5.0050924e+00   9.6001076e-01  -1.4150556e+08
   3.0476826e-10  -2.1126205e-02   4.9989013e+00   9.6587570e-01  -1.4093298e+08
   3.0543515e-10  -2.1032409e-02   4.9927119e+00   9.7174649e-01  -1.4036217e+08
   3.0610203e-10  -2.0938994e-02   4.9865244e+00   9.7762291e-01  -1.3979314e+08
   3.0676892e-10  -2.0845957e-02   4.9803390e+00   9.8350475e-01  -1.3922589e+08
   3.0743581e-10  -2.0753298e-02   4.9741557e+00   9.8939183e-01  -1.3866042e+08
   3.0810270e-10  -2.0661016e-02   4.9679749e+00   9.9528393e-01  -1.3809672e+08
   3.0876959e-10  -2.0569109e-02   4.9617967e+00   1.0011808e+00  -1.3753480e+08
   3.0943648e-10  -2.0477576e-02   4.9556212e+00   1.0070824e+00  -1.3697465e+08
   3.1010337e-10  -2.0386416e-02   4.9494486e+00   1.0129883e+00  -1.3641628e+08
   3.1077026e-10  -2.0295628e-02   4.9432791e+00   1.0188985e+00  -1.3585969e+08
   3.1143715e-10  -2.0205210e-02   4.9371129e+00   1.0248126e+00  -1.3530486e+08
   3.1210403e-10  -2.0115162e-02   4.9309502e+00   1.0307306e+00  -1.3475181e+08
   3.1277092e-10  -2.0025482e-02   4.9247910e+00   1.0366522e+00  -1.3420053e+08
   3.1343781e-10  -1.9936169e-02   4.9186356e+00   1.0425771e+00  -1.3365102e+08
   3.1410470e-10  -1.9847222e-02   4.9124841e+00   1.0485053e+00  -1.3310328e+08
   3.1477159e-10  -1.9758640e-02   4.9063367e+00   1.0544365e+00  -1.3255731e+08
   3.1543848e-10  -1.9670421e-02   4.9001936e+00   1.0603706e+00  -1.3201310e+08
   3.1610537e-10  -1.9582565e-02   4.8940549e+00   1.0663072e+00  -1.3147066e+08
   3.1677226e-10  -1.9495070e-02   4.8879207e+00   1.0722462e+00  -1.3092998e+08
   3.1743915e-10  -1.9407934e-02   4.8817914e+00   1.0781875e+00  -1.3039107e+08
   3.1810604e-10  -1.9321158e-02   4.8756669e+00   1.0841308e+00  -1.2985392e+08
   3.1877292e-10  -1.9234739e-02   4.8695475e+00   1.0900760e+00  -1.2931853e+08
   3.1943981e-10  -1.9148677e-02   4.8634333e+00   1.0960228e+00  -1.2878490e+08
   3.2010670e-10  -1.9062970e-02   4.8573245e+00   1.1019710e+00  -1.2825303e+08
   3.2077359e-10  -1.8977617e-02   4.8512212e+00   1.1079205e+00  -1.2772291e+08
   3.2144048e-10  -1.8892617e-02   4.8451235e+00   1.1138711e+00  -1.2719455e+08
   3.2210737e-10  -1.8807968e-02   4.8390317e+00   1.1198226e+00  -1.2666795e+08
   3.2277426e-10  -1.8723671e-02   4.8329459e+00   1.1257747e+00  -1.2614309e+08
   3.2344115e-10  -1.8639723e-02   4.8268662e+00   1.1317274e+00  -1.2561998e+08
   3.2410804e-10  -1.8556123e-02   4.8207928e+00   1.1376803e+00  -1.2509863e+08
   3.2477492e-10  -1.8472870e-02   4.8147258e+00   1.1436335e+00  -1.2457902e+08
   3.2544181e-10  -1.8389963e-02   4.8086654e+00   1.1495865e+00  -1.2406115e+08
   3.2610870e-10  -1.8307401e-02   4.8026117e+00   1.1555393e+00  -1.2354503e+08
   3.2677559e-10  -1.8225183e-02   4.7965649e+00   1.1614917e+00  -1.2303065e+08
   3.2744248e-10  -1.8143307e-02   4.7905250e+00   1.1674435e+00  -1.2251801e+08
   3.2810937e-10  -1.8061772e-02   4.7844923e+00   1.1733946e+00  -1.2200710e+08
   3.2877626e-10  -1.7980577e-02   4.7784669e+00   1.1793446e+00  -1.2149793e+08
   3.2944315e-10  -1.7899722e-02   4.7724488e+00   1.1852936e+00  -1.2099050e+08
   3.3011004e-10  -1.7819204e-02   4.7664384e+00   1.1912412e+00  -1.2048479e+08
   3.3077693e-10  -1.7739023e-02   4.7604356e+00   1.1971873e+00  -1.1998082e+08
   3.3144381e-10  -1.7659178e-02   4.7544406e+00   1.2031317e+00  -1.1947857e+08
   3.3211070e-10  -1.7579666e-02   4.7484536e+00   1.2090744e+00  -1.1897805e+08
   3.3277759e-10  -1.7500489e-02   4.7424747e+00   1.2150150e+00  -1.1847925e+08
   3.3344448e-10  -1.7421643e-02   4.7365039e+00   1.2209534e+00  -1.1798218e+08
   3.3411137e-10  -1.7343128e-02   4.7305416e+00   1.2268894e+00  -1.1748682e+08
   3.3477826e-10  -1.7264943e-02   4.7245877e+00   1.2328230e+00  -1.1699317e+08
   3.3544515e-10  -1.7187086e-02   4.7186423e+00   1.2387538e+00  -1.1650124e+08
   3.3611204e-10  -1.7109557e-02   4.7127057e+00   1.2446818e+00  -1.1601103e+08
   3.3677893e-10  -1.7032354e-02   4.7067780e+00   1.2506067e+00  -1.1552252e+08
   3.3744582e-10  -1.6955477e-02   4.7008592e+00   1.2565285e+00  -1.1503571e+08
   3.3811270e-10  -1.6878924e-02   4.6949495e+00   1.2624469e+00  -1.1455062e+08
   3.3877959e-10  -1.6802693e-02   4.6890490e+00   1.2683618e+00  -1.1406722e+08
   3.3944648e-10  -1.6726785e-02   4.6831578e+00   1.2742730e+00  -1.1358552e+08
   3.4011337e-10  -1.6651197e-02   4.6772761e+00   1.2801803e+00  -1.1310552e+08
   3.4078026e-10  -1.6575928e-02   4.6714039e+00   1.2860837e+00  -1.1262722e+08
   3.4144715e-10  -1.6500978e-02   4.6655414e+00   1.2919829e+00  -1.1215060e+08
   3.4211404e-10  -1.6426346e-02   4.6596886e+00   1.2978778e+00  -1.1167568e+08
   3.4278093e-10  -1.6352029e-02   4.6538458e+00   1.3037683e+00  -1.1120244e+08
   3.4344782e-10  -1.6278028e-02   4.6480129e+00   1.3096541e+00  -1.1073088e+08
   3.4411470e-10  -1.6204340e-02   4.6421902e+00   1.3155351e+00  -1.1026100e+08
   3.4478159e-10  -1.6130966e-02   4.6363777e+00   1.3214112e+00  -1.0979281e+08
   3.4544848e-10  -1.6057903e-02   4.6305755e+00   1.3272823e+00  -1.0932628e+08
   3.4611537e-10  -1.5985150e-02   4.6247837e+00   1.3331481e+00  -1.0886143e+08
   3.4678226e-10  -1.5912707e-02   4.6190024e+00   1.3390086e+00  -1.0839825e+08
   3.4744915e-10  -1.5840572e-02   4.6132318e+00   1.3448635e+00  -1.0793673e+08
   3.4811604e-10  -1.5768745e-02   4.6074719e+00   1.3507128e+00  -1.0747688e+08
   3.4878293e-10  -1.5697224e-02   4.6017229e+00   1.3565563e+00  -1.0701869e+08
   3.4944982e-10  -1.5626007e-02   4.5959847e+00   1.3623938e+00  -1.0656216e+08
   3.5011671e-10  -1.5555095e-02   4.5902576e+00   1.3682253e+00  -1.0610728e+08
   3.5078359e-10  -1.5484485e-02   4.5845416e+00   1.3740505e+00  -1.0565405e+08
   3.5145048e-10  -1.5414178e-02   4.5788369e+00   1.3798694e+00  -1.0520247e+08
   3.5211737e-10  -1.5344170e-02   4.5731434e+00   1.3856818e+00  -1.0475254e+08
   3.5278426e-10  -1.5274463e-02   4.5674613e+00   1.3914875e+00  -1.0430425e+08
   3.5345115e-10  -1.5205053e-02   4.5617907e+00   1.3972865e+00  -1.0385760e+08
   3.5411804e-10  -1.5135941e-02   4.5561317e+00   1.4030786e+00  -1.0341258e+08
   3.5478493e-10  -1.5067125e-02   4.5504844e+00   1.4088636e+00  -1.0296920e+08
   3.5545182e-10  -1.4998605e-02   4.5448488e+00   1.4146415e+00  -1.0252744e+08
   3.5611871e-10  -1.4930378e-02   4.5392250e+00   1.4204121e+00  -1.0208732e+08
   3.5678560e-10  -1.4862445e-02   4.5336131e+00   1.4261753e+00  -1.0164881e+08
   3.5745248e-10  -1.4794803e-02   4.5280133e+00   1.4319309e+00  -1.0121193e+08
   3.5811937e-10  -1.4727452e-02   4.5224255e+00   1.4376789e+00  -1.0077666e+08
   3.5878626e-10  -1.4660391e-02   4.5168499e+00   1.4434191e+00  -1.0034301e+08
   3.5945315e-10  -1.4593619e-02   4.5112865e+00   1.4491513e+00  -9.9910965e+07
   3.6012004e-10  -1.4527134e-02   4.5057354e+00   1.4548756e+00  -9.9480528e+07
   3.6078693e-10  -1.4460936e-02   4.5001967e+00   1.4605917e+00  -9.9051694e+07
   3.6145382e-10  -1.4395023e-02   4.4946705e+00   1.4662995e+00  -9.8624460e+07
   3.6212071e-10  -1.4329394e-02   4.4891568e+00   1.4719989e+00  -9.8198823e+07
   3.6278760e-10  -1.4264049e-02   4.4836557e+00   1.4776898e+00  -9.7774778e+07
   3.6345448e-10  -1.4198986e-02   4.4781673e+00   1.4833722e+00  -9.7352323e+07
   3.6412137e-10  -1.4134205e-02   4.4726916e+00   1.4890458e+00  -9.6931454e+07
   3.6478826e-10  -1.4069703e-02   4.4672287e+00   1.4947105e+00  -9.6512168e+07
   3.6545515e-10  -1.4005481e-02   4.4617787e+00   1.5003663e+00  -9.6094460e+07
   3.6612204e-10  -1.3941536e-02   4.4563417e+00   1.5060131e+00  -9.5678329e+07
   3.6678893e-10  -1.3877869e-02   4.4509177e+00   1.5116506e+00  -9.5263769e+07
   3.6745582e-10  -1.3814478e-02   4.4455068e+00   1.5172790e+00  -9.4850778e+07
   3.6812271e-10  -1.3751361e-02   4.4401089e+00   1.5228979e+00  -9.4439351e+07
   3.6878960e-10  -1.3688519e-02   4.4347243e+00   1.5285074e+00  -9.4029486e+07
   3.6945649e-10  -1.3625949e-02   4.4293530e+00   1.5341073e+00  -9.3621178e+07
   3.7012337e-10  -1.3563651e-02   4.4239949e+00   1.5396975e+00  -9.3214424e+07
   3.7079026e-10  -1.3501623e-02   4.4186502e+00   1.5452779e+00  -9.2809221e+07
   3.7145715e-10  -1.3439866e-02   4.4133190e+00   1.5508485e+00  -9.2405564e+07
   3.7212404e-10  -1.3378377e-02   4.4080012e+00   1.5564091e+00  -9.2003450e+07
   3.7279093e-10  -1.3317156e-02   4.4026970e+00   1.5619596e+00  -9.1602875e+07
   3.7345782e-10  -1.3256201e-02   4.3974064e+00   1.5674999e+00  -9.1203836e+07
   3.7412471e-10  -1.3195512e-02   4.3921294e+00   1.5730300e+00  -9.0806329e+07
   3.7479160e-10  -1.3135088e-02   4.3868660e+00   1.5785498e+00  -9.0410349e+07
   3.7545849e-10  -1.3074927e-02   4.3816165e+00   1.5840591e+00  -9.0015895e+07
   3.7612538e-10  -1.3015029e-02   4.3763807e+00   1.5895580e+00  -8.9622960e+07
   3.7679226e-10  -1.2955392e-02   4.3711587e+00   1.5950461e+00  -8.9231543e+07
   3.7745915e-10  -1.2896016e-02   4.3659506e+00   1.6005236e+00  -8.8841638e+07
   3.7812604e-10  -1.2836899e-02   4.3607565e+00   1.6059904e+00  -8.8453242e+07
   3.7879293e-10  -1.2778041e-02   4.3555763e+00   1.6114462e+00  -8.8066352e+07
   3.7945982e-10  -1.2719441e-02   4.3504101e+00   1.6168911e+00  -8.7680963e+07
   3.8012671e-10  -1.2661097e-02   4.3452580e+00   1.6223250e+00  -8.7297072e+07
   3.8079360e-10  -1.2603008e-02   4.3401199e+00   1.6277478e+00  -8.6914675e+07
   3.8146049e-10  -1.2545174e-02   4.3349960e+00   1.6331594e+00  -8.6533768e+07
   3.8212738e-10  -1.2487594e-02   4.3298863e+00   1.6385597e+00  -8.6154347e+07
   3.8279426e-10  -1.2430266e-02   4.3247907e+00   1.6439487e+00  -8.5776407e+07
   3.8346115e-10  -1.2373189e-02   4.3197094e+00   1.6493262e+00  -8.5399947e+07
   3.8412804e-10  -1.2316364e-02   4.3146424e+00   1.6546923e+00  -8.5024960e+07
   3.8479493e-10  -1.2259787e-02   4.3095897e+00   1.6600468e+00  -8.4651444e+07
   3.8546182e-10  -1.2203460e-02   4.3045513e+00   1.6653897e+00  -8.4279394e+07
   3.8612871e-10  -1.2147380e-02   4.2995273e+00   1.6707209e+00  -8.3908807e+07
   3.8679560e-10  -1.2091547e-02   4.2945177e+00   1.6760403e+00  -8.3539679e+07
   3.8746249e-10  -1.2035959e-02   4.2895225e+00   1.6813479e+00  -8.3172005e+07
   3.8812938e-10  -1.1980616e-02   4.2845419e+00   1.6866436e+00  -8.2805782e+07
   3.8879627e-10  -1.1925517e-02   4.2795757e+00   1.6919273e+00  -8.2441005e+07
   3.8946315e-10  -1.1870661e-02   4.2746240e+00   1.6971989e+00  -8.2077672e+07
   3.9013004e-10  -1.1816046e-02   4.2696868e+00   1.7024585e+00  -8.1715777e+07
   3.9079693e-10  -1.1761673e-02   4.2647643e+00   1.7077059e+00  -8.1355316e+07
   3.9146382e-10  -1.1707539e-02   4.2598563e+00   1.7129411e+00  -8.0996287e+07
   3.9213071e-10  -1.1653644e-02   4.2549629e+00   1.7181640e+00  -8.0638684e+07
   3.9279760e-10  -1.1599988e-02   4.2500842e+00   1.7233746e+00  -8.0282504e+07
   3.9346449e-10  -1.1546568e-02   4.2452202e+00   1.7285728e+00  -7.9927742e+07
   3.9413138e-10  -1.1493384e-02   4.2403708e+00   1.7337585e+00  -7.9574395e+07
   3.9479827e-10  -1.1440436e-02   4.2355361e+00   1.7389317e+00  -7.9222459e+07
   3.9546516e-10  -1.1387722e-02   4.2307162e+00   1.7440924e+00  -7.8871929e+07
   3.9613204e-10  -1.1335241e-02   4.2259110e+00   1.7492404e+00  -7.8522802e+07
   3.9679893e-10  -1.1282993e-02   4.2211205e+00   1.7543758e+00  -7.8175073e+07
   3.9746582e-10  -1.1230976e-02   4.2163448e+00   1.7594985e+00  -7.7828739e+07
   3.9813271e-10  -1.1179189e-02   4.2115839e+00   1.7646084e+00  -7.7483795e+07
   3.9879960e-10  -1.1127632e-02   4.2068378e+00   1.7697055e+00  -7.7140237e+07
   3.9946649e-10  -1.1076304e-02   4.2021066e+00   1.7747898e+00  -7.6798061e+07
   4.0013338e-10  -1.1025204e-02   4.1973901e+00   1.7798611e+00  -7.6457263e+07
   4.0080027e-10  -1.0974330e-02   4.1926885e+00   1.7849195e+00  -7.6117839e+07
   4.0146716e-10  -1.0923682e-02   4.1880017e+00   1.7899649e+00  -7.5779786e+07
   4.0213404e-10  -1.0873260e-02   4.1833298e+00   1.7949972e+00  -7.5443098e+07
   4.0280093e-10  -1.0823061e-02   4.1786728e+00   1.8000165e+00  -7.5107771e+07
   4.0346782e-10  -1.0773086e-02   4.1740306e+00   1.8050227e+00  -7.4773803e+07
   4.0413471e-10  -1.0723332e-02   4.1694033e+00   1.8100157e+00  -7.4441188e+07
   4.0480160e-10  -1.0673801e-02   4.1647910e+00   1.8149955e+00  -7.4109922e+07
   4.0546849e-10  -1.0624489e-02   4.1601935e+00   1.8199620e+00  -7.3780001e+07
   4.0613538e-10  -1.0575398e-02   4.1556109e+00   1.8249153e+00  -7.3451422e+07
   4.0680227e-10  -1.0526524e-02   4.1510432e+00   1.8298553e+00  -7.3124180e+07
   4.0746916e-10  -1.0477869e-02   4.1464905e+00   1.8347819e+00  -7.2798271e+07
   4.0813605e-10  -1.0429431e-02   4.1419526e+00   1.8396951e+00  -7.2473690e+07
   4.0880293e-10  -1.0381209e-02   4.1374297e+00   1.8445950e+00  -7.2150435e+07
   4.0946982e-10  -1.0333201e-02   4.1329217e+00   1.8494813e+00  -7.1828500e+07
   4.1013671e-10  -1.0285409e-02   4.1284286e+00   1.8543542e+00  -7.1507881e+07
   4.1080360e-10  -1.0237829e-02   4.1239505e+00   1.8592136e+00  -7.1188575e+07
   4.1147049e-10  -1.0190462e-02   4.1194872e+00   1.8640595e+00  -7.0870577e+07
   4.1213738e-10  -1.0143307e-02   4.1150389e+00   1.8688918e+00  -7.0553883e+07
   4.1280427e-10  -1.0096362e-02   4.1106055e+00   1.8737105e+00  -7.0238490e+07
   4.1347116e-10  -1.0049627e-02   4.1061871e+00   1.8785156e+00  -6.9924392e+07
   4.1413805e-10  -1.0003102e-02   4.1017835e+00   1.8833070e+00  -6.9611585e+07
   4.1480493e-10  -9.9567844e-03   4.0973949e+00   1.8880848e+00  -6.9300067e+07
   4.1547182e-10  -9.9106743e-03   4.0930211e+00   1.8928488e+00  -6.8989832e+07
   4.1613871e-10  -9.8647706e-03   4.0886623e+00   1.8975992e+00  -6.8680876e+07
   4.1680560e-10  -9.8190726e-03   4.0843184e+00   1.9023358e+00  -6.8373196e+07
   4.1747249e-10  -9.7735794e-03   4.0799893e+00   1.9070586e+00  -6.8066786e+07
   4.1813938e-10  -9.7282901e-03   4.0756752e+00   1.9117677e+00  -6.7761644e+07
   4.1880627e-10  -9.6832039e-03   4.0713759e+00   1.9164630e+00  -6.7457764e+07
   4.1947316e-10  -9.6383199e-03   4.0670915e+00   1.9211444e+00  -6.7155144e+07
   4.2014005e-10  -9.5936374e-03   4.0628219e+00   1.9258120e+00  -6.6853778e+07
   4.2080694e-10  -9.5491554e-03   4.0585672e+00   1.9304657e+00  -6.6553662e+07
   4.2147382e-10  -9.5048731e-03   4.0543273e+00   1.9351056e+00  -6.6254793e+07
   4.2214071e-10  -9.4607898e-03   4.0501023e+00   1.9397316e+00  -6.5957166e+07
   4.2280760e-10  -9.4169045e-03   4.0458921e+00   1.9443437e+00  -6.5660778e+07
   4.2347449e-10  -9.3732165e-03   4.0416967e+00   1.9489418e+00  -6.5365623e+07
   4.2414138e-10  -9.3297249e-03   4.0375161e+00   1.9535260e+00  -6.5071698e+07
   4.2480827e-10  -9.2864290e-03   4.0333502e+00   1.9580963e+00  -6.4779000e+07
   4.2547516e-10  -9.2433278e-03   4.0291992e+00   1.9626526e+00  -6.4487523e+07
   4.2614205e-10  -9.2004207e-03   4.0250629e+00   1.9671950e+00  -6.4197263e+07
   4.2680894e-10  -9.1577067e-03   4.0209413e+00   1.9717234e+00  -6.3908217e+07
   4.2747583e-10  -9.1151850e-03   4.0168345e+00   1.9762377e+00  -6.3620381e+07
   4.2814271e-10  -9.0728550e-03   4.0127424e+00   1.9807381e+00  -6.3333750e+07
   4.2880960e-10  -9.0307157e-03   4.0086650e+00   1.9852245e+00  -6.3048320e+07
   4.2947649e-10  -8.9887663e-03   4.0046023e+00   1.9896969e+00  -6.2764088e+07
   4.3014338e-10  -8.9470061e-03   4.0005542e+00   1.9941552e+00  -6.2481048e+07
   4.3081027e-10  -8.9054343e-03   3.9965208e+00   1.9985995e+00  -6.2199198e+07
   4.3147716e-10  -8.8640501e-03   3.9925020e+00   2.0030298e+00  -6.1918532e+07
   4.3214405e-10  -8.8228527e-03   3.9884979e+00   2.0074461e+00  -6.1639048e+07
   4.3281094e-10  -8.7818412e-03   3.9845083e+00   2.0118483e+00  -6.1360740e+07
   4.3347783e-10  -8.7410150e-03   3.9805333e+00   2.0162365e+00  -6.1083605e+07
   4.3414471e-10  -8.7003732e-03   3.9765729e+00   2.0206106e+00  -6.0807639e+07
   4.3481160e-10  -8.6599151e-03   3.9726270e+00   2.0249707e+00  -6.0532837e+07
   4.3547849e-10  -8.6196398e-03   3.9686956e+00   2.0293167e+00  -6.0259196e+07
   4.3614538e-10  -8.5795467e-03   3.9647787e+00   2.0336487e+00  -5.9986711e+07
   4.3681227e-10  -8.5396349e-03   3.9608763e+00   2.0379666e+00  -5.9715379e+07
   4.3747916e-10  -8.4999037e-03   3.9569884e+00   2.0422705e+00  -5.9445196e+07
   4.3814605e-10  -8.4603523e-03   3.9531149e+00   2.0465603e+00  -5.9176157e+07
   4.3881294e-10  -8.4209800e-03   3.9492558e+00   2.0508361e+00  -5.8908258e+07
   4.3947983e-10  -8.3817859e-03   3.9454111e+00   2.0550978e+00  -5.8641495e+07
   4.4014672e-10  -8.3427694e-03   3.9415807e+00   2.0593455e+00  -5.8375865e+07
   4.4081360e-10  -8.3039296e-03   3.9377647e+00   2.0635791e+00  -5.8111364e+07
   4.4148049e-10  -8.2652659e-03   3.9339630e+00   2.0677987e+00  -5.7847987e+07
   4.4214738e-10  -8.2267774e-03   3.9301756e+00   2.0720043e+00  -5.7585730e+07
   4.4281427e-10  -8.1884635e-03   3.9264025e+00   2.0761959e+00  -5.7324589e+07
   4.4348116e-10  -8.1503234e-03   3.9226436e+00   2.0803734e+00  -5.7064561e+07
   4.4414805e-10  -8.1123563e-03   3.9188990e+00   2.0845369e+00  -5.6805641e+07
   4.4481494e-10  -8.0745616e-03   3.9151685e+00   2.0886864e+00  -5.6547826e+07
   4.4548183e-10  -8.0369384e-03   3.9114522e+00   2.0928219e+00  -5.6291111e+07
   4.4614872e-10  -7.9994860e-03   3.9077500e+00   2.0969434e+00  -5.6035492e+07
   4.4681561e-10  -7.9622038e-03   3.9040620e+00   2.1010510e+00  -5.5780966e+07
   4.4748249e-10  -7.9250909e-03   3.9003881e+00   2.1051445e+00  -5.5527529e+07
   4.4814938e-10  -7.8881468e-03   3.8967282e+00   2.1092241e+00  -5.5275176e+07
   4.4881627e-10  -7.8513705e-03   3.8930823e+00   2.1132897e+00  -5.5023904e+07
   4.4948316e-10  -7.8147615e-03   3.8894505e+00   2.1173414e+00  -5.4773709e+07
   4.5015005e-10  -7.7783190e-03   3.8858326e+00   2.1213792e+00  -5.4524587e+07
   4.5081694e-10  -7.7420423e-03   3.8822287e+00   2.1254030e+00  -5.4276533e+07
   4.5148383e-10  -7.7059306e-03   3.8786387e+00   2.1294129e+00  -5.4029544e+07
   4.5215072e-10  -7.6699833e-03   3.8750626e+00   2.1334089e+00  -5.3783617e+07
   4.5281761e-10  -7.6341997e-03   3.8715004e+00   2.1373910e+00  -5.3538747e+07
   4.5348449e-10  -7.5985790e-03   3.8679520e+00   2.1413593e+00  -5.3294930e+07
   4.5415138e-10  -7.5631206e-03   3.8644174e+00   2.1453137e+00  -5.3052162e+07
   4.5481827e-10  -7.5278238e-03   3.8608966e+00   2.1492542e+00  -5.2810440e+07
   4.5548516e-10  -7.4926878e-03   3.8573896e+00   2.1531809e+00  -5.2569760e+07
   4.5615205e-10  -7.4577120e-03   3.8538962e+00   2.1570938e+00  -5.2330117e+07
   4.5681894e-10  -7.4228956e-03   3.8504165e+00   2.1609929e+00  -5.2091508e+07
   4.5748583e-10  -7.3882381e-03   3.8469505e+00   2.1648782e+00  -5.1853930e+07
   4.5815272e-10  -7.3537386e-03   3.8434981e+00   2.1687497e+00  -5.1617378e+07
   4.5881961e-10  -7.3193966e-03   3.8400594e+00   2.1726075e+00  -5.1381848e+07
   4.5948650e-10  -7.2852113e-03   3.8366341e+00   2.1764516e+00  -5.1147337e+07
   4.6015338e-10  -7.2511821e-03   3.8332224e+00   2.1802819e+00  -5.0913840e+07
   4.6082027e-10  -7.2173083e-03   3.8298242e+00   2.1840985e+00  -5.0681355e+07
   4.6148716e-10  -7.1835891e-03   3.8264395e+00   2.1879015e+00  -5.0449876e+07
   4.6215405e-10  -7.1500241e-03   3.8230681e+00   2.1916907e+00  -5.0219402e+07
   4.6282094e-10  -7.1166123e-03   3.8197102e+00   2.1954664e+00  -4.9989926e+07
   4.6348783e-10  -7.0833534e-03   3.8163657e+00   2.1992284e+00  -4.9761447e+07
   4.6415472e-10  -7.0502464e-03   3.8130345e+00   2.2029768e+00  -4.9533959e+07
   4.6482161e-10  -7.0172908e-03   3.8097165e+00   2.2067116e+00  -4.9307460e+07
   4.6548850e-10  -6.9844860e-03   3.8064119e+00   2.2104328e+00  -4.9081946e+07
   4.6615539e-10  -6.9518312e-03   3.8031205e+00   2.2141405e+00  -4.8857412e+07
   4.6682227e-10  -6.9193259e-03   3.7998423e+00   2.2178347e+00  -4.8633855e+07
   4.6748916e-10  -6.8869693e-03   3.7965772e+00   2.2215154e+00  -4.8411272e+07
   4.6815605e-10  -6.8547609e-03   3.7933253e+00   2.2251825e+00  -4.8189658e+07
   4.6882294e-10  -6.8226999e-03   3.7900865e+00   2.2288363e+00  -4.7969010e+07
   4.6948983e-10  -6.7907858e-03   3.7868607e+00   2.2324766e+00  -4.7749325e+07
   4.7015672e-10  -6.7590178e-03   3.7836480e+00   2.2361034e+00  -4.7530597e+07
   4.7082361e-10  -6.7273954e-03   3.7804483e+00   2.2397169e+00  -4.7312825e+07
   4.7149050e-10  -6.6959179e-03   3.7772615e+00   2.2433170e+00  -4.7096004e+07
   4.7215739e-10  -6.6645847e-03   3.7740877e+00   2.2469038e+00  -4.6880130e+07
   4.7282427e-10  -6.6333952e-03   3.7709267e+00   2.2504773e+00  -4.6665200e+07
   4.7349116e-10  -6.6023487e-03   3.7677786e+00   2.2540374e+00  -4.6451211e+07
   4.7415805e-10  -6.5714446e-03   3.7646433e+00   2.2575843e+00  -4.6238157e+07
   4.7482494e-10  -6.5406823e-03   3.7615208e+00   2.2611179e+00  -4.6026037e+07
   4.7549183e-10  -6.5100611e-03   3.7584110e+00   2.2646383e+00  -4.5814846e+07
   4.7615872e-10  -6.4795804e-03   3.7553140e+00   2.2681455e+00  -4.5604581e+07
   4.7682561e-10  -6.4492397e-03   3.7522296e+00   2.2716395e+00  -4.5395237e+07
   4.7749250e-10  -6.4190383e-03   3.7491579e+00   2.2751204e+00  -4.5186813e+07
   4.7815939e-10  -6.3889756e-03   3.7460988e+00   2.2785882e+00  -4.4979303e+07
   4.7882628e-10  -6.3590510e-03   3.7430522e+00   2.2820429e+00  -4.4772704e+07
   4.7949316e-10  -6.3292638e-03   3.7400182e+00   2.2854845e+00  -4.4567013e+07
   4.8016005e-10  -6.2996136e-03   3.7369967e+00   2.2889130e+00  -4.4362226e+07
   4.8082694e-10  -6.2700996e-03   3.7339876e+00   2.2923286e+00  -4.4158340e+07
   4.8149383e-10  -6.2407213e-03   3.7309909e+00   2.2957311e+00  -4.3955351e+07
   4.8216072e-10  -6.2114780e-03   3.7280067e+00   2.2991207e+00  -4.3753255e+07
   4.8282761e-10  -6.1823693e-03   3.7250348e+00   2.3024974e+00  -4.3552050e+07
   4.8349450e-10  -6.1533944e-03   3.7220752e+00   2.3058611e+00  -4.3351731e+07
   4.8416139e-10  -6.1245528e-03   3.7191278e+00   2.3092120e+00  -4.3152295e+07
   4.8482828e-10  -6.0958440e-03   3.7161928e+00   2.3125501e+00  -4.2953738e+07
   4.8549517e-10  -6.0672672e-03   3.7132699e+00   2.3158753e+00  -4.2756058e+07
   4.8616205e-10  -6.0388220e-03   3.7103591e+00   2.3191877e+00  -4.2559250e+07
   4.8682894e-10  -6.0105078e-03   3.7074606e+00   2.3224873e+00  -4.2363311e+07
   4.8749583e-10  -5.9823240e-03   3.7045740e+00   2.3257743e+00  -4.2168238e+07
   4.8816272e-10  -5.9542699e-03   3.7016996e+00   2.3290485e+00  -4.1974027e+07
   4.8882961e-10  -5.9263451e-03   3.6988372e+00   2.3323100e+00  -4.1780675e+07
   4.8949650e-10  -5.8985490e-03   3.6959867e+00   2.3355589e+00  -4.1588178e+07
   4.9016339e-10  -5.8708810e-03   3.6931482e+00   2.3387952e+00  -4.1396533e+07
   4.9083028e-10  -5.8433404e-03   3.6903216e+00   2.3420189e+00  -4.1205736e+07
   4.9149717e-10  -5.8159269e-03   3.6875068e+00   2.3452300e+00  -4.1015785e+07
   4.9216405e-10  -5.7886397e-03   3.6847039e+00   2.3484287e+00  -4.0826675e+07
   4.9283094e-10  -5.7614784e-03   3.6819128e+00   2.3516148e+00  -4.0638404e+07
   4.9349783e-10  -5.7344424e-03   3.6791334e+00   2.3547884e+00  -4.0450967e+07
   4.9416472e-10  -5.7075311e-03   3.6763657e+00   2.3579497e+00  -4.0264363e+07
   4.9483161e-10  -5.6807439e-03   3.6736097e+00   2.3610985e+00  -4.0078586e+07
   4.9549850e-10  -5.6540804e-03   3.6708654e+00   2.3642349e+00  -3.9893634e+07
   4.9616539e-10  -5.6275399e-03   3.6681326e+00   2.3673590e+00  -3.9709504e+07
   4.9683228e-10  -5.6011220e-03   3.6654115e+00   2.3704708e+00  -3.9526193e+07
   4.9749917e-10  -5.5748260e-03   3.6627018e+00   2.3735703e+00  -3.9343696e+07
   4.9816606e-10  -5.5486515e-03   3.6600036e+00   2.3766576e+00  -3.9162011e+07
   4.9883294e-10  -5.5225979e-03   3.6573169e+00   2.3797327e+00  -3.8981134e+07
   4.9949983e-10  -5.4966646e-03   3.6546416e+00   2.3827955e+00  -3.8801062e+07
   5.0016672e-10  -5.4708512e-03   3.6519777e+00   2.3858463e+00  -3.8621792e+07
   5.0083361e-10  -5.4451570e-03   3.6493251e+00   2.3888849e+00  -3.8443321e+07
   5.0150050e-10  -5.4195816e-03   3.6466838e+00   2.3919114e+00  -3.8265645e+07
   5.0216739e-10  -5.3941244e-03   3.6440537e+00   2.3949258e+00  -3.8088761e+07
   5.0283428e-10  -5.3687850e-03   3.6414349e+00   2.3979283e+00  -3.7912666e+07
   5.0350117e-10  -5.3435627e-03   3.6388273e+00   2.4009187e+00  -3.7737356e+07
   5.0416806e-10  -5.3184570e-03   3.6362308e+00   2.4038972e+00  -3.7562829e+07
   5.0483494e-10  -5.2934675e-03   3.6336454e+00   2.4068638e+00  -3.7389081e+07
   5.0550183e-10  -5.2685936e-03   3.6310711e+00   2.4098185e+00  -3.7216109e+07
   5.0616872e-10  -5.2438348e-03   3.6285079e+00   2.4127613e+00  -3.7043910e+07
   5.0683561e-10  -5.2191905e-03   3.6259556e+00   2.4156923e+00  -3.6872480e+07
   5.0750250e-10  -5.1946604e-03   3.6234143e+00   2.4186115e+00  -3.6701817e+07
   5.0816939e-10  -5.1702438e-03   3.6208839e+00   2.4215189e+00  -3.6531918e+07
   5.0883628e-10  -5.1459402e-03   3.6183643e+00   2.4244146e+00  -3.6362778e+07
   5.0950317e-10  -5.1217492e-03   3.6158557e+00   2.4272987e+00  -3.6194396e+07
   5.1017006e-10  -5.0976702e-03   3.6133578e+00   2.4301710e+00  -3.6026767e+07
   5.1083695e-10  -5.0737028e-03   3.6108707e+00   2.4330318e+00  -3.5859890e+07
   5.1150383e-10  -5.0498464e-03   3.6083943e+00   2.4358809e+00  -3.5693760e+07
   5.1217072e-10  -5.0261005e-03   3.6059286e+00   2.4387185e+00  -3.5528374e+07
   5.1283761e-10  -5.0024647e-03   3.6034736e+00   2.4415446e+00  -3.5363731e+07
   5.1350450e-10  -4.9789385e-03   3.6010292e+00   2.4443591e+00  -3.5199825e+07
   5.1417139e-10  -4.9555213e-03   3.5985954e+00   2.4471623e+00  -3.5036656e+07
   5.1483828e-10  -4.9322126e-03   3.5961721e+00   2.4499540e+00  -3.4874218e+07
   5.1550517e-10  -4.9090121e-03   3.5937593e+00   2.4527343e+00  -3.4712510e+07
   5.1617206e-10  -4.8859191e-03   3.5913570e+00   2.4555032e+00  -3.4551528e+07
   5.1683895e-10  -4.8629333e-03   3.5889651e+00   2.4582608e+00  -3.4391270e+07
   5.1750584e-10  -4.8400541e-03   3.5865836e+00   2.4610072e+00  -3.4231731e+07
   5.1817272e-10  -4.8172810e-03   3.5842124e+00   2.4637423e+00  -3.4072910e+07
   5.1883961e-10  -4.7946136e-03   3.5818516e+00   2.4664661e+00  -3.3914804e+07
   5.1950650e-10  -4.7720515e-03   3.5795010e+00   2.4691788e+00  -3.3757408e+07
   5.2017339e-10  -4.7495940e-03   3.5771607e+00   2.4718803e+00  -3.3600721e+07
   5.2084028e-10  -4.7272408e-03   3.5748306e+00   2.4745708e+00  -3.3444739e+07
   5.2150717e-10  -4.7049914e-03   3.5725106e+00   2.4772501e+00  -3.3289460e+07
   5.2217406e-10  -4.6828453e-03   3.5702008e+00   2.4799184e+00  -3.3134880e+07
   5.2284095e-10  -4.6608020e-03   3.5679011e+00   2.4825757e+00  -3.2980996e+07
   5.2350784e-10  -4.6388612e-03   3.5656114e+00   2.4852220e+00  -3.2827806e+07
   5.2417472e-10  -4.6170222e-03   3.5633317e+00   2.4878573e+00  -3.2675307e+07
   5.2484161e-10  -4.5952848e-03   3.5610620e+00   2.4904818e+00  -3.2523496e+07
   5.2550850e-10  -4.5736483e-03   3.5588023e+00   2.4930953e+00  -3.2372370e+07
   5.2617539e-10  -4.5521124e-03   3.5565525e+00   2.4956981e+00  -3.2221925e+07
   5.2684228e-10  -4.5306766e-03   3.5543125e+00   2.4982900e+00  -3.2072160e+07
   5.2750917e-10  -4.5093404e-03   3.5520824e+00   2.5008711e+00  -3.1923071e+07
   5.2817606e-10  -4.4881035e-03   3.5498620e+00   2.5034416e+00  -3.1774655e+07
   5.2884295e-10  -4.4669653e-03   3.5476514e+00   2.5060013e+00  -3.1626910e+07
   5.2950984e-10  -4.4459253e-03   3.5454506e+00   2.5085503e+00  -3.1479833e+07
   5.3017673e-10  -4.4249833e-03   3.5432594e+00   2.5110887e+00  -3.1333421e+07
   5.3084361e-10  -4.4041386e-03   3.5410779e+00   2.5136165e+00  -3.1187670e+07
   5.3151050e-10  -4.3833910e-03   3.5389060e+00   2.5161338e+00  -3.1042579e+07
   5.3217739e-10  -4.3627398e-03   3.5367436e+00   2.5186405e+00  -3.0898145e+07
   5.3284428e-10  -4.3421848e-03   3.5345908e+00   2.5211367e+00  -3.0754364e+07
   5.3351117e-10  -4.3217254e-03   3.5324475e+00   2.5236225e+00  -3.0611235e+07
   5.3417806e-10  -4.3013612e-03   3.5303137e+00   2.5260979e+00  -3.0468753e+07
   5.3484495e-10  -4.2810919e-03   3.5281893e+00   2.5285628e+00  -3.0326917e+07
   5.3551184e-10  -4.2609169e-03   3.5260742e+00   2.5310174e+00  -3.0185724e+07
   5.3617873e-10  -4.2408359e-03   3.5239686e+00   2.5334617e+00  -3.0045170e+07
   5.3684562e-10  -4.2208483e-03   3.5218722e+00   2.5358957e+00  -2.9905254e+07
   5.3751250e-10  -4.2009539e-03   3.5197852e+00   2.5383194e+00  -2.9765972e+07
   5.3817939e-10  -4.1811521e-03   3.5177074e+00   2.5407329e+00  -2.9627322e+07
   5.3884628e-10  -4.1614426e-03   3.5156388e+00   2.5431363e+00  -2.9489302e+07
   5.3951317e-10  -4.1418249e-03   3.5135794e+00   2.5455295e+00  -2.9351907e+07
   5.4018006e-10  -4.1222986e-03   3.5115291e+00   2.5479125e+00  -2.9215137e+07
   5.4084695e-10  -4.1028633e-03   3.5094880e+00   2.5502855e+00  -2.9078987e+07
   5.4151384e-10  -4.0835186e-03   3.5074559e+00   2.5526485e+00  -2.8943456e+07
   5.4218073e-10  -4.0642641e-03   3.5054328e+00   2.5550014e+00  -2.8808541e+07
   5.4284762e-10  -4.0450993e-03   3.5034187e+00   2.5573444e+00  -2.8674239e+07
   5.4351450e-10  -4.0260239e-03   3.5014136e+00   2.5596774e+00  -2.8540547e+07
   5.4418139e-10  -4.0070374e-03   3.4994175e+00   2.5620005e+00  -2.8407464e+07
   5.4484828e-10  -3.9881394e-03   3.4974302e+00   2.5643138e+00  -2.8274985e+07
   5.4551517e-10  -3.9693296e-03   3.4954518e+00   2.5666172e+00  -2.8143109e+07
   5.4618206e-10  -3.9506076e-03   3.4934822e+00   2.5689108e+00  -2.8011834e+07
   5.4684895e-10  -3.9319728e-03   3.4915214e+00   2.5711946e+00  -2.7881156e+07
   5.4751584e-10  -3.9134251e-03   3.4895694e+00   2.5734687e+00  -2.7751073e+07
   5.4818273e-10  -3.8949638e-03   3.4876261e+00   2.5757331e+00  -2.7621582e+07
   5.4884962e-10  -3.8765887e-03   3.4856914e+00   2.5779878e+00  -2.7492681e+07
   5.4951651e-10  -3.8582994e-03   3.4837654e+00   2.5802329e+00  -2.7364367e+07
   5.5018339e-10  -3.8400954e-03   3.4818481e+00   2.5824684e+00  -2.7236638e+07
   5.5085028e-10  -3.8219764e-03   3.4799393e+00   2.5846944e+00  -2.7109491e+07
   5.5151717e-10  -3.8039420e-03   3.4780390e+00   2.5869108e+00  -2.6982925e+07
   5.5218406e-10  -3.7859918e-03   3.4761473e+00   2.5891177e+00  -2.6856935e+07
   5.5285095e-10  -3.7681254e-03   3.4742640e+00   2.5913151e+00  -2.6731520e+07
   5.5351784e-10  -3.7503425e-03   3.4723892e+00   2.5935032e+00  -2.6606677e+07
   5.5418473e-10  -3.7326426e-03   3.4705228e+00   2.5956818e+00  -2.6482404e+07
   5.5485162e-10  -3.7150254e-03   3.4686648e+00   2.5978510e+00  -2.6358698e+07
   5.5551851e-10  -3.6974905e-03   3.4668151e+00   2.6000110e+00  -2.6235557e+07
   5.5618540e-10  -3.6800375e-03   3.4649738e+00   2.6021616e+00  -2.6112979e+07
   5.5685228e-10  -3.6626660e-03   3.4631407e+00   2.6043030e+00  -2.5990960e+07
   5.5751917e-10  -3.6453758e-03   3.4613158e+00   2.6064352e+00  -2.5869499e+07
   5.5818606e-10  -3.6281663e-03   3.4594992e+00   2.6085581e+00  -2.5748593e+07
   5.5885295e-10  -3.6110373e-03   3.4576907e+00   2.6106719e+00  -2.5628239e+07
   5.5951984e-10  -3.5939883e-03   3.4558904e+00   2.6127766e+00  -2.5508436e+07
   5.6018673e-10  -3.5770190e-03   3.4540982e+00   2.6148722e+00  -2.5389181e+07
   5.6085362e-10  -3.5601291e-03   3.4523141e+00   2.6169587e+00  -2.5270471e+07
   5.6152051e-10  -3.5433182e-03   3.4505380e+00   2.6190363e+00  -2.5152305e+07
   5.6218740e-10  -3.5265858e-03   3.4487699e+00   2.6211048e+00  -2.5034679e+07
   5.6285428e-10  -3.5099317e-03   3.4470098e+00   2.6231643e+00  -2.4917591e+07
   5.6352117e-10  -3.4933555e-03   3.4452576e+00   2.6252150e+00  -2.4801040e+07
   5.6418806e-10  -3.4768569e-03   3.4435134e+00   2.6272567e+00  -2.4685022e+07
   5.6485495e-10  -3.4604354e-03   3.4417770e+00   2.6292896e+00  -2.4569536e+07
   5.6552184e-10  -3.4440907e-03   3.4400485e+00   2.6313137e+00  -2.4454579e+07
   5.6618873e-10  -3.4278226e-03   3.4383277e+00   2.6333289e+00  -2.4340148e+07
   5.6685562e-10  -3.4116305e-03   3.4366148e+00   2.6353354e+00  -2.4226242e+07
   5.6752251e-10  -3.3955142e-03   3.4349096e+00   2.6373332e+00  -2.4112858e+07
   5.6818940e-10  -3.3794734e-03   3.4332122e+00   2.6393223e+00  -2.3999994e+07
   5.6885629e-10  -3.3635076e-03   3.4315224e+00   2.6413027e+00  -2.3887647e+07
   5.6952317e-10  -3.3476166e-03   3.4298403e+00   2.6432745e+00  -2.3775816e+07
   5.7019006e-10  -3.3317999e-03   3.4281658e+00   2.6452377e+00  -2.3664498e+07
   5.7085695e-10  -3.3160573e-03   3.4264989e+00   2.6471923e+00  -2.3553691e+07
   5.7152384e-10  -3.3003885e-03   3.4248395e+00   2.6491385e+00  -2.3443392e+07
   5.7219073e-10  -3.2847930e-03   3.4231877e+00   2.6510761e+00  -2.3333599e+07
   5.7285762e-10  -3.2692705e-03   3.4215434e+00   2.6530052e+00  -2.3224311e+07
   5.7352451e-10  -3.2538207e-03   3.4199065e+00   2.6549259e+00  -2.3115524e+07
   5.7419140e-10  -3.2384433e-03   3.4182771e+00   2.6568382e+00  -2.3007238e+07
   5.7485829e-10  -3.2231380e-03   3.4166550e+00   2.6587421e+00  -2.2899448e+07
   5.7552518e-10  -3.2079043e-03   3.4150404e+00   2.6606377e+00  -2.2792154e+07
   5.7619206e-10  -3.1927420e-03   3.4134331e+00   2.6625250e+00  -2.2685353e+07
   5.7685895e-10  -3.1776508e-03   3.4118331e+00   2.6644040e+00  -2.2579043e+07
   5.7752584e-10  -3.1626303e-03   3.4102403e+00   2.6662748e+00  -2.2473222e+07
   5.7819273e-10  -3.1476801e-03   3.4086548e+00   2.6681374e+00  -2.2367888e+07
   5.7885962e-10  -3.1328001e-03   3.4070766e+00   2.6699918e+00  -2.2263038e+07
   5.7952651e-10  -3.1179898e-03   3.4055055e+00   2.6718380e+00  -2.2158670e+07
   5.8019340e-10  -3.1032489e-03   3.4039416e+00   2.6736761e+00  -2.2054782e+07
   5.8086029e-10  -3.0885771e-03   3.4023848e+00   2.6755062e+00  -2.1951373e+07
   5.8152718e-10  -3.0739741e-03   3.4008351e+00   2.6773282e+00  -2.1848440e+07
   5.8219406e-10  -3.0594396e-03   3.3992925e+00   2.6791421e+00  -2.1745980e+07
   5.8286095e-10  -3.0449732e-03   3.3977569e+00   2.6809481e+00  -2.1643992e+07
   5.8352784e-10  -3.0305747e-03   3.3962283e+00   2.6827461e+00  -2.1542474e+07
   5.8419473e-10  -3.0162437e-03   3.3947067e+00   2.6845362e+00  -2.1441424e+07
   5.8486162e-10  -3.0019800e-03   3.3931920e+00   2.6863184e+00  -2.1340839e+07
   5.8552851e-10  -2.9877831e-03   3.3916843e+00   2.6880927e+00  -2.1240717e+07
   5.8619540e-10  -2.9736528e-03   3.3901834e+00   2.6898592e+00  -2.1141057e+07
   5.8686229e-10  -2.9595888e-03   3.3886894e+00   2.6916179e+00  -2.1041857e+07
   5.8752918e-10  -2.9455909e-03   3.3872023e+00   2.6933688e+00  -2.0943113e+07
   5.8819607e-10  -2.9316586e-03   3.3857219e+00   2.6951120e+00  -2.0844825e+07
   5.8886295e-10  -2.9177916e-03   3.3842483e+00   2.6968475e+00  -2.0746991e+07
   5.8952984e-10  -2.9039898e-03   3.3827814e+00   2.6985753e+00  -2.0649607e+07
   5.9019673e-10  -2.8902527e-03   3.3813213e+00   2.7002954e+00  -2.0552673e+07
   5.9086362e-10  -2.8765801e-03   3.3798678e+00   2.7020079e+00  -2.0456186e+07
   5.9153051e-10  -2.8629717e-03   3.3784210e+00   2.7037128e+00  -2.0360145e+07
   5.9219740e-10  -2.8494272e-03   3.3769809e+00   2.7054102e+00  -2.0264547e+07
   5.9286429e-10  -2.8359462e-03   3.3755473e+00   2.7071000e+00  -2.0169390e+07
   5.9353118e-10  -2.8225286e-03   3.3741203e+00   2.7087824e+00  -2.0074672e+07
   5.9419807e-10  -2.8091739e-03   3.3726998e+00   2.7104572e+00  -1.9980392e+07
   5.9486495e-10  -2.7958820e-03   3.3712859e+00   2.7121247e+00  -1.9886547e+07
   5.9553184e-10  -2.7826525e-03   3.3698784e+00   2.7137847e+00  -1.9793136e+07
   5.9619873e-10  -2.7694851e-03   3.3684774e+00   2.7154373e+00  -1.9700157e+07
   5.9686562e-10  -2.7563796e-03   3.3670829e+00   2.7170826e+00  -1.9607607e+07
   5.9753251e-10  -2.7433356e-03   3.3656947e+00   2.7187206e+00  -1.9515485e+07
   5.9819940e-10  -2.7303529e-03   3.3643129e+00   2.7203512e+00  -1.9423789e+07
   5.9886629e-10  -2.7174312e-03   3.3629374e+00   2.7219746e+00  -1.9332517e+07
   5.9953318e-10  -2.7045702e-03   3.3615683e+00   2.7235908e+00  -1.9241666e+07
   6.0020007e-10  -2.6917697e-03   3.3602055e+00   2.7251998e+00  -1.9151236e+07
   6.0086696e-10  -2.6790292e-03   3.3588489e+00   2.7268016e+00  -1.9061225e+07
   6.0153384e-10  -2.6663487e-03   3.3574986e+00   2.7283962e+00  -1.8971629e+07
   6.0220073e-10  -2.6537277e-03   3.3561545e+00   2.7299838e+00  -1.8882449e+07
   6.0286762e-10  -2.6411661e-03   3.3548165e+00   2.7315642e+00  -1.8793681e+07
   6.0353451e-10  -2.6286635e-03   3.3534847e+00   2.7331376e+00  -1.8705324e+07
   6.0420140e-10  -2.6162197e-03   3.3521591e+00   2.7347039e+00  -1.8617375e+07
   6.0486829e-10  -2.6038344e-03   3.3508395e+00   2.7362633e+00  -1.8529835e+07
   6.0553518e-10  -2.5915073e-03   3.3495261e+00   2.7378157e+00  -1.8442699e+07
   6.0620207e-10  -2.5792381e-03   3.3482186e+00   2.7393611e+00  -1.8355967e+07
   6.0686896e-10  -2.5670267e-03   3.3469172e+00   2.7408996e+00  -1.8269637e+07
   6.0753585e-10  -2.5548726e-03   3.3456218e+00   2.7424313e+00  -1.8183706e+07
   6.0820273e-10  -2.5427757e-03   3.3443324e+00   2.7439560e+00  -1.8098174e+07
   6.0886962e-10  -2.5307358e-03   3.3430489e+00   2.7454740e+00  -1.8013038e+07
   6.0953651e-10  -2.5187524e-03   3.3417714e+00   2.7469851e+00  -1.7928297e+07
   6.1020340e-10  -2.5068254e-03   3.3404997e+00   2.7484895e+00  -1.7843949e+07
   6.1087029e-10  -2.4949545e-03   3.3392339e+00   2.7499871e+00  -1.7759991e+07
   6.1153718e-10  -2.4831394e-03   3.3379739e+00   2.7514780e+00  -1.7676423e+07
   6.1220407e-10  -2.4713799e-03   3.3367198e+00   2.7529622e+00  -1.7593242e+07
   6.1287096e-10  -2.4596758e-03   3.3354714e+00   2.7544397e+00  -1.7510448e+07
   6.1353785e-10  -2.4480267e-03   3.3342288e+00   2.7559106e+00  -1.7428037e+07
   6.1420473e-10  -2.4364324e-03   3.3329920e+00   2.7573749e+00  -1.7346008e+07
   6.1487162e-10  -2.4248927e-03   3.3317608e+00   2.7588326e+00  -1.7264361e+07
   6.1553851e-10  -2.4134073e-03   3.3305354e+00   2.7602837e+00  -1.7183092e+07
   6.1620540e-10  -2.4019759e-03   3.3293156e+00   2.7617284e+00  -1.7102200e+07
   6.1687229e-10  -2.3905984e-03   3.3281015e+00   2.7631665e+00  -1.7021684e+07
   6.1753918e-10  -2.3792744e-03   3.3268929e+00   2.7645981e+00  -1.6941542e+07
   6.1820607e-10  -2.3680037e-03   3.3256900e+00   2.7660233e+00  -1.6861771e+07
   6.1887296e-10  -2.3567860e-03   3.3244926e+00   2.7674421e+00  -1.6782371e+07
   6.1953985e-10  -2.3456212e-03   3.3233008e+00   2.7688545e+00  -1.6703340e+07
   6.2020674e-10  -2.3345089e-03   3.3221145e+00   2.7702605e+00  -1.6624676e+07
   6.2087362e-10  -2.3234489e-03   3.3209336e+00   2.7716602e+00  -1.6546378e+07
   6.2154051e-10  -2.3124411e-03   3.3197583e+00   2.7730536e+00  -1.6468443e+07
   6.2220740e-10  -2.3014850e-03   3.3185883e+00   2.7744406e+00  -1.6390871e+07
   6.2287429e-10  -2.2905805e-03   3.3174238e+00   2.7758215e+00  -1.6313659e+07
   6.2354118e-10  -2.2797274e-03   3.3162647e+00   2.7771960e+00  -1.6236805e+07
   6.2420807e-10  -2.2689254e-03   3.3151110e+00   2.7785644e+00  -1.6160310e+07
   6.2487496e-10  -2.2581743e-03   3.3139626e+00   2.7799266e+00  -1.6084169e+07
   6.2554185e-10  -2.2474739e-03   3.3128196e+00   2.7812826e+00  -1.6008383e+07
   6.2620874e-10  -2.2368238e-03   3.3116818e+00   2.7826325e+00  -1.5932950e+07
   6.2687563e-10  -2.2262239e-03   3.3105493e+00   2.7839763e+00  -1.5857867e+07
   6.2754251e-10  -2.2156739e-03   3.3094221e+00   2.7853140e+00  -1.5783133e+07
   6.2820940e-10  -2.2051736e-03   3.3083000e+00   2.7866457e+00  -1.5708747e+07
   6.2887629e-10  -2.1947228e-03   3.3071832e+00   2.7879713e+00  -1.5634707e+07
   6.2954318e-10  -2.1843213e-03   3.3060716e+00   2.7892910e+00  -1.5561012e+07
   6.3021007e-10  -2.1739688e-03   3.3049652e+00   2.7906046e+00  -1.5487660e+07
   6.3087696e-10  -2.1636650e-03   3.3038638e+00   2.7919123e+00  -1.5414649e+07
   6.3154385e-10  -2.1534098e-03   3.3027676e+00   2.7932141e+00  -1.5341978e+07
   6.3221074e-10  -2.1432029e-03   3.3016765e+00   2.7945100e+00  -1.5269645e+07
   6.3287763e-10  -2.1330442e-03   3.3005905e+00   2.7958000e+00  -1.5197650e+07
   6.3354451e-10  -2.1229333e-03   3.2995094e+00   2.7970841e+00  -1.5125989e+07
   6.3421140e-10  -2.1128701e-03   3.2984335e+00   2.7983624e+00  -1.5054662e+07
   6.3487829e-10  -2.1028543e-03   3.2973625e+00   2.7996349e+00  -1.4983668e+07
   6.3554518e-10  -2.0928857e-03   3.2962965e+00   2.8009017e+00  -1.4913004e+07
   6.3621207e-10  -2.0829641e-03   3.2952354e+00   2.8021627e+00  -1.4842669e+07
   6.3687896e-10  -2.0730893e-03   3.2941793e+00   2.8034179e+00  -1.4772662e+07
   6.3754585e-10  -2.0632611e-03   3.2931281e+00   2.8046675e+00  -1.4702982e+07
   6.3821274e-10  -2.0534792e-03   3.2920818e+00   2.8059113e+00  -1.4633626e+07
   6.3887963e-10  -2.0437434e-03   3.2910403e+00   2.8071496e+00  -1.4564594e+07
   6.3954652e-10  -2.0340536e-03   3.2900037e+00   2.8083821e+00  -1.4495883e+07
   6.4021340e-10  -2.0244094e-03   3.2889719e+00   2.8096091e+00  -1.4427492e+07
   6.4088029e-10  -2.0148107e-03   3.2879450e+00   2.8108305e+00  -1.4359421e+07
   6.4154718e-10  -2.0052573e-03   3.2869228e+00   2.8120463e+00  -1.4291667e+07
   6.4221407e-10  -1.9957489e-03   3.2859053e+00   2.8132566e+00  -1.4224229e+07
   6.4288096e-10  -1.9862854e-03   3.2848926e+00   2.8144614e+00  -1.4157105e+07
   6.4354785e-10  -1.9768666e-03   3.2838846e+00   2.8156607e+00  -1.4090295e+07
   6.4421474e-10  -1.9674921e-03   3.2828814e+00   2.8168545e+00  -1.4023796e+07
   6.4488163e-10  -1.9581619e-03   3.2818827e+00   2.8180429e+00  -1.3957608e+07
   6.4554852e-10  -1.9488757e-03   3.2808888e+00   2.8192259e+00  -1.3891729e+07
   6.4621541e-10  -1.9396334e-03   3.2798994e+00   2.8204035e+00  -1.3826157e+07
   6.4688229e-10  -1.9304346e-03   3.2789147e+00   2.8215757e+00  -1.3760891e+07
   6.4754918e-10  -1.9212792e-03   3.2779346e+00   2.8227425e+00  -1.3695929e+07
   6.4821607e-10  -1.9121671e-03   3.2769590e+00   2.8239041e+00  -1.3631271e+07
   6.4888296e-10  -1.9030979e-03   3.2759880e+00   2.8250603e+00  -1.3566915e+07
   6.4954985e-10  -1.8940715e-03   3.2750215e+00   2.8262113e+00  -1.3502860e+07
   6.5021674e-10  -1.8850878e-03   3.2740596e+00   2.8273569e+00  -1.3439103e+07
   6.5088363e-10  -1.8761464e-03   3.2731021e+00   2.8284974e+00  -1.3375645e+07
   6.5155052e-10  -1.8672472e-03   3.2721490e+00   2.8296326e+00  -1.3312482e+07
   6.5221741e-10  -1.8583901e-03   3.2712005e+00   2.8307627e+00  -1.3249615e+07
   6.5288429e-10  -1.8495747e-03   3.2702563e+00   2.8318876e+00  -1.3187042e+07
   6.5355118e-10  -1.8408010e-03   3.2693166e+00   2.8330073e+00  -1.3124761e+07
   6.5421807e-10  -1.8320686e-03   3.2683812e+00   2.8341220e+00  -1.3062771e+07
   6.5488496e-10  -1.8233775e-03   3.2674502e+00   2.8352315e+00  -1.3001070e+07
   6.5555185e-10  -1.8147275e-03   3.2665236e+00   2.8363359e+00  -1.2939658e+07
   6.5621874e-10  -1.8061183e-03   3.2656013e+00   2.8374353e+00  -1.2878534e+07
   6.5688563e-10  -1.7975497e-03   3.2646833e+00   2.8385297e+00  -1.2817694e+07
   6.5755252e-10  -1.7890216e-03   3.2637696e+00   2.8396190e+00  -1.2757140e+07
   6.5821941e-10  -1.7805337e-03   3.2628601e+00   2.8407034e+00  -1.2696868e+07
   6.5888630e-10  -1.7720860e-03   3.2619549e+00   2.8417828e+00  -1.2636879e+07
   6.5955318e-10  -1.7636781e-03   3.2610540e+00   2.8428572e+00  -1.2577170e+07
   6.6022007e-10  -1.7553099e-03   3.2601572e+00   2.8439268e+00  -1.2517740e+07
   6.6088696e-10  -1.7469813e-03   3.2592646e+00   2.8449914e+00  -1.2458588e+07
   6.6155385e-10  -1.7386920e-03   3.2583762e+00   2.8460511e+00  -1.2399713e+07
   6.6222074e-10  -1.7304418e-03   3.2574920e+00   2.8471060e+00  -1.2341113e+07
   6.6288763e-10  -1.7222306e-03   3.2566119e+00   2.8481560e+00  -1.2282788e+07
   6.6355452e-10  -1.7140583e-03   3.2557359e+00   2.8492012e+00  -1.2224735e+07
   6.6422141e-10  -1.7059245e-03   3.2548640e+00   2.8502416e+00  -1.2166954e+07
   6.6488830e-10  -1.6978291e-03   3.2539962e+00   2.8512773e+00  -1.2109444e+07
   6.6555519e-10  -1.6897720e-03   3.2531325e+00   2.8523082e+00  -1.2052203e+07
   6.6622207e-10  -1.6817529e-03   3.2522727e+00   2.8533343e+00  -1.1995229e+07
   6.6688896e-10  -1.6737718e-03   3.2514171e+00   2.8543558e+00  -1.1938523e+07
   6.6755585e-10  -1.6658283e-03   3.2505654e+00   2.8553725e+00  -1.1882082e+07
   6.6822274e-10  -1.6579224e-03   3.2497177e+00   2.8563846e+00  -1.1825905e+07
   6.6888963e-10  -1.6500538e-03   3.2488740e+00   2.8573920e+00  -1.1769991e+07
   6.6955652e-10  -1.6422225e-03   3.2480342e+00   2.8583948e+00  -1.1714340e+07
   6.7022341e-10  -1.6344281e-03   3.2471983e+00   2.8593930e+00  -1.1658949e+07
   6.7089030e-10  -1.6266706e-03   3.2463664e+00   2.8603865e+00  -1.1603817e+07
   6.7155719e-10  -1.6189497e-03   3.2455384e+00   2.8613756e+00  -1.1548944e+07
   6.7222407e-10  -1.6112653e-03   3.2447142e+00   2.8623600e+00  -1.1494327e+07
   6.7289096e-10  -1.6036173e-03   3.2438939e+00   2.8633399e+00  -1.1439967e+07
   6.7355785e-10  -1.5960054e-03   3.2430775e+00   2.8643154e+00  -1.1385861e+07
   6.7422474e-10  -1.5884294e-03   3.2422648e+00   2.8652863e+00  -1.1332009e+07
   6.7489163e-10  -1.5808893e-03   3.2414560e+00   2.8662528e+00  -1.1278410e+07
   6.7555852e-10  -1.5733848e-03   3.2406510e+00   2.8672148e+00  -1.1225061e+07
   6.7622541e-10  -1.5659158e-03   3.2398497e+00   2.8681723e+00  -1.1171963e+07
   6.7689230e-10  -1.5584822e-03   3.2390522e+00   2.8691255e+00  -1.1119114e+07
   6.7755919e-10  -1.5510836e-03   3.2382585e+00   2.8700743e+00  -1.1066512e+07
   6.7822608e-10  -1.5437201e-03   3.2374684e+00   2.8710187e+00  -1.1014157e+07
   6.7889296e-10  -1.5363913e-03   3.2366821e+00   2.8719587e+00  -1.0962048e+07
   6.7955985e-10  -1.5290972e-03   3.2358995e+00   2.8728944e+00  -1.0910182e+07
   6.8022674e-10  -1.5218376e-03   3.2351205e+00   2.8738258e+00  -1.0858561e+07
   6.8089363e-10  -1.5146124e-03   3.2343452e+00   2.8747529e+00  -1.0807181e+07
   6.8156052e-10  -1.5074213e-03   3.2335735e+00   2.8756757e+00  -1.0756042e+07
   6.8222741e-10  -1.5002642e-03   3.2328054e+00   2.8765943e+00  -1.0705144e+07
   6.8289430e-10  -1.4931409e-03   3.2320409e+00   2.8775086e+00  -1.0654484e+07
   6.8356119e-10  -1.4860514e-03   3.2312801e+00   2.8784187e+00  -1.0604061e+07
   6.8422808e-10  -1.4789954e-03   3.2305228e+00   2.8793246e+00  -1.0553876e+07
   6.8489496e-10  -1.4719727e-03   3.2297690e+00   2.8802264e+00  -1.0503926e+07
   6.8556185e-10  -1.4649833e-03   3.2290188e+00   2.8811239e+00  -1.0454210e+07
   6.8622874e-10  -1.4580269e-03   3.2282721e+00   2.8820173e+00  -1.0404727e+07
   6.8689563e-10  -1.4511035e-03   3.2275289e+00   2.8829066e+00  -1.0355477e+07
   6.8756252e-10  -1.4442127e-03   3.2267893e+00   2.8837918e+00  -1.0306458e+07
   6.8822941e-10  -1.4373546e-03   3.2260530e+00   2.8846728e+00  -1.0257670e+07
   6.8889630e-10  -1.4305290e-03   3.2253203e+00   2.8855498e+00  -1.0209110e+07
   6.8956319e-10  -1.4237356e-03   3.2245909e+00   2.8864228e+00  -1.0160778e+07
   6.9023008e-10  -1.4169743e-03   3.2238651e+00   2.8872917e+00  -1.0112674e+07
   6.9089697e-10  -1.4102451e-03   3.2231426e+00   2.8881566e+00  -1.0064795e+07
   6.9156385e-10  -1.4035477e-03   3.2224235e+00   2.8890175e+00  -1.0017141e+07
   6.9223074e-10  -1.3968820e-03   3.2217078e+00   2.8898744e+00  -9.9697108e+06
   6.9289763e-10  -1.3902478e-03   3.2209954e+00   2.8907273e+00  -9.9225035e+06
   6.9356452e-10  -1.3836450e-03   3.2202864e+00   2.8915763e+00  -9.8755180e+06
   6.9423141e-10  -1.3770735e-03   3.2195807e+00   2.8924214e+00  -9.8287532e+06
   6.9489830e-10  -1.3705331e-03   3.2188784e+00   2.8932625e+00  -9.7822081e+06
   6.9556519e-10  -1.3640236e-03   3.2181793e+00   2.8940998e+00  -9.7358818e+06
   6.9623208e-10  -1.3575449e-03   3.2174836e+00   2.8949332e+00  -9.6897732e+06
   6.9689897e-10  -1.3510969e-03   3.2167911e+00   2.8957627e+00  -9.6438812e+06
   6.9756586e-10  -1.3446794e-03   3.2161018e+00   2.8965884e+00  -9.5982049e+06
   6.9823274e-10  -1.3382923e-03   3.2154158e+00   2.8974102e+00  -9.5527434e+06
   6.9889963e-10  -1.3319354e-03   3.2147331e+00   2.8982283e+00  -9.5074955e+06
   6.9956652e-10  -1.3256086e-03   3.2140535e+00   2.8990425e+00  -9.4624603e+06
   7.0023341e-10  -1.3193118e-03   3.2133772e+00   2.8998530e+00  -9.4176368e+06
   7.0090030e-10  -1.3130447e-03   3.2127040e+00   2.9006597e+00  -9.3730241e+06
   7.0156719e-10  -1.3068074e-03   3.2120340e+00   2.9014627e+00  -9.3286212e+06
   7.0223408e-10  -1.3005995e-03   3.2113671e+00   2.9022620e+00  -9.2844271e+06
   7.0290097e-10  -1.2944211e-03   3.2107034e+00   2.9030575e+00  -9.2404408e+06
   7.0356786e-10  -1.2882719e-03   3.2100428e+00   2.9038494e+00  -9.1966613e+06
   7.0423474e-10  -1.2821518e-03   3.2093853e+00   2.9046375e+00  -9.1530878e+06
   7.0490163e-10  -1.2760607e-03   3.2087309e+00   2.9054221e+00  -9.1097192e+06
   7.0556852e-10  -1.2699985e-03   3.2080795e+00   2.9062029e+00  -9.0665547e+06
   7.0623541e-10  -1.2639649e-03   3.2074313e+00   2.9069802e+00  -9.0235932e+06
   7.0690230e-10  -1.2579599e-03   3.2067861e+00   2.9077538e+00  -8.9808338e+06
   7.0756919e-10  -1.2519834e-03   3.2061439e+00   2.9085239e+00  -8.9382756e+06
   7.0823608e-10  -1.2460351e-03   3.2055048e+00   2.9092904e+00  -8.8959177e+06
   7.0890297e-10  -1.2401151e-03   3.2048686e+00   2.9100533e+00  -8.8537592e+06
   7.0956986e-10  -1.2342230e-03   3.2042355e+00   2.9108127e+00  -8.8117990e+06
   7.1023675e-10  -1.2283589e-03   3.2036054e+00   2.9115685e+00  -8.7700362e+06
   7.1090363e-10  -1.2225225e-03   3.2029782e+00   2.9123209e+00  -8.7284701e+06
   7.1157052e-10  -1.2167138e-03   3.2023539e+00   2.9130697e+00  -8.6870996e+06
   7.1223741e-10  -1.2109326e-03   3.2017326e+00   2.9138151e+00  -8.6459239e+06
   7.1290430e-10  -1.2051788e-03   3.2011143e+00   2.9145570e+00  -8.6049420e+06
   7.1357119e-10  -1.1994522e-03   3.2004988e+00   2.9152954e+00  -8.5641530e+06
   7.1423808e-10  -1.1937528e-03   3.1998863e+00   2.9160304e+00  -8.5235561e+06
   7.1490497e-10  -1.1880803e-03   3.1992766e+00   2.9167620e+00  -8.4831503e+06
   7.1557186e-10  -1.1824348e-03   3.1986698e+00   2.9174902e+00  -8.4429347e+06
   7.1623875e-10  -1.1768159e-03   3.1980659e+00   2.9182150e+00  -8.4029086e+06
   7.1690564e-10  -1.1712237e-03   3.1974648e+00   2.9189364e+00  -8.3630710e+06
   7.1757252e-10  -1.1656580e-03   3.1968665e+00   2.9196545e+00  -8.3234210e+06
   7.1823941e-10  -1.1601187e-03   3.1962711e+00   2.9203692e+00  -8.2839578e+06
   7.1890630e-10  -1.1546056e-03   3.1956784e+00   2.9210806e+00  -8.2446804e+06
   7.1957319e-10  -1.1491186e-03   3.1950886e+00   2.9217887e+00  -8.2055881e+06
   7.2024008e-10  -1.1436576e-03   3.1945015e+00   2.9224935e+00  -8.1666799e+06
   7.2090697e-10  -1.1382225e-03   3.1939172e+00   2.9231950e+00  -8.1279550e+06
   7.2157386e-10  -1.1328132e-03   3.1933357e+00   2.9238933e+00  -8.0894127e+06
   7.2224075e-10  -1.1274295e-03   3.1927569e+00   2.9245883e+00  -8.0510520e+06
   7.2290764e-10  -1.1220713e-03   3.1921809e+00   2.9252801e+00  -8.0128721e+06
   7.2357452e-10  -1.1167385e-03   3.1916075e+00   2.9259686e+00  -7.9748721e+06
   7.2424141e-10  -1.1114309e-03   3.1910369e+00   2.9266539e+00  -7.9370512e+06
   7.2490830e-10  -1.1061486e-03   3.1904689e+00   2.9273361e+00  -7.8994085e+06
   7.2557519e-10  -1.1008912e-03   3.1899036e+00   2.9280150e+00  -7.8619432e+06
   7.2624208e-10  -1.0956588e-03   3.1893410e+00   2.9286908e+00  -7.8246546e+06
   7.2690897e-10  -1.0904512e-03   3.1887811e+00   2.9293634e+00  -7.7875416e+06
   7.2757586e-10  -1.0852682e-03   3.1882238e+00   2.9300330e+00  -7.7506037e+06
   7.2824275e-10  -1.0801098e-03   3.1876691e+00   2.9306993e+00  -7.7138400e+06
   7.2890964e-10  -1.0749759e-03   3.1871170e+00   2.9313626e+00  -7.6772495e+06
   7.2957653e-10  -1.0698663e-03   3.1865676e+00   2.9320228e+00  -7.6408313e+06
   7.3024341e-10  -1.0647809e-03   3.1860207e+00   2.9326799e+00  -7.6045847e+06
   7.3091030e-10  -1.0597197e-03   3.1854764e+00   2.9333339e+00  -7.5685089e+06
   7.3157719e-10  -1.0546824e-03   3.1849347e+00   2.9339849e+00  -7.5326027e+06
   7.3224408e-10  -1.0496690e-03   3.1843955e+00   2.9346329e+00  -7.4968663e+06
   7.3291097e-10  -1.0446794e-03   3.1838589e+00   2.9352778e+00  -7.4612993e+06
   7.3357786e-10  -1.0397134e-03   3.1833248e+00   2.9359197e+00  -7.4259001e+06
   7.3424475e-10  -1.0347710e-03   3.1827933e+00   2.9365586e+00  -7.3906678e+06
   7.3491164e-10  -1.0298520e-03   3.1822642e+00   2.9371946e+00  -7.3556015e+06
   7.3557853e-10  -1.0249563e-03   3.1817377e+00   2.9378276e+00  -7.3207002e+06
   7.3624542e-10  -1.0200839e-03   3.1812136e+00   2.9384576e+00  -7.2859641e+06
   7.3691230e-10  -1.0152345e-03   3.1806920e+00   2.9390846e+00  -7.2513922e+06
   7.3757919e-10  -1.0104082e-03   3.1801729e+00   2.9397088e+00  -7.2169834e+06
   7.3824608e-10  -1.0056047e-03   3.1796562e+00   2.9403300e+00  -7.1827368e+06
   7.3891297e-10  -1.0008240e-03   3.1791420e+00   2.9409483e+00  -7.1486517e+06
   7.3957986e-10  -9.9606598e-04   3.1786301e+00   2.9415638e+00  -7.1147273e+06
   7.4024675e-10  -9.9133052e-04   3.1781208e+00   2.9421763e+00  -7.0809632e+06
   7.4091364e-10  -9.8661752e-04   3.1776138e+00   2.9427860e+00  -7.0473584e+06
   7.4158053e-10  -9.8192687e-04   3.1771092e+00   2.9433929e+00  -7.0139122e+06
   7.4224742e-10  -9.7725847e-04   3.1766070e+00   2.9439969e+00  -6.9806239e+06
   7.4291430e-10  -9.7261220e-04   3.1761071e+00   2.9445981e+00  -6.9474928e+06
   7.4358119e-10  -9.6798798e-04   3.1756097e+00   2.9451965e+00  -6.9145181e+06
   7.4424808e-10  -9.6338568e-04   3.1751145e+00   2.9457921e+00  -6.8816990e+06
   7.4491497e-10  -9.5880522e-04   3.1746217e+00   2.9463848e+00  -6.8490350e+06
   7.4558186e-10  -9.5424648e-04   3.1741313e+00   2.9469749e+00  -6.8165251e+06
   7.4624875e-10  -9.4970936e-04   3.1736432e+00   2.9475621e+00  -6.7841687e+06
   7.4691564e-10  -9.4519377e-04   3.1731573e+00   2.9481467e+00  -6.7519651e+06
   7.4758253e-10  -9.4069960e-04   3.1726738e+00   2.9487284e+00  -6.7199136e+06
   7.4824942e-10  -9.3622674e-04   3.1721925e+00   2.9493075e+00  -6.6880134e+06
   7.4891631e-10  -9.3177511e-04   3.1717136e+00   2.9498839e+00  -6.6562640e+06
   7.4958319e-10  -9.2734459e-04   3.1712368e+00   2.9504575e+00  -6.6246646e+06
   7.5025008e-10  -9.2293509e-04   3.1707624e+00   2.9510285e+00  -6.5932144e+06
   7.5091697e-10  -9.1854651e-04   3.1702902e+00   2.9515968e+00  -6.5619128e+06
   7.5158386e-10  -9.1417875e-04   3.1698202e+00   2.9521624e+00  -6.5307590e+06
   7.5225075e-10  -9.0983171e-04   3.1693524e+00   2.9527254e+00  -6.4997525e+06
   7.5291764e-10  -9.0550530e-04   3.1688869e+00   2.9532858e+00  -6.4688923e+06
   7.5358453e-10  -9.0119941e-04   3.1684235e+00   2.9538435e+00  -6.4381780e+06
   7.5425142e-10  -8.9691396e-04   3.1679624e+00   2.9543986e+00  -6.4076087e+06
   7.5491831e-10  -8.9264884e-04   3.1675034e+00   2.9549512e+00  -6.3771840e+06
   7.5558520e-10  -8.8840395e-04   3.1670466e+00   2.9555011e+00  -6.3469030e+06
   7.5625208e-10  -8.8417921e-04   3.1665919e+00   2.9560485e+00  -6.3167651e+06
   7.5691897e-10  -8.7997452e-04   3.1661394e+00   2.9565933e+00  -6.2867697e+06
   7.5758586e-10  -8.7578978e-04   3.1656891e+00   2.9571355e+00  -6.2569160e+06
   7.5825275e-10  -8.7162490e-04   3.1652409e+00   2.9576752e+00  -6.2272034e+06
   7.5891964e-10  -8.6747978e-04   3.1647948e+00   2.9582124e+00  -6.1976313e+06
   7.5958653e-10  -8.6335433e-04   3.1643508e+00   2.9587470e+00  -6.1681989e+06
   7.6025342e-10  -8.5924846e-04   3.1639089e+00   2.9592792e+00  -6.1389057e+06
   7.6092031e-10  -8.5516208e-04   3.1634691e+00   2.9598088e+00  -6.1097509e+06
   7.6158720e-10  -8.5109509e-04   3.1630313e+00   2.9603360e+00  -6.0807340e+06
   7.6225408e-10  -8.4704741e-04   3.1625957e+00   2.9608607e+00  -6.0518543e+06
   7.6292097e-10  -8.4301893e-04   3.1621621e+00   2.9613830e+00  -6.0231111e+06
   7.6358786e-10  -8.3900958e-04   3.1617305e+00   2.9619028e+00  -5.9945038e+06
   7.6425475e-10  -8.3501925e-04   3.1613010e+00   2.9624201e+00  -5.9660318e+06
   7.6492164e-10  -8.3104787e-04   3.1608736e+00   2.9629350e+00  -5.9376945e+06
   7.6558853e-10  -8.2709533e-04   3.1604481e+00   2.9634476e+00  -5.9094912e+06
   7.6625542e-10  -8.2316156e-04   3.1600247e+00   2.9639577e+00  -5.8814212e+06
   7.6692231e-10  -8.1924646e-04   3.1596033e+00   2.9644654e+00  -5.8534840e+06
   7.6758920e-10  -8.1534995e-04   3.1591839e+00   2.9649707e+00  -5.8256789e+06
   7.6825609e-10  -8.1147193e-04   3.1587664e+00   2.9654737e+00  -5.7980054e+06
   7.6892297e-10  -8.0761232e-04   3.1583509e+00   2.9659743e+00  -5.7704628e+06
   7.6958986e-10  -8.0377104e-04   3.1579374e+00   2.9664726e+00  -5.7430504e+06
   7.7025675e-10  -7.9994799e-04   3.1575259e+00   2.9669685e+00  -5.7157676e+06
   7.7092364e-10  -7.9614309e-04   3.1571163e+00   2.9674621e+00  -5.6886140e+06
   7.7159053e-10  -7.9235625e-04   3.1567086e+00   2.9679534e+00  -5.6615889e+06
   7.7225742e-10  -7.8858739e-04   3.1563029e+00   2.9684423e+00  -5.6346915e+06
   7.7292431e-10  -7.8483643e-04   3.1558991e+00   2.9689290e+00  -5.6079215e+06
   7.7359120e-10  -7.8110328e-04   3.1554972e+00   2.9694134e+00  -5.5812781e+06
   7.7425809e-10  -7.7738785e-04   3.1550972e+00   2.9698955e+00  -5.5547607e+06
   7.7492497e-10  -7.7369006e-04   3.1546991e+00   2.9703754e+00  -5.5283689e+06
   7.7559186e-10  -7.7000983e-04   3.1543029e+00   2.9708530e+00  -5.5021020e+06
   7.7625875e-10  -7.6634707e-04   3.1539085e+00   2.9713283e+00  -5.4759594e+06
   7.7692564e-10  -7.6270171e-04   3.1535161e+00   2.9718014e+00  -5.4499404e+06
   7.7759253e-10  -7.5907365e-04   3.1531255e+00   2.9722723e+00  -5.4240447e+06
   7.7825942e-10  -7.5546283e-04   3.1527367e+00   2.9727410e+00  -5.3982715e+06
   7.7892631e-10  -7.5186915e-04   3.1523498e+00   2.9732075e+00  -5.3726203e+06
   7.7959320e-10  -7.4829254e-04   3.1519647e+00   2.9736718e+00  -5.3470905e+06
   7.8026009e-10  -7.4473291e-04   3.1515814e+00   2.9741339e+00  -5.3216816e+06
   7.8092698e-10  -7.4119018e-04   3.1512000e+00   2.9745939e+00  -5.2963929e+06
   7.8159386e-10  -7.3766428e-04   3.1508203e+00   2.9750517e+00  -5.2712240e+06
   7.8226075e-10  -7.3415513e-04   3.1504425e+00   2.9755073e+00  -5.2461742e+06
   7.8292764e-10  -7.3066264e-04   3.1500664e+00   2.9759608e+00  -5.2212430e+06
   7.8359453e-10  -7.2718674e-04   3.1496922e+00   2.9764121e+00  -5.1964299e+06
   7.8426142e-10  -7.2372735e-04   3.1493197e+00   2.9768614e+00  -5.1717343e+06
   7.8492831e-10  -7.2028439e-04   3.1489489e+00   2.9773085e+00  -5.1471556e+06
   7.8559520e-10  -7.1685778e-04   3.1485800e+00   2.9777535e+00  -5.1226933e+06
   7.8626209e-10  -7.1344744e-04   3.1482127e+00   2.9781965e+00  -5.0983468e+06
   7.8692898e-10  -7.1005331e-04   3.1478472e+00   2.9786373e+00  -5.0741157e+06
   7.8759587e-10  -7.0667529e-04   3.1474835e+00   2.9790761e+00  -5.0499992e+06
   7.8826275e-10  -7.0331333e-04   3.1471214e+00   2.9795128e+00  -5.0259970e+06
   7.8892964e-10  -6.9996733e-04   3.1467611e+00   2.9799474e+00  -5.0021085e+06
   7.8959653e-10  -6.9663722e-04   3.1464025e+00   2.9803801e+00  -4.9783331e+06
   7.9026342e-10  -6.9332294e-04   3.1460456e+00   2.9808106e+00  -4.9546704e+06
   7.9093031e-10  -6.9002440e-04   3.1456904e+00   2.9812392e+00  -4.9311197e+06
   7.9159720e-10  -6.8674152e-04   3.1453368e+00   2.9816657e+00  -4.9076806e+06
   7.9226409e-10  -6.8347425e-04   3.1449850e+00   2.9820903e+00  -4.8843525e+06
   7.9293098e-10  -6.8022249e-04   3.1446348e+00   2.9825128e+00  -4.8611350e+06
   7.9359787e-10  -6.7698619e-04   3.1442863e+00   2.9829333e+00  -4.8380274e+06
   7.9426475e-10  -6.7376526e-04   3.1439394e+00   2.9833519e+00  -4.8150293e+06
   7.9493164e-10  -6.7055963e-04   3.1435941e+00   2.9837685e+00  -4.7921402e+06
   7.9559853e-10  -6.6736923e-04   3.1432505e+00   2.9841831e+00  -4.7693595e+06
   7.9626542e-10  -6.6419399e-04   3.1429086e+00   2.9845958e+00  -4.7466868e+06
   7.9693231e-10  -6.6103383e-04   3.1425682e+00   2.9850066e+00  -4.7241215e+06
   7.9759920e-10  -6.5788869e-04   3.1422295e+00   2.9854154e+00  -4.7016632e+06
   7.9826609e-10  -6.5475850e-04   3.1418924e+00   2.9858222e+00  -4.6793113e+06
   7.9893298e-10  -6.5164317e-04   3.1415568e+00   2.9862272e+00  -4.6570653e+06
   7.9959987e-10  -6.4854265e-04   3.1412229e+00   2.9866303e+00  -4.6349247e+06
   8.0026676e-10  -6.4545686e-04   3.1408905e+00   2.9870314e+00  -4.6128891e+06
   8.0093364e-10  -6.4238574e-04   3.1405598e+00   2.9874307e+00  -4.5909579e+06
   8.0160053e-10  -6.3932921e-04   3.1402305e+00   2.9878281e+00  -4.5691306e+06
   8.0226742e-10  -6.3628720e-04   3.1399029e+00   2.9882236e+00  -4.5474068e+06
   8.0293431e-10  -6.3325964e-04   3.1395768e+00   2.9886173e+00  -4.5257860e+06
   8.0360120e-10  -6.3024648e-04   3.1392522e+00   2.9890091e+00  -4.5042677e+06
   8.0426809e-10  -6.2724763e-04   3.1389292e+00   2.9893990e+00  -4.4828513e+06
   8.0493498e-10  -6.2426304e-04   3.1386077e+00   2.9897872e+00  -4.4615365e+06
   8.0560187e-10  -6.2129262e-04   3.1382878e+00   2.9901735e+00  -4.4403228e+06
   8.0626876e-10  -6.1833633e-04   3.1379694e+00   2.9905579e+00  -4.4192096e+06
   8.0693565e-10  -6.1539408e-04   3.1376524e+00   2.9909406e+00  -4.3981965e+06
   8.0760253e-10  -6.1246582e-04   3.1373370e+00   2.9913215e+00  -4.3772831e+06
   8.0826942e-10  -6.0955147e-04   3.1370231e+00   2.9917005e+00  -4.3564688e+06
   8.0893631e-10  -6.0665098e-04   3.1367106e+00   2.9920778e+00  -4.3357532e+06
   8.0960320e-10  -6.0376427e-04   3.1363997e+00   2.9924533e+00  -4.3151358e+06
   8.1027009e-10  -6.0089128e-04   3.1360902e+00   2.9928270e+00  -4.2946163e+06
   8.1093698e-10  -5.9803194e-04   3.1357822e+00   2.9931990e+00  -4.2741940e+06
   8.1160387e-10  -5.9518620e-04   3.1354756e+00   2.9935692e+00  -4.2538685e+06
   8.1227076e-10  -5.9235398e-04   3.1351705e+00   2.9939377e+00  -4.2336395e+06
   8.1293765e-10  -5.8953522e-04   3.1348669e+00   2.9943044e+00  -4.2135064e+06
   8.1360453e-10  -5.8672986e-04   3.1345647e+00   2.9946694e+00  -4.1934688e+06
   8.1427142e-10  -5.8393784e-04   3.1342639e+00   2.9950327e+00  -4.1735262e+06
   8.1493831e-10  -5.8115909e-04   3.1339646e+00   2.9953943e+00  -4.1536782e+06
   8.1560520e-10  -5.7839354e-04   3.1336666e+00   2.9957541e+00  -4.1339244e+06
   8.1627209e-10  -5.7564115e-04   3.1333701e+00   2.9961123e+00  -4.1142643e+06
   8.1693898e-10  -5.7290183e-04   3.1330750e+00   2.9964688e+00  -4.0946974e+06
   8.1760587e-10  -5.7017554e-04   3.1327813e+00   2.9968236e+00  -4.0752233e+06
   8.1827276e-10  -5.6746221e-04   3.1324890e+00   2.9971767e+00  -4.0558417e+06
   8.1893965e-10  -5.6476178e-04   3.1321981e+00   2.9975282e+00  -4.0365520e+06
   8.1960654e-10  -5.6207418e-04   3.1319085e+00   2.9978780e+00  -4.0173538e+06
   8.2027342e-10  -5.5939936e-04   3.1316203e+00   2.9982261e+00  -3.9982466e+06
   8.2094031e-10  -5.5673726e-04   3.1313335e+00   2.9985726e+00  -3.9792301e+06
   8.2160720e-10  -5.5408781e-04   3.1310481e+00   2.9989175e+00  -3.9603039e+06
   8.2227409e-10  -5.5145096e-04   3.1307640e+00   2.9992608e+00  -3.9414674e+06
   8.2294098e-10  -5.4882665e-04   3.1304813e+00   2.9996024e+00  -3.9227203e+06
   8.2360787e-10  -5.4621481e-04   3.1301999e+00   2.9999424e+00  -3.9040622e+06
   8.2427476e-10  -5.4361539e-04   3.1299198e+00   3.0002808e+00  -3.8854926e+06
   8.2494165e-10  -5.4102833e-04   3.1296411e+00   3.0006176e+00  -3.8670112e+06
   8.2560854e-10  -5.3845357e-04   3.1293637e+00   3.0009529e+00  -3.8486174e+06
   8.2627543e-10  -5.3589106e-04   3.1290876e+00   3.0012865e+00  -3.8303110e+06
   8.2694231e-10  -5.3334072e-04   3.1288128e+00   3.0016186e+00  -3.8120914e+06
   8.2760920e-10  -5.3080251e-04   3.1285393e+00   3.0019491e+00  -3.7939583e+06
   8.2827609e-10  -5.2827637e-04   3.1282672e+00   3.0022780e+00  -3.7759112e+06
   8.2894298e-10  -5.2576225e-04   3.1279963e+00   3.0026054e+00  -3.7579498e+06
   8.2960987e-10  -5.2326007e-04   3.1277267e+00   3.0029312e+00  -3.7400737e+06
   8.3027676e-10  -5.2076980e-04   3.1274583e+00   3.0032555e+00  -3.7222824e+06
   8.3094365e-10  -5.1829136e-04   3.1271913e+00   3.0035783e+00  -3.7045756e+06
   8.3161054e-10  -5.1582472e-04   3.1269255e+00   3.0038996e+00  -3.6869528e+06
   8.3227743e-10  -5.1336980e-04   3.1266610e+00   3.0042193e+00  -3.6694136e+06
   8.3294431e-10  -5.1092655e-04   3.1263977e+00   3.0045375e+00  -3.6519578e+06
   8.3361120e-10  -5.0849492e-04   3.1261357e+00   3.0048542e+00  -3.6345848e+06
   8.3427809e-10  -5.0607486e-04   3.1258750e+00   3.0051695e+00  -3.6172942e+06
   8.3494498e-10  -5.0366631e-04   3.1256154e+00   3.0054832e+00  -3.6000858e+06
   8.3561187e-10  -5.0126921e-04   3.1253571e+00   3.0057954e+00  -3.5829590e+06
   8.3627876e-10  -4.9888351e-04   3.1251001e+00   3.0061062e+00  -3.5659136e+06
   8.3694565e-10  -4.9650915e-04   3.1248442e+00   3.0064155e+00  -3.5489491e+06
   8.3761254e-10  -4.9414609e-04   3.1245896e+00   3.0067234e+00  -3.5320651e+06
   8.3827943e-10  -4.9179426e-04   3.1243362e+00   3.0070298e+00  -3.5152614e+06
   8.3894632e-10  -4.8945362e-04   3.1240840e+00   3.0073347e+00  -3.4985374e+06
   8.3961320e-10  -4.8712411e-04   3.1238329e+00   3.0076382e+00  -3.4818928e+06
   8.4028009e-10  -4.8480569e-04   3.1235831e+00   3.0079403e+00  -3.4653272e+06
   8.4094698e-10  -4.8249828e-04   3.1233345e+00   3.0082409e+00  -3.4488404e+06
   8.4161387e-10  -4.8020185e-04   3.1230870e+00   3.0085402e+00  -3.4324318e+06
   8.4228076e-10  -4.7791635e-04   3.1228407e+00   3.0088380e+00  -3.4161011e+06
   8.4294765e-10  -4.7564171e-04   3.1225956e+00   3.0091344e+00  -3.3998480e+06
   8.4361454e-10  -4.7337790e-04   3.1223516e+00   3.0094294e+00  -3.3836720e+06
   8.4428143e-10  -4.7112485e-04   3.1221088e+00   3.0097230e+00  -3.3675729e+06
   8.4494832e-10  -4.6888252e-04   3.1218672e+00   3.0100152e+00  -3.3515503e+06
   8.4561521e-10  -4.6665085e-04   3.1216267e+00   3.0103061e+00  -3.3356037e+06
   8.4628209e-10  -4.6442980e-04   3.1213874e+00   3.0105955e+00  -3.3197329e+06
   8.4694898e-10  -4.6221931e-04   3.1211491e+00   3.0108836e+00  -3.3039375e+06
   8.4761587e-10  -4.6001934e-04   3.1209121e+00   3.0111704e+00  -3.2882171e+06
   8.4828276e-10  -4.5782983e-04   3.1206761e+00   3.0114557e+00  -3.2725714e+06
   8.4894965e-10  -4.5565074e-04   3.1204413e+00   3.0117398e+00  -3.2570000e+06
   8.4961654e-10  -4.5348201e-04   3.1202076e+00   3.0120225e+00  -3.2415026e+06
   8.5028343e-10  -4.5132360e-04   3.1199749e+00   3.0123038e+00  -3.2260788e+06
   8.5095032e-10  -4.4917545e-04   3.1197434e+00   3.0125838e+00  -3.2107283e+06
   8.5161721e-10  -4.4703753e-04   3.1195130e+00   3.0128625e+00  -3.1954506e+06
   8.5228409e-10  -4.4490977e-04   3.1192837e+00   3.0131399e+00  -3.1802456e+06
   8.5295098e-10  -4.4279214e-04   3.1190555e+00   3.0134160e+00  -3.1651128e+06
   8.5361787e-10  -4.4068458e-04   3.1188284e+00   3.0136907e+00  -3.1500519e+06
   8.5428476e-10  -4.3858705e-04   3.1186023e+00   3.0139642e+00  -3.1350626e+06
   8.5495165e-10  -4.3649949e-04   3.1183773e+00   3.0142364e+00  -3.1201445e+06
   8.5561854e-10  -4.3442187e-04   3.1181534e+00   3.0145073e+00  -3.1052972e+06
   8.5628543e-10  -4.3235413e-04   3.1179306e+00   3.0147769e+00  -3.0905205e+06
   8.5695232e-10  -4.3029623e-04   3.1177088e+00   3.0150452e+00  -3.0758140e+06
   8.5761921e-10  -4.2824812e-04   3.1174881e+00   3.0153122e+00  -3.0611774e+06
   8.5828610e-10  -4.2620975e-04   3.1172684e+00   3.0155780e+00  -3.0466104e+06
   8.5895298e-10  -4.2418108e-04   3.1170497e+00   3.0158426e+00  -3.0321126e+06
   8.5961987e-10  -4.2216206e-04   3.1168321e+00   3.0161059e+00  -3.0176836e+06
   8.6028676e-10  -4.2015265e-04   3.1166156e+00   3.0163679e+00  -3.0033233e+06
   8.6095365e-10  -4.1815280e-04   3.1164000e+00   3.0166287e+00  -2.9890311e+06
   8.6162054e-10  -4.1616246e-04   3.1161855e+00   3.0168883e+00  -2.9748069e+06
   8.6228743e-10  -4.1418159e-04   3.1159720e+00   3.0171466e+00  -2.9606503e+06
   8.6295432e-10  -4.1221015e-04   3.1157595e+00   3.0174037e+00  -2.9465610e+06
   8.6362121e-10  -4.1024809e-04   3.1155480e+00   3.0176596e+00  -2.9325386e+06
   8.6428810e-10  -4.0829536e-04   3.1153376e+00   3.0179143e+00  -2.9185829e+06
   8.6495498e-10  -4.0635192e-04   3.1151281e+00   3.0181678e+00  -2.9046935e+06
   8.6562187e-10  -4.0441773e-04   3.1149196e+00   3.0184201e+00  -2.8908701e+06
   8.6628876e-10  -4.0249275e-04   3.1147122e+00   3.0186712e+00  -2.8771124e+06
   8.6695565e-10  -4.0057692e-04   3.1145057e+00   3.0189211e+00  -2.8634201e+06
   8.6762254e-10  -3.9867021e-04   3.1143002e+00   3.0191698e+00  -2.8497929e+06
   8.6828943e-10  -3.9677257e-04   3.1140956e+00   3.0194173e+00  -2.8362305e+06
   8.6895632e-10  -3.9488396e-04   3.1138921e+00   3.0196637e+00  -2.8227325e+06
   8.6962321e-10  -3.9300434e-04   3.1136895e+00   3.0199089e+00  -2.8092987e+06
   8.7029010e-10  -3.9113366e-04   3.1134878e+00   3.0201529e+00  -2.7959288e+06
   8.7095699e-10  -3.8927189e-04   3.1132872e+00   3.0203958e+00  -2.7826224e+06
   8.7162387e-10  -3.8741897e-04   3.1130874e+00   3.0206376e+00  -2.7693792e+06
   8.7229076e-10  -3.8557487e-04   3.1128887e+00   3.0208782e+00  -2.7561991e+06
   8.7295765e-10  -3.8373954e-04   3.1126908e+00   3.0211176e+00  -2.7430815e+06
   8.7362454e-10  -3.8191295e-04   3.1124939e+00   3.0213559e+00  -2.7300264e+06
   8.7429143e-10  -3.8009505e-04   3.1122980e+00   3.0215931e+00  -2.7170333e+06
   8.7495832e-10  -3.7828581e-04   3.1121030e+00   3.0218292e+00  -2.7041020e+06
   8.7562521e-10  -3.7648517e-04   3.1119089e+00   3.0220641e+00  -2.6912322e+06
   8.7629210e-10  -3.7469310e-04   3.1117157e+00   3.0222980e+00  -2.6784235e+06
   8.7695899e-10  -3.7290956e-04   3.1115235e+00   3.0225307e+00  -2.6656758e+06
   8.7762588e-10  -3.7113450e-04   3.1113321e+00   3.0227623e+00  -2.6529886e+06
   8.7829276e-10  -3.6936790e-04   3.1111417e+00   3.0229929e+00  -2.6403618e+06
   8.7895965e-10  -3.6760970e-04   3.1109522e+00   3.0232223e+00  -2.6277950e+06
   8.7962654e-10  -3.6585986e-04   3.1107636e+00   3.0234507e+00  -2.6152880e+06
   8.8029343e-10  -3.6411836e-04   3.1105758e+00   3.0236779e+00  -2.6028405e+06
   8.8096032e-10  -3.6238514e-04   3.1103890e+00   3.0239041e+00  -2.5904521e+06
   8.8162721e-10  -3.6066018e-04   3.1102031e+00   3.0241293e+00  -2.5781227e+06
   8.8229410e-10  -3.5894342e-04   3.1100180e+00   3.0243533e+00  -2.5658518e+06
   8.8296099e-10  -3.5723483e-04   3.1098338e+00   3.0245763e+00  -2.5536394e+06
   8.8362788e-10  -3.5553437e-04   3.1096505e+00   3.0247983e+00  -2.5414850e+06
   8.8429476e-10  -3.5384201e-04   3.1094681e+00   3.0250192e+00  -2.5293884e+06
   8.8496165e-10  -3.5215770e-04   3.1092865e+00   3.0252390e+00  -2.5173493e+06
   8.8562854e-10  -3.5048141e-04   3.1091058e+00   3.0254578e+00  -2.5053675e+06
   8.8629543e-10  -3.4881309e-04   3.1089260e+00   3.0256756e+00  -2.4934426e+06
   8.8696232e-10  -3.4715272e-04   3.1087470e+00   3.0258923e+00  -2.4815745e+06
   8.8762921e-10  -3.4550025e-04   3.1085689e+00   3.0261080e+00  -2.4697628e+06
   8.8829610e-10  -3.4385564e-04   3.1083916e+00   3.0263227e+00  -2.4580073e+06
   8.8896299e-10  -3.4221886e-04   3.1082152e+00   3.0265364e+00  -2.4463077e+06
   8.8962988e-10  -3.4058987e-04   3.1080395e+00   3.0267490e+00  -2.4346638e+06
   8.9029677e-10  -3.3896863e-04   3.1078648e+00   3.0269607e+00  -2.4230752e+06
   8.9096365e-10  -3.3735511e-04   3.1076908e+00   3.0271713e+00  -2.4115417e+06
   8.9163054e-10  -3.3574927e-04   3.1075177e+00   3.0273810e+00  -2.4000631e+06
   8.9229743e-10  -3.3415108e-04   3.1073454e+00   3.0275896e+00  -2.3886391e+06
   8.9296432e-10  -3.3256049e-04   3.1071740e+00   3.0277973e+00  -2.3772695e+06
   8.9363121e-10  -3.3097747e-04   3.1070033e+00   3.0280040e+00  -2.3659539e+06
   8.9429810e-10  -3.2940199e-04   3.1068335e+00   3.0282097e+00  -2.3546921e+06
   8.9496499e-10  -3.2783400e-04   3.1066644e+00   3.0284144e+00  -2.3434840e+06
   8.9563188e-10  -3.2627348e-04   3.1064962e+00   3.0286182e+00  -2.3323291e+06
   8.9629877e-10  -3.2472039e-04   3.1063288e+00   3.0288209e+00  -2.3212273e+06
   8.9696566e-10  -3.2317469e-04   3.1061621e+00   3.0290228e+00  -2.3101783e+06
   8.9763254e-10  -3.2163634e-04   3.1059963e+00   3.0292236e+00  -2.2991819e+06
   8.9829943e-10  -3.2010532e-04   3.1058313e+00   3.0294236e+00  -2.2882377e+06
   8.9896632e-10  -3.1858159e-04   3.1056670e+00   3.0296225e+00  -2.2773457e+06
   8.9963321e-10  -3.1706511e-04   3.1055035e+00   3.0298206e+00  -2.2665054e+06
   9.0030010e-10  -3.1555585e-04   3.1053408e+00   3.0300177e+00  -2.2557168e+06
   9.0096699e-10  -3.1405377e-04   3.1051789e+00   3.0302138e+00  -2.2449794e+06
   9.0163388e-10  -3.1255884e-04   3.1050177e+00   3.0304090e+00  -2.2342931e+06
   9.0230077e-10  -3.1107103e-04   3.1048573e+00   3.0306033e+00  -2.2236577e+06
   9.0296766e-10  -3.0959030e-04   3.1046977e+00   3.0307967e+00  -2.2130729e+06
   9.0363454e-10  -3.0811662e-04   3.1045388e+00   3.0309892e+00  -2.2025384e+06
   9.0430143e-10  -3.0664996e-04   3.1043807e+00   3.0311807e+00  -2.1920541e+06
   9.0496832e-10  -3.0519028e-04   3.1042233e+00   3.0313714e+00  -2.1816196e+06
   9.0563521e-10  -3.0373754e-04   3.1040667e+00   3.0315611e+00  -2.1712348e+06
   9.0630210e-10  -3.0229172e-04   3.1039108e+00   3.0317500e+00  -2.1608994e+06
   9.0696899e-10  -3.0085279e-04   3.1037557e+00   3.0319379e+00  -2.1506131e+06
   9.0763588e-10  -2.9942070e-04   3.1036013e+00   3.0321250e+00  -2.1403758e+06
   9.0830277e-10  -2.9799543e-04   3.1034476e+00   3.0323111e+00  -2.1301873e+06
   9.0896966e-10  -2.9657694e-04   3.1032947e+00   3.0324964e+00  -2.1200472e+06
   9.0963655e-10  -2.9516521e-04   3.1031425e+00   3.0326808e+00  -2.1099553e+06
   9.1030343e-10  -2.9376020e-04   3.1029910e+00   3.0328643e+00  -2.0999115e+06
   9.1097032e-10  -2.9236188e-04   3.1028403e+00   3.0330470e+00  -2.0899154e+06
   9.1163721e-10  -2.9097021e-04   3.1026902e+00   3.0332288e+00  -2.0799669e+06
   9.1230410e-10  -2.8958517e-04   3.1025409e+00   3.0334097e+00  -2.0700658e+06
   9.1297099e-10  -2.8820672e-04   3.1023923e+00   3.0335898e+00  -2.0602118e+06
   9.1363788e-10  -2.8683484e-04   3.1022444e+00   3.0337690e+00  -2.0504046e+06
   9.1430477e-10  -2.8546949e-04   3.1020972e+00   3.0339474e+00  -2.0406442e+06
   9.1497166e-10  -2.8411063e-04   3.1019507e+00   3.0341249e+00  -2.0309302e+06
   9.1563855e-10  -2.8275825e-04   3.1018049e+00   3.0343016e+00  -2.0212624e+06
   9.1630544e-10  -2.8141230e-04   3.1016597e+00   3.0344774e+00  -2.0116406e+06
   9.1697232e-10  -2.8007276e-04   3.1015153e+00   3.0346525e+00  -2.0020646e+06
   9.1763921e-10  -2.7873960e-04   3.1013716e+00   3.0348266e+00  -1.9925341e+06
   9.1830610e-10  -2.7741278e-04   3.1012285e+00   3.0350000e+00  -1.9830491e+06
   9.1897299e-10  -2.7609229e-04   3.1010862e+00   3.0351725e+00  -1.9736091e+06
   9.1963988e-10  -2.7477807e-04   3.1009445e+00   3.0353442e+00  -1.9642141e+06
   9.2030677e-10  -2.7347012e-04   3.1008034e+00   3.0355151e+00  -1.9548638e+06
   9.2097366e-10  -2.7216839e-04   3.1006631e+00   3.0356852e+00  -1.9455580e+06
   9.2164055e-10  -2.7087286e-04   3.1005234e+00   3.0358545e+00  -1.9362965e+06
   9.2230744e-10  -2.6958350e-04   3.1003844e+00   3.0360230e+00  -1.9270791e+06
   9.2297432e-10  -2.6830028e-04   3.1002460e+00   3.0361907e+00  -1.9179055e+06
   9.2364121e-10  -2.6702316e-04   3.1001083e+00   3.0363575e+00  -1.9087756e+06
   9.2430810e-10  -2.6575213e-04   3.0999713e+00   3.0365236e+00  -1.8996892e+06
   9.2497499e-10  -2.6448714e-04   3.0998349e+00   3.0366889e+00  -1.8906460e+06
   9.2564188e-10  -2.6322818e-04   3.0996992e+00   3.0368534e+00  -1.8816458e+06
   9.2630877e-10  -2.6197522e-04   3.0995641e+00   3.0370172e+00  -1.8726885e+06
   9.2697566e-10  -2.6072821e-04   3.0994296e+00   3.0371801e+00  -1.8637738e+06
   9.2764255e-10  -2.5948715e-04   3.0992958e+00   3.0373423e+00  -1.8549015e+06
   9.2830944e-10  -2.5825199e-04   3.0991626e+00   3.0375038e+00  -1.8460715e+06
   9.2897633e-10  -2.5702272e-04   3.0990301e+00   3.0376644e+00  -1.8372835e+06
   9.2964321e-10  -2.5579930e-04   3.0988982e+00   3.0378243e+00  -1.8285373e+06
   9.3031010e-10  -2.5458170e-04   3.0987669e+00   3.0379834e+00  -1.8198327e+06
   9.3097699e-10  -2.5336990e-04   3.0986362e+00   3.0381418e+00  -1.8111696e+06
   9.3164388e-10  -2.5216387e-04   3.0985062e+00   3.0382994e+00  -1.8025477e+06
   9.3231077e-10  -2.5096358e-04   3.0983768e+00   3.0384563e+00  -1.7939669e+06
   9.3297766e-10  -2.4976901e-04   3.0982480e+00   3.0386124e+00  -1.7854269e+06
   9.3364455e-10  -2.4858012e-04   3.0981198e+00   3.0387678e+00  -1.7769276e+06
   9.3431144e-10  -2.4739690e-04   3.0979922e+00   3.0389225e+00  -1.7684687e+06
   9.3497833e-10  -2.4621930e-04   3.0978652e+00   3.0390764e+00  -1.7600500e+06
   9.3564522e-10  -2.4504732e-04   3.0977389e+00   3.0392296e+00  -1.7516715e+06
   9.3631210e-10  -2.4388091e-04   3.0976131e+00   3.0393820e+00  -1.7433328e+06
   9.3697899e-10  -2.4272006e-04   3.0974879e+00   3.0395338e+00  -1.7350339e+06
   9.3764588e-10  -2.4156474e-04   3.0973633e+00   3.0396848e+00  -1.7267744e+06
   9.3831277e-10  -2.4041491e-04   3.0972394e+00   3.0398351e+00  -1.7185542e+06
   9.3897966e-10  -2.3927056e-04   3.0971160e+00   3.0399847e+00  -1.7103732e+06
   9.3964655e-10  -2.3813166e-04   3.0969932e+00   3.0401336e+00  -1.7022311e+06
   9.4031344e-10  -2.3699819e-04   3.0968710e+00   3.0402817e+00  -1.6941278e+06
   9.4098033e-10  -2.3587011e-04   3.0967493e+00   3.0404292e+00  -1.6860631e+06
   9.4164722e-10  -2.3474740e-04   3.0966283e+00   3.0405760e+00  -1.6780367e+06
   9.4231410e-10  -2.3363003e-04   3.0965078e+00   3.0407220e+00  -1.6700486e+06
   9.4298099e-10  -2.3251799e-04   3.0963879e+00   3.0408674e+00  -1.6620985e+06
   9.4364788e-10  -2.3141124e-04   3.0962685e+00   3.0410121e+00  -1.6541862e+06
   9.4431477e-10  -2.3030976e-04   3.0961498e+00   3.0411561e+00  -1.6463116e+06
   9.4498166e-10  -2.2921352e-04   3.0960316e+00   3.0412994e+00  -1.6384745e+06
   9.4564855e-10  -2.2812251e-04   3.0959139e+00   3.0414421e+00  -1.6306747e+06
   9.4631544e-10  -2.2703669e-04   3.0957968e+00   3.0415840e+00  -1.6229120e+06
   9.4698233e-10  -2.2595604e-04   3.0956803e+00   3.0417253e+00  -1.6151863e+06
   9.4764922e-10  -2.2488053e-04   3.0955643e+00   3.0418659e+00  -1.6074974e+06
   9.4831611e-10  -2.2381015e-04   3.0954489e+00   3.0420059e+00  -1.5998451e+06
   9.4898299e-10  -2.2274486e-04   3.0953340e+00   3.0421452e+00  -1.5922292e+06
   9.4964988e-10  -2.2168465e-04   3.0952197e+00   3.0422838e+00  -1.5846495e+06
   9.5031677e-10  -2.2062948e-04   3.0951059e+00   3.0424217e+00  -1.5771060e+06
   9.5098366e-10  -2.1957934e-04   3.0949927e+00   3.0425591e+00  -1.5695983e+06
   9.5165055e-10  -2.1853419e-04   3.0948800e+00   3.0426957e+00  -1.5621264e+06
   9.5231744e-10  -2.1749403e-04   3.0947678e+00   3.0428317e+00  -1.5546901e+06
   9.5298433e-10  -2.1645881e-04   3.0946562e+00   3.0429671e+00  -1.5472892e+06
   9.5365122e-10  -2.1542853e-04   3.0945451e+00   3.0431018e+00  -1.5399236e+06
   9.5431811e-10  -2.1440315e-04   3.0944345e+00   3.0432359e+00  -1.5325929e+06
   9.5498499e-10  -2.1338266e-04   3.0943245e+00   3.0433693e+00  -1.5252972e+06
   9.5565188e-10  -2.1236702e-04   3.0942150e+00   3.0435021e+00  -1.5180362e+06
   9.5631877e-10  -2.1135622e-04   3.0941060e+00   3.0436343e+00  -1.5108098e+06
   9.5698566e-10  -2.1035023e-04   3.0939975e+00   3.0437659e+00  -1.5036178e+06
   9.5765255e-10  -2.0934903e-04   3.0938895e+00   3.0438968e+00  -1.4964601e+06
   9.5831944e-10  -2.0835260e-04   3.0937821e+00   3.0440271e+00  -1.4893364e+06
   9.5898633e-10  -2.0736091e-04   3.0936752e+00   3.0441568e+00  -1.4822466e+06
   9.5965322e-10  -2.0637395e-04   3.0935687e+00   3.0442858e+00  -1.4751907e+06
   9.6032011e-10  -2.0539169e-04   3.0934628e+00   3.0444143e+00  -1.4681683e+06
   9.6098700e-10  -2.0441410e-04   3.0933574e+00   3.0445421e+00  -1.4611793e+06
   9.6165388e-10  -2.0344117e-04   3.0932525e+00   3.0446694e+00  -1.4542236e+06
   9.6232077e-10  -2.0247287e-04   3.0931481e+00   3.0447960e+00  -1.4473011e+06
   9.6298766e-10  -2.0150918e-04   3.0930441e+00   3.0449221e+00  -1.4404115e+06
   9.6365455e-10  -2.0055008e-04   3.0929407e+00   3.0450475e+00  -1.4335547e+06
   9.6432144e-10  -1.9959554e-04   3.0928378e+00   3.0451723e+00  -1.4267305e+06
   9.6498833e-10  -1.9864555e-04   3.0927353e+00   3.0452966e+00  -1.4199388e+06
   9.6565522e-10  -1.9770009e-04   3.0926334e+00   3.0454202e+00  -1.4131795e+06
   9.6632211e-10  -1.9675912e-04   3.0925319e+00   3.0455433e+00  -1.4064524e+06
   9.6698900e-10  -1.9582264e-04   3.0924309e+00   3.0456658e+00  -1.3997572e+06
   9.6765589e-10  -1.9489062e-04   3.0923304e+00   3.0457877e+00  -1.3930940e+06
   9.6832277e-10  -1.9396303e-04   3.0922304e+00   3.0459090e+00  -1.3864625e+06
   9.6898966e-10  -1.9303986e-04   3.0921308e+00   3.0460298e+00  -1.3798626e+06
   9.6965655e-10  -1.9212109e-04   3.0920318e+00   3.0461499e+00  -1.3732941e+06
   9.7032344e-10  -1.9120669e-04   3.0919332e+00   3.0462695e+00  -1.3667568e+06
   9.7099033e-10  -1.9029665e-04   3.0918350e+00   3.0463886e+00  -1.3602507e+06
   9.7165722e-10  -1.8939094e-04   3.0917374e+00   3.0465071e+00  -1.3537756e+06
   9.7232411e-10  -1.8848954e-04   3.0916402e+00   3.0466250e+00  -1.3473313e+06
   9.7299100e-10  -1.8759243e-04   3.0915434e+00   3.0467423e+00  -1.3409177e+06
   9.7365789e-10  -1.8669960e-04   3.0914471e+00   3.0468591e+00  -1.3345347e+06
   9.7432477e-10  -1.8581101e-04   3.0913513e+00   3.0469753e+00  -1.3281820e+06
   9.7499166e-10  -1.8492666e-04   3.0912559e+00   3.0470910e+00  -1.3218596e+06
