   0.0000000e+00  -1.2519965e-01   6.3291435e+00   3.7176025e-04  -5.2075121e+08
   1.0003334e-12  -1.2467943e-01   6.3278307e+00   3.8703780e-04  -5.1935069e+08
   2.0006669e-12  -1.2416062e-01   6.3264951e+00   4.0289777e-04  -5.1795004e+08
   3.0010003e-12  -1.2364321e-01   6.3251362e+00   4.1936037e-04  -5.1654926e+08
   4.0013338e-12  -1.2312719e-01   6.3237538e+00   4.3644640e-04  -5.1514836e+08
   5.0016672e-12  -1.2261258e-01   6.3223476e+00   4.5417730e-04  -5.1374733e+08
   6.0020007e-12  -1.2209938e-01   6.3209172e+00   4.7257516e-04  -5.1234618e+08
   7.0023341e-12  -1.2158757e-01   6.3194624e+00   4.9166273e-04  -5.1094491e+08
   8.0026676e-12  -1.2107716e-01   6.3179829e+00   5.1146342e-04  -5.0954352e+08
   9.0030010e-12  -1.2056816e-01   6.3164782e+00   5.3200136e-04  -5.0814202e+08
   1.0003334e-11  -1.2006056e-01   6.3149481e+00   5.5330138e-04  -5.0674040e+08
   1.1003668e-11  -1.1955436e-01   6.3133922e+00   5.7538904e-04  -5.0533868e+08
   1.2004001e-11  -1.1904956e-01   6.3118103e+00   5.9829063e-04  -5.0393684e+08
   1.3004335e-11  -1.1854617e-01   6.3102020e+00   6.2203323e-04  -5.0253491e+08
   1.4004668e-11  -1.1804418e-01   6.3085669e+00   6.4664467e-04  -5.0113287e+08
   1.5005002e-11  -1.1754359e-01   6.3069048e+00   6.7215360e-04  -4.9973074e+08
   1.6005335e-11  -1.1704440e-01   6.3052153e+00   6.9858947e-04  -4.9832851e+08
   1.7005669e-11  -1.1654661e-01   6.3034980e+00   7.2598257e-04  -4.9692619e+08
   1.8006002e-11  -1.1605023e-01   6.3017527e+00   7.5436404e-04  -4.9552379e+08
   1.9006335e-11  -1.1555525e-01   6.2999789e+00   7.8376589e-04  -4.9412130e+08
   2.0006669e-11  -1.1506168e-01   6.2981764e+00   8.1422102e-04  -4.9271873e+08
   2.1007002e-11  -1.1456951e-01   6.2963448e+00   8.4576323e-04  -4.9131609e+08
   2.2007336e-11  -1.1407874e-01   6.2944838e+00   8.7842726e-04  -4.8991337e+08
   2.3007669e-11  -1.1358937e-01   6.2925930e+00   9.1224879e-04  -4.8851059e+08
   2.4008003e-11  -1.1310141e-01   6.2906720e+00   9.4726446e-04  -4.8710775e+08
   2.5008336e-11  -1.1261485e-01   6.2887206e+00   9.8351190e-04  -4.8570485e+08
   2.6008670e-11  -1.1212969e-01   6.2867384e+00   1.0210298e-03  -4.8430190e+08
   2.7009003e-11  -1.1164594e-01   6.2847250e+00   1.0598577e-03  -4.8289890e+08
   2.8009336e-11  -1.1116359e-01   6.2826801e+00   1.1000364e-03  -4.8149586e+08
   2.9009670e-11  -1.1068265e-01   6.2806033e+00   1.1416077e-03  -4.8009278e+08
   3.0010003e-11  -1.1020310e-01   6.2784943e+00   1.1846143e-03  -4.7868966e+08
   3.1010337e-11  -1.0972497e-01   6.2763528e+00   1.2291004e-03  -4.7728653e+08
   3.2010670e-11  -1.0924823e-01   6.2741783e+00   1.2751109e-03  -4.7588337e+08
   3.3011004e-11  -1.0877290e-01   6.2719705e+00   1.3226922e-03  -4.7448020e+08
   3.4011337e-11  -1.0829897e-01   6.2697291e+00   1.3718916e-03  -4.7307702e+08
   3.5011671e-11  -1.0782645e-01   6.2674538e+00   1.4227577e-03  -4.7167383e+08
   3.6012004e-11  -1.0735533e-01   6.2651440e+00   1.4753404e-03  -4.7027066e+08
   3.7012337e-11  -1.0688561e-01   6.2627996e+00   1.5296906e-03  -4.6886749e+08
   3.8012671e-11  -1.0641730e-01   6.2604202e+00   1.5858608e-03  -4.6746434e+08
   3.9013004e-11  -1.0595039e-01   6.2580053e+00   1.6439044e-03  -4.6606122e+08
   4.0013338e-11  -1.0548488e-01   6.2555547e+00   1.7038764e-03  -4.6465813e+08
   4.1013671e-11  -1.0502078e-01   6.2530680e+00   1.7658329e-03  -4.6325508e+08
   4.2014005e-11  -1.0455808e-01   6.2505448e+00   1.8298315e-03  -4.6185207e+08
   4.3014338e-11  -1.0409679e-01   6.2479848e+00   1.8959309e-03  -4.6044912e+08
   4.4014672e-11  -1.0363689e-01   6.2453877e+00   1.9641916e-03  -4.5904624e+08
   4.5015005e-11  -1.0317840e-01   6.2427530e+00   2.0346752e-03  -4.5764342e+08
   4.6015338e-11  -1.0272132e-01   6.2400804e+00   2.1074447e-03  -4.5624069e+08
   4.7015672e-11  -1.0226564e-01   6.2373696e+00   2.1825647e-03  -4.5483805e+08
   4.8016005e-11  -1.0181136e-01   6.2346202e+00   2.2601012e-03  -4.5343550e+08
   4.9016339e-11  -1.0135848e-01   6.2318319e+00   2.3401216e-03  -4.5203306e+08
   5.0016672e-11  -1.0090701e-01   6.2290042e+00   2.4226950e-03  -4.5063073e+08
   5.1017006e-11  -1.0045694e-01   6.2261370e+00   2.5078918e-03  -4.4922853e+08
   5.2017339e-11  -1.0000827e-01   6.2232298e+00   2.5957841e-03  -4.4782646e+08
   5.3017673e-11  -9.9561000e-02   6.2202822e+00   2.6864455e-03  -4.4642454e+08
   5.4018006e-11  -9.9115137e-02   6.2172940e+00   2.7799512e-03  -4.4502277e+08
   5.5018339e-11  -9.8670675e-02   6.2142648e+00   2.8763780e-03  -4.4362117e+08
   5.6018673e-11  -9.8227615e-02   6.2111942e+00   2.9758044e-03  -4.4221974e+08
   5.7019006e-11  -9.7785957e-02   6.2080819e+00   3.0783103e-03  -4.4081850e+08
   5.8019340e-11  -9.7345701e-02   6.2049275e+00   3.1839776e-03  -4.3941745e+08
   5.9019673e-11  -9.6906846e-02   6.2017308e+00   3.2928896e-03  -4.3801661e+08
   6.0020007e-11  -9.6469392e-02   6.1984914e+00   3.4051314e-03  -4.3661600e+08
   6.1020340e-11  -9.6033339e-02   6.1952089e+00   3.5207898e-03  -4.3521561e+08
   6.2020674e-11  -9.5598686e-02   6.1918831e+00   3.6399534e-03  -4.3381547e+08
   6.3021007e-11  -9.5165434e-02   6.1885136e+00   3.7627125e-03  -4.3241558e+08
   6.4021340e-11  -9.4733583e-02   6.1851000e+00   3.8891590e-03  -4.3101596e+08
   6.5021674e-11  -9.4303131e-02   6.1816421e+00   4.0193869e-03  -4.2961661e+08
   6.6022007e-11  -9.3874079e-02   6.1781395e+00   4.1534917e-03  -4.2821756e+08
   6.7022341e-11  -9.3446426e-02   6.1745919e+00   4.2915709e-03  -4.2681882e+08
   6.8022674e-11  -9.3020172e-02   6.1709991e+00   4.4337237e-03  -4.2542040e+08
   6.9023008e-11  -9.2595317e-02   6.1673606e+00   4.5800512e-03  -4.2402230e+08
   7.0023341e-11  -9.2171860e-02   6.1636761e+00   4.7306563e-03  -4.2262456e+08
   7.1023675e-11  -9.1749801e-02   6.1599455e+00   4.8856438e-03  -4.2122717e+08
   7.2024008e-11  -9.1329139e-02   6.1561683e+00   5.0451204e-03  -4.1983016e+08
   7.3024341e-11  -9.0909875e-02   6.1523443e+00   5.2091945e-03  -4.1843353e+08
   7.4024675e-11  -9.0492008e-02   6.1484732e+00   5.3779767e-03  -4.1703731e+08
   7.5025008e-11  -9.0075537e-02   6.1445546e+00   5.5515792e-03  -4.1564151e+08
   7.6025342e-11  -8.9660462e-02   6.1405884e+00   5.7301164e-03  -4.1424614e+08
   7.7025675e-11  -8.9246783e-02   6.1365741e+00   5.9137043e-03  -4.1285122e+08
   7.8026009e-11  -8.8834499e-02   6.1325116e+00   6.1024610e-03  -4.1145676e+08
   7.9026342e-11  -8.8423609e-02   6.1284005e+00   6.2965065e-03  -4.1006279e+08
   8.0026676e-11  -8.8014113e-02   6.1242407e+00   6.4959629e-03  -4.0866930e+08
   8.1027009e-11  -8.7606011e-02   6.1200317e+00   6.7009539e-03  -4.0727634e+08
   8.2027342e-11  -8.7199303e-02   6.1157734e+00   6.9116054e-03  -4.0588390e+08
   8.3027676e-11  -8.6793986e-02   6.1114655e+00   7.1280452e-03  -4.0449200e+08
   8.4028009e-11  -8.6390062e-02   6.1071077e+00   7.3504031e-03  -4.0310067e+08
   8.5028343e-11  -8.5987529e-02   6.1026999e+00   7.5788106e-03  -4.0170992e+08
   8.6028676e-11  -8.5586387e-02   6.0982417e+00   7.8134014e-03  -4.0031977e+08
   8.7029010e-11  -8.5186636e-02   6.0937329e+00   8.0543110e-03  -3.9893023e+08
   8.8029343e-11  -8.4788274e-02   6.0891733e+00   8.3016771e-03  -3.9754132e+08
   8.9029677e-11  -8.4391301e-02   6.0845626e+00   8.5556390e-03  -3.9615307e+08
   9.0030010e-11  -8.3995716e-02   6.0799007e+00   8.8163381e-03  -3.9476548e+08
   9.1030343e-11  -8.3601518e-02   6.0751874e+00   9.0839177e-03  -3.9337859e+08
   9.2030677e-11  -8.3208708e-02   6.0704223e+00   9.3585231e-03  -3.9199240e+08
   9.3031010e-11  -8.2817284e-02   6.0656053e+00   9.6403014e-03  -3.9060694e+08
   9.4031344e-11  -8.2427246e-02   6.0607363e+00   9.9294017e-03  -3.8922222e+08
   9.5031677e-11  -8.2038592e-02   6.0558150e+00   1.0225975e-02  -3.8783827e+08
   9.6032011e-11  -8.1651322e-02   6.0508412e+00   1.0530174e-02  -3.8645511e+08
   9.7032344e-11  -8.1265435e-02   6.0458147e+00   1.0842153e-02  -3.8507275e+08
   9.8032678e-11  -8.0880930e-02   6.0407355e+00   1.1162070e-02  -3.8369122e+08
   9.9033011e-11  -8.0497808e-02   6.0356032e+00   1.1490082e-02  -3.8231053e+08
   1.0003334e-10  -8.0116065e-02   6.0304178e+00   1.1826349e-02  -3.8093071e+08
   1.0103368e-10  -7.9735703e-02   6.0251791e+00   1.2171034e-02  -3.7955178e+08
   1.0203401e-10  -7.9356719e-02   6.0198870e+00   1.2524301e-02  -3.7817376e+08
   1.0303434e-10  -7.8979113e-02   6.0145412e+00   1.2886315e-02  -3.7679667e+08
   1.0403468e-10  -7.8602884e-02   6.0091418e+00   1.3257243e-02  -3.7542053e+08
   1.0503501e-10  -7.8228032e-02   6.0036885e+00   1.3637254e-02  -3.7404536e+08
   1.0603535e-10  -7.7854554e-02   5.9981812e+00   1.4026520e-02  -3.7267119e+08
   1.0703568e-10  -7.7482450e-02   5.9926199e+00   1.4425212e-02  -3.7129804e+08
   1.0803601e-10  -7.7111719e-02   5.9870043e+00   1.4833504e-02  -3.6992593e+08
   1.0903635e-10  -7.6742361e-02   5.9813345e+00   1.5251573e-02  -3.6855488e+08
   1.1003668e-10  -7.6374373e-02   5.9756104e+00   1.5679595e-02  -3.6718492e+08
   1.1103701e-10  -7.6007755e-02   5.9698318e+00   1.6117750e-02  -3.6581607e+08
   1.1203735e-10  -7.5642505e-02   5.9639986e+00   1.6566217e-02  -3.6444834e+08
   1.1303768e-10  -7.5278624e-02   5.9581109e+00   1.7025178e-02  -3.6308178e+08
   1.1403801e-10  -7.4916108e-02   5.9521686e+00   1.7494817e-02  -3.6171639e+08
   1.1503835e-10  -7.4554958e-02   5.9461715e+00   1.7975317e-02  -3.6035220e+08
   1.1603868e-10  -7.4195171e-02   5.9401197e+00   1.8466866e-02  -3.5898924e+08
   1.1703901e-10  -7.3836748e-02   5.9340132e+00   1.8969650e-02  -3.5762754e+08
   1.1803935e-10  -7.3479685e-02   5.9278519e+00   1.9483858e-02  -3.5626710e+08
   1.1903968e-10  -7.3123983e-02   5.9216357e+00   2.0009680e-02  -3.5490797e+08
   1.2004001e-10  -7.2769640e-02   5.9153647e+00   2.0547306e-02  -3.5355015e+08
   1.2104035e-10  -7.2416654e-02   5.9090389e+00   2.1096930e-02  -3.5219369e+08
   1.2204068e-10  -7.2065025e-02   5.9026583e+00   2.1658744e-02  -3.5083860e+08
   1.2304101e-10  -7.1714750e-02   5.8962230e+00   2.2232942e-02  -3.4948491e+08
   1.2404135e-10  -7.1365829e-02   5.8897328e+00   2.2819720e-02  -3.4813264e+08
   1.2504168e-10  -7.1018259e-02   5.8831879e+00   2.3419275e-02  -3.4678181e+08
   1.2604201e-10  -7.0672040e-02   5.8765883e+00   2.4031803e-02  -3.4543247e+08
   1.2704235e-10  -7.0327170e-02   5.8699340e+00   2.4657502e-02  -3.4408462e+08
   1.2804268e-10  -6.9983647e-02   5.8632252e+00   2.5296572e-02  -3.4273829e+08
   1.2904301e-10  -6.9641471e-02   5.8564619e+00   2.5949212e-02  -3.4139352e+08
   1.3004335e-10  -6.9300638e-02   5.8496441e+00   2.6615622e-02  -3.4005032e+08
   1.3104368e-10  -6.8961149e-02   5.8427719e+00   2.7296002e-02  -3.3870872e+08
   1.3204401e-10  -6.8623000e-02   5.8358455e+00   2.7990555e-02  -3.3736876e+08
   1.3304435e-10  -6.8286191e-02   5.8288650e+00   2.8699483e-02  -3.3603044e+08
   1.3404468e-10  -6.7950720e-02   5.8218304e+00   2.9422987e-02  -3.3469381e+08
   1.3504502e-10  -6.7616586e-02   5.8147418e+00   3.0161270e-02  -3.3335888e+08
   1.3604535e-10  -6.7283785e-02   5.8075995e+00   3.0914536e-02  -3.3202569e+08
   1.3704568e-10  -6.6952317e-02   5.8004035e+00   3.1682988e-02  -3.3069426e+08
   1.3804602e-10  -6.6622181e-02   5.7931540e+00   3.2466828e-02  -3.2936461e+08
   1.3904635e-10  -6.6293373e-02   5.7858512e+00   3.3266262e-02  -3.2803678e+08
   1.4004668e-10  -6.5965892e-02   5.7784951e+00   3.4081491e-02  -3.2671079e+08
   1.4104702e-10  -6.5639737e-02   5.7710861e+00   3.4912721e-02  -3.2538666e+08
   1.4204735e-10  -6.5314906e-02   5.7636242e+00   3.5760153e-02  -3.2406442e+08
   1.4304768e-10  -6.4991396e-02   5.7561097e+00   3.6623992e-02  -3.2274411e+08
   1.4404802e-10  -6.4669206e-02   5.7485427e+00   3.7504441e-02  -3.2142574e+08
   1.4504835e-10  -6.4348334e-02   5.7409236e+00   3.8401702e-02  -3.2010935e+08
   1.4604868e-10  -6.4028778e-02   5.7332524e+00   3.9315977e-02  -3.1879495e+08
   1.4704902e-10  -6.3710535e-02   5.7255294e+00   4.0247469e-02  -3.1748259e+08
   1.4804935e-10  -6.3393604e-02   5.7177549e+00   4.1196378e-02  -3.1617227e+08
   1.4904968e-10  -6.3077982e-02   5.7099291e+00   4.2162906e-02  -3.1486404e+08
   1.5005002e-10  -6.2763669e-02   5.7020522e+00   4.3147253e-02  -3.1355792e+08
   1.5105035e-10  -6.2450660e-02   5.6941245e+00   4.4149617e-02  -3.1225393e+08
   1.5205068e-10  -6.2138955e-02   5.6861464e+00   4.5170197e-02  -3.1095210e+08
   1.5305102e-10  -6.1828551e-02   5.6781180e+00   4.6209190e-02  -3.0965246e+08
   1.5405135e-10  -6.1519447e-02   5.6700396e+00   4.7266793e-02  -3.0835503e+08
   1.5505168e-10  -6.1211638e-02   5.6619116e+00   4.8343202e-02  -3.0705985e+08
   1.5605202e-10  -6.0905124e-02   5.6537342e+00   4.9438611e-02  -3.0576694e+08
   1.5705235e-10  -6.0599903e-02   5.6455078e+00   5.0553212e-02  -3.0447632e+08
   1.5805268e-10  -6.0295971e-02   5.6372327e+00   5.1687197e-02  -3.0318802e+08
   1.5905302e-10  -5.9993327e-02   5.6289092e+00   5.2840757e-02  -3.0190207e+08
   1.6005335e-10  -5.9691967e-02   5.6205377e+00   5.4014080e-02  -3.0061850e+08
   1.6105368e-10  -5.9391891e-02   5.6121185e+00   5.5207354e-02  -2.9933733e+08
   1.6205402e-10  -5.9093095e-02   5.6036519e+00   5.6420764e-02  -2.9805858e+08
   1.6305435e-10  -5.8795577e-02   5.5951383e+00   5.7654495e-02  -2.9678229e+08
   1.6405468e-10  -5.8499334e-02   5.5865781e+00   5.8908728e-02  -2.9550848e+08
   1.6505502e-10  -5.8204365e-02   5.5779716e+00   6.0183644e-02  -2.9423718e+08
   1.6605535e-10  -5.7910665e-02   5.5693193e+00   6.1479422e-02  -2.9296841e+08
   1.6705569e-10  -5.7618234e-02   5.5606216e+00   6.2796237e-02  -2.9170219e+08
   1.6805602e-10  -5.7327068e-02   5.5518787e+00   6.4134264e-02  -2.9043856e+08
   1.6905635e-10  -5.7037165e-02   5.5430912e+00   6.5493675e-02  -2.8917754e+08
   1.7005669e-10  -5.6748521e-02   5.5342595e+00   6.6874640e-02  -2.8791915e+08
   1.7105702e-10  -5.6461136e-02   5.5253839e+00   6.8277326e-02  -2.8666343e+08
   1.7205735e-10  -5.6175005e-02   5.5164650e+00   6.9701900e-02  -2.8541039e+08
   1.7305769e-10  -5.5890126e-02   5.5075031e+00   7.1148523e-02  -2.8416006e+08
   1.7405802e-10  -5.5606496e-02   5.4984986e+00   7.2617355e-02  -2.8291246e+08
   1.7505835e-10  -5.5324113e-02   5.4894521e+00   7.4108555e-02  -2.8166763e+08
   1.7605869e-10  -5.5042974e-02   5.4803640e+00   7.5622277e-02  -2.8042557e+08
   1.7705902e-10  -5.4763076e-02   5.4712347e+00   7.7158674e-02  -2.7918633e+08
   1.7805935e-10  -5.4484417e-02   5.4620647e+00   7.8717895e-02  -2.7794992e+08
   1.7905969e-10  -5.4206992e-02   5.4528545e+00   8.0300086e-02  -2.7671637e+08
   1.8006002e-10  -5.3930800e-02   5.4436046e+00   8.1905390e-02  -2.7548570e+08
   1.8106035e-10  -5.3655838e-02   5.4343155e+00   8.3533950e-02  -2.7425793e+08
   1.8206069e-10  -5.3382103e-02   5.4249876e+00   8.5185900e-02  -2.7303310e+08
   1.8306102e-10  -5.3109591e-02   5.4156214e+00   8.6861378e-02  -2.7181121e+08
   1.8406135e-10  -5.2838300e-02   5.4062175e+00   8.8560512e-02  -2.7059230e+08
   1.8506169e-10  -5.2568227e-02   5.3967763e+00   9.0283431e-02  -2.6937638e+08
   1.8606202e-10  -5.2299369e-02   5.3872984e+00   9.2030260e-02  -2.6816349e+08
   1.8706235e-10  -5.2031722e-02   5.3777843e+00   9.3801120e-02  -2.6695363e+08
   1.8806269e-10  -5.1765285e-02   5.3682345e+00   9.5596128e-02  -2.6574684e+08
   1.8906302e-10  -5.1500053e-02   5.3586496e+00   9.7415398e-02  -2.6454314e+08
   1.9006335e-10  -5.1236023e-02   5.3490300e+00   9.9259042e-02  -2.6334254e+08
   1.9106369e-10  -5.0973193e-02   5.3393764e+00   1.0112717e-01  -2.6214508e+08
   1.9206402e-10  -5.0711559e-02   5.3296892e+00   1.0301987e-01  -2.6095076e+08
   1.9306435e-10  -5.0451119e-02   5.3199690e+00   1.0493726e-01  -2.5975962e+08
   1.9406469e-10  -5.0191868e-02   5.3102164e+00   1.0687943e-01  -2.5857167e+08
   1.9506502e-10  -4.9933804e-02   5.3004319e+00   1.0884647e-01  -2.5738693e+08
   1.9606536e-10  -4.9676924e-02   5.2906160e+00   1.1083847e-01  -2.5620542e+08
   1.9706569e-10  -4.9421224e-02   5.2807694e+00   1.1285552e-01  -2.5502716e+08
   1.9806602e-10  -4.9166701e-02   5.2708926e+00   1.1489769e-01  -2.5385218e+08
   1.9906636e-10  -4.8913352e-02   5.2609861e+00   1.1696506e-01  -2.5268049e+08
   2.0006669e-10  -4.8661173e-02   5.2510506e+00   1.1905770e-01  -2.5151211e+08
   2.0106702e-10  -4.8410162e-02   5.2410867e+00   1.2117568e-01  -2.5034706e+08
   2.0206736e-10  -4.8160314e-02   5.2310948e+00   1.2331907e-01  -2.4918535e+08
   2.0306769e-10  -4.7911626e-02   5.2210756e+00   1.2548793e-01  -2.4802701e+08
   2.0406802e-10  -4.7664096e-02   5.2110297e+00   1.2768231e-01  -2.4687206e+08
   2.0506836e-10  -4.7417719e-02   5.2009576e+00   1.2990226e-01  -2.4572050e+08
   2.0606869e-10  -4.7172493e-02   5.1908599e+00   1.3214783e-01  -2.4457237e+08
   2.0706902e-10  -4.6928414e-02   5.1807373e+00   1.3441907e-01  -2.4342767e+08
   2.0806936e-10  -4.6685477e-02   5.1705904e+00   1.3671602e-01  -2.4228642e+08
   2.0906969e-10  -4.6443681e-02   5.1604196e+00   1.3903870e-01  -2.4114864e+08
   2.1007002e-10  -4.6203022e-02   5.1502257e+00   1.4138716e-01  -2.4001435e+08
   2.1107036e-10  -4.5963495e-02   5.1400091e+00   1.4376141e-01  -2.3888355e+08
   2.1207069e-10  -4.5725098e-02   5.1297706e+00   1.4616149e-01  -2.3775628e+08
   2.1307102e-10  -4.5487826e-02   5.1195107e+00   1.4858740e-01  -2.3663253e+08
   2.1407136e-10  -4.5251677e-02   5.1092301e+00   1.5103916e-01  -2.3551233e+08
   2.1507169e-10  -4.5016647e-02   5.0989292e+00   1.5351678e-01  -2.3439569e+08
   2.1607202e-10  -4.4782732e-02   5.0886088e+00   1.5602026e-01  -2.3328262e+08
   2.1707236e-10  -4.4549929e-02   5.0782694e+00   1.5854961e-01  -2.3217314e+08
   2.1807269e-10  -4.4318234e-02   5.0679117e+00   1.6110482e-01  -2.3106726e+08
   2.1907302e-10  -4.4087643e-02   5.0575362e+00   1.6368589e-01  -2.2996500e+08
   2.2007336e-10  -4.3858154e-02   5.0471435e+00   1.6629279e-01  -2.2886637e+08
   2.2107369e-10  -4.3629761e-02   5.0367344e+00   1.6892552e-01  -2.2777137e+08
   2.2207402e-10  -4.3402462e-02   5.0263092e+00   1.7158405e-01  -2.2668003e+08
   2.2307436e-10  -4.3176253e-02   5.0158688e+00   1.7426836e-01  -2.2559235e+08
   2.2407469e-10  -4.2951131e-02   5.0054136e+00   1.7697841e-01  -2.2450835e+08
   2.2507503e-10  -4.2727091e-02   4.9949442e+00   1.7971417e-01  -2.2342804e+08
   2.2607536e-10  -4.2504129e-02   4.9844614e+00   1.8247561e-01  -2.2235142e+08
   2.2707569e-10  -4.2282243e-02   4.9739657e+00   1.8526268e-01  -2.2127851e+08
   2.2807603e-10  -4.2061429e-02   4.9634576e+00   1.8807533e-01  -2.2020932e+08
   2.2907636e-10  -4.1841682e-02   4.9529378e+00   1.9091351e-01  -2.1914386e+08
   2.3007669e-10  -4.1622999e-02   4.9424069e+00   1.9377717e-01  -2.1808214e+08
   2.3107703e-10  -4.1405376e-02   4.9318655e+00   1.9666625e-01  -2.1702417e+08
   2.3207736e-10  -4.1188810e-02   4.9213142e+00   1.9958067e-01  -2.1596995e+08
   2.3307769e-10  -4.0973297e-02   4.9107536e+00   2.0252038e-01  -2.1491949e+08
   2.3407803e-10  -4.0758832e-02   4.9001842e+00   2.0548530e-01  -2.1387281e+08
   2.3507836e-10  -4.0545413e-02   4.8896067e+00   2.0847535e-01  -2.1282991e+08
   2.3607869e-10  -4.0333035e-02   4.8790217e+00   2.1149045e-01  -2.1179080e+08
   2.3707903e-10  -4.0121695e-02   4.8684297e+00   2.1453053e-01  -2.1075548e+08
   2.3807936e-10  -3.9911389e-02   4.8578314e+00   2.1759548e-01  -2.0972397e+08
   2.3907969e-10  -3.9702112e-02   4.8472272e+00   2.2068522e-01  -2.0869627e+08
   2.4008003e-10  -3.9493862e-02   4.8366179e+00   2.2379964e-01  -2.0767238e+08
   2.4108036e-10  -3.9286634e-02   4.8260039e+00   2.2693866e-01  -2.0665231e+08
   2.4208069e-10  -3.9080425e-02   4.8153859e+00   2.3010215e-01  -2.0563607e+08
   2.4308103e-10  -3.8875230e-02   4.8047645e+00   2.3329002e-01  -2.0462367e+08
   2.4408136e-10  -3.8671047e-02   4.7941401e+00   2.3650216e-01  -2.0361510e+08
   2.4508169e-10  -3.8467870e-02   4.7835134e+00   2.3973844e-01  -2.0261037e+08
   2.4608203e-10  -3.8265697e-02   4.7728849e+00   2.4299874e-01  -2.0160949e+08
   2.4708236e-10  -3.8064523e-02   4.7622552e+00   2.4628295e-01  -2.0061246e+08
   2.4808269e-10  -3.7864344e-02   4.7516249e+00   2.4959093e-01  -1.9961928e+08
   2.4908303e-10  -3.7665157e-02   4.7409945e+00   2.5292255e-01  -1.9862996e+08
   2.5008336e-10  -3.7466958e-02   4.7303645e+00   2.5627769e-01  -1.9764450e+08
   2.5108369e-10  -3.7269742e-02   4.7197355e+00   2.5965619e-01  -1.9666291e+08
   2.5208403e-10  -3.7073507e-02   4.7091081e+00   2.6305792e-01  -1.9568518e+08
   2.5308436e-10  -3.6878248e-02   4.6984828e+00   2.6648274e-01  -1.9471132e+08
   2.5408469e-10  -3.6683961e-02   4.6878602e+00   2.6993049e-01  -1.9374133e+08
   2.5508503e-10  -3.6490643e-02   4.6772406e+00   2.7340103e-01  -1.9277521e+08
   2.5608536e-10  -3.6298289e-02   4.6666248e+00   2.7689420e-01  -1.9181296e+08
   2.5708570e-10  -3.6106896e-02   4.6560132e+00   2.8040984e-01  -1.9085459e+08
   2.5808603e-10  -3.5916460e-02   4.6454064e+00   2.8394778e-01  -1.8990010e+08
   2.5908636e-10  -3.5726976e-02   4.6348048e+00   2.8750788e-01  -1.8894947e+08
   2.6008670e-10  -3.5538442e-02   4.6242089e+00   2.9108995e-01  -1.8800273e+08
   2.6108703e-10  -3.5350853e-02   4.6136194e+00   2.9469383e-01  -1.8705986e+08
   2.6208736e-10  -3.5164205e-02   4.6030366e+00   2.9831935e-01  -1.8612086e+08
   2.6308770e-10  -3.4978494e-02   4.5924612e+00   3.0196632e-01  -1.8518574e+08
   2.6408803e-10  -3.4793717e-02   4.5818935e+00   3.0563457e-01  -1.8425449e+08
   2.6508836e-10  -3.4609870e-02   4.5713341e+00   3.0932392e-01  -1.8332711e+08
   2.6608870e-10  -3.4426949e-02   4.5607834e+00   3.1303419e-01  -1.8240360e+08
   2.6708903e-10  -3.4244949e-02   4.5502420e+00   3.1676518e-01  -1.8148396e+08
   2.6808936e-10  -3.4063867e-02   4.5397103e+00   3.2051671e-01  -1.8056819e+08
   2.6908970e-10  -3.3883700e-02   4.5291888e+00   3.2428858e-01  -1.7965628e+08
   2.7009003e-10  -3.3704443e-02   4.5186779e+00   3.2808060e-01  -1.7874824e+08
   2.7109036e-10  -3.3526092e-02   4.5081782e+00   3.3189258e-01  -1.7784405e+08
   2.7209070e-10  -3.3348645e-02   4.4976900e+00   3.3572431e-01  -1.7694372e+08
   2.7309103e-10  -3.3172095e-02   4.4872139e+00   3.3957559e-01  -1.7604725e+08
   2.7409136e-10  -3.2996441e-02   4.4767503e+00   3.4344622e-01  -1.7515462e+08
   2.7509170e-10  -3.2821678e-02   4.4662996e+00   3.4733599e-01  -1.7426584e+08
   2.7609203e-10  -3.2647801e-02   4.4558622e+00   3.5124470e-01  -1.7338090e+08
   2.7709236e-10  -3.2474809e-02   4.4454386e+00   3.5517213e-01  -1.7249979e+08
   2.7809270e-10  -3.2302695e-02   4.4350293e+00   3.5911808e-01  -1.7162252e+08
   2.7909303e-10  -3.2131458e-02   4.4246346e+00   3.6308233e-01  -1.7074908e+08
   2.8009336e-10  -3.1961092e-02   4.4142550e+00   3.6706465e-01  -1.6987946e+08
   2.8109370e-10  -3.1791594e-02   4.4038908e+00   3.7106485e-01  -1.6901366e+08
   2.8209403e-10  -3.1622961e-02   4.3935425e+00   3.7508269e-01  -1.6815167e+08
   2.8309436e-10  -3.1455188e-02   4.3832106e+00   3.7911796e-01  -1.6729350e+08
   2.8409470e-10  -3.1288271e-02   4.3728953e+00   3.8317044e-01  -1.6643912e+08
   2.8509503e-10  -3.1122207e-02   4.3625970e+00   3.8723989e-01  -1.6558854e+08
   2.8609537e-10  -3.0956993e-02   4.3523162e+00   3.9132610e-01  -1.6474174e+08
   2.8709570e-10  -3.0792623e-02   4.3420533e+00   3.9542884e-01  -1.6389873e+08
   2.8809603e-10  -3.0629095e-02   4.3318086e+00   3.9954788e-01  -1.6305950e+08
   2.8909637e-10  -3.0466404e-02   4.3215825e+00   4.0368299e-01  -1.6222404e+08
   2.9009670e-10  -3.0304548e-02   4.3113753e+00   4.0783394e-01  -1.6139234e+08
   2.9109703e-10  -3.0143521e-02   4.3011874e+00   4.1200050e-01  -1.6056440e+08
   2.9209737e-10  -2.9983321e-02   4.2910193e+00   4.1618244e-01  -1.5974021e+08
   2.9309770e-10  -2.9823944e-02   4.2808711e+00   4.2037952e-01  -1.5891976e+08
   2.9409803e-10  -2.9665385e-02   4.2707433e+00   4.2459151e-01  -1.5810304e+08
   2.9509837e-10  -2.9507641e-02   4.2606362e+00   4.2881817e-01  -1.5729005e+08
   2.9609870e-10  -2.9350709e-02   4.2505501e+00   4.3305927e-01  -1.5648077e+08
   2.9709903e-10  -2.9194585e-02   4.2404854e+00   4.3731457e-01  -1.5567521e+08
   2.9809937e-10  -2.9039264e-02   4.2304423e+00   4.4158383e-01  -1.5487335e+08
   2.9909970e-10  -2.8884744e-02   4.2204213e+00   4.4586681e-01  -1.5407518e+08
   3.0010003e-10  -2.8731021e-02   4.2104226e+00   4.5016327e-01  -1.5328070e+08
   3.0110037e-10  -2.8578090e-02   4.2004465e+00   4.5447299e-01  -1.5248989e+08
   3.0210070e-10  -2.8425949e-02   4.1904933e+00   4.5879570e-01  -1.5170275e+08
   3.0310103e-10  -2.8274593e-02   4.1805634e+00   4.6313118e-01  -1.5091927e+08
   3.0410137e-10  -2.8124019e-02   4.1706569e+00   4.6747918e-01  -1.5013944e+08
   3.0510170e-10  -2.7974223e-02   4.1607743e+00   4.7183946e-01  -1.4936324e+08
   3.0610203e-10  -2.7825202e-02   4.1509157e+00   4.7621178e-01  -1.4859068e+08
   3.0710237e-10  -2.7676952e-02   4.1410815e+00   4.8059589e-01  -1.4782174e+08
   3.0810270e-10  -2.7529470e-02   4.1312719e+00   4.8499156e-01  -1.4705641e+08
   3.0910303e-10  -2.7382751e-02   4.1214872e+00   4.8939855e-01  -1.4629468e+08
   3.1010337e-10  -2.7236792e-02   4.1117277e+00   4.9381660e-01  -1.4553654e+08
   3.1110370e-10  -2.7091590e-02   4.1019936e+00   4.9824549e-01  -1.4478198e+08
   3.1210403e-10  -2.6947141e-02   4.0922851e+00   5.0268495e-01  -1.4403100e+08
   3.1310437e-10  -2.6803442e-02   4.0826025e+00   5.0713477e-01  -1.4328357e+08
   3.1410470e-10  -2.6660488e-02   4.0729461e+00   5.1159468e-01  -1.4253970e+08
   3.1510504e-10  -2.6518277e-02   4.0633160e+00   5.1606445e-01  -1.4179937e+08
   3.1610537e-10  -2.6376804e-02   4.0537125e+00   5.2054384e-01  -1.4106256e+08
   3.1710570e-10  -2.6236067e-02   4.0441359e+00   5.2503261e-01  -1.4032928e+08
   3.1810604e-10  -2.6096062e-02   4.0345863e+00   5.2953051e-01  -1.3959950e+08
   3.1910637e-10  -2.5956784e-02   4.0250640e+00   5.3403731e-01  -1.3887322e+08
   3.2010670e-10  -2.5818232e-02   4.0155692e+00   5.3855276e-01  -1.3815043e+08
   3.2110704e-10  -2.5680401e-02   4.0061020e+00   5.4307662e-01  -1.3743111e+08
   3.2210737e-10  -2.5543287e-02   3.9966628e+00   5.4760866e-01  -1.3671526e+08
   3.2310770e-10  -2.5406888e-02   3.9872516e+00   5.5214863e-01  -1.3600286e+08
   3.2410804e-10  -2.5271200e-02   3.9778687e+00   5.5669631e-01  -1.3529390e+08
   3.2510837e-10  -2.5136220e-02   3.9685142e+00   5.6125144e-01  -1.3458837e+08
   3.2610870e-10  -2.5001943e-02   3.9591884e+00   5.6581379e-01  -1.3388626e+08
   3.2710904e-10  -2.4868367e-02   3.9498914e+00   5.7038313e-01  -1.3318756e+08
   3.2810937e-10  -2.4735488e-02   3.9406234e+00   5.7495922e-01  -1.3249225e+08
   3.2910970e-10  -2.4603303e-02   3.9313845e+00   5.7954182e-01  -1.3180033e+08
   3.3011004e-10  -2.4471809e-02   3.9221750e+00   5.8413071e-01  -1.3111178e+08
   3.3111037e-10  -2.4341001e-02   3.9129949e+00   5.8872564e-01  -1.3042659e+08
   3.3211070e-10  -2.4210878e-02   3.9038445e+00   5.9332639e-01  -1.2974475e+08
   3.3311104e-10  -2.4081434e-02   3.8947238e+00   5.9793273e-01  -1.2906625e+08
   3.3411137e-10  -2.3952668e-02   3.8856331e+00   6.0254441e-01  -1.2839107e+08
   3.3511170e-10  -2.3824575e-02   3.8765725e+00   6.0716122e-01  -1.2771920e+08
   3.3611204e-10  -2.3697153e-02   3.8675420e+00   6.1178292e-01  -1.2705064e+08
   3.3711237e-10  -2.3570398e-02   3.8585419e+00   6.1640930e-01  -1.2638536e+08
   3.3811270e-10  -2.3444307e-02   3.8495723e+00   6.2104011e-01  -1.2572337e+08
   3.3911304e-10  -2.3318876e-02   3.8406333e+00   6.2567514e-01  -1.2506463e+08
   3.4011337e-10  -2.3194103e-02   3.8317250e+00   6.3031415e-01  -1.2440915e+08
   3.4111370e-10  -2.3069984e-02   3.8228475e+00   6.3495694e-01  -1.2375691e+08
   3.4211404e-10  -2.2946515e-02   3.8140010e+00   6.3960327e-01  -1.2310790e+08
   3.4311437e-10  -2.2823695e-02   3.8051855e+00   6.4425293e-01  -1.2246210e+08
   3.4411470e-10  -2.2701518e-02   3.7964012e+00   6.4890569e-01  -1.2181950e+08
   3.4511504e-10  -2.2579983e-02   3.7876481e+00   6.5356134e-01  -1.2118010e+08
   3.4611537e-10  -2.2459086e-02   3.7789264e+00   6.5821966e-01  -1.2054387e+08
   3.4711571e-10  -2.2338823e-02   3.7702362e+00   6.6288043e-01  -1.1991081e+08
   3.4811604e-10  -2.2219192e-02   3.7615774e+00   6.6754345e-01  -1.1928091e+08
   3.4911637e-10  -2.2100190e-02   3.7529503e+00   6.7220849e-01  -1.1865414e+08
   3.5011671e-10  -2.1981813e-02   3.7443549e+00   6.7687534e-01  -1.1803051e+08
   3.5111704e-10  -2.1864058e-02   3.7357913e+00   6.8154380e-01  -1.1740998e+08
   3.5211737e-10  -2.1746923e-02   3.7272595e+00   6.8621366e-01  -1.1679257e+08
   3.5311771e-10  -2.1630403e-02   3.7187597e+00   6.9088470e-01  -1.1617824e+08
   3.5411804e-10  -2.1514497e-02   3.7102919e+00   6.9555673e-01  -1.1556699e+08
   3.5511837e-10  -2.1399200e-02   3.7018561e+00   7.0022953e-01  -1.1495881e+08
   3.5611871e-10  -2.1284510e-02   3.6934524e+00   7.0490291e-01  -1.1435368e+08
   3.5711904e-10  -2.1170424e-02   3.6850809e+00   7.0957666e-01  -1.1375159e+08
   3.5811937e-10  -2.1056939e-02   3.6767416e+00   7.1425059e-01  -1.1315253e+08
   3.5911971e-10  -2.0944052e-02   3.6684346e+00   7.1892449e-01  -1.1255648e+08
   3.6012004e-10  -2.0831759e-02   3.6601599e+00   7.2359817e-01  -1.1196344e+08
   3.6112037e-10  -2.0720058e-02   3.6519176e+00   7.2827143e-01  -1.1137339e+08
   3.6212071e-10  -2.0608945e-02   3.6437077e+00   7.3294408e-01  -1.1078631e+08
   3.6312104e-10  -2.0498419e-02   3.6355303e+00   7.3761593e-01  -1.1020220e+08
   3.6412137e-10  -2.0388475e-02   3.6273853e+00   7.4228678e-01  -1.0962104e+08
   3.6512171e-10  -2.0279111e-02   3.6192728e+00   7.4695645e-01  -1.0904282e+08
   3.6612204e-10  -2.0170324e-02   3.6111929e+00   7.5162475e-01  -1.0846752e+08
   3.6712237e-10  -2.0062111e-02   3.6031455e+00   7.5629149e-01  -1.0789514e+08
   3.6812271e-10  -1.9954469e-02   3.5951307e+00   7.6095649e-01  -1.0732567e+08
   3.6912304e-10  -1.9847395e-02   3.5871485e+00   7.6561957e-01  -1.0675908e+08
   3.7012337e-10  -1.9740886e-02   3.5791990e+00   7.7028054e-01  -1.0619536e+08
   3.7112371e-10  -1.9634940e-02   3.5712821e+00   7.7493924e-01  -1.0563452e+08
   3.7212404e-10  -1.9529554e-02   3.5633978e+00   7.7959547e-01  -1.0507652e+08
   3.7312437e-10  -1.9424724e-02   3.5555461e+00   7.8424907e-01  -1.0452136e+08
   3.7412471e-10  -1.9320448e-02   3.5477272e+00   7.8889985e-01  -1.0396902e+08
   3.7512504e-10  -1.9216723e-02   3.5399409e+00   7.9354766e-01  -1.0341951e+08
   3.7612538e-10  -1.9113547e-02   3.5321872e+00   7.9819231e-01  -1.0287279e+08
   3.7712571e-10  -1.9010916e-02   3.5244662e+00   8.0283364e-01  -1.0232886e+08
   3.7812604e-10  -1.8908827e-02   3.5167779e+00   8.0747148e-01  -1.0178770e+08
   3.7912638e-10  -1.8807279e-02   3.5091222e+00   8.1210567e-01  -1.0124931e+08
   3.8012671e-10  -1.8706267e-02   3.5014991e+00   8.1673603e-01  -1.0071367e+08
   3.8112704e-10  -1.8605790e-02   3.4939087e+00   8.2136242e-01  -1.0018077e+08
   3.8212738e-10  -1.8505845e-02   3.4863508e+00   8.2598467e-01  -9.9650592e+07
   3.8312771e-10  -1.8406429e-02   3.4788256e+00   8.3060262e-01  -9.9123130e+07
   3.8412804e-10  -1.8307539e-02   3.4713329e+00   8.3521611e-01  -9.8598369e+07
   3.8512838e-10  -1.8209173e-02   3.4638728e+00   8.3982500e-01  -9.8076298e+07
   3.8612871e-10  -1.8111327e-02   3.4564452e+00   8.4442911e-01  -9.7556903e+07
   3.8712904e-10  -1.8014000e-02   3.4490502e+00   8.4902832e-01  -9.7040172e+07
   3.8812938e-10  -1.7917188e-02   3.4416876e+00   8.5362245e-01  -9.6526093e+07
   3.8912971e-10  -1.7820889e-02   3.4343574e+00   8.5821138e-01  -9.6014655e+07
   3.9013004e-10  -1.7725100e-02   3.4270596e+00   8.6279494e-01  -9.5505844e+07
   3.9113038e-10  -1.7629819e-02   3.4197942e+00   8.6737300e-01  -9.4999648e+07
   3.9213071e-10  -1.7535043e-02   3.4125612e+00   8.7194541e-01  -9.4496055e+07
   3.9313104e-10  -1.7440769e-02   3.4053605e+00   8.7651203e-01  -9.3995054e+07
   3.9413138e-10  -1.7346996e-02   3.3981920e+00   8.8107273e-01  -9.3496632e+07
   3.9513171e-10  -1.7253719e-02   3.3910557e+00   8.8562735e-01  -9.3000776e+07
   3.9613204e-10  -1.7160938e-02   3.3839517e+00   8.9017578e-01  -9.2507475e+07
   3.9713238e-10  -1.7068648e-02   3.3768797e+00   8.9471787e-01  -9.2016717e+07
   3.9813271e-10  -1.6976848e-02   3.3698398e+00   8.9925349e-01  -9.1528490e+07
   3.9913304e-10  -1.6885535e-02   3.3628320e+00   9.0378251e-01  -9.1042782e+07
   4.0013338e-10  -1.6794707e-02   3.3558562e+00   9.0830481e-01  -9.0559581e+07
   4.0113371e-10  -1.6704360e-02   3.3489122e+00   9.1282025e-01  -9.0078875e+07
   4.0213404e-10  -1.6614494e-02   3.3420002e+00   9.1732870e-01  -8.9600652e+07
   4.0313438e-10  -1.6525104e-02   3.3351200e+00   9.2183006e-01  -8.9124901e+07
   4.0413471e-10  -1.6436189e-02   3.3282715e+00   9.2632418e-01  -8.8651609e+07
   4.0513505e-10  -1.6347747e-02   3.3214548e+00   9.3081095e-01  -8.8180765e+07
   4.0613538e-10  -1.6259774e-02   3.3146696e+00   9.3529026e-01  -8.7712358e+07
   4.0713571e-10  -1.6172268e-02   3.3079161e+00   9.3976199e-01  -8.7246374e+07
   4.0813605e-10  -1.6085227e-02   3.3011941e+00   9.4422601e-01  -8.6782804e+07
   4.0913638e-10  -1.5998649e-02   3.2945036e+00   9.4868222e-01  -8.6321635e+07
   4.1013671e-10  -1.5912531e-02   3.2878444e+00   9.5313051e-01  -8.5862855e+07
   4.1113705e-10  -1.5826871e-02   3.2812165e+00   9.5757076e-01  -8.5406454e+07
   4.1213738e-10  -1.5741666e-02   3.2746199e+00   9.6200286e-01  -8.4952419e+07
   4.1313771e-10  -1.5656913e-02   3.2680545e+00   9.6642672e-01  -8.4500740e+07
   4.1413805e-10  -1.5572612e-02   3.2615202e+00   9.7084221e-01  -8.4051404e+07
   4.1513838e-10  -1.5488759e-02   3.2550170e+00   9.7524924e-01  -8.3604401e+07
   4.1613871e-10  -1.5405352e-02   3.2485446e+00   9.7964771e-01  -8.3159719e+07
   4.1713905e-10  -1.5322388e-02   3.2421032e+00   9.8403751e-01  -8.2717346e+07
   4.1813938e-10  -1.5239866e-02   3.2356926e+00   9.8841855e-01  -8.2277273e+07
   4.1913971e-10  -1.5157783e-02   3.2293128e+00   9.9279073e-01  -8.1839486e+07
   4.2014005e-10  -1.5076136e-02   3.2229635e+00   9.9715395e-01  -8.1403976e+07
   4.2114038e-10  -1.4994924e-02   3.2166449e+00   1.0015081e+00  -8.0970730e+07
   4.2214071e-10  -1.4914144e-02   3.2103568e+00   1.0058531e+00  -8.0539739e+07
   4.2314105e-10  -1.4833795e-02   3.2040991e+00   1.0101889e+00  -8.0110990e+07
   4.2414138e-10  -1.4753873e-02   3.1978717e+00   1.0145154e+00  -7.9684473e+07
   4.2514171e-10  -1.4674376e-02   3.1916745e+00   1.0188324e+00  -7.9260177e+07
   4.2614205e-10  -1.4595303e-02   3.1855075e+00   1.0231400e+00  -7.8838091e+07
   4.2714238e-10  -1.4516651e-02   3.1793706e+00   1.0274379e+00  -7.8418204e+07
   4.2814271e-10  -1.4438418e-02   3.1732637e+00   1.0317262e+00  -7.8000505e+07
   4.2914305e-10  -1.4360601e-02   3.1671867e+00   1.0360048e+00  -7.7584984e+07
   4.3014338e-10  -1.4283199e-02   3.1611396e+00   1.0402735e+00  -7.7171629e+07
   4.3114371e-10  -1.4206210e-02   3.1551221e+00   1.0445323e+00  -7.6760430e+07
   4.3214405e-10  -1.4129631e-02   3.1491343e+00   1.0487811e+00  -7.6351377e+07
   4.3314438e-10  -1.4053460e-02   3.1431760e+00   1.0530198e+00  -7.5944458e+07
   4.3414471e-10  -1.3977694e-02   3.1372472e+00   1.0572484e+00  -7.5539662e+07
   4.3514505e-10  -1.3902333e-02   3.1313478e+00   1.0614668e+00  -7.5136981e+07
   4.3614538e-10  -1.3827373e-02   3.1254776e+00   1.0656749e+00  -7.4736402e+07
   4.3714572e-10  -1.3752813e-02   3.1196366e+00   1.0698727e+00  -7.4337916e+07
   4.3814605e-10  -1.3678651e-02   3.1138247e+00   1.0740600e+00  -7.3941512e+07
   4.3914638e-10  -1.3604884e-02   3.1080418e+00   1.0782368e+00  -7.3547179e+07
   4.4014672e-10  -1.3531510e-02   3.1022878e+00   1.0824031e+00  -7.3154908e+07
   4.4114705e-10  -1.3458528e-02   3.0965626e+00   1.0865588e+00  -7.2764687e+07
   4.4214738e-10  -1.3385935e-02   3.0908661e+00   1.0907037e+00  -7.2376508e+07
   4.4314772e-10  -1.3313730e-02   3.0851982e+00   1.0948379e+00  -7.1990359e+07
   4.4414805e-10  -1.3241909e-02   3.0795588e+00   1.0989614e+00  -7.1606230e+07
   4.4514838e-10  -1.3170472e-02   3.0739478e+00   1.1030739e+00  -7.1224112e+07
   4.4614872e-10  -1.3099416e-02   3.0683651e+00   1.1071755e+00  -7.0843994e+07
   4.4714905e-10  -1.3028739e-02   3.0628106e+00   1.1112661e+00  -7.0465866e+07
   4.4814938e-10  -1.2958440e-02   3.0572843e+00   1.1153457e+00  -7.0089718e+07
   4.4914972e-10  -1.2888516e-02   3.0517860e+00   1.1194142e+00  -6.9715540e+07
   4.5015005e-10  -1.2818965e-02   3.0463156e+00   1.1234716e+00  -6.9343323e+07
   4.5115038e-10  -1.2749785e-02   3.0408730e+00   1.1275177e+00  -6.8973056e+07
   4.5215072e-10  -1.2680975e-02   3.0354581e+00   1.1315526e+00  -6.8604729e+07
   4.5315105e-10  -1.2612532e-02   3.0300708e+00   1.1355762e+00  -6.8238333e+07
   4.5415138e-10  -1.2544455e-02   3.0247110e+00   1.1395885e+00  -6.7873859e+07
   4.5515172e-10  -1.2476742e-02   3.0193786e+00   1.1435893e+00  -6.7511296e+07
   4.5615205e-10  -1.2409390e-02   3.0140736e+00   1.1475788e+00  -6.7150634e+07
   4.5715238e-10  -1.2342398e-02   3.0087957e+00   1.1515567e+00  -6.6791865e+07
   4.5815272e-10  -1.2275764e-02   3.0035450e+00   1.1555231e+00  -6.6434978e+07
   4.5915305e-10  -1.2209486e-02   2.9983212e+00   1.1594780e+00  -6.6079964e+07
   4.6015338e-10  -1.2143562e-02   2.9931243e+00   1.1634212e+00  -6.5726814e+07
   4.6115372e-10  -1.2077990e-02   2.9879542e+00   1.1673528e+00  -6.5375518e+07
   4.6215405e-10  -1.2012769e-02   2.9828108e+00   1.1712727e+00  -6.5026066e+07
   4.6315438e-10  -1.1947897e-02   2.9776939e+00   1.1751809e+00  -6.4678450e+07
   4.6415472e-10  -1.1883371e-02   2.9726036e+00   1.1790773e+00  -6.4332660e+07
   4.6515505e-10  -1.1819190e-02   2.9675396e+00   1.1829620e+00  -6.3988687e+07
   4.6615539e-10  -1.1755353e-02   2.9625018e+00   1.1868348e+00  -6.3646521e+07
   4.6715572e-10  -1.1691857e-02   2.9574902e+00   1.1906957e+00  -6.3306154e+07
   4.6815605e-10  -1.1628700e-02   2.9525047e+00   1.1945447e+00  -6.2967575e+07
   4.6915639e-10  -1.1565881e-02   2.9475451e+00   1.1983818e+00  -6.2630777e+07
   4.7015672e-10  -1.1503398e-02   2.9426114e+00   1.2022070e+00  -6.2295750e+07
   4.7115705e-10  -1.1441250e-02   2.9377034e+00   1.2060202e+00  -6.1962485e+07
   4.7215739e-10  -1.1379434e-02   2.9328210e+00   1.2098213e+00  -6.1630973e+07
   4.7315772e-10  -1.1317948e-02   2.9279641e+00   1.2136105e+00  -6.1301206e+07
   4.7415805e-10  -1.1256792e-02   2.9231326e+00   1.2173875e+00  -6.0973173e+07
   4.7515839e-10  -1.1195963e-02   2.9183265e+00   1.2211525e+00  -6.0646867e+07
   4.7615872e-10  -1.1135459e-02   2.9135455e+00   1.2249054e+00  -6.0322278e+07
   4.7715905e-10  -1.1075280e-02   2.9087897e+00   1.2286461e+00  -5.9999398e+07
   4.7815939e-10  -1.1015422e-02   2.9040588e+00   1.2323747e+00  -5.9678219e+07
   4.7915972e-10  -1.0955885e-02   2.8993528e+00   1.2360910e+00  -5.9358731e+07
   4.8016005e-10  -1.0896666e-02   2.8946716e+00   1.2397952e+00  -5.9040925e+07
   4.8116039e-10  -1.0837765e-02   2.8900151e+00   1.2434872e+00  -5.8724794e+07
   4.8216072e-10  -1.0779179e-02   2.8853831e+00   1.2471670e+00  -5.8410328e+07
   4.8316105e-10  -1.0720907e-02   2.8807756e+00   1.2508344e+00  -5.8097519e+07
   4.8416139e-10  -1.0662947e-02   2.8761925e+00   1.2544897e+00  -5.7786359e+07
   4.8516172e-10  -1.0605297e-02   2.8716335e+00   1.2581326e+00  -5.7476839e+07
   4.8616205e-10  -1.0547956e-02   2.8670988e+00   1.2617632e+00  -5.7168951e+07
   4.8716239e-10  -1.0490922e-02   2.8625880e+00   1.2653816e+00  -5.6862686e+07
   4.8816272e-10  -1.0434194e-02   2.8581012e+00   1.2689876e+00  -5.6558036e+07
   4.8916305e-10  -1.0377769e-02   2.8536381e+00   1.2725812e+00  -5.6254993e+07
   4.9016339e-10  -1.0321647e-02   2.8491988e+00   1.2761626e+00  -5.5953548e+07
   4.9116372e-10  -1.0265826e-02   2.8447831e+00   1.2797315e+00  -5.5653694e+07
   4.9216405e-10  -1.0210304e-02   2.8403910e+00   1.2832881e+00  -5.5355422e+07
   4.9316439e-10  -1.0155079e-02   2.8360221e+00   1.2868324e+00  -5.5058724e+07
   4.9416472e-10  -1.0100151e-02   2.8316766e+00   1.2903642e+00  -5.4763592e+07
   4.9516506e-10  -1.0045517e-02   2.8273543e+00   1.2938836e+00  -5.4470018e+07
   4.9616539e-10  -9.9911754e-03   2.8230550e+00   1.2973907e+00  -5.4177993e+07
   4.9716572e-10  -9.9371255e-03   2.8187787e+00   1.3008853e+00  -5.3887511e+07
   4.9816606e-10  -9.8833654e-03   2.8145253e+00   1.3043676e+00  -5.3598563e+07
   4.9916639e-10  -9.8298936e-03   2.8102947e+00   1.3078374e+00  -5.3311140e+07
   5.0016672e-10  -9.7767085e-03   2.8060866e+00   1.3112948e+00  -5.3025236e+07
   5.0116706e-10  -9.7238087e-03   2.8019012e+00   1.3147398e+00  -5.2740843e+07
   5.0216739e-10  -9.6711926e-03   2.7977382e+00   1.3181724e+00  -5.2457952e+07
   5.0316772e-10  -9.6188587e-03   2.7935975e+00   1.3215926e+00  -5.2176556e+07
   5.0416806e-10  -9.5668055e-03   2.7894791e+00   1.3250003e+00  -5.1896647e+07
   5.0516839e-10  -9.5150316e-03   2.7853827e+00   1.3283956e+00  -5.1618218e+07
   5.0616872e-10  -9.4635354e-03   2.7813085e+00   1.3317786e+00  -5.1341261e+07
   5.0716906e-10  -9.4123156e-03   2.7772561e+00   1.3351490e+00  -5.1065768e+07
   5.0816939e-10  -9.3613706e-03   2.7732256e+00   1.3385071e+00  -5.0791732e+07
   5.0916972e-10  -9.3106990e-03   2.7692168e+00   1.3418528e+00  -5.0519145e+07
   5.1017006e-10  -9.2602993e-03   2.7652296e+00   1.3451860e+00  -5.0248000e+07
   5.1117039e-10  -9.2101702e-03   2.7612639e+00   1.3485069e+00  -4.9978289e+07
   5.1217072e-10  -9.1603101e-03   2.7573196e+00   1.3518153e+00  -4.9710005e+07
   5.1317106e-10  -9.1107177e-03   2.7533966e+00   1.3551114e+00  -4.9443141e+07
   5.1417139e-10  -9.0613915e-03   2.7494948e+00   1.3583950e+00  -4.9177689e+07
   5.1517172e-10  -9.0123302e-03   2.7456141e+00   1.3616663e+00  -4.8913642e+07
   5.1617206e-10  -8.9635323e-03   2.7417545e+00   1.3649252e+00  -4.8650992e+07
   5.1717239e-10  -8.9149964e-03   2.7379157e+00   1.3681718e+00  -4.8389733e+07
   5.1817272e-10  -8.8667211e-03   2.7340977e+00   1.3714060e+00  -4.8129858e+07
   5.1917306e-10  -8.8187051e-03   2.7303004e+00   1.3746278e+00  -4.7871358e+07
   5.2017339e-10  -8.7709470e-03   2.7265237e+00   1.3778373e+00  -4.7614228e+07
   5.2117372e-10  -8.7234455e-03   2.7227675e+00   1.3810345e+00  -4.7358459e+07
   5.2217406e-10  -8.6761991e-03   2.7190317e+00   1.3842193e+00  -4.7104045e+07
   5.2317439e-10  -8.6292065e-03   2.7153162e+00   1.3873919e+00  -4.6850979e+07
   5.2417472e-10  -8.5824664e-03   2.7116208e+00   1.3905521e+00  -4.6599254e+07
   5.2517506e-10  -8.5359774e-03   2.7079456e+00   1.3937001e+00  -4.6348863e+07
   5.2617539e-10  -8.4897382e-03   2.7042904e+00   1.3968358e+00  -4.6099799e+07
   5.2717573e-10  -8.4437475e-03   2.7006550e+00   1.3999592e+00  -4.5852055e+07
   5.2817606e-10  -8.3980040e-03   2.6970395e+00   1.4030704e+00  -4.5605624e+07
   5.2917639e-10  -8.3525063e-03   2.6934436e+00   1.4061693e+00  -4.5360500e+07
   5.3017673e-10  -8.3072531e-03   2.6898674e+00   1.4092561e+00  -4.5116676e+07
   5.3117706e-10  -8.2622432e-03   2.6863106e+00   1.4123306e+00  -4.4874144e+07
   5.3217739e-10  -8.2174753e-03   2.6827733e+00   1.4153930e+00  -4.4632899e+07
   5.3317773e-10  -8.1729481e-03   2.6792552e+00   1.4184431e+00  -4.4392934e+07
   5.3417806e-10  -8.1286602e-03   2.6757564e+00   1.4214812e+00  -4.4154241e+07
   5.3517839e-10  -8.0846105e-03   2.6722767e+00   1.4245071e+00  -4.3916815e+07
   5.3617873e-10  -8.0407977e-03   2.6688160e+00   1.4275208e+00  -4.3680649e+07
   5.3717906e-10  -7.9972204e-03   2.6653742e+00   1.4305225e+00  -4.3445735e+07
   5.3817939e-10  -7.9538775e-03   2.6619513e+00   1.4335121e+00  -4.3212069e+07
   5.3917973e-10  -7.9107678e-03   2.6585470e+00   1.4364896e+00  -4.2979643e+07
   5.4018006e-10  -7.8678899e-03   2.6551615e+00   1.4394551e+00  -4.2748451e+07
   5.4118039e-10  -7.8252427e-03   2.6517944e+00   1.4424085e+00  -4.2518486e+07
   5.4218073e-10  -7.7828249e-03   2.6484458e+00   1.4453500e+00  -4.2289742e+07
   5.4318106e-10  -7.7406353e-03   2.6451156e+00   1.4482794e+00  -4.2062213e+07
   5.4418139e-10  -7.6986726e-03   2.6418036e+00   1.4511969e+00  -4.1835892e+07
   5.4518173e-10  -7.6569358e-03   2.6385097e+00   1.4541025e+00  -4.1610773e+07
   5.4618206e-10  -7.6154236e-03   2.6352340e+00   1.4569961e+00  -4.1386851e+07
   5.4718239e-10  -7.5741348e-03   2.6319762e+00   1.4598778e+00  -4.1164117e+07
   5.4818273e-10  -7.5330681e-03   2.6287363e+00   1.4627476e+00  -4.0942568e+07
   5.4918306e-10  -7.4922225e-03   2.6255142e+00   1.4656056e+00  -4.0722195e+07
   5.5018339e-10  -7.4515968e-03   2.6223099e+00   1.4684518e+00  -4.0502994e+07
   5.5118373e-10  -7.4111897e-03   2.6191231e+00   1.4712861e+00  -4.0284958e+07
   5.5218406e-10  -7.3710002e-03   2.6159538e+00   1.4741086e+00  -4.0068081e+07
   5.5318439e-10  -7.3310270e-03   2.6128020e+00   1.4769194e+00  -3.9852356e+07
   5.5418473e-10  -7.2912691e-03   2.6096675e+00   1.4797184e+00  -3.9637779e+07
   5.5518506e-10  -7.2517252e-03   2.6065503e+00   1.4825057e+00  -3.9424343e+07
   5.5618540e-10  -7.2123943e-03   2.6034502e+00   1.4852813e+00  -3.9212042e+07
   5.5718573e-10  -7.1732751e-03   2.6003672e+00   1.4880453e+00  -3.9000869e+07
   5.5818606e-10  -7.1343667e-03   2.5973012e+00   1.4907976e+00  -3.8790821e+07
   5.5918640e-10  -7.0956678e-03   2.5942520e+00   1.4935383e+00  -3.8581889e+07
   5.6018673e-10  -7.0571773e-03   2.5912197e+00   1.4962673e+00  -3.8374069e+07
   5.6118706e-10  -7.0188942e-03   2.5882041e+00   1.4989849e+00  -3.8167355e+07
   5.6218740e-10  -6.9808172e-03   2.5852051e+00   1.5016908e+00  -3.7961741e+07
   5.6318773e-10  -6.9429455e-03   2.5822227e+00   1.5043853e+00  -3.7757221e+07
   5.6418806e-10  -6.9052777e-03   2.5792567e+00   1.5070682e+00  -3.7553790e+07
   5.6518840e-10  -6.8678129e-03   2.5763071e+00   1.5097398e+00  -3.7351441e+07
   5.6618873e-10  -6.8305500e-03   2.5733737e+00   1.5123998e+00  -3.7150170e+07
   5.6718906e-10  -6.7934879e-03   2.5704566e+00   1.5150485e+00  -3.6949971e+07
   5.6818940e-10  -6.7566255e-03   2.5675556e+00   1.5176858e+00  -3.6750837e+07
   5.6918973e-10  -6.7199618e-03   2.5646706e+00   1.5203117e+00  -3.6552764e+07
   5.7019006e-10  -6.6834957e-03   2.5618015e+00   1.5229263e+00  -3.6355746e+07
   5.7119040e-10  -6.6472261e-03   2.5589483e+00   1.5255296e+00  -3.6159777e+07
   5.7219073e-10  -6.6111521e-03   2.5561109e+00   1.5281216e+00  -3.5964852e+07
   5.7319106e-10  -6.5752725e-03   2.5532891e+00   1.5307024e+00  -3.5770966e+07
   5.7419140e-10  -6.5395863e-03   2.5504830e+00   1.5332720e+00  -3.5578112e+07
   5.7519173e-10  -6.5040926e-03   2.5476924e+00   1.5358304e+00  -3.5386287e+07
   5.7619206e-10  -6.4687902e-03   2.5449172e+00   1.5383777e+00  -3.5195483e+07
   5.7719240e-10  -6.4336782e-03   2.5421574e+00   1.5409138e+00  -3.5005697e+07
   5.7819273e-10  -6.3987555e-03   2.5394129e+00   1.5434389e+00  -3.4816922e+07
   5.7919306e-10  -6.3640211e-03   2.5366835e+00   1.5459528e+00  -3.4629154e+07
   5.8019340e-10  -6.3294741e-03   2.5339693e+00   1.5484558e+00  -3.4442386e+07
   5.8119373e-10  -6.2951134e-03   2.5312701e+00   1.5509477e+00  -3.4256615e+07
   5.8219406e-10  -6.2609380e-03   2.5285859e+00   1.5534287e+00  -3.4071834e+07
   5.8319440e-10  -6.2269470e-03   2.5259165e+00   1.5558987e+00  -3.3888038e+07
   5.8419473e-10  -6.1931393e-03   2.5232619e+00   1.5583578e+00  -3.3705223e+07
   5.8519507e-10  -6.1595140e-03   2.5206220e+00   1.5608060e+00  -3.3523383e+07
   5.8619540e-10  -6.1260702e-03   2.5179968e+00   1.5632434e+00  -3.3342513e+07
   5.8719573e-10  -6.0928068e-03   2.5153861e+00   1.5656699e+00  -3.3162608e+07
   5.8819607e-10  -6.0597228e-03   2.5127900e+00   1.5680857e+00  -3.2983663e+07
   5.8919640e-10  -6.0268174e-03   2.5102082e+00   1.5704907e+00  -3.2805672e+07
   5.9019673e-10  -5.9940896e-03   2.5076407e+00   1.5728850e+00  -3.2628632e+07
   5.9119707e-10  -5.9615384e-03   2.5050875e+00   1.5752686e+00  -3.2452537e+07
   5.9219740e-10  -5.9291628e-03   2.5025484e+00   1.5776415e+00  -3.2277381e+07
   5.9319773e-10  -5.8969620e-03   2.5000234e+00   1.5800038e+00  -3.2103161e+07
   5.9419807e-10  -5.8649350e-03   2.4975125e+00   1.5823555e+00  -3.1929870e+07
   5.9519840e-10  -5.8330809e-03   2.4950155e+00   1.5846967e+00  -3.1757505e+07
   5.9619873e-10  -5.8013988e-03   2.4925323e+00   1.5870273e+00  -3.1586061e+07
   5.9719907e-10  -5.7698877e-03   2.4900629e+00   1.5893473e+00  -3.1415532e+07
   5.9819940e-10  -5.7385467e-03   2.4876073e+00   1.5916570e+00  -3.1245913e+07
   5.9919973e-10  -5.7073750e-03   2.4851653e+00   1.5939562e+00  -3.1077201e+07
   6.0020007e-10  -5.6763715e-03   2.4827368e+00   1.5962449e+00  -3.0909390e+07
   6.0120040e-10  -5.6455355e-03   2.4803219e+00   1.5985234e+00  -3.0742476e+07
   6.0220073e-10  -5.6148660e-03   2.4779204e+00   1.6007914e+00  -3.0576453e+07
   6.0320107e-10  -5.5843622e-03   2.4755322e+00   1.6030492e+00  -3.0411318e+07
   6.0420140e-10  -5.5540230e-03   2.4731573e+00   1.6052967e+00  -3.0247065e+07
   6.0520173e-10  -5.5238478e-03   2.4707956e+00   1.6075339e+00  -3.0083690e+07
   6.0620207e-10  -5.4938355e-03   2.4684470e+00   1.6097610e+00  -2.9921188e+07
   6.0720240e-10  -5.4639854e-03   2.4661115e+00   1.6119779e+00  -2.9759555e+07
   6.0820273e-10  -5.4342965e-03   2.4637889e+00   1.6141846e+00  -2.9598785e+07
   6.0920307e-10  -5.4047680e-03   2.4614793e+00   1.6163812e+00  -2.9438876e+07
   6.1020340e-10  -5.3753990e-03   2.4591825e+00   1.6185678e+00  -2.9279821e+07
   6.1120373e-10  -5.3461887e-03   2.4568985e+00   1.6207443e+00  -2.9121618e+07
   6.1220407e-10  -5.3171362e-03   2.4546273e+00   1.6229108e+00  -2.8964260e+07
   6.1320440e-10  -5.2882408e-03   2.4523686e+00   1.6250673e+00  -2.8807744e+07
   6.1420473e-10  -5.2595014e-03   2.4501225e+00   1.6272139e+00  -2.8652065e+07
   6.1520507e-10  -5.2309174e-03   2.4478889e+00   1.6293505e+00  -2.8497218e+07
   6.1620540e-10  -5.2024879e-03   2.4456678e+00   1.6314773e+00  -2.8343201e+07
   6.1720574e-10  -5.1742120e-03   2.4434589e+00   1.6335943e+00  -2.8190007e+07
   6.1820607e-10  -5.1460890e-03   2.4412624e+00   1.6357015e+00  -2.8037633e+07
   6.1920640e-10  -5.1181179e-03   2.4390782e+00   1.6377989e+00  -2.7886075e+07
   6.2020674e-10  -5.0902981e-03   2.4369060e+00   1.6398865e+00  -2.7735327e+07
   6.2120707e-10  -5.0626287e-03   2.4347460e+00   1.6419644e+00  -2.7585387e+07
   6.2220740e-10  -5.0351088e-03   2.4325980e+00   1.6440327e+00  -2.7436249e+07
   6.2320774e-10  -5.0077378e-03   2.4304619e+00   1.6460914e+00  -2.7287910e+07
   6.2420807e-10  -4.9805147e-03   2.4283378e+00   1.6481404e+00  -2.7140365e+07
   6.2520840e-10  -4.9534388e-03   2.4262255e+00   1.6501799e+00  -2.6993610e+07
   6.2620874e-10  -4.9265094e-03   2.4241249e+00   1.6522098e+00  -2.6847640e+07
   6.2720907e-10  -4.8997255e-03   2.4220360e+00   1.6542302e+00  -2.6702453e+07
   6.2820940e-10  -4.8730865e-03   2.4199588e+00   1.6562412e+00  -2.6558043e+07
   6.2920974e-10  -4.8465916e-03   2.4178932e+00   1.6582427e+00  -2.6414406e+07
   6.3021007e-10  -4.8202400e-03   2.4158390e+00   1.6602349e+00  -2.6271539e+07
   6.3121040e-10  -4.7940309e-03   2.4137963e+00   1.6622176e+00  -2.6129438e+07
   6.3221074e-10  -4.7679635e-03   2.4117650e+00   1.6641911e+00  -2.5988098e+07
   6.3321107e-10  -4.7420372e-03   2.4097450e+00   1.6661552e+00  -2.5847515e+07
   6.3421140e-10  -4.7162511e-03   2.4077362e+00   1.6681101e+00  -2.5707685e+07
   6.3521174e-10  -4.6906046e-03   2.4057386e+00   1.6700557e+00  -2.5568605e+07
   6.3621207e-10  -4.6650967e-03   2.4037522e+00   1.6719922e+00  -2.5430270e+07
   6.3721240e-10  -4.6397269e-03   2.4017768e+00   1.6739195e+00  -2.5292677e+07
   6.3821274e-10  -4.6144944e-03   2.3998125e+00   1.6758377e+00  -2.5155821e+07
   6.3921307e-10  -4.5893984e-03   2.3978590e+00   1.6777467e+00  -2.5019700e+07
   6.4021340e-10  -4.5644382e-03   2.3959165e+00   1.6796468e+00  -2.4884307e+07
   6.4121374e-10  -4.5396130e-03   2.3939848e+00   1.6815378e+00  -2.4749641e+07
   6.4221407e-10  -4.5149222e-03   2.3920639e+00   1.6834198e+00  -2.4615697e+07
   6.4321440e-10  -4.4903651e-03   2.3901536e+00   1.6852928e+00  -2.4482472e+07
   6.4421474e-10  -4.4659408e-03   2.3882541e+00   1.6871570e+00  -2.4349960e+07
   6.4521507e-10  -4.4416488e-03   2.3863651e+00   1.6890122e+00  -2.4218160e+07
   6.4621541e-10  -4.4174882e-03   2.3844866e+00   1.6908586e+00  -2.4087067e+07
   6.4721574e-10  -4.3934584e-03   2.3826186e+00   1.6926962e+00  -2.3956677e+07
   6.4821607e-10  -4.3695587e-03   2.3807610e+00   1.6945249e+00  -2.3826986e+07
   6.4921641e-10  -4.3457884e-03   2.3789138e+00   1.6963450e+00  -2.3697992e+07
   6.5021674e-10  -4.3221468e-03   2.3770768e+00   1.6981563e+00  -2.3569689e+07
   6.5121707e-10  -4.2986332e-03   2.3752501e+00   1.6999589e+00  -2.3442075e+07
   6.5221741e-10  -4.2752469e-03   2.3734336e+00   1.7017529e+00  -2.3315146e+07
   6.5321774e-10  -4.2519872e-03   2.3716272e+00   1.7035382e+00  -2.3188899e+07
   6.5421807e-10  -4.2288535e-03   2.3698309e+00   1.7053150e+00  -2.3063329e+07
   6.5521841e-10  -4.2058450e-03   2.3680446e+00   1.7070833e+00  -2.2938433e+07
   6.5621874e-10  -4.1829611e-03   2.3662683e+00   1.7088430e+00  -2.2814208e+07
   6.5721907e-10  -4.1602012e-03   2.3645019e+00   1.7105942e+00  -2.2690649e+07
   6.5821941e-10  -4.1375646e-03   2.3627453e+00   1.7123370e+00  -2.2567754e+07
   6.5921974e-10  -4.1150505e-03   2.3609985e+00   1.7140713e+00  -2.2445520e+07
   6.6022007e-10  -4.0926584e-03   2.3592614e+00   1.7157973e+00  -2.2323941e+07
   6.6122041e-10  -4.0703876e-03   2.3575340e+00   1.7175150e+00  -2.2203016e+07
   6.6222074e-10  -4.0482374e-03   2.3558163e+00   1.7192243e+00  -2.2082740e+07
   6.6322107e-10  -4.0262072e-03   2.3541081e+00   1.7209253e+00  -2.1963110e+07
   6.6422141e-10  -4.0042964e-03   2.3524095e+00   1.7226181e+00  -2.1844123e+07
   6.6522174e-10  -3.9825043e-03   2.3507203e+00   1.7243027e+00  -2.1725775e+07
   6.6622207e-10  -3.9608302e-03   2.3490406e+00   1.7259791e+00  -2.1608063e+07
   6.6722241e-10  -3.9392736e-03   2.3473702e+00   1.7276473e+00  -2.1490984e+07
   6.6822274e-10  -3.9178338e-03   2.3457091e+00   1.7293075e+00  -2.1374533e+07
   6.6922307e-10  -3.8965101e-03   2.3440573e+00   1.7309595e+00  -2.1258709e+07
   6.7022341e-10  -3.8753020e-03   2.3424147e+00   1.7326035e+00  -2.1143507e+07
   6.7122374e-10  -3.8542088e-03   2.3407812e+00   1.7342395e+00  -2.1028924e+07
   6.7222407e-10  -3.8332300e-03   2.3391569e+00   1.7358675e+00  -2.0914958e+07
   6.7322441e-10  -3.8123648e-03   2.3375416e+00   1.7374876e+00  -2.0801604e+07
   6.7422474e-10  -3.7916127e-03   2.3359353e+00   1.7390997e+00  -2.0688859e+07
   6.7522508e-10  -3.7709732e-03   2.3343380e+00   1.7407040e+00  -2.0576721e+07
   6.7622541e-10  -3.7504454e-03   2.3327496e+00   1.7423003e+00  -2.0465186e+07
   6.7722574e-10  -3.7300290e-03   2.3311700e+00   1.7438889e+00  -2.0354250e+07
   6.7822608e-10  -3.7097232e-03   2.3295993e+00   1.7454697e+00  -2.0243911e+07
   6.7922641e-10  -3.6895275e-03   2.3280373e+00   1.7470428e+00  -2.0134166e+07
   6.8022674e-10  -3.6694413e-03   2.3264840e+00   1.7486081e+00  -2.0025011e+07
   6.8122708e-10  -3.6494640e-03   2.3249394e+00   1.7501657e+00  -1.9916443e+07
   6.8222741e-10  -3.6295950e-03   2.3234033e+00   1.7517157e+00  -1.9808459e+07
   6.8322774e-10  -3.6098337e-03   2.3218759e+00   1.7532580e+00  -1.9701056e+07
   6.8422808e-10  -3.5901796e-03   2.3203569e+00   1.7547927e+00  -1.9594231e+07
   6.8522841e-10  -3.5706320e-03   2.3188465e+00   1.7563199e+00  -1.9487981e+07
   6.8622874e-10  -3.5511904e-03   2.3173444e+00   1.7578396e+00  -1.9382303e+07
   6.8722908e-10  -3.5318543e-03   2.3158507e+00   1.7593518e+00  -1.9277193e+07
   6.8822941e-10  -3.5126231e-03   2.3143654e+00   1.7608565e+00  -1.9172649e+07
   6.8922974e-10  -3.4934961e-03   2.3128883e+00   1.7623537e+00  -1.9068668e+07
   6.9023008e-10  -3.4744728e-03   2.3114194e+00   1.7638436e+00  -1.8965247e+07
   6.9123041e-10  -3.4555528e-03   2.3099588e+00   1.7653261e+00  -1.8862382e+07
   6.9223074e-10  -3.4367353e-03   2.3085063e+00   1.7668012e+00  -1.8760071e+07
   6.9323108e-10  -3.4180200e-03   2.3070619e+00   1.7682691e+00  -1.8658311e+07
   6.9423141e-10  -3.3994061e-03   2.3056255e+00   1.7697296e+00  -1.8557099e+07
   6.9523174e-10  -3.3808933e-03   2.3041971e+00   1.7711830e+00  -1.8456432e+07
   6.9623208e-10  -3.3624808e-03   2.3027767e+00   1.7726291e+00  -1.8356307e+07
   6.9723241e-10  -3.3441682e-03   2.3013642e+00   1.7740680e+00  -1.8256721e+07
   6.9823274e-10  -3.3259550e-03   2.2999596e+00   1.7754998e+00  -1.8157672e+07
   6.9923308e-10  -3.3078406e-03   2.2985628e+00   1.7769245e+00  -1.8059156e+07
   7.0023341e-10  -3.2898245e-03   2.2971738e+00   1.7783420e+00  -1.7961171e+07
   7.0123374e-10  -3.2719062e-03   2.2957926e+00   1.7797525e+00  -1.7863713e+07
   7.0223408e-10  -3.2540850e-03   2.2944190e+00   1.7811560e+00  -1.7766781e+07
   7.0323441e-10  -3.2363606e-03   2.2930531e+00   1.7825525e+00  -1.7670371e+07
   7.0423474e-10  -3.2187324e-03   2.2916948e+00   1.7839421e+00  -1.7574481e+07
   7.0523508e-10  -3.2011998e-03   2.2903440e+00   1.7853247e+00  -1.7479107e+07
   7.0623541e-10  -3.1837623e-03   2.2890008e+00   1.7867003e+00  -1.7384247e+07
   7.0723575e-10  -3.1664195e-03   2.2876651e+00   1.7880692e+00  -1.7289898e+07
   7.0823608e-10  -3.1491709e-03   2.2863368e+00   1.7894311e+00  -1.7196058e+07
   7.0923641e-10  -3.1320158e-03   2.2850159e+00   1.7907863e+00  -1.7102724e+07
   7.1023675e-10  -3.1149539e-03   2.2837024e+00   1.7921347e+00  -1.7009893e+07
   7.1123708e-10  -3.0979845e-03   2.2823962e+00   1.7934763e+00  -1.6917562e+07
   7.1223741e-10  -3.0811073e-03   2.2810972e+00   1.7948112e+00  -1.6825730e+07
   7.1323775e-10  -3.0643217e-03   2.2798056e+00   1.7961394e+00  -1.6734392e+07
   7.1423808e-10  -3.0476272e-03   2.2785210e+00   1.7974609e+00  -1.6643547e+07
   7.1523841e-10  -3.0310234e-03   2.2772437e+00   1.7987758e+00  -1.6553191e+07
   7.1623875e-10  -3.0145096e-03   2.2759735e+00   1.8000841e+00  -1.6463323e+07
   7.1723908e-10  -2.9980856e-03   2.2747103e+00   1.8013859e+00  -1.6373940e+07
   7.1823941e-10  -2.9817507e-03   2.2734542e+00   1.8026811e+00  -1.6285038e+07
   7.1923975e-10  -2.9655045e-03   2.2722050e+00   1.8039697e+00  -1.6196617e+07
   7.2024008e-10  -2.9493465e-03   2.2709629e+00   1.8052519e+00  -1.6108672e+07
   7.2124041e-10  -2.9332763e-03   2.2697276e+00   1.8065276e+00  -1.6021201e+07
   7.2224075e-10  -2.9172933e-03   2.2684992e+00   1.8077969e+00  -1.5934203e+07
   7.2324108e-10  -2.9013971e-03   2.2672777e+00   1.8090598e+00  -1.5847673e+07
   7.2424141e-10  -2.8855872e-03   2.2660630e+00   1.8103164e+00  -1.5761611e+07
   7.2524175e-10  -2.8698632e-03   2.2648550e+00   1.8115666e+00  -1.5676013e+07
   7.2624208e-10  -2.8542246e-03   2.2636537e+00   1.8128104e+00  -1.5590877e+07
   7.2724241e-10  -2.8386709e-03   2.2624592e+00   1.8140480e+00  -1.5506201e+07
   7.2824275e-10  -2.8232017e-03   2.2612713e+00   1.8152793e+00  -1.5421981e+07
   7.2924308e-10  -2.8078165e-03   2.2600900e+00   1.8165045e+00  -1.5338216e+07
   7.3024341e-10  -2.7925149e-03   2.2589152e+00   1.8177234e+00  -1.5254903e+07
   7.3124375e-10  -2.7772964e-03   2.2577471e+00   1.8189361e+00  -1.5172040e+07
   7.3224408e-10  -2.7621606e-03   2.2565854e+00   1.8201427e+00  -1.5089624e+07
   7.3324441e-10  -2.7471070e-03   2.2554302e+00   1.8213432e+00  -1.5007653e+07
   7.3424475e-10  -2.7321351e-03   2.2542814e+00   1.8225376e+00  -1.4926125e+07
   7.3524508e-10  -2.7172446e-03   2.2531390e+00   1.8237259e+00  -1.4845036e+07
   7.3624542e-10  -2.7024350e-03   2.2520029e+00   1.8249082e+00  -1.4764386e+07
   7.3724575e-10  -2.6877059e-03   2.2508732e+00   1.8260845e+00  -1.4684171e+07
   7.3824608e-10  -2.6730567e-03   2.2497498e+00   1.8272549e+00  -1.4604390e+07
   7.3924642e-10  -2.6584872e-03   2.2486326e+00   1.8284192e+00  -1.4525039e+07
   7.4024675e-10  -2.6439968e-03   2.2475217e+00   1.8295777e+00  -1.4446117e+07
   7.4124708e-10  -2.6295852e-03   2.2464169e+00   1.8307303e+00  -1.4367621e+07
   7.4224742e-10  -2.6152519e-03   2.2453182e+00   1.8318770e+00  -1.4289549e+07
   7.4324775e-10  -2.6009964e-03   2.2442257e+00   1.8330179e+00  -1.4211898e+07
   7.4424808e-10  -2.5868185e-03   2.2431393e+00   1.8341529e+00  -1.4134668e+07
   7.4524842e-10  -2.5727175e-03   2.2420589e+00   1.8352822e+00  -1.4057854e+07
   7.4624875e-10  -2.5586932e-03   2.2409845e+00   1.8364057e+00  -1.3981456e+07
   7.4724908e-10  -2.5447452e-03   2.2399161e+00   1.8375235e+00  -1.3905470e+07
   7.4824942e-10  -2.5308729e-03   2.2388536e+00   1.8386356e+00  -1.3829895e+07
   7.4924975e-10  -2.5170760e-03   2.2377970e+00   1.8397420e+00  -1.3754728e+07
   7.5025008e-10  -2.5033541e-03   2.2367463e+00   1.8408427e+00  -1.3679968e+07
   7.5125042e-10  -2.4897068e-03   2.2357015e+00   1.8419379e+00  -1.3605611e+07
   7.5225075e-10  -2.4761337e-03   2.2346625e+00   1.8430274e+00  -1.3531657e+07
   7.5325108e-10  -2.4626344e-03   2.2336292e+00   1.8441114e+00  -1.3458102e+07
   7.5425142e-10  -2.4492084e-03   2.2326017e+00   1.8451898e+00  -1.3384945e+07
   7.5525175e-10  -2.4358554e-03   2.2315799e+00   1.8462627e+00  -1.3312183e+07
   7.5625208e-10  -2.4225750e-03   2.2305638e+00   1.8473301e+00  -1.3239814e+07
   7.5725242e-10  -2.4093668e-03   2.2295533e+00   1.8483920e+00  -1.3167837e+07
   7.5825275e-10  -2.3962304e-03   2.2285485e+00   1.8494485e+00  -1.3096249e+07
   7.5925308e-10  -2.3831655e-03   2.2275492e+00   1.8504996e+00  -1.3025048e+07
   7.6025342e-10  -2.3701715e-03   2.2265555e+00   1.8515453e+00  -1.2954232e+07
   7.6125375e-10  -2.3572482e-03   2.2255673e+00   1.8525856e+00  -1.2883799e+07
   7.6225408e-10  -2.3443952e-03   2.2245846e+00   1.8536206e+00  -1.2813747e+07
   7.6325442e-10  -2.3316121e-03   2.2236074e+00   1.8546503e+00  -1.2744074e+07
   7.6425475e-10  -2.3188984e-03   2.2226356e+00   1.8556746e+00  -1.2674777e+07
   7.6525509e-10  -2.3062539e-03   2.2216692e+00   1.8566938e+00  -1.2605856e+07
   7.6625542e-10  -2.2936782e-03   2.2207081e+00   1.8577076e+00  -1.2537307e+07
   7.6725575e-10  -2.2811708e-03   2.2197524e+00   1.8587163e+00  -1.2469129e+07
   7.6825609e-10  -2.2687315e-03   2.2188021e+00   1.8597198e+00  -1.2401319e+07
   7.6925642e-10  -2.2563598e-03   2.2178570e+00   1.8607181e+00  -1.2333877e+07
   7.7025675e-10  -2.2440554e-03   2.2169171e+00   1.8617113e+00  -1.2266799e+07
   7.7125709e-10  -2.2318179e-03   2.2159825e+00   1.8626993e+00  -1.2200084e+07
   7.7225742e-10  -2.2196470e-03   2.2150531e+00   1.8636823e+00  -1.2133731e+07
   7.7325775e-10  -2.2075422e-03   2.2141288e+00   1.8646602e+00  -1.2067736e+07
   7.7425809e-10  -2.1955033e-03   2.2132096e+00   1.8656330e+00  -1.2002099e+07
   7.7525842e-10  -2.1835299e-03   2.2122956e+00   1.8666009e+00  -1.1936816e+07
   7.7625875e-10  -2.1716216e-03   2.2113867e+00   1.8675637e+00  -1.1871887e+07
   7.7725909e-10  -2.1597781e-03   2.2104827e+00   1.8685216e+00  -1.1807310e+07
   7.7825942e-10  -2.1479990e-03   2.2095839e+00   1.8694745e+00  -1.1743081e+07
   7.7925975e-10  -2.1362840e-03   2.2086900e+00   1.8704225e+00  -1.1679201e+07
   7.8026009e-10  -2.1246327e-03   2.2078010e+00   1.8713656e+00  -1.1615666e+07
   7.8126042e-10  -2.1130448e-03   2.2069170e+00   1.8723039e+00  -1.1552475e+07
   7.8226075e-10  -2.1015199e-03   2.2060379e+00   1.8732373e+00  -1.1489627e+07
   7.8326109e-10  -2.0900577e-03   2.2051637e+00   1.8741658e+00  -1.1427118e+07
   7.8426142e-10  -2.0786579e-03   2.2042944e+00   1.8750896e+00  -1.1364948e+07
   7.8526175e-10  -2.0673201e-03   2.2034299e+00   1.8760085e+00  -1.1303115e+07
   7.8626209e-10  -2.0560440e-03   2.2025701e+00   1.8769227e+00  -1.1241616e+07
   7.8726242e-10  -2.0448293e-03   2.2017152e+00   1.8778322e+00  -1.1180451e+07
   7.8826275e-10  -2.0336756e-03   2.2008650e+00   1.8787370e+00  -1.1119616e+07
   7.8926309e-10  -2.0225825e-03   2.2000195e+00   1.8796370e+00  -1.1059111e+07
   7.9026342e-10  -2.0115499e-03   2.1991787e+00   1.8805325e+00  -1.0998934e+07
   7.9126375e-10  -2.0005772e-03   2.1983425e+00   1.8814232e+00  -1.0939083e+07
   7.9226409e-10  -1.9896643e-03   2.1975110e+00   1.8823094e+00  -1.0879555e+07
   7.9326442e-10  -1.9788107e-03   2.1966842e+00   1.8831909e+00  -1.0820351e+07
   7.9426475e-10  -1.9680163e-03   2.1958619e+00   1.8840679e+00  -1.0761467e+07
   7.9526509e-10  -1.9572805e-03   2.1950441e+00   1.8849403e+00  -1.0702902e+07
   7.9626542e-10  -1.9466032e-03   2.1942310e+00   1.8858081e+00  -1.0644654e+07
   7.9726576e-10  -1.9359840e-03   2.1934223e+00   1.8866715e+00  -1.0586721e+07
   7.9826609e-10  -1.9254226e-03   2.1926181e+00   1.8875304e+00  -1.0529103e+07
   7.9926642e-10  -1.9149187e-03   2.1918184e+00   1.8883848e+00  -1.0471797e+07
   8.0026676e-10  -1.9044719e-03   2.1910231e+00   1.8892348e+00  -1.0414801e+07
   8.0126709e-10  -1.8940820e-03   2.1902322e+00   1.8900803e+00  -1.0358114e+07
   8.0226742e-10  -1.8837487e-03   2.1894457e+00   1.8909215e+00  -1.0301734e+07
   8.0326776e-10  -1.8734716e-03   2.1886635e+00   1.8917582e+00  -1.0245660e+07
   8.0426809e-10  -1.8632504e-03   2.1878857e+00   1.8925906e+00  -1.0189890e+07
   8.0526842e-10  -1.8530849e-03   2.1871123e+00   1.8934187e+00  -1.0134421e+07
   8.0626876e-10  -1.8429747e-03   2.1863431e+00   1.8942425e+00  -1.0079254e+07
   8.0726909e-10  -1.8329195e-03   2.1855781e+00   1.8950619e+00  -1.0024385e+07
   8.0826942e-10  -1.8229191e-03   2.1848175e+00   1.8958771e+00  -9.9698143e+06
   8.0926976e-10  -1.8129732e-03   2.1840610e+00   1.8966881e+00  -9.9155390e+06
   8.1027009e-10  -1.8030813e-03   2.1833087e+00   1.8974948e+00  -9.8615579e+06
   8.1127042e-10  -1.7932434e-03   2.1825606e+00   1.8982973e+00  -9.8078694e+06
   8.1227076e-10  -1.7834590e-03   2.1818166e+00   1.8990956e+00  -9.7544720e+06
   8.1327109e-10  -1.7737278e-03   2.1810768e+00   1.8998897e+00  -9.7013641e+06
   8.1427142e-10  -1.7640497e-03   2.1803411e+00   1.9006797e+00  -9.6485441e+06
   8.1527176e-10  -1.7544242e-03   2.1796094e+00   1.9014656e+00  -9.5960105e+06
   8.1627209e-10  -1.7448511e-03   2.1788818e+00   1.9022474e+00  -9.5437617e+06
   8.1727242e-10  -1.7353302e-03   2.1781583e+00   1.9030250e+00  -9.4917963e+06
   8.1827276e-10  -1.7258611e-03   2.1774387e+00   1.9037987e+00  -9.4401126e+06
   8.1927309e-10  -1.7164436e-03   2.1767231e+00   1.9045682e+00  -9.3887092e+06
   8.2027342e-10  -1.7070773e-03   2.1760115e+00   1.9053338e+00  -9.3375846e+06
   8.2127376e-10  -1.6977621e-03   2.1753039e+00   1.9060953e+00  -9.2867372e+06
   8.2227409e-10  -1.6884976e-03   2.1746001e+00   1.9068528e+00  -9.2361656e+06
   8.2327442e-10  -1.6792835e-03   2.1739003e+00   1.9076064e+00  -9.1858683e+06
   8.2427476e-10  -1.6701196e-03   2.1732043e+00   1.9083560e+00  -9.1358438e+06
   8.2527509e-10  -1.6610056e-03   2.1725122e+00   1.9091017e+00  -9.0860906e+06
   8.2627543e-10  -1.6519413e-03   2.1718239e+00   1.9098435e+00  -9.0366073e+06
   8.2727576e-10  -1.6429263e-03   2.1711395e+00   1.9105815e+00  -8.9873925e+06
   8.2827609e-10  -1.6339604e-03   2.1704588e+00   1.9113155e+00  -8.9384446e+06
   8.2927643e-10  -1.6250433e-03   2.1697819e+00   1.9120457e+00  -8.8897623e+06
   8.3027676e-10  -1.6161748e-03   2.1691088e+00   1.9127721e+00  -8.8413441e+06
   8.3127709e-10  -1.6073546e-03   2.1684393e+00   1.9134946e+00  -8.7931886e+06
   8.3227743e-10  -1.5985825e-03   2.1677736e+00   1.9142134e+00  -8.7452943e+06
   8.3327776e-10  -1.5898581e-03   2.1671116e+00   1.9149284e+00  -8.6976600e+06
   8.3427809e-10  -1.5811813e-03   2.1664532e+00   1.9156396e+00  -8.6502841e+06
   8.3527843e-10  -1.5725517e-03   2.1657985e+00   1.9163471e+00  -8.6031652e+06
   8.3627876e-10  -1.5639691e-03   2.1651474e+00   1.9170509e+00  -8.5563021e+06
   8.3727909e-10  -1.5554333e-03   2.1644999e+00   1.9177510e+00  -8.5096933e+06
   8.3827943e-10  -1.5469440e-03   2.1638560e+00   1.9184474e+00  -8.4633375e+06
   8.3927976e-10  -1.5385009e-03   2.1632157e+00   1.9191401e+00  -8.4172332e+06
   8.4028009e-10  -1.5301038e-03   2.1625789e+00   1.9198292e+00  -8.3713792e+06
   8.4128043e-10  -1.5217525e-03   2.1619456e+00   1.9205147e+00  -8.3257740e+06
   8.4228076e-10  -1.5134466e-03   2.1613159e+00   1.9211966e+00  -8.2804164e+06
   8.4328109e-10  -1.5051860e-03   2.1606896e+00   1.9218748e+00  -8.2353050e+06
   8.4428143e-10  -1.4969704e-03   2.1600668e+00   1.9225496e+00  -8.1904384e+06
   8.4528176e-10  -1.4887996e-03   2.1594474e+00   1.9232207e+00  -8.1458154e+06
   8.4628209e-10  -1.4806733e-03   2.1588315e+00   1.9238884e+00  -8.1014347e+06
   8.4728243e-10  -1.4725912e-03   2.1582190e+00   1.9245525e+00  -8.0572949e+06
   8.4828276e-10  -1.4645532e-03   2.1576098e+00   1.9252131e+00  -8.0133947e+06
   8.4928309e-10  -1.4565590e-03   2.1570041e+00   1.9258702e+00  -7.9697329e+06
   8.5028343e-10  -1.4486083e-03   2.1564016e+00   1.9265239e+00  -7.9263081e+06
   8.5128376e-10  -1.4407010e-03   2.1558026e+00   1.9271741e+00  -7.8831192e+06
   8.5228409e-10  -1.4328368e-03   2.1552068e+00   1.9278209e+00  -7.8401647e+06
   8.5328443e-10  -1.4250154e-03   2.1546143e+00   1.9284643e+00  -7.7974435e+06
   8.5428476e-10  -1.4172366e-03   2.1540251e+00   1.9291043e+00  -7.7549543e+06
   8.5528510e-10  -1.4095002e-03   2.1534392e+00   1.9297409e+00  -7.7126958e+06
   8.5628543e-10  -1.4018060e-03   2.1528565e+00   1.9303742e+00  -7.6706668e+06
   8.5728576e-10  -1.3941537e-03   2.1522770e+00   1.9310041e+00  -7.6288661e+06
   8.5828610e-10  -1.3865431e-03   2.1517008e+00   1.9316307e+00  -7.5872923e+06
   8.5928643e-10  -1.3789739e-03   2.1511277e+00   1.9322540e+00  -7.5459444e+06
   8.6028676e-10  -1.3714461e-03   2.1505578e+00   1.9328739e+00  -7.5048211e+06
   8.6128710e-10  -1.3639592e-03   2.1499910e+00   1.9334907e+00  -7.4639211e+06
   8.6228743e-10  -1.3565132e-03   2.1494274e+00   1.9341041e+00  -7.4232433e+06
   8.6328776e-10  -1.3491077e-03   2.1488669e+00   1.9347143e+00  -7.3827865e+06
   8.6428810e-10  -1.3417426e-03   2.1483095e+00   1.9353213e+00  -7.3425494e+06
   8.6528843e-10  -1.3344176e-03   2.1477551e+00   1.9359251e+00  -7.3025309e+06
   8.6628876e-10  -1.3271326e-03   2.1472039e+00   1.9365257e+00  -7.2627298e+06
   8.6728910e-10  -1.3198872e-03   2.1466557e+00   1.9371231e+00  -7.2231449e+06
   8.6828943e-10  -1.3126814e-03   2.1461105e+00   1.9377174e+00  -7.1837751e+06
   8.6928976e-10  -1.3055148e-03   2.1455683e+00   1.9383085e+00  -7.1446192e+06
   8.7029010e-10  -1.2983873e-03   2.1450291e+00   1.9388964e+00  -7.1056761e+06
   8.7129043e-10  -1.2912986e-03   2.1444929e+00   1.9394813e+00  -7.0669446e+06
   8.7229076e-10  -1.2842486e-03   2.1439597e+00   1.9400631e+00  -7.0284235e+06
   8.7329110e-10  -1.2772370e-03   2.1434294e+00   1.9406418e+00  -6.9901117e+06
   8.7429143e-10  -1.2702637e-03   2.1429021e+00   1.9412174e+00  -6.9520081e+06
   8.7529176e-10  -1.2633283e-03   2.1423776e+00   1.9417900e+00  -6.9141116e+06
   8.7629210e-10  -1.2564307e-03   2.1418561e+00   1.9423595e+00  -6.8764210e+06
   8.7729243e-10  -1.2495708e-03   2.1413375e+00   1.9429260e+00  -6.8389352e+06
   8.7829276e-10  -1.2427482e-03   2.1408217e+00   1.9434896e+00  -6.8016532e+06
   8.7929310e-10  -1.2359629e-03   2.1403087e+00   1.9440501e+00  -6.7645738e+06
   8.8029343e-10  -1.2292145e-03   2.1397986e+00   1.9446077e+00  -6.7276960e+06
   8.8129376e-10  -1.2225029e-03   2.1392913e+00   1.9451623e+00  -6.6910185e+06
   8.8229410e-10  -1.2158279e-03   2.1387868e+00   1.9457139e+00  -6.6545405e+06
   8.8329443e-10  -1.2091893e-03   2.1382851e+00   1.9462627e+00  -6.6182607e+06
   8.8429476e-10  -1.2025869e-03   2.1377862e+00   1.9468085e+00  -6.5821781e+06
   8.8529510e-10  -1.1960205e-03   2.1372900e+00   1.9473514e+00  -6.5462917e+06
   8.8629543e-10  -1.1894899e-03   2.1367966e+00   1.9478915e+00  -6.5106003e+06
   8.8729577e-10  -1.1829949e-03   2.1363059e+00   1.9484287e+00  -6.4751030e+06
   8.8829610e-10  -1.1765353e-03   2.1358179e+00   1.9489630e+00  -6.4397987e+06
   8.8929643e-10  -1.1701109e-03   2.1353326e+00   1.9494945e+00  -6.4046863e+06
   8.9029677e-10  -1.1637216e-03   2.1348500e+00   1.9500232e+00  -6.3697648e+06
   8.9129710e-10  -1.1573671e-03   2.1343700e+00   1.9505490e+00  -6.3350331e+06
   8.9229743e-10  -1.1510472e-03   2.1338927e+00   1.9510721e+00  -6.3004903e+06
   8.9329777e-10  -1.1447618e-03   2.1334181e+00   1.9515924e+00  -6.2661354e+06
   8.9429810e-10  -1.1385107e-03   2.1329460e+00   1.9521099e+00  -6.2319672e+06
   8.9529843e-10  -1.1322937e-03   2.1324766e+00   1.9526247e+00  -6.1979848e+06
   8.9629877e-10  -1.1261105e-03   2.1320097e+00   1.9531367e+00  -6.1641872e+06
   8.9729910e-10  -1.1199611e-03   2.1315455e+00   1.9536460e+00  -6.1305734e+06
   8.9829943e-10  -1.1138452e-03   2.1310838e+00   1.9541526e+00  -6.0971424e+06
   8.9929977e-10  -1.1077627e-03   2.1306246e+00   1.9546565e+00  -6.0638932e+06
   9.0030010e-10  -1.1017133e-03   2.1301680e+00   1.9551577e+00  -6.0308248e+06
   9.0130043e-10  -1.0956969e-03   2.1297139e+00   1.9556563e+00  -5.9979363e+06
   9.0230077e-10  -1.0897134e-03   2.1292623e+00   1.9561522e+00  -5.9652267e+06
   9.0330110e-10  -1.0837624e-03   2.1288132e+00   1.9566455e+00  -5.9326949e+06
   9.0430143e-10  -1.0778440e-03   2.1283665e+00   1.9571361e+00  -5.9003401e+06
   9.0530177e-10  -1.0719578e-03   2.1279224e+00   1.9576241e+00  -5.8681613e+06
   9.0630210e-10  -1.0661037e-03   2.1274807e+00   1.9581096e+00  -5.8361575e+06
   9.0730243e-10  -1.0602815e-03   2.1270414e+00   1.9585924e+00  -5.8043277e+06
   9.0830277e-10  -1.0544911e-03   2.1266046e+00   1.9590727e+00  -5.7726712e+06
   9.0930310e-10  -1.0487322e-03   2.1261701e+00   1.9595504e+00  -5.7411868e+06
   9.1030343e-10  -1.0430048e-03   2.1257381e+00   1.9600256e+00  -5.7098737e+06
   9.1130377e-10  -1.0373086e-03   2.1253084e+00   1.9604982e+00  -5.6787310e+06
   9.1230410e-10  -1.0316435e-03   2.1248811e+00   1.9609683e+00  -5.6477577e+06
   9.1330443e-10  -1.0260093e-03   2.1244562e+00   1.9614359e+00  -5.6169528e+06
   9.1430477e-10  -1.0204058e-03   2.1240336e+00   1.9619011e+00  -5.5863156e+06
   9.1530510e-10  -1.0148329e-03   2.1236134e+00   1.9623637e+00  -5.5558451e+06
   9.1630544e-10  -1.0092903e-03   2.1231954e+00   1.9628239e+00  -5.5255403e+06
   9.1730577e-10  -1.0037780e-03   2.1227798e+00   1.9632816e+00  -5.4954005e+06
   9.1830610e-10  -9.9829579e-04   2.1223665e+00   1.9637369e+00  -5.4654246e+06
   9.1930644e-10  -9.9284347e-04   2.1219554e+00   1.9641897e+00  -5.4356119e+06
   9.2030677e-10  -9.8742088e-04   2.1215466e+00   1.9646401e+00  -5.4059613e+06
   9.2130710e-10  -9.8202788e-04   2.1211401e+00   1.9650882e+00  -5.3764721e+06
   9.2230744e-10  -9.7666429e-04   2.1207358e+00   1.9655338e+00  -5.3471434e+06
   9.2330777e-10  -9.7132996e-04   2.1203337e+00   1.9659770e+00  -5.3179743e+06
   9.2430810e-10  -9.6602474e-04   2.1199339e+00   1.9664179e+00  -5.2889639e+06
   9.2530844e-10  -9.6074845e-04   2.1195363e+00   1.9668565e+00  -5.2601114e+06
   9.2630877e-10  -9.5550094e-04   2.1191408e+00   1.9672926e+00  -5.2314160e+06
   9.2730910e-10  -9.5028207e-04   2.1187475e+00   1.9677265e+00  -5.2028767e+06
   9.2830944e-10  -9.4509166e-04   2.1183565e+00   1.9681580e+00  -5.1744927e+06
   9.2930977e-10  -9.3992957e-04   2.1179675e+00   1.9685873e+00  -5.1462632e+06
   9.3031010e-10  -9.3479565e-04   2.1175807e+00   1.9690142e+00  -5.1181874e+06
   9.3131044e-10  -9.2968973e-04   2.1171960e+00   1.9694389e+00  -5.0902643e+06
   9.3231077e-10  -9.2461166e-04   2.1168135e+00   1.9698613e+00  -5.0624933e+06
   9.3331110e-10  -9.1956131e-04   2.1164331e+00   1.9702814e+00  -5.0348734e+06
   9.3431144e-10  -9.1453850e-04   2.1160547e+00   1.9706993e+00  -5.0074039e+06
   9.3531177e-10  -9.0954310e-04   2.1156785e+00   1.9711150e+00  -4.9800839e+06
   9.3631210e-10  -9.0457496e-04   2.1153043e+00   1.9715284e+00  -4.9529126e+06
   9.3731244e-10  -8.9963392e-04   2.1149322e+00   1.9719396e+00  -4.9258892e+06
   9.3831277e-10  -8.9471984e-04   2.1145621e+00   1.9723486e+00  -4.8990130e+06
   9.3931310e-10  -8.8983257e-04   2.1141941e+00   1.9727554e+00  -4.8722830e+06
   9.4031344e-10  -8.8497197e-04   2.1138281e+00   1.9731601e+00  -4.8456986e+06
   9.4131377e-10  -8.8013788e-04   2.1134641e+00   1.9735626e+00  -4.8192589e+06
   9.4231410e-10  -8.7533018e-04   2.1131022e+00   1.9739629e+00  -4.7929632e+06
   9.4331444e-10  -8.7054871e-04   2.1127422e+00   1.9743611e+00  -4.7668106e+06
   9.4431477e-10  -8.6579332e-04   2.1123842e+00   1.9747572e+00  -4.7408004e+06
   9.4531511e-10  -8.6106389e-04   2.1120282e+00   1.9751511e+00  -4.7149318e+06
   9.4631544e-10  -8.5636026e-04   2.1116741e+00   1.9755429e+00  -4.6892041e+06
   9.4731577e-10  -8.5168230e-04   2.1113220e+00   1.9759327e+00  -4.6636165e+06
   9.4831611e-10  -8.4702987e-04   2.1109718e+00   1.9763203e+00  -4.6381682e+06
   9.4931644e-10  -8.4240282e-04   2.1106236e+00   1.9767059e+00  -4.6128585e+06
   9.5031677e-10  -8.3780102e-04   2.1102773e+00   1.9770894e+00  -4.5876866e+06
   9.5131711e-10  -8.3322433e-04   2.1099329e+00   1.9774708e+00  -4.5626517e+06
   9.5231744e-10  -8.2867262e-04   2.1095903e+00   1.9778502e+00  -4.5377532e+06
   9.5331777e-10  -8.2414575e-04   2.1092497e+00   1.9782276e+00  -4.5129903e+06
   9.5431811e-10  -8.1964358e-04   2.1089110e+00   1.9786029e+00  -4.4883623e+06
   9.5531844e-10  -8.1516598e-04   2.1085741e+00   1.9789763e+00  -4.4638684e+06
   9.5631877e-10  -8.1071282e-04   2.1082390e+00   1.9793476e+00  -4.4395078e+06
   9.5731911e-10  -8.0628395e-04   2.1079059e+00   1.9797170e+00  -4.4152800e+06
   9.5831944e-10  -8.0187926e-04   2.1075745e+00   1.9800843e+00  -4.3911841e+06
   9.5931977e-10  -7.9749861e-04   2.1072450e+00   1.9804497e+00  -4.3672194e+06
   9.6032011e-10  -7.9314186e-04   2.1069173e+00   1.9808131e+00  -4.3433853e+06
   9.6132044e-10  -7.8880889e-04   2.1065914e+00   1.9811746e+00  -4.3196810e+06
   9.6232077e-10  -7.8449957e-04   2.1062673e+00   1.9815342e+00  -4.2961057e+06
   9.6332111e-10  -7.8021376e-04   2.1059449e+00   1.9818918e+00  -4.2726589e+06
   9.6432144e-10  -7.7595135e-04   2.1056244e+00   1.9822475e+00  -4.2493399e+06
   9.6532177e-10  -7.7171220e-04   2.1053056e+00   1.9826013e+00  -4.2261478e+06
   9.6632211e-10  -7.6749619e-04   2.1049886e+00   1.9829531e+00  -4.2030821e+06
   9.6732244e-10  -7.6330319e-04   2.1046733e+00   1.9833031e+00  -4.1801420e+06
   9.6832277e-10  -7.5913307e-04   2.1043597e+00   1.9836513e+00  -4.1573269e+06
   9.6932311e-10  -7.5498571e-04   2.1040479e+00   1.9839975e+00  -4.1346361e+06
   9.7032344e-10  -7.5086099e-04   2.1037378e+00   1.9843419e+00  -4.1120689e+06
   9.7132377e-10  -7.4675878e-04   2.1034294e+00   1.9846845e+00  -4.0896246e+06
   9.7232411e-10  -7.4267897e-04   2.1031227e+00   1.9850252e+00  -4.0673026e+06
   9.7332444e-10  -7.3862142e-04   2.1028177e+00   1.9853640e+00  -4.0451022e+06
   9.7432477e-10  -7.3458602e-04   2.1025144e+00   1.9857011e+00  -4.0230228e+06
   9.7532511e-10  -7.3057265e-04   2.1022127e+00   1.9860363e+00  -4.0010637e+06
   9.7632544e-10  -7.2658118e-04   2.1019127e+00   1.9863698e+00  -3.9792242e+06
   9.7732578e-10  -7.2261150e-04   2.1016143e+00   1.9867014e+00  -3.9575037e+06
   9.7832611e-10  -7.1866349e-04   2.1013176e+00   1.9870313e+00  -3.9359015e+06
   9.7932644e-10  -7.1473703e-04   2.1010226e+00   1.9873594e+00  -3.9144171e+06
   9.8032678e-10  -7.1083200e-04   2.1007291e+00   1.9876857e+00  -3.8930497e+06
   9.8132711e-10  -7.0694828e-04   2.1004373e+00   1.9880103e+00  -3.8717987e+06
   9.8232744e-10  -7.0308577e-04   2.1001470e+00   1.9883331e+00  -3.8506636e+06
   9.8332778e-10  -6.9924435e-04   2.0998584e+00   1.9886542e+00  -3.8296436e+06
   9.8432811e-10  -6.9542389e-04   2.0995714e+00   1.9889736e+00  -3.8087381e+06
   9.8532844e-10  -6.9162429e-04   2.0992859e+00   1.9892912e+00  -3.7879466e+06
   9.8632878e-10  -6.8784543e-04   2.0990020e+00   1.9896072e+00  -3.7672684e+06
   9.8732911e-10  -6.8408719e-04   2.0987197e+00   1.9899214e+00  -3.7467028e+06
   9.8832944e-10  -6.8034948e-04   2.0984389e+00   1.9902340e+00  -3.7262494e+06
   9.8932978e-10  -6.7663217e-04   2.0981597e+00   1.9905449e+00  -3.7059074e+06
   9.9033011e-10  -6.7293515e-04   2.0978820e+00   1.9908541e+00  -3.6856762e+06
   9.9133044e-10  -6.6925831e-04   2.0976058e+00   1.9911616e+00  -3.6655554e+06
   9.9233078e-10  -6.6560155e-04   2.0973312e+00   1.9914675e+00  -3.6455441e+06
   9.9333111e-10  -6.6196475e-04   2.0970580e+00   1.9917717e+00  -3.6256420e+06
   9.9433144e-10  -6.5834781e-04   2.0967864e+00   1.9920743e+00  -3.6058483e+06
   9.9533178e-10  -6.5475061e-04   2.0965162e+00   1.9923753e+00  -3.5861625e+06
   9.9633211e-10  -6.5117305e-04   2.0962476e+00   1.9926746e+00  -3.5665840e+06
   9.9733244e-10  -6.4761502e-04   2.0959804e+00   1.9929724e+00  -3.5471122e+06
   9.9833278e-10  -6.4407642e-04   2.0957147e+00   1.9932685e+00  -3.5277465e+06
   9.9933311e-10  -6.4055714e-04   2.0954505e+00   1.9935630e+00  -3.5084864e+06
   1.0003334e-09  -6.3705707e-04   2.0951877e+00   1.9938560e+00  -3.4893313e+06
   1.0013338e-09  -6.3357611e-04   2.0949263e+00   1.9941474e+00  -3.4702806e+06
   1.0023341e-09  -6.3011415e-04   2.0946664e+00   1.9944372e+00  -3.4513337e+06
   1.0033344e-09  -6.2667110e-04   2.0944079e+00   1.9947254e+00  -3.4324901e+06
   1.0043348e-09  -6.2324684e-04   2.0941509e+00   1.9950121e+00  -3.4137493e+06
   1.0053351e-09  -6.1984128e-04   2.0938952e+00   1.9952973e+00  -3.3951106e+06
   1.0063354e-09  -6.1645432e-04   2.0936410e+00   1.9955809e+00  -3.3765735e+06
   1.0073358e-09  -6.1308585e-04   2.0933881e+00   1.9958630e+00  -3.3581374e+06
   1.0083361e-09  -6.0973577e-04   2.0931367e+00   1.9961435e+00  -3.3398019e+06
   1.0093364e-09  -6.0640398e-04   2.0928866e+00   1.9964226e+00  -3.3215663e+06
   1.0103368e-09  -6.0309038e-04   2.0926379e+00   1.9967001e+00  -3.3034302e+06
   1.0113371e-09  -5.9979488e-04   2.0923906e+00   1.9969762e+00  -3.2853929e+06
   1.0123374e-09  -5.9651737e-04   2.0921446e+00   1.9972508e+00  -3.2674539e+06
   1.0133378e-09  -5.9325775e-04   2.0919000e+00   1.9975238e+00  -3.2496128e+06
   1.0143381e-09  -5.9001594e-04   2.0916568e+00   1.9977955e+00  -3.2318689e+06
   1.0153384e-09  -5.8679182e-04   2.0914148e+00   1.9980656e+00  -3.2142218e+06
   1.0163388e-09  -5.8358531e-04   2.0911742e+00   1.9983343e+00  -3.1966709e+06
   1.0173391e-09  -5.8039631e-04   2.0909350e+00   1.9986015e+00  -3.1792157e+06
   1.0183394e-09  -5.7722472e-04   2.0906970e+00   1.9988673e+00  -3.1618556e+06
   1.0193398e-09  -5.7407046e-04   2.0904603e+00   1.9991317e+00  -3.1445902e+06
   1.0203401e-09  -5.7093341e-04   2.0902250e+00   1.9993947e+00  -3.1274190e+06
   1.0213404e-09  -5.6781350e-04   2.0899909e+00   1.9996562e+00  -3.1103413e+06
   1.0223408e-09  -5.6471062e-04   2.0897582e+00   1.9999163e+00  -3.0933568e+06
   1.0233411e-09  -5.6162468e-04   2.0895267e+00   2.0001750e+00  -3.0764650e+06
   1.0243414e-09  -5.5855560e-04   2.0892965e+00   2.0004323e+00  -3.0596652e+06
   1.0253418e-09  -5.5550328e-04   2.0890675e+00   2.0006882e+00  -3.0429570e+06
   1.0263421e-09  -5.5246762e-04   2.0888398e+00   2.0009428e+00  -3.0263400e+06
   1.0273424e-09  -5.4944854e-04   2.0886134e+00   2.0011960e+00  -3.0098135e+06
   1.0283428e-09  -5.4644595e-04   2.0883882e+00   2.0014478e+00  -2.9933772e+06
   1.0293431e-09  -5.4345976e-04   2.0881642e+00   2.0016982e+00  -2.9770305e+06
   1.0303434e-09  -5.4048987e-04   2.0879415e+00   2.0019473e+00  -2.9607730e+06
   1.0313438e-09  -5.3753621e-04   2.0877200e+00   2.0021950e+00  -2.9446041e+06
   1.0323441e-09  -5.3459867e-04   2.0874997e+00   2.0024415e+00  -2.9285234e+06
   1.0333444e-09  -5.3167717e-04   2.0872806e+00   2.0026865e+00  -2.9125304e+06
   1.0343448e-09  -5.2877163e-04   2.0870627e+00   2.0029303e+00  -2.8966247e+06
   1.0353451e-09  -5.2588196e-04   2.0868461e+00   2.0031727e+00  -2.8808056e+06
   1.0363454e-09  -5.2300807e-04   2.0866306e+00   2.0034139e+00  -2.8650729e+06
   1.0373458e-09  -5.2014987e-04   2.0864163e+00   2.0036537e+00  -2.8494259e+06
   1.0383461e-09  -5.1730728e-04   2.0862031e+00   2.0038922e+00  -2.8338643e+06
   1.0393464e-09  -5.1448022e-04   2.0859912e+00   2.0041295e+00  -2.8183876e+06
   1.0403468e-09  -5.1166859e-04   2.0857804e+00   2.0043654e+00  -2.8029953e+06
   1.0413471e-09  -5.0887233e-04   2.0855708e+00   2.0046001e+00  -2.7876869e+06
   1.0423474e-09  -5.0609133e-04   2.0853623e+00   2.0048336e+00  -2.7724621e+06
   1.0433478e-09  -5.0332552e-04   2.0851550e+00   2.0050657e+00  -2.7573203e+06
   1.0443481e-09  -5.0057482e-04   2.0849488e+00   2.0052966e+00  -2.7422610e+06
   1.0453484e-09  -4.9783914e-04   2.0847437e+00   2.0055263e+00  -2.7272839e+06
   1.0463488e-09  -4.9511840e-04   2.0845398e+00   2.0057547e+00  -2.7123886e+06
   1.0473491e-09  -4.9241252e-04   2.0843370e+00   2.0059819e+00  -2.6975744e+06
   1.0483494e-09  -4.8972142e-04   2.0841353e+00   2.0062078e+00  -2.6828411e+06
   1.0493498e-09  -4.8704502e-04   2.0839347e+00   2.0064326e+00  -2.6681881e+06
   1.0503501e-09  -4.8438324e-04   2.0837352e+00   2.0066561e+00  -2.6536151e+06
   1.0513505e-09  -4.8173599e-04   2.0835368e+00   2.0068784e+00  -2.6391216e+06
   1.0523508e-09  -4.7910320e-04   2.0833395e+00   2.0070995e+00  -2.6247071e+06
   1.0533511e-09  -4.7648480e-04   2.0831433e+00   2.0073194e+00  -2.6103713e+06
   1.0543515e-09  -4.7388069e-04   2.0829481e+00   2.0075381e+00  -2.5961136e+06
   1.0553518e-09  -4.7129081e-04   2.0827540e+00   2.0077557e+00  -2.5819338e+06
   1.0563521e-09  -4.6871507e-04   2.0825610e+00   2.0079720e+00  -2.5678313e+06
   1.0573525e-09  -4.6615340e-04   2.0823691e+00   2.0081872e+00  -2.5538057e+06
   1.0583528e-09  -4.6360573e-04   2.0821782e+00   2.0084013e+00  -2.5398567e+06
   1.0593531e-09  -4.6107197e-04   2.0819884e+00   2.0086141e+00  -2.5259838e+06
   1.0603535e-09  -4.5855205e-04   2.0817996e+00   2.0088259e+00  -2.5121865e+06
   1.0613538e-09  -4.5604589e-04   2.0816118e+00   2.0090364e+00  -2.4984645e+06
   1.0623541e-09  -4.5355342e-04   2.0814251e+00   2.0092459e+00  -2.4848174e+06
   1.0633545e-09  -4.5107457e-04   2.0812394e+00   2.0094542e+00  -2.4712448e+06
   1.0643548e-09  -4.4860926e-04   2.0810547e+00   2.0096614e+00  -2.4577462e+06
   1.0653551e-09  -4.4615741e-04   2.0808710e+00   2.0098674e+00  -2.4443212e+06
   1.0663555e-09  -4.4371896e-04   2.0806883e+00   2.0100724e+00  -2.4309695e+06
   1.0673558e-09  -4.4129382e-04   2.0805067e+00   2.0102762e+00  -2.4176907e+06
   1.0683561e-09  -4.3888194e-04   2.0803260e+00   2.0104789e+00  -2.4044843e+06
   1.0693565e-09  -4.3648322e-04   2.0801463e+00   2.0106806e+00  -2.3913499e+06
   1.0703568e-09  -4.3409761e-04   2.0799677e+00   2.0108811e+00  -2.3782872e+06
   1.0713571e-09  -4.3172504e-04   2.0797900e+00   2.0110806e+00  -2.3652958e+06
   1.0723575e-09  -4.2936542e-04   2.0796132e+00   2.0112789e+00  -2.3523753e+06
   1.0733578e-09  -4.2701869e-04   2.0794375e+00   2.0114762e+00  -2.3395253e+06
   1.0743581e-09  -4.2468478e-04   2.0792627e+00   2.0116725e+00  -2.3267454e+06
   1.0753585e-09  -4.2236362e-04   2.0790889e+00   2.0118676e+00  -2.3140352e+06
   1.0763588e-09  -4.2005514e-04   2.0789160e+00   2.0120618e+00  -2.3013944e+06
   1.0773591e-09  -4.1775927e-04   2.0787440e+00   2.0122548e+00  -2.2888226e+06
   1.0783595e-09  -4.1547594e-04   2.0785731e+00   2.0124468e+00  -2.2763194e+06
   1.0793598e-09  -4.1320509e-04   2.0784030e+00   2.0126378e+00  -2.2638844e+06
   1.0803601e-09  -4.1094664e-04   2.0782339e+00   2.0128278e+00  -2.2515173e+06
   1.0813605e-09  -4.0870053e-04   2.0780657e+00   2.0130167e+00  -2.2392176e+06
   1.0823608e-09  -4.0646669e-04   2.0778985e+00   2.0132046e+00  -2.2269851e+06
   1.0833611e-09  -4.0424505e-04   2.0777321e+00   2.0133915e+00  -2.2148193e+06
   1.0843615e-09  -4.0203554e-04   2.0775667e+00   2.0135773e+00  -2.2027200e+06
   1.0853618e-09  -3.9983811e-04   2.0774022e+00   2.0137622e+00  -2.1906866e+06
   1.0863621e-09  -3.9765269e-04   2.0772385e+00   2.0139460e+00  -2.1787189e+06
   1.0873625e-09  -3.9547920e-04   2.0770758e+00   2.0141289e+00  -2.1668166e+06
   1.0883628e-09  -3.9331758e-04   2.0769140e+00   2.0143108e+00  -2.1549792e+06
   1.0893631e-09  -3.9116778e-04   2.0767531e+00   2.0144916e+00  -2.1432064e+06
   1.0903635e-09  -3.8902972e-04   2.0765930e+00   2.0146715e+00  -2.1314978e+06
   1.0913638e-09  -3.8690334e-04   2.0764338e+00   2.0148505e+00  -2.1198532e+06
   1.0923641e-09  -3.8478857e-04   2.0762755e+00   2.0150284e+00  -2.1082721e+06
   1.0933645e-09  -3.8268536e-04   2.0761181e+00   2.0152054e+00  -2.0967542e+06
   1.0943648e-09  -3.8059364e-04   2.0759615e+00   2.0153815e+00  -2.0852991e+06
   1.0953651e-09  -3.7851335e-04   2.0758058e+00   2.0155565e+00  -2.0739066e+06
   1.0963655e-09  -3.7644442e-04   2.0756510e+00   2.0157307e+00  -2.0625763e+06
   1.0973658e-09  -3.7438680e-04   2.0754970e+00   2.0159039e+00  -2.0513078e+06
   1.0983661e-09  -3.7234042e-04   2.0753438e+00   2.0160761e+00  -2.0401009e+06
   1.0993665e-09  -3.7030521e-04   2.0751915e+00   2.0162474e+00  -2.0289550e+06
   1.1003668e-09  -3.6828113e-04   2.0750400e+00   2.0164178e+00  -2.0178701e+06
   1.1013671e-09  -3.6626811e-04   2.0748893e+00   2.0165873e+00  -2.0068456e+06
   1.1023675e-09  -3.6426608e-04   2.0747395e+00   2.0167558e+00  -1.9958813e+06
   1.1033678e-09  -3.6227499e-04   2.0745905e+00   2.0169235e+00  -1.9849769e+06
   1.1043681e-09  -3.6029478e-04   2.0744423e+00   2.0170902e+00  -1.9741319e+06
   1.1053685e-09  -3.5832539e-04   2.0742949e+00   2.0172560e+00  -1.9633462e+06
   1.1063688e-09  -3.5636675e-04   2.0741484e+00   2.0174209e+00  -1.9526194e+06
   1.1073691e-09  -3.5441882e-04   2.0740026e+00   2.0175850e+00  -1.9419511e+06
   1.1083695e-09  -3.5248154e-04   2.0738577e+00   2.0177481e+00  -1.9313410e+06
   1.1093698e-09  -3.5055483e-04   2.0737135e+00   2.0179103e+00  -1.9207888e+06
   1.1103701e-09  -3.4863866e-04   2.0735701e+00   2.0180717e+00  -1.9102943e+06
   1.1113705e-09  -3.4673295e-04   2.0734275e+00   2.0182322e+00  -1.8998570e+06
   1.1123708e-09  -3.4483765e-04   2.0732857e+00   2.0183918e+00  -1.8894767e+06
   1.1133711e-09  -3.4295271e-04   2.0731447e+00   2.0185506e+00  -1.8791531e+06
   1.1143715e-09  -3.4107807e-04   2.0730044e+00   2.0187085e+00  -1.8688859e+06
   1.1153718e-09  -3.3921367e-04   2.0728650e+00   2.0188655e+00  -1.8586746e+06
   1.1163721e-09  -3.3735946e-04   2.0727262e+00   2.0190217e+00  -1.8485192e+06
   1.1173725e-09  -3.3551538e-04   2.0725883e+00   2.0191771e+00  -1.8384191e+06
   1.1183728e-09  -3.3368138e-04   2.0724511e+00   2.0193316e+00  -1.8283742e+06
   1.1193731e-09  -3.3185739e-04   2.0723146e+00   2.0194852e+00  -1.8183842e+06
   1.1203735e-09  -3.3004338e-04   2.0721789e+00   2.0196380e+00  -1.8084487e+06
   1.1213738e-09  -3.2823927e-04   2.0720440e+00   2.0197900e+00  -1.7985674e+06
   1.1223741e-09  -3.2644502e-04   2.0719098e+00   2.0199412e+00  -1.7887401e+06
   1.1233745e-09  -3.2466058e-04   2.0717763e+00   2.0200916e+00  -1.7789664e+06
   1.1243748e-09  -3.2288588e-04   2.0716435e+00   2.0202411e+00  -1.7692461e+06
   1.1253751e-09  -3.2112089e-04   2.0715115e+00   2.0203898e+00  -1.7595788e+06
   1.1263755e-09  -3.1936553e-04   2.0713802e+00   2.0205378e+00  -1.7499643e+06
   1.1273758e-09  -3.1761977e-04   2.0712497e+00   2.0206849e+00  -1.7404024e+06
   1.1283761e-09  -3.1588355e-04   2.0711198e+00   2.0208312e+00  -1.7308926e+06
   1.1293765e-09  -3.1415681e-04   2.0709906e+00   2.0209767e+00  -1.7214347e+06
   1.1303768e-09  -3.1243951e-04   2.0708622e+00   2.0211214e+00  -1.7120285e+06
   1.1313771e-09  -3.1073159e-04   2.0707345e+00   2.0212654e+00  -1.7026736e+06
   1.1323775e-09  -3.0903301e-04   2.0706074e+00   2.0214086e+00  -1.6933699e+06
   1.1333778e-09  -3.0734371e-04   2.0704811e+00   2.0215509e+00  -1.6841169e+06
   1.1343781e-09  -3.0566363e-04   2.0703555e+00   2.0216926e+00  -1.6749144e+06
   1.1353785e-09  -3.0399274e-04   2.0702305e+00   2.0218334e+00  -1.6657622e+06
   1.1363788e-09  -3.0233098e-04   2.0701062e+00   2.0219735e+00  -1.6566599e+06
   1.1373791e-09  -3.0067830e-04   2.0699827e+00   2.0221128e+00  -1.6476074e+06
   1.1383795e-09  -2.9903465e-04   2.0698598e+00   2.0222514e+00  -1.6386043e+06
   1.1393798e-09  -2.9739998e-04   2.0697375e+00   2.0223892e+00  -1.6296503e+06
   1.1403801e-09  -2.9577424e-04   2.0696160e+00   2.0225263e+00  -1.6207452e+06
   1.1413805e-09  -2.9415739e-04   2.0694951e+00   2.0226626e+00  -1.6118888e+06
   1.1423808e-09  -2.9254937e-04   2.0693748e+00   2.0227982e+00  -1.6030807e+06
   1.1433811e-09  -2.9095014e-04   2.0692552e+00   2.0229330e+00  -1.5943207e+06
   1.1443815e-09  -2.8935965e-04   2.0691363e+00   2.0230671e+00  -1.5856085e+06
   1.1453818e-09  -2.8777785e-04   2.0690181e+00   2.0232005e+00  -1.5769439e+06
   1.1463821e-09  -2.8620469e-04   2.0689004e+00   2.0233331e+00  -1.5683267e+06
   1.1473825e-09  -2.8464013e-04   2.0687835e+00   2.0234651e+00  -1.5597564e+06
   1.1483828e-09  -2.8308412e-04   2.0686671e+00   2.0235963e+00  -1.5512330e+06
   1.1493831e-09  -2.8153661e-04   2.0685514e+00   2.0237268e+00  -1.5427561e+06
   1.1503835e-09  -2.7999756e-04   2.0684364e+00   2.0238566e+00  -1.5343255e+06
   1.1513838e-09  -2.7846692e-04   2.0683219e+00   2.0239857e+00  -1.5259410e+06
   1.1523841e-09  -2.7694465e-04   2.0682081e+00   2.0241141e+00  -1.5176022e+06
   1.1533845e-09  -2.7543069e-04   2.0680950e+00   2.0242418e+00  -1.5093090e+06
   1.1543848e-09  -2.7392501e-04   2.0679824e+00   2.0243688e+00  -1.5010611e+06
   1.1553851e-09  -2.7242755e-04   2.0678705e+00   2.0244951e+00  -1.4928581e+06
   1.1563855e-09  -2.7093828e-04   2.0677591e+00   2.0246207e+00  -1.4847000e+06
   1.1573858e-09  -2.6945714e-04   2.0676484e+00   2.0247457e+00  -1.4765865e+06
   1.1583861e-09  -2.6798410e-04   2.0675383e+00   2.0248699e+00  -1.4685172e+06
   1.1593865e-09  -2.6651911e-04   2.0674288e+00   2.0249935e+00  -1.4604921e+06
   1.1603868e-09  -2.6506213e-04   2.0673199e+00   2.0251164e+00  -1.4525107e+06
   1.1613871e-09  -2.6361311e-04   2.0672116e+00   2.0252387e+00  -1.4445729e+06
   1.1623875e-09  -2.6217200e-04   2.0671039e+00   2.0253603e+00  -1.4366785e+06
   1.1633878e-09  -2.6073878e-04   2.0669968e+00   2.0254812e+00  -1.4288272e+06
   1.1643881e-09  -2.5931338e-04   2.0668902e+00   2.0256015e+00  -1.4210188e+06
   1.1653885e-09  -2.5789578e-04   2.0667843e+00   2.0257211e+00  -1.4132530e+06
   1.1663888e-09  -2.5648592e-04   2.0666789e+00   2.0258400e+00  -1.4055296e+06
   1.1673891e-09  -2.5508376e-04   2.0665741e+00   2.0259583e+00  -1.3978484e+06
   1.1683895e-09  -2.5368927e-04   2.0664699e+00   2.0260760e+00  -1.3902092e+06
   1.1693898e-09  -2.5230240e-04   2.0663662e+00   2.0261930e+00  -1.3826117e+06
   1.1703901e-09  -2.5092311e-04   2.0662632e+00   2.0263094e+00  -1.3750557e+06
   1.1713905e-09  -2.4955136e-04   2.0661607e+00   2.0264252e+00  -1.3675409e+06
   1.1723908e-09  -2.4818710e-04   2.0660587e+00   2.0265403e+00  -1.3600672e+06
   1.1733911e-09  -2.4683030e-04   2.0659573e+00   2.0266548e+00  -1.3526343e+06
   1.1743915e-09  -2.4548092e-04   2.0658565e+00   2.0267687e+00  -1.3452420e+06
   1.1753918e-09  -2.4413891e-04   2.0657562e+00   2.0268820e+00  -1.3378900e+06
   1.1763921e-09  -2.4280423e-04   2.0656564e+00   2.0269946e+00  -1.3305783e+06
   1.1773925e-09  -2.4147685e-04   2.0655573e+00   2.0271067e+00  -1.3233064e+06
   1.1783928e-09  -2.4015672e-04   2.0654586e+00   2.0272181e+00  -1.3160743e+06
   1.1793931e-09  -2.3884381e-04   2.0653605e+00   2.0273289e+00  -1.3088817e+06
   1.1803935e-09  -2.3753807e-04   2.0652629e+00   2.0274392e+00  -1.3017284e+06
   1.1813938e-09  -2.3623947e-04   2.0651659e+00   2.0275488e+00  -1.2946141e+06
   1.1823941e-09  -2.3494797e-04   2.0650694e+00   2.0276578e+00  -1.2875387e+06
   1.1833945e-09  -2.3366352e-04   2.0649734e+00   2.0277662e+00  -1.2805019e+06
   1.1843948e-09  -2.3238609e-04   2.0648780e+00   2.0278741e+00  -1.2735036e+06
   1.1853951e-09  -2.3111565e-04   2.0647831e+00   2.0279813e+00  -1.2665435e+06
   1.1863955e-09  -2.2985215e-04   2.0646887e+00   2.0280880e+00  -1.2596214e+06
   1.1873958e-09  -2.2859555e-04   2.0645948e+00   2.0281941e+00  -1.2527371e+06
   1.1883961e-09  -2.2734582e-04   2.0645014e+00   2.0282996e+00  -1.2458905e+06
   1.1893965e-09  -2.2610293e-04   2.0644086e+00   2.0284045e+00  -1.2390812e+06
   1.1903968e-09  -2.2486682e-04   2.0643162e+00   2.0285089e+00  -1.2323091e+06
   1.1913971e-09  -2.2363747e-04   2.0642244e+00   2.0286127e+00  -1.2255740e+06
   1.1923975e-09  -2.2241484e-04   2.0641330e+00   2.0287160e+00  -1.2188757e+06
   1.1933978e-09  -2.2119890e-04   2.0640422e+00   2.0288186e+00  -1.2122140e+06
   1.1943981e-09  -2.1998959e-04   2.0639518e+00   2.0289207e+00  -1.2055887e+06
   1.1953985e-09  -2.1878690e-04   2.0638620e+00   2.0290223e+00  -1.1989995e+06
   1.1963988e-09  -2.1759078e-04   2.0637726e+00   2.0291233e+00  -1.1924464e+06
   1.1973991e-09  -2.1640120e-04   2.0636838e+00   2.0292238e+00  -1.1859290e+06
   1.1983995e-09  -2.1521812e-04   2.0635954e+00   2.0293237e+00  -1.1794473e+06
   1.1993998e-09  -2.1404151e-04   2.0635075e+00   2.0294231e+00  -1.1730010e+06
   1.2004001e-09  -2.1287132e-04   2.0634201e+00   2.0295219e+00  -1.1665898e+06
   1.2014005e-09  -2.1170754e-04   2.0633332e+00   2.0296202e+00  -1.1602137e+06
   1.2024008e-09  -2.1055011e-04   2.0632467e+00   2.0297179e+00  -1.1538725e+06
   1.2034011e-09  -2.0939901e-04   2.0631607e+00   2.0298152e+00  -1.1475658e+06
   1.2044015e-09  -2.0825420e-04   2.0630752e+00   2.0299118e+00  -1.1412936e+06
   1.2054018e-09  -2.0711565e-04   2.0629902e+00   2.0300080e+00  -1.1350557e+06
   1.2064021e-09  -2.0598332e-04   2.0629056e+00   2.0301037e+00  -1.1288519e+06
   1.2074025e-09  -2.0485718e-04   2.0628215e+00   2.0301988e+00  -1.1226819e+06
   1.2084028e-09  -2.0373719e-04   2.0627378e+00   2.0302934e+00  -1.1165457e+06
   1.2094031e-09  -2.0262333e-04   2.0626546e+00   2.0303875e+00  -1.1104430e+06
   1.2104035e-09  -2.0151556e-04   2.0625719e+00   2.0304811e+00  -1.1043736e+06
   1.2114038e-09  -2.0041384e-04   2.0624896e+00   2.0305741e+00  -1.0983373e+06
   1.2124041e-09  -1.9931814e-04   2.0624078e+00   2.0306667e+00  -1.0923341e+06
   1.2134045e-09  -1.9822843e-04   2.0623264e+00   2.0307588e+00  -1.0863636e+06
   1.2144048e-09  -1.9714467e-04   2.0622455e+00   2.0308503e+00  -1.0804258e+06
   1.2154051e-09  -1.9606684e-04   2.0621650e+00   2.0309414e+00  -1.0745204e+06
   1.2164055e-09  -1.9499491e-04   2.0620849e+00   2.0310319e+00  -1.0686472e+06
   1.2174058e-09  -1.9392883e-04   2.0620053e+00   2.0311220e+00  -1.0628062e+06
   1.2184061e-09  -1.9286857e-04   2.0619261e+00   2.0312116e+00  -1.0569970e+06
   1.2194065e-09  -1.9181411e-04   2.0618474e+00   2.0313007e+00  -1.0512196e+06
   1.2204068e-09  -1.9076542e-04   2.0617691e+00   2.0313893e+00  -1.0454738e+06
   1.2214071e-09  -1.8972246e-04   2.0616912e+00   2.0314774e+00  -1.0397593e+06
   1.2224075e-09  -1.8868520e-04   2.0616137e+00   2.0315651e+00  -1.0340761e+06
   1.2234078e-09  -1.8765361e-04   2.0615367e+00   2.0316522e+00  -1.0284239e+06
   1.2244081e-09  -1.8662765e-04   2.0614601e+00   2.0317389e+00  -1.0228026e+06
   1.2254085e-09  -1.8560731e-04   2.0613839e+00   2.0318252e+00  -1.0172120e+06
   1.2264088e-09  -1.8459254e-04   2.0613081e+00   2.0319109e+00  -1.0116519e+06
   1.2274091e-09  -1.8358332e-04   2.0612327e+00   2.0319962e+00  -1.0061222e+06
   1.2284095e-09  -1.8257961e-04   2.0611578e+00   2.0320810e+00  -1.0006228e+06
   1.2294098e-09  -1.8158139e-04   2.0610833e+00   2.0321654e+00  -9.9515336e+05
   1.2304101e-09  -1.8058863e-04   2.0610091e+00   2.0322493e+00  -9.8971382e+05
   1.2314105e-09  -1.7960130e-04   2.0609354e+00   2.0323327e+00  -9.8430400e+05
   1.2324108e-09  -1.7861936e-04   2.0608621e+00   2.0324157e+00  -9.7892373e+05
   1.2334111e-09  -1.7764279e-04   2.0607892e+00   2.0324983e+00  -9.7357287e+05
   1.2344115e-09  -1.7667155e-04   2.0607166e+00   2.0325803e+00  -9.6825123e+05
   1.2354118e-09  -1.7570563e-04   2.0606445e+00   2.0326620e+00  -9.6295868e+05
   1.2364121e-09  -1.7474498e-04   2.0605728e+00   2.0327432e+00  -9.5769503e+05
   1.2374125e-09  -1.7378959e-04   2.0605015e+00   2.0328239e+00  -9.5246015e+05
   1.2384128e-09  -1.7283942e-04   2.0604305e+00   2.0329042e+00  -9.4725387e+05
   1.2394131e-09  -1.7189444e-04   2.0603600e+00   2.0329841e+00  -9.4207603e+05
   1.2404135e-09  -1.7095463e-04   2.0602898e+00   2.0330636e+00  -9.3692649e+05
   1.2414138e-09  -1.7001995e-04   2.0602200e+00   2.0331426e+00  -9.3180508e+05
   1.2424141e-09  -1.6909038e-04   2.0601506e+00   2.0332212e+00  -9.2671165e+05
   1.2434145e-09  -1.6816590e-04   2.0600816e+00   2.0332993e+00  -9.2164605e+05
   1.2444148e-09  -1.6724647e-04   2.0600130e+00   2.0333770e+00  -9.1660813e+05
   1.2454151e-09  -1.6633206e-04   2.0599447e+00   2.0334543e+00  -9.1159774e+05
   1.2464155e-09  -1.6542265e-04   2.0598768e+00   2.0335312e+00  -9.0661472e+05
   1.2474158e-09  -1.6451822e-04   2.0598093e+00   2.0336077e+00  -9.0165893e+05
   1.2484161e-09  -1.6361873e-04   2.0597421e+00   2.0336837e+00  -8.9673022e+05
   1.2494165e-09  -1.6272415e-04   2.0596754e+00   2.0337594e+00  -8.9182844e+05
   1.2504168e-09  -1.6183446e-04   2.0596089e+00   2.0338346e+00  -8.8695344e+05
   1.2514171e-09  -1.6094964e-04   2.0595429e+00   2.0339094e+00  -8.8210508e+05
   1.2524175e-09  -1.6006966e-04   2.0594772e+00   2.0339838e+00  -8.7728321e+05
   1.2534178e-09  -1.5919448e-04   2.0594119e+00   2.0340578e+00  -8.7248769e+05
   1.2544181e-09  -1.5832409e-04   2.0593469e+00   2.0341314e+00  -8.6771837e+05
   1.2554185e-09  -1.5745846e-04   2.0592823e+00   2.0342046e+00  -8.6297511e+05
   1.2564188e-09  -1.5659756e-04   2.0592180e+00   2.0342774e+00  -8.5825777e+05
   1.2574191e-09  -1.5574136e-04   2.0591541e+00   2.0343498e+00  -8.5356620e+05
   1.2584195e-09  -1.5488984e-04   2.0590905e+00   2.0344218e+00  -8.4890027e+05
   1.2594198e-09  -1.5404298e-04   2.0590273e+00   2.0344934e+00  -8.4425984e+05
   1.2604201e-09  -1.5320075e-04   2.0589645e+00   2.0345646e+00  -8.3964476e+05
   1.2614205e-09  -1.5236313e-04   2.0589019e+00   2.0346354e+00  -8.3505490e+05
   1.2624208e-09  -1.5153008e-04   2.0588398e+00   2.0347059e+00  -8.3049012e+05
   1.2634211e-09  -1.5070158e-04   2.0587779e+00   2.0347759e+00  -8.2595028e+05
   1.2644215e-09  -1.4987762e-04   2.0587164e+00   2.0348456e+00  -8.2143525e+05
   1.2654218e-09  -1.4905816e-04   2.0586553e+00   2.0349149e+00  -8.1694490e+05
   1.2664221e-09  -1.4824317e-04   2.0585944e+00   2.0349838e+00  -8.1247908e+05
   1.2674225e-09  -1.4743265e-04   2.0585339e+00   2.0350524e+00  -8.0803766e+05
   1.2684228e-09  -1.4662655e-04   2.0584738e+00   2.0351205e+00  -8.0362051e+05
   1.2694231e-09  -1.4582486e-04   2.0584139e+00   2.0351883e+00  -7.9922750e+05
   1.2704235e-09  -1.4502755e-04   2.0583544e+00   2.0352558e+00  -7.9485850e+05
   1.2714238e-09  -1.4423461e-04   2.0582952e+00   2.0353228e+00  -7.9051337e+05
   1.2724241e-09  -1.4344599e-04   2.0582364e+00   2.0353895e+00  -7.8619198e+05
   1.2734245e-09  -1.4266169e-04   2.0581778e+00   2.0354559e+00  -7.8189421e+05
   1.2744248e-09  -1.4188167e-04   2.0581196e+00   2.0355219e+00  -7.7761992e+05
   1.2754251e-09  -1.4110592e-04   2.0580617e+00   2.0355875e+00  -7.7336899e+05
   1.2764255e-09  -1.4033441e-04   2.0580042e+00   2.0356527e+00  -7.6914130e+05
   1.2774258e-09  -1.3956712e-04   2.0579469e+00   2.0357176e+00  -7.6493670e+05
   1.2784261e-09  -1.3880402e-04   2.0578899e+00   2.0357822e+00  -7.6075508e+05
   1.2794265e-09  -1.3804509e-04   2.0578333e+00   2.0358464e+00  -7.5659631e+05
   1.2804268e-09  -1.3729032e-04   2.0577770e+00   2.0359102e+00  -7.5246027e+05
   1.2814271e-09  -1.3653966e-04   2.0577210e+00   2.0359737e+00  -7.4834683e+05
   1.2824275e-09  -1.3579312e-04   2.0576652e+00   2.0360369e+00  -7.4425586e+05
   1.2834278e-09  -1.3505065e-04   2.0576098e+00   2.0360997e+00  -7.4018726e+05
   1.2844281e-09  -1.3431224e-04   2.0575547e+00   2.0361621e+00  -7.3614089e+05
   1.2854285e-09  -1.3357787e-04   2.0574999e+00   2.0362243e+00  -7.3211663e+05
   1.2864288e-09  -1.3284751e-04   2.0574454e+00   2.0362860e+00  -7.2811436e+05
   1.2874291e-09  -1.3212115e-04   2.0573912e+00   2.0363475e+00  -7.2413397e+05
   1.2884295e-09  -1.3139875e-04   2.0573373e+00   2.0364086e+00  -7.2017532e+05
   1.2894298e-09  -1.3068031e-04   2.0572837e+00   2.0364694e+00  -7.1623831e+05
   1.2904301e-09  -1.2996579e-04   2.0572304e+00   2.0365298e+00  -7.1232282e+05
   1.2914305e-09  -1.2925518e-04   2.0571774e+00   2.0365900e+00  -7.0842872e+05
   1.2924308e-09  -1.2854845e-04   2.0571246e+00   2.0366497e+00  -7.0455591e+05
   1.2934311e-09  -1.2784559e-04   2.0570722e+00   2.0367092e+00  -7.0070426e+05
   1.2944315e-09  -1.2714657e-04   2.0570200e+00   2.0367684e+00  -6.9687365e+05
   1.2954318e-09  -1.2645137e-04   2.0569681e+00   2.0368272e+00  -6.9306399e+05
   1.2964321e-09  -1.2575997e-04   2.0569165e+00   2.0368857e+00  -6.8927514e+05
   1.2974325e-09  -1.2507235e-04   2.0568652e+00   2.0369439e+00  -6.8550700e+05
   1.2984328e-09  -1.2438849e-04   2.0568142e+00   2.0370017e+00  -6.8175945e+05
   1.2994331e-09  -1.2370837e-04   2.0567635e+00   2.0370593e+00  -6.7803238e+05
   1.3004335e-09  -1.2303197e-04   2.0567130e+00   2.0371165e+00  -6.7432568e+05
   1.3014338e-09  -1.2235926e-04   2.0566628e+00   2.0371734e+00  -6.7063924e+05
   1.3024341e-09  -1.2169024e-04   2.0566129e+00   2.0372300e+00  -6.6697295e+05
   1.3034345e-09  -1.2102487e-04   2.0565632e+00   2.0372863e+00  -6.6332669e+05
   1.3044348e-09  -1.2036313e-04   2.0565139e+00   2.0373423e+00  -6.5970036e+05
   1.3054351e-09  -1.1970502e-04   2.0564648e+00   2.0373980e+00  -6.5609385e+05
   1.3064355e-09  -1.1905050e-04   2.0564159e+00   2.0374534e+00  -6.5250705e+05
   1.3074358e-09  -1.1839956e-04   2.0563674e+00   2.0375085e+00  -6.4893985e+05
   1.3084361e-09  -1.1775218e-04   2.0563191e+00   2.0375633e+00  -6.4539215e+05
   1.3094365e-09  -1.1710834e-04   2.0562710e+00   2.0376177e+00  -6.4186383e+05
   1.3104368e-09  -1.1646802e-04   2.0562232e+00   2.0376719e+00  -6.3835480e+05
   1.3114371e-09  -1.1583120e-04   2.0561757e+00   2.0377258e+00  -6.3486495e+05
   1.3124375e-09  -1.1519786e-04   2.0561285e+00   2.0377794e+00  -6.3139417e+05
   1.3134378e-09  -1.1456798e-04   2.0560815e+00   2.0378327e+00  -6.2794236e+05
   1.3144381e-09  -1.1394155e-04   2.0560347e+00   2.0378857e+00  -6.2450942e+05
   1.3154385e-09  -1.1331854e-04   2.0559883e+00   2.0379385e+00  -6.2109523e+05
   1.3164388e-09  -1.1269894e-04   2.0559420e+00   2.0379909e+00  -6.1769971e+05
   1.3174391e-09  -1.1208272e-04   2.0558961e+00   2.0380431e+00  -6.1432275e+05
   1.3184395e-09  -1.1146988e-04   2.0558503e+00   2.0380949e+00  -6.1096424e+05
   1.3194398e-09  -1.1086038e-04   2.0558049e+00   2.0381465e+00  -6.0762408e+05
   1.3204401e-09  -1.1025422e-04   2.0557597e+00   2.0381978e+00  -6.0430219e+05
   1.3214405e-09  -1.0965137e-04   2.0557147e+00   2.0382488e+00  -6.0099845e+05
   1.3224408e-09  -1.0905181e-04   2.0556700e+00   2.0382996e+00  -5.9771276e+05
   1.3234411e-09  -1.0845554e-04   2.0556255e+00   2.0383501e+00  -5.9444503e+05
   1.3244415e-09  -1.0786252e-04   2.0555812e+00   2.0384002e+00  -5.9119517e+05
   1.3254418e-09  -1.0727275e-04   2.0555372e+00   2.0384502e+00  -5.8796306e+05
   1.3264421e-09  -1.0668620e-04   2.0554935e+00   2.0384998e+00  -5.8474862e+05
   1.3274425e-09  -1.0610285e-04   2.0554500e+00   2.0385492e+00  -5.8155175e+05
   1.3284428e-09  -1.0552270e-04   2.0554067e+00   2.0385983e+00  -5.7837235e+05
   1.3294431e-09  -1.0494572e-04   2.0553636e+00   2.0386471e+00  -5.7521033e+05
   1.3304435e-09  -1.0437189e-04   2.0553208e+00   2.0386957e+00  -5.7206559e+05
   1.3314438e-09  -1.0380120e-04   2.0552783e+00   2.0387440e+00  -5.6893804e+05
   1.3324441e-09  -1.0323363e-04   2.0552359e+00   2.0387921e+00  -5.6582759e+05
   1.3334445e-09  -1.0266916e-04   2.0551938e+00   2.0388398e+00  -5.6273413e+05
   1.3344448e-09  -1.0210778e-04   2.0551519e+00   2.0388874e+00  -5.5965758e+05
   1.3354451e-09  -1.0154947e-04   2.0551103e+00   2.0389346e+00  -5.5659785e+05
   1.3364455e-09  -1.0099421e-04   2.0550689e+00   2.0389816e+00  -5.5355484e+05
   1.3374458e-09  -1.0044198e-04   2.0550277e+00   2.0390284e+00  -5.5052846e+05
   1.3384461e-09  -9.9892776e-05   2.0549867e+00   2.0390749e+00  -5.4751863e+05
   1.3394465e-09  -9.9346573e-05   2.0549460e+00   2.0391211e+00  -5.4452524e+05
   1.3404468e-09  -9.8803357e-05   2.0549054e+00   2.0391671e+00  -5.4154822e+05
   1.3414471e-09  -9.8263110e-05   2.0548651e+00   2.0392128e+00  -5.3858747e+05
   1.3424475e-09  -9.7725817e-05   2.0548251e+00   2.0392583e+00  -5.3564290e+05
   1.3434478e-09  -9.7191461e-05   2.0547852e+00   2.0393036e+00  -5.3271443e+05
   1.3444481e-09  -9.6660027e-05   2.0547456e+00   2.0393485e+00  -5.2980196e+05
   1.3454485e-09  -9.6131499e-05   2.0547061e+00   2.0393933e+00  -5.2690541e+05
   1.3464488e-09  -9.5605860e-05   2.0546669e+00   2.0394378e+00  -5.2402470e+05
   1.3474491e-09  -9.5083094e-05   2.0546279e+00   2.0394821e+00  -5.2115973e+05
   1.3484495e-09  -9.4563187e-05   2.0545892e+00   2.0395261e+00  -5.1831042e+05
   1.3494498e-09  -9.4046123e-05   2.0545506e+00   2.0395698e+00  -5.1547668e+05
   1.3504502e-09  -9.3531885e-05   2.0545122e+00   2.0396134e+00  -5.1265843e+05
   1.3514505e-09  -9.3020459e-05   2.0544741e+00   2.0396567e+00  -5.0985559e+05
   1.3524508e-09  -9.2511828e-05   2.0544362e+00   2.0396998e+00  -5.0706807e+05
   1.3534512e-09  -9.2005979e-05   2.0543984e+00   2.0397426e+00  -5.0429578e+05
   1.3544515e-09  -9.1502895e-05   2.0543609e+00   2.0397852e+00  -5.0153865e+05
   1.3554518e-09  -9.1002562e-05   2.0543236e+00   2.0398275e+00  -4.9879658e+05
   1.3564522e-09  -9.0504964e-05   2.0542865e+00   2.0398697e+00  -4.9606951e+05
   1.3574525e-09  -9.0010087e-05   2.0542496e+00   2.0399116e+00  -4.9335734e+05
   1.3584528e-09  -8.9517916e-05   2.0542129e+00   2.0399532e+00  -4.9066000e+05
   1.3594532e-09  -8.9028435e-05   2.0541763e+00   2.0399947e+00  -4.8797740e+05
   1.3604535e-09  -8.8541630e-05   2.0541400e+00   2.0400359e+00  -4.8530946e+05
   1.3614538e-09  -8.8057487e-05   2.0541039e+00   2.0400769e+00  -4.8265611e+05
   1.3624542e-09  -8.7575991e-05   2.0540680e+00   2.0401177e+00  -4.8001726e+05
   1.3634545e-09  -8.7097128e-05   2.0540323e+00   2.0401582e+00  -4.7739283e+05
   1.3644548e-09  -8.6620882e-05   2.0539968e+00   2.0401986e+00  -4.7478276e+05
   1.3654552e-09  -8.6147241e-05   2.0539615e+00   2.0402387e+00  -4.7218694e+05
   1.3664555e-09  -8.5676189e-05   2.0539263e+00   2.0402785e+00  -4.6960532e+05
   1.3674558e-09  -8.5207712e-05   2.0538914e+00   2.0403182e+00  -4.6703781e+05
   1.3684562e-09  -8.4741797e-05   2.0538566e+00   2.0403577e+00  -4.6448433e+05
   1.3694565e-09  -8.4278429e-05   2.0538221e+00   2.0403969e+00  -4.6194481e+05
   1.3704568e-09  -8.3817594e-05   2.0537877e+00   2.0404359e+00  -4.5941917e+05
   1.3714572e-09  -8.3359279e-05   2.0537535e+00   2.0404747e+00  -4.5690734e+05
   1.3724575e-09  -8.2903470e-05   2.0537195e+00   2.0405133e+00  -4.5440924e+05
   1.3734578e-09  -8.2450153e-05   2.0536857e+00   2.0405517e+00  -4.5192479e+05
   1.3744582e-09  -8.1999315e-05   2.0536521e+00   2.0405899e+00  -4.4945392e+05
   1.3754585e-09  -8.1550941e-05   2.0536187e+00   2.0406279e+00  -4.4699656e+05
   1.3764588e-09  -8.1105019e-05   2.0535854e+00   2.0406657e+00  -4.4455263e+05
   1.3774592e-09  -8.0661535e-05   2.0535523e+00   2.0407032e+00  -4.4212207e+05
   1.3784595e-09  -8.0220475e-05   2.0535195e+00   2.0407406e+00  -4.3970478e+05
   1.3794598e-09  -7.9781827e-05   2.0534867e+00   2.0407777e+00  -4.3730072e+05
   1.3804602e-09  -7.9345578e-05   2.0534542e+00   2.0408147e+00  -4.3490979e+05
   1.3814605e-09  -7.8911713e-05   2.0534219e+00   2.0408514e+00  -4.3253193e+05
   1.3824608e-09  -7.8480221e-05   2.0533897e+00   2.0408879e+00  -4.3016707e+05
   1.3834612e-09  -7.8051088e-05   2.0533577e+00   2.0409243e+00  -4.2781514e+05
   1.3844615e-09  -7.7624301e-05   2.0533259e+00   2.0409604e+00  -4.2547607e+05
   1.3854618e-09  -7.7199848e-05   2.0532942e+00   2.0409964e+00  -4.2314978e+05
   1.3864622e-09  -7.6777715e-05   2.0532627e+00   2.0410321e+00  -4.2083620e+05
   1.3874625e-09  -7.6357890e-05   2.0532314e+00   2.0410677e+00  -4.1853528e+05
   1.3884628e-09  -7.5940361e-05   2.0532003e+00   2.0411031e+00  -4.1624693e+05
   1.3894632e-09  -7.5525114e-05   2.0531693e+00   2.0411382e+00  -4.1397109e+05
   1.3904635e-09  -7.5112138e-05   2.0531385e+00   2.0411732e+00  -4.1170769e+05
   1.3914638e-09  -7.4701420e-05   2.0531079e+00   2.0412080e+00  -4.0945667e+05
   1.3924642e-09  -7.4292948e-05   2.0530774e+00   2.0412426e+00  -4.0721795e+05
   1.3934645e-09  -7.3886709e-05   2.0530471e+00   2.0412770e+00  -4.0499147e+05
   1.3944648e-09  -7.3482691e-05   2.0530170e+00   2.0413112e+00  -4.0277716e+05
   1.3954652e-09  -7.3080882e-05   2.0529870e+00   2.0413453e+00  -4.0057495e+05
   1.3964655e-09  -7.2681269e-05   2.0529572e+00   2.0413791e+00  -3.9838478e+05
   1.3974658e-09  -7.2283842e-05   2.0529276e+00   2.0414128e+00  -3.9620659e+05
   1.3984662e-09  -7.1888588e-05   2.0528981e+00   2.0414462e+00  -3.9404030e+05
   1.3994665e-09  -7.1495495e-05   2.0528688e+00   2.0414795e+00  -3.9188585e+05
   1.4004668e-09  -7.1104551e-05   2.0528397e+00   2.0415127e+00  -3.8974318e+05
   1.4014672e-09  -7.0715745e-05   2.0528107e+00   2.0415456e+00  -3.8761223e+05
   1.4024675e-09  -7.0329064e-05   2.0527818e+00   2.0415783e+00  -3.8549292e+05
   1.4034678e-09  -6.9944498e-05   2.0527532e+00   2.0416109e+00  -3.8338520e+05
   1.4044682e-09  -6.9562034e-05   2.0527247e+00   2.0416433e+00  -3.8128900e+05
   1.4054685e-09  -6.9181662e-05   2.0526963e+00   2.0416755e+00  -3.7920426e+05
   1.4064688e-09  -6.8803369e-05   2.0526681e+00   2.0417076e+00  -3.7713092e+05
   1.4074692e-09  -6.8427144e-05   2.0526400e+00   2.0417395e+00  -3.7506891e+05
   1.4084695e-09  -6.8052977e-05   2.0526121e+00   2.0417711e+00  -3.7301817e+05
   1.4094698e-09  -6.7680855e-05   2.0525844e+00   2.0418027e+00  -3.7097864e+05
   1.4104702e-09  -6.7310768e-05   2.0525568e+00   2.0418340e+00  -3.6895027e+05
   1.4114705e-09  -6.6942705e-05   2.0525293e+00   2.0418652e+00  -3.6693298e+05
   1.4124708e-09  -6.6576654e-05   2.0525021e+00   2.0418962e+00  -3.6492672e+05
   1.4134712e-09  -6.6212605e-05   2.0524749e+00   2.0419271e+00  -3.6293143e+05
   1.4144715e-09  -6.5850545e-05   2.0524479e+00   2.0419577e+00  -3.6094704e+05
   1.4154718e-09  -6.5490466e-05   2.0524211e+00   2.0419882e+00  -3.5897350e+05
   1.4164722e-09  -6.5132355e-05   2.0523944e+00   2.0420186e+00  -3.5701076e+05
   1.4174725e-09  -6.4776203e-05   2.0523678e+00   2.0420487e+00  -3.5505874e+05
   1.4184728e-09  -6.4421998e-05   2.0523414e+00   2.0420787e+00  -3.5311739e+05
   1.4194732e-09  -6.4069729e-05   2.0523151e+00   2.0421086e+00  -3.5118666e+05
   1.4204735e-09  -6.3719386e-05   2.0522890e+00   2.0421383e+00  -3.4926648e+05
   1.4214738e-09  -6.3370959e-05   2.0522630e+00   2.0421678e+00  -3.4735680e+05
   1.4224742e-09  -6.3024438e-05   2.0522372e+00   2.0421971e+00  -3.4545755e+05
   1.4234745e-09  -6.2679810e-05   2.0522115e+00   2.0422263e+00  -3.4356870e+05
   1.4244748e-09  -6.2337068e-05   2.0521859e+00   2.0422554e+00  -3.4169016e+05
   1.4254752e-09  -6.1996199e-05   2.0521605e+00   2.0422843e+00  -3.3982190e+05
   1.4264755e-09  -6.1657194e-05   2.0521353e+00   2.0423130e+00  -3.3796385e+05
   1.4274758e-09  -6.1320042e-05   2.0521101e+00   2.0423415e+00  -3.3611596e+05
   1.4284762e-09  -6.0984734e-05   2.0520851e+00   2.0423699e+00  -3.3427816e+05
   1.4294765e-09  -6.0651260e-05   2.0520603e+00   2.0423982e+00  -3.3245042e+05
   1.4304768e-09  -6.0319608e-05   2.0520355e+00   2.0424263e+00  -3.3063267e+05
   1.4314772e-09  -5.9989770e-05   2.0520109e+00   2.0424542e+00  -3.2882486e+05
   1.4324775e-09  -5.9661736e-05   2.0519865e+00   2.0424820e+00  -3.2702693e+05
   1.4334778e-09  -5.9335495e-05   2.0519622e+00   2.0425097e+00  -3.2523882e+05
   1.4344782e-09  -5.9011038e-05   2.0519380e+00   2.0425372e+00  -3.2346050e+05
   1.4354785e-09  -5.8688355e-05   2.0519139e+00   2.0425645e+00  -3.2169189e+05
   1.4364788e-09  -5.8367437e-05   2.0518900e+00   2.0425917e+00  -3.1993296e+05
   1.4374792e-09  -5.8048273e-05   2.0518662e+00   2.0426187e+00  -3.1818364e+05
   1.4384795e-09  -5.7730854e-05   2.0518425e+00   2.0426456e+00  -3.1644388e+05
   1.4394798e-09  -5.7415171e-05   2.0518190e+00   2.0426724e+00  -3.1471364e+05
   1.4404802e-09  -5.7101213e-05   2.0517956e+00   2.0426990e+00  -3.1299285e+05
   1.4414805e-09  -5.6788973e-05   2.0517723e+00   2.0427254e+00  -3.1128147e+05
   1.4424808e-09  -5.6478440e-05   2.0517492e+00   2.0427518e+00  -3.0957945e+05
   1.4434812e-09  -5.6169604e-05   2.0517261e+00   2.0427779e+00  -3.0788673e+05
   1.4444815e-09  -5.5862458e-05   2.0517032e+00   2.0428039e+00  -3.0620327e+05
   1.4454818e-09  -5.5556991e-05   2.0516805e+00   2.0428298e+00  -3.0452901e+05
   1.4464822e-09  -5.5253194e-05   2.0516578e+00   2.0428556e+00  -3.0286390e+05
   1.4474825e-09  -5.4951058e-05   2.0516353e+00   2.0428812e+00  -3.0120790e+05
   1.4484828e-09  -5.4650574e-05   2.0516129e+00   2.0429066e+00  -2.9956095e+05
   1.4494832e-09  -5.4351733e-05   2.0515906e+00   2.0429320e+00  -2.9792300e+05
   1.4504835e-09  -5.4054526e-05   2.0515684e+00   2.0429571e+00  -2.9629401e+05
   1.4514838e-09  -5.3758944e-05   2.0515464e+00   2.0429822e+00  -2.9467393e+05
   1.4524842e-09  -5.3464979e-05   2.0515245e+00   2.0430071e+00  -2.9306270e+05
   1.4534845e-09  -5.3172621e-05   2.0515027e+00   2.0430319e+00  -2.9146028e+05
   1.4544848e-09  -5.2881861e-05   2.0514810e+00   2.0430565e+00  -2.8986662e+05
   1.4554852e-09  -5.2592691e-05   2.0514595e+00   2.0430810e+00  -2.8828168e+05
   1.4564855e-09  -5.2305102e-05   2.0514380e+00   2.0431054e+00  -2.8670539e+05
   1.4574858e-09  -5.2019086e-05   2.0514167e+00   2.0431296e+00  -2.8513773e+05
   1.4584862e-09  -5.1734634e-05   2.0513955e+00   2.0431537e+00  -2.8357864e+05
   1.4594865e-09  -5.1451737e-05   2.0513744e+00   2.0431777e+00  -2.8202807e+05
   1.4604868e-09  -5.1170387e-05   2.0513534e+00   2.0432015e+00  -2.8048598e+05
   1.4614872e-09  -5.0890575e-05   2.0513326e+00   2.0432252e+00  -2.7895232e+05
   1.4624875e-09  -5.0612293e-05   2.0513118e+00   2.0432488e+00  -2.7742704e+05
