   0.0000000e+00  -1.3059917e-01   6.3009166e+00   2.4313450e-04  -5.1998448e+08
   1.0003334e-12  -1.3007974e-01   6.2990461e+00   2.5308817e-04  -5.1857685e+08
   2.0006669e-12  -1.2956171e-01   6.2971436e+00   2.6341911e-04  -5.1716904e+08
   3.0010003e-12  -1.2904509e-01   6.2952088e+00   2.7414027e-04  -5.1576104e+08
   4.0013338e-12  -1.2852988e-01   6.2932411e+00   2.8526500e-04  -5.1435286e+08
   5.0016672e-12  -1.2801607e-01   6.2912403e+00   2.9680704e-04  -5.1294451e+08
   6.0020007e-12  -1.2750368e-01   6.2892058e+00   3.0878053e-04  -5.1153597e+08
   7.0023341e-12  -1.2699269e-01   6.2871372e+00   3.2120006e-04  -5.1012726e+08
   8.0026676e-12  -1.2648312e-01   6.2850342e+00   3.3408060e-04  -5.0871839e+08
   9.0030010e-12  -1.2597495e-01   6.2828964e+00   3.4743759e-04  -5.0730934e+08
   1.0003334e-11  -1.2546820e-01   6.2807232e+00   3.6128691e-04  -5.0590014e+08
   1.1003668e-11  -1.2496285e-01   6.2785143e+00   3.7564489e-04  -5.0449078e+08
   1.2004001e-11  -1.2445891e-01   6.2762692e+00   3.9052832e-04  -5.0308126e+08
   1.3004335e-11  -1.2395639e-01   6.2739876e+00   4.0595448e-04  -5.0167159e+08
   1.4004668e-11  -1.2345527e-01   6.2716689e+00   4.2194113e-04  -5.0026178e+08
   1.5005002e-11  -1.2295557e-01   6.2693129e+00   4.3850653e-04  -4.9885182e+08
   1.6005335e-11  -1.2245727e-01   6.2669189e+00   4.5566946e-04  -4.9744173e+08
   1.7005669e-11  -1.2196039e-01   6.2644867e+00   4.7344920e-04  -4.9603150e+08
   1.8006002e-11  -1.2146491e-01   6.2620158e+00   4.9186557e-04  -4.9462115e+08
   1.9006335e-11  -1.2097085e-01   6.2595058e+00   5.1093892e-04  -4.9321068e+08
   2.0006669e-11  -1.2047820e-01   6.2569561e+00   5.3069018e-04  -4.9180009e+08
   2.1007002e-11  -1.1998696e-01   6.2543665e+00   5.5114082e-04  -4.9038939e+08
   2.2007336e-11  -1.1949713e-01   6.2517364e+00   5.7231289e-04  -4.8897859e+08
   2.3007669e-11  -1.1900871e-01   6.2490655e+00   5.9422903e-04  -4.8756769e+08
   2.4008003e-11  -1.1852171e-01   6.2463533e+00   6.1691247e-04  -4.8615669e+08
   2.5008336e-11  -1.1803611e-01   6.2435993e+00   6.4038705e-04  -4.8474561e+08
   2.6008670e-11  -1.1755193e-01   6.2408032e+00   6.6467725e-04  -4.8333445e+08
   2.7009003e-11  -1.1706916e-01   6.2379644e+00   6.8980815e-04  -4.8192322e+08
   2.8009336e-11  -1.1658780e-01   6.2350827e+00   7.1580550e-04  -4.8051192e+08
   2.9009670e-11  -1.1610785e-01   6.2321575e+00   7.4269570e-04  -4.7910057e+08
   3.0010003e-11  -1.1562931e-01   6.2291884e+00   7.7050581e-04  -4.7768916e+08
   3.1010337e-11  -1.1515219e-01   6.2261750e+00   7.9926357e-04  -4.7627771e+08
   3.2010670e-11  -1.1467648e-01   6.2231169e+00   8.2899742e-04  -4.7486622e+08
   3.3011004e-11  -1.1420218e-01   6.2200136e+00   8.5973650e-04  -4.7345471e+08
   3.4011337e-11  -1.1372929e-01   6.2168647e+00   8.9151065e-04  -4.7204318e+08
   3.5011671e-11  -1.1325781e-01   6.2136698e+00   9.2435046e-04  -4.7063164e+08
   3.6012004e-11  -1.1278775e-01   6.2104284e+00   9.5828724e-04  -4.6922010e+08
   3.7012337e-11  -1.1231910e-01   6.2071402e+00   9.9335305e-04  -4.6780857e+08
   3.8012671e-11  -1.1185186e-01   6.2038047e+00   1.0295807e-03  -4.6639705e+08
   3.9013004e-11  -1.1138603e-01   6.2004215e+00   1.0670039e-03  -4.6498556e+08
   4.0013338e-11  -1.1092162e-01   6.1969903e+00   1.1056569e-03  -4.6357411e+08
   4.1013671e-11  -1.1045861e-01   6.1935104e+00   1.1455749e-03  -4.6216270e+08
   4.2014005e-11  -1.0999702e-01   6.1899817e+00   1.1867940e-03  -4.6075135e+08
   4.3014338e-11  -1.0953684e-01   6.1864036e+00   1.2293508e-03  -4.5934007e+08
   4.4014672e-11  -1.0907807e-01   6.1827757e+00   1.2732832e-03  -4.5792887e+08
   4.5015005e-11  -1.0862072e-01   6.1790977e+00   1.3186296e-03  -4.5651776e+08
   4.6015338e-11  -1.0816477e-01   6.1753692e+00   1.3654292e-03  -4.5510674e+08
   4.7015672e-11  -1.0771024e-01   6.1715897e+00   1.4137223e-03  -4.5369584e+08
   4.8016005e-11  -1.0725712e-01   6.1677589e+00   1.4635501e-03  -4.5228507e+08
   4.9016339e-11  -1.0680540e-01   6.1638763e+00   1.5149543e-03  -4.5087443e+08
   5.0016672e-11  -1.0635510e-01   6.1599416e+00   1.5679780e-03  -4.4946394e+08
   5.1017006e-11  -1.0590622e-01   6.1559544e+00   1.6226649e-03  -4.4805361e+08
   5.2017339e-11  -1.0545874e-01   6.1519144e+00   1.6790596e-03  -4.4664345e+08
   5.3017673e-11  -1.0501267e-01   6.1478211e+00   1.7372078e-03  -4.4523348e+08
   5.4018006e-11  -1.0456801e-01   6.1436741e+00   1.7971560e-03  -4.4382371e+08
   5.5018339e-11  -1.0412476e-01   6.1394732e+00   1.8589517e-03  -4.4241416e+08
   5.6018673e-11  -1.0368293e-01   6.1352179e+00   1.9226434e-03  -4.4100483e+08
   5.7019006e-11  -1.0324250e-01   6.1309079e+00   1.9882806e-03  -4.3959575e+08
   5.8019340e-11  -1.0280348e-01   6.1265429e+00   2.0559135e-03  -4.3818692e+08
   5.9019673e-11  -1.0236587e-01   6.1221225e+00   2.1255936e-03  -4.3677837e+08
   6.0020007e-11  -1.0192967e-01   6.1176463e+00   2.1973733e-03  -4.3537010e+08
   6.1020340e-11  -1.0149488e-01   6.1131140e+00   2.2713058e-03  -4.3396214e+08
   6.2020674e-11  -1.0106150e-01   6.1085253e+00   2.3474457e-03  -4.3255449e+08
   6.3021007e-11  -1.0062952e-01   6.1038799e+00   2.4258482e-03  -4.3114717e+08
   6.4021340e-11  -1.0019895e-01   6.0991775e+00   2.5065699e-03  -4.2974021e+08
   6.5021674e-11  -9.9769792e-02   6.0944176e+00   2.5896681e-03  -4.2833361e+08
   6.6022007e-11  -9.9342038e-02   6.0896001e+00   2.6752014e-03  -4.2692739e+08
   6.7022341e-11  -9.8915691e-02   6.0847246e+00   2.7632292e-03  -4.2552158e+08
   6.8022674e-11  -9.8490749e-02   6.0797909e+00   2.8538121e-03  -4.2411618e+08
   6.9023008e-11  -9.8067214e-02   6.0747986e+00   2.9470118e-03  -4.2271122e+08
   7.0023341e-11  -9.7645083e-02   6.0697475e+00   3.0428908e-03  -4.2130670e+08
   7.1023675e-11  -9.7224358e-02   6.0646373e+00   3.1415131e-03  -4.1990266e+08
   7.2024008e-11  -9.6805036e-02   6.0594677e+00   3.2429433e-03  -4.1849911e+08
   7.3024341e-11  -9.6387118e-02   6.0542384e+00   3.3472473e-03  -4.1709607e+08
   7.4024675e-11  -9.5970604e-02   6.0489493e+00   3.4544921e-03  -4.1569355e+08
   7.5025008e-11  -9.5555492e-02   6.0436001e+00   3.5647456e-03  -4.1429158e+08
   7.6025342e-11  -9.5141782e-02   6.0381905e+00   3.6780771e-03  -4.1289017e+08
   7.7025675e-11  -9.4729474e-02   6.0327204e+00   3.7945566e-03  -4.1148935e+08
   7.8026009e-11  -9.4318567e-02   6.0271894e+00   3.9142554e-03  -4.1008913e+08
   7.9026342e-11  -9.3909060e-02   6.0215975e+00   4.0372458e-03  -4.0868954e+08
   8.0026676e-11  -9.3500952e-02   6.0159443e+00   4.1636012e-03  -4.0729059e+08
   8.1027009e-11  -9.3094244e-02   6.0102297e+00   4.2933962e-03  -4.0589231e+08
   8.2027342e-11  -9.2688934e-02   6.0044535e+00   4.4267062e-03  -4.0449472e+08
   8.3027676e-11  -9.2285022e-02   5.9986156e+00   4.5636079e-03  -4.0309783e+08
   8.4028009e-11  -9.1882507e-02   5.9927157e+00   4.7041790e-03  -4.0170168e+08
   8.5028343e-11  -9.1481388e-02   5.9867537e+00   4.8484982e-03  -4.0030628e+08
   8.6028676e-11  -9.1081664e-02   5.9807295e+00   4.9966455e-03  -3.9891165e+08
   8.7029010e-11  -9.0683335e-02   5.9746429e+00   5.1487017e-03  -3.9751782e+08
   8.8029343e-11  -9.0286400e-02   5.9684938e+00   5.3047488e-03  -3.9612481e+08
   8.9029677e-11  -8.9890858e-02   5.9622820e+00   5.4648697e-03  -3.9473264e+08
   9.0030010e-11  -8.9496708e-02   5.9560075e+00   5.6291485e-03  -3.9334134e+08
   9.1030343e-11  -8.9103950e-02   5.9496702e+00   5.7976703e-03  -3.9195093e+08
   9.2030677e-11  -8.8712581e-02   5.9432700e+00   5.9705212e-03  -3.9056143e+08
   9.3031010e-11  -8.8322602e-02   5.9368067e+00   6.1477884e-03  -3.8917286e+08
   9.4031344e-11  -8.7934012e-02   5.9302803e+00   6.3295599e-03  -3.8778526e+08
   9.5031677e-11  -8.7546809e-02   5.9236909e+00   6.5159249e-03  -3.8639864e+08
   9.6032011e-11  -8.7160993e-02   5.9170382e+00   6.7069736e-03  -3.8501303e+08
   9.7032344e-11  -8.6776562e-02   5.9103223e+00   6.9027971e-03  -3.8362845e+08
   9.8032678e-11  -8.6393515e-02   5.9035431e+00   7.1034874e-03  -3.8224493e+08
   9.9033011e-11  -8.6011852e-02   5.8967006e+00   7.3091376e-03  -3.8086249e+08
   1.0003334e-10  -8.5631571e-02   5.8897949e+00   7.5198417e-03  -3.7948117e+08
   1.0103368e-10  -8.5252672e-02   5.8828258e+00   7.7356945e-03  -3.7810098e+08
   1.0203401e-10  -8.4875152e-02   5.8757936e+00   7.9567920e-03  -3.7672195e+08
   1.0303434e-10  -8.4499011e-02   5.8686980e+00   8.1832307e-03  -3.7534411e+08
   1.0403468e-10  -8.4124248e-02   5.8615393e+00   8.4151084e-03  -3.7396748e+08
   1.0503501e-10  -8.3750861e-02   5.8543174e+00   8.6525235e-03  -3.7259209e+08
   1.0603535e-10  -8.3378849e-02   5.8470324e+00   8.8955753e-03  -3.7121796e+08
   1.0703568e-10  -8.3008212e-02   5.8396843e+00   9.1443639e-03  -3.6984513e+08
   1.0803601e-10  -8.2638946e-02   5.8322734e+00   9.3989902e-03  -3.6847362e+08
   1.0903635e-10  -8.2271052e-02   5.8247995e+00   9.6595562e-03  -3.6710345e+08
   1.1003668e-10  -8.1904528e-02   5.8172629e+00   9.9261641e-03  -3.6573466e+08
   1.1103701e-10  -8.1539372e-02   5.8096637e+00   1.0198917e-02  -3.6436727e+08
   1.1203735e-10  -8.1175584e-02   5.8020019e+00   1.0477920e-02  -3.6300130e+08
   1.1303768e-10  -8.0813161e-02   5.7942778e+00   1.0763276e-02  -3.6163680e+08
   1.1403801e-10  -8.0452102e-02   5.7864915e+00   1.1055092e-02  -3.6027378e+08
   1.1503835e-10  -8.0092405e-02   5.7786430e+00   1.1353473e-02  -3.5891227e+08
   1.1603868e-10  -7.9734070e-02   5.7707327e+00   1.1658526e-02  -3.5755230e+08
   1.1703901e-10  -7.9377094e-02   5.7627607e+00   1.1970358e-02  -3.5619390e+08
   1.1803935e-10  -7.9021477e-02   5.7547272e+00   1.2289078e-02  -3.5483709e+08
   1.1903968e-10  -7.8667215e-02   5.7466323e+00   1.2614792e-02  -3.5348191e+08
   1.2004001e-10  -7.8314309e-02   5.7384764e+00   1.2947612e-02  -3.5212839e+08
   1.2104035e-10  -7.7962755e-02   5.7302595e+00   1.3287645e-02  -3.5077655e+08
   1.2204068e-10  -7.7612553e-02   5.7219821e+00   1.3635001e-02  -3.4942642e+08
   1.2304101e-10  -7.7263700e-02   5.7136443e+00   1.3989791e-02  -3.4807803e+08
   1.2404135e-10  -7.6916196e-02   5.7052463e+00   1.4352127e-02  -3.4673140e+08
   1.2504168e-10  -7.6570037e-02   5.6967886e+00   1.4722118e-02  -3.4538658e+08
   1.2604201e-10  -7.6225222e-02   5.6882713e+00   1.5099876e-02  -3.4404358e+08
   1.2704235e-10  -7.5881750e-02   5.6796947e+00   1.5485513e-02  -3.4270244e+08
   1.2804268e-10  -7.5539619e-02   5.6710591e+00   1.5879141e-02  -3.4136318e+08
   1.2904301e-10  -7.5198826e-02   5.6623650e+00   1.6280872e-02  -3.4002584e+08
   1.3004335e-10  -7.4859370e-02   5.6536125e+00   1.6690819e-02  -3.3869044e+08
   1.3104368e-10  -7.4521249e-02   5.6448021e+00   1.7109095e-02  -3.3735702e+08
   1.3204401e-10  -7.4184460e-02   5.6359340e+00   1.7535812e-02  -3.3602559e+08
   1.3304435e-10  -7.3849002e-02   5.6270087e+00   1.7971083e-02  -3.3469620e+08
   1.3404468e-10  -7.3514873e-02   5.6180265e+00   1.8415022e-02  -3.3336887e+08
   1.3504502e-10  -7.3182071e-02   5.6089878e+00   1.8867741e-02  -3.3204363e+08
   1.3604535e-10  -7.2850593e-02   5.5998930e+00   1.9329354e-02  -3.3072050e+08
   1.3704568e-10  -7.2520437e-02   5.5907425e+00   1.9799973e-02  -3.2939953e+08
   1.3804602e-10  -7.2191602e-02   5.5815367e+00   2.0279712e-02  -3.2808073e+08
   1.3904635e-10  -7.1864084e-02   5.5722761e+00   2.0768683e-02  -3.2676414e+08
   1.4004668e-10  -7.1537883e-02   5.5629610e+00   2.1267000e-02  -3.2544978e+08
   1.4104702e-10  -7.1212995e-02   5.5535919e+00   2.1774774e-02  -3.2413769e+08
   1.4204735e-10  -7.0889418e-02   5.5441693e+00   2.2292119e-02  -3.2282789e+08
   1.4304768e-10  -7.0567151e-02   5.5346936e+00   2.2819146e-02  -3.2152042e+08
   1.4404802e-10  -7.0246189e-02   5.5251653e+00   2.3355967e-02  -3.2021530e+08
   1.4504835e-10  -6.9926533e-02   5.5155849e+00   2.3902694e-02  -3.1891256e+08
   1.4604868e-10  -6.9608178e-02   5.5059529e+00   2.4459437e-02  -3.1761222e+08
   1.4704902e-10  -6.9291122e-02   5.4962697e+00   2.5026309e-02  -3.1631433e+08
   1.4804935e-10  -6.8975364e-02   5.4865359e+00   2.5603418e-02  -3.1501890e+08
   1.4904968e-10  -6.8660900e-02   5.4767520e+00   2.6190875e-02  -3.1372597e+08
   1.5005002e-10  -6.8347728e-02   5.4669185e+00   2.6788789e-02  -3.1243556e+08
   1.5105035e-10  -6.8035845e-02   5.4570359e+00   2.7397269e-02  -3.1114770e+08
   1.5205068e-10  -6.7725249e-02   5.4471049e+00   2.8016422e-02  -3.0986243e+08
   1.5305102e-10  -6.7415938e-02   5.4371259e+00   2.8646357e-02  -3.0857976e+08
   1.5405135e-10  -6.7107908e-02   5.4270995e+00   2.9287181e-02  -3.0729972e+08
   1.5505168e-10  -6.6801157e-02   5.4170263e+00   2.9938998e-02  -3.0602235e+08
   1.5605202e-10  -6.6495683e-02   5.4069068e+00   3.0601916e-02  -3.0474767e+08
   1.5705235e-10  -6.6191482e-02   5.3967417e+00   3.1276038e-02  -3.0347571e+08
   1.5805268e-10  -6.5888553e-02   5.3865314e+00   3.1961468e-02  -3.0220649e+08
   1.5905302e-10  -6.5586891e-02   5.3762767e+00   3.2658308e-02  -3.0094004e+08
   1.6005335e-10  -6.5286495e-02   5.3659781e+00   3.3366662e-02  -2.9967640e+08
   1.6105368e-10  -6.4987361e-02   5.3556362e+00   3.4086630e-02  -2.9841558e+08
   1.6205402e-10  -6.4689487e-02   5.3452517e+00   3.4818312e-02  -2.9715761e+08
   1.6305435e-10  -6.4392870e-02   5.3348251e+00   3.5561807e-02  -2.9590252e+08
   1.6405468e-10  -6.4097506e-02   5.3243571e+00   3.6317214e-02  -2.9465033e+08
   1.6505502e-10  -6.3803394e-02   5.3138483e+00   3.7084628e-02  -2.9340108e+08
   1.6605535e-10  -6.3510530e-02   5.3032994e+00   3.7864146e-02  -2.9215478e+08
   1.6705569e-10  -6.3218911e-02   5.2927110e+00   3.8655863e-02  -2.9091146e+08
   1.6805602e-10  -6.2928534e-02   5.2820837e+00   3.9459872e-02  -2.8967115e+08
   1.6905635e-10  -6.2639396e-02   5.2714183e+00   4.0276265e-02  -2.8843387e+08
   1.7005669e-10  -6.2351494e-02   5.2607153e+00   4.1105133e-02  -2.8719964e+08
   1.7105702e-10  -6.2064826e-02   5.2499755e+00   4.1946566e-02  -2.8596850e+08
   1.7205735e-10  -6.1779387e-02   5.2391995e+00   4.2800652e-02  -2.8474046e+08
   1.7305769e-10  -6.1495175e-02   5.2283879e+00   4.3667478e-02  -2.8351555e+08
   1.7405802e-10  -6.1212186e-02   5.2175415e+00   4.4547129e-02  -2.8229379e+08
   1.7505835e-10  -6.0930418e-02   5.2066610e+00   4.5439690e-02  -2.8107520e+08
   1.7605869e-10  -6.0649868e-02   5.1957469e+00   4.6345244e-02  -2.7985981e+08
   1.7705902e-10  -6.0370531e-02   5.1848001e+00   4.7263872e-02  -2.7864765e+08
   1.7805935e-10  -6.0092405e-02   5.1738212e+00   4.8195652e-02  -2.7743872e+08
   1.7905969e-10  -5.9815487e-02   5.1628109e+00   4.9140664e-02  -2.7623306e+08
   1.8006002e-10  -5.9539774e-02   5.1517699e+00   5.0098984e-02  -2.7503069e+08
   1.8106035e-10  -5.9265261e-02   5.1406989e+00   5.1070687e-02  -2.7383163e+08
   1.8206069e-10  -5.8991946e-02   5.1295986e+00   5.2055847e-02  -2.7263590e+08
   1.8306102e-10  -5.8719825e-02   5.1184697e+00   5.3054534e-02  -2.7144351e+08
   1.8406135e-10  -5.8448895e-02   5.1073129e+00   5.4066819e-02  -2.7025450e+08
   1.8506169e-10  -5.8179153e-02   5.0961290e+00   5.5092770e-02  -2.6906889e+08
   1.8606202e-10  -5.7910595e-02   5.0849185e+00   5.6132454e-02  -2.6788668e+08
   1.8706235e-10  -5.7643218e-02   5.0736824e+00   5.7185935e-02  -2.6670791e+08
   1.8806269e-10  -5.7377018e-02   5.0624211e+00   5.8253277e-02  -2.6553258e+08
   1.8906302e-10  -5.7111992e-02   5.0511356e+00   5.9334540e-02  -2.6436073e+08
   1.9006335e-10  -5.6848137e-02   5.0398264e+00   6.0429785e-02  -2.6319236e+08
   1.9106369e-10  -5.6585448e-02   5.0284944e+00   6.1539067e-02  -2.6202750e+08
   1.9206402e-10  -5.6323923e-02   5.0171401e+00   6.2662445e-02  -2.6086617e+08
   1.9306435e-10  -5.6063557e-02   5.0057644e+00   6.3799970e-02  -2.5970837e+08
   1.9406469e-10  -5.5804348e-02   4.9943679e+00   6.4951695e-02  -2.5855414e+08
   1.9506502e-10  -5.5546292e-02   4.9829515e+00   6.6117670e-02  -2.5740348e+08
   1.9606536e-10  -5.5289385e-02   4.9715156e+00   6.7297943e-02  -2.5625642e+08
   1.9706569e-10  -5.5033623e-02   4.9600612e+00   6.8492560e-02  -2.5511296e+08
   1.9806602e-10  -5.4779004e-02   4.9485889e+00   6.9701565e-02  -2.5397313e+08
   1.9906636e-10  -5.4525522e-02   4.9370994e+00   7.0925001e-02  -2.5283694e+08
   2.0006669e-10  -5.4273176e-02   4.9255935e+00   7.2162907e-02  -2.5170441e+08
   2.0106702e-10  -5.4021960e-02   4.9140718e+00   7.3415321e-02  -2.5057554e+08
   2.0206736e-10  -5.3771871e-02   4.9025351e+00   7.4682281e-02  -2.4945036e+08
   2.0306769e-10  -5.3522907e-02   4.8909840e+00   7.5963819e-02  -2.4832888e+08
   2.0406802e-10  -5.3275062e-02   4.8794193e+00   7.7259968e-02  -2.4721111e+08
   2.0506836e-10  -5.3028333e-02   4.8678416e+00   7.8570759e-02  -2.4609707e+08
   2.0606869e-10  -5.2782717e-02   4.8562518e+00   7.9896218e-02  -2.4498676e+08
   2.0706902e-10  -5.2538209e-02   4.8446504e+00   8.1236373e-02  -2.4388021e+08
   2.0806936e-10  -5.2294807e-02   4.8330382e+00   8.2591247e-02  -2.4277741e+08
   2.0906969e-10  -5.2052505e-02   4.8214159e+00   8.3960861e-02  -2.4167840e+08
   2.1007002e-10  -5.1811301e-02   4.8097841e+00   8.5345236e-02  -2.4058316e+08
   2.1107036e-10  -5.1571191e-02   4.7981435e+00   8.6744389e-02  -2.3949173e+08
   2.1207069e-10  -5.1332170e-02   4.7864949e+00   8.8158335e-02  -2.3840410e+08
   2.1307102e-10  -5.1094236e-02   4.7748390e+00   8.9587090e-02  -2.3732030e+08
   2.1407136e-10  -5.0857383e-02   4.7631763e+00   9.1030662e-02  -2.3624031e+08
   2.1507169e-10  -5.0621609e-02   4.7515076e+00   9.2489063e-02  -2.3516417e+08
   2.1607202e-10  -5.0386910e-02   4.7398335e+00   9.3962300e-02  -2.3409188e+08
   2.1707236e-10  -5.0153281e-02   4.7281547e+00   9.5450377e-02  -2.3302343e+08
   2.1807269e-10  -4.9920719e-02   4.7164720e+00   9.6953297e-02  -2.3195886e+08
   2.1907302e-10  -4.9689220e-02   4.7047858e+00   9.8471062e-02  -2.3089815e+08
   2.2007336e-10  -4.9458780e-02   4.6930970e+00   1.0000367e-01  -2.2984133e+08
   2.2107369e-10  -4.9229395e-02   4.6814061e+00   1.0155112e-01  -2.2878839e+08
   2.2207402e-10  -4.9001061e-02   4.6697138e+00   1.0311341e-01  -2.2773935e+08
   2.2307436e-10  -4.8773775e-02   4.6580207e+00   1.0469052e-01  -2.2669420e+08
   2.2407469e-10  -4.8547532e-02   4.6463275e+00   1.0628245e-01  -2.2565296e+08
   2.2507503e-10  -4.8322328e-02   4.6346348e+00   1.0788919e-01  -2.2461564e+08
   2.2607536e-10  -4.8098161e-02   4.6229433e+00   1.0951073e-01  -2.2358223e+08
   2.2707569e-10  -4.7875025e-02   4.6112535e+00   1.1114704e-01  -2.2255275e+08
   2.2807603e-10  -4.7652917e-02   4.5995661e+00   1.1279812e-01  -2.2152720e+08
   2.2907636e-10  -4.7431832e-02   4.5878818e+00   1.1446393e-01  -2.2050557e+08
   2.3007669e-10  -4.7211768e-02   4.5762010e+00   1.1614447e-01  -2.1948789e+08
   2.3107703e-10  -4.6992720e-02   4.5645244e+00   1.1783971e-01  -2.1847414e+08
   2.3207736e-10  -4.6774683e-02   4.5528526e+00   1.1954962e-01  -2.1746434e+08
   2.3307769e-10  -4.6557655e-02   4.5411863e+00   1.2127417e-01  -2.1645849e+08
   2.3407803e-10  -4.6341631e-02   4.5295259e+00   1.2301334e-01  -2.1545658e+08
   2.3507836e-10  -4.6126607e-02   4.5178721e+00   1.2476709e-01  -2.1445863e+08
   2.3607869e-10  -4.5912579e-02   4.5062255e+00   1.2653540e-01  -2.1346463e+08
   2.3707903e-10  -4.5699544e-02   4.4945866e+00   1.2831822e-01  -2.1247458e+08
   2.3807936e-10  -4.5487497e-02   4.4829560e+00   1.3011552e-01  -2.1148850e+08
   2.3907969e-10  -4.5276434e-02   4.4713342e+00   1.3192727e-01  -2.1050637e+08
   2.4008003e-10  -4.5066352e-02   4.4597218e+00   1.3375341e-01  -2.0952820e+08
   2.4108036e-10  -4.4857246e-02   4.4481193e+00   1.3559391e-01  -2.0855399e+08
   2.4208069e-10  -4.4649113e-02   4.4365274e+00   1.3744873e-01  -2.0758374e+08
   2.4308103e-10  -4.4441948e-02   4.4249465e+00   1.3931781e-01  -2.0661745e+08
   2.4408136e-10  -4.4235748e-02   4.4133771e+00   1.4120112e-01  -2.0565511e+08
   2.4508169e-10  -4.4030508e-02   4.4018198e+00   1.4309859e-01  -2.0469674e+08
   2.4608203e-10  -4.3826225e-02   4.3902751e+00   1.4501019e-01  -2.0374232e+08
   2.4708236e-10  -4.3622895e-02   4.3787435e+00   1.4693585e-01  -2.0279185e+08
   2.4808269e-10  -4.3420514e-02   4.3672255e+00   1.4887552e-01  -2.0184534e+08
   2.4908303e-10  -4.3219077e-02   4.3557216e+00   1.5082915e-01  -2.0090278e+08
   2.5008336e-10  -4.3018581e-02   4.3442323e+00   1.5279667e-01  -1.9996417e+08
   2.5108369e-10  -4.2819022e-02   4.3327581e+00   1.5477803e-01  -1.9902950e+08
   2.5208403e-10  -4.2620396e-02   4.3212994e+00   1.5677317e-01  -1.9809878e+08
   2.5308436e-10  -4.2422699e-02   4.3098568e+00   1.5878202e-01  -1.9717200e+08
   2.5408469e-10  -4.2225927e-02   4.2984307e+00   1.6080452e-01  -1.9624916e+08
   2.5508503e-10  -4.2030077e-02   4.2870216e+00   1.6284061e-01  -1.9533024e+08
   2.5608536e-10  -4.1835143e-02   4.2756298e+00   1.6489021e-01  -1.9441526e+08
   2.5708570e-10  -4.1641123e-02   4.2642560e+00   1.6695325e-01  -1.9350420e+08
   2.5808603e-10  -4.1448012e-02   4.2529004e+00   1.6902967e-01  -1.9259706e+08
   2.5908636e-10  -4.1255806e-02   4.2415636e+00   1.7111940e-01  -1.9169384e+08
   2.6008670e-10  -4.1064502e-02   4.2302459e+00   1.7322235e-01  -1.9079453e+08
   2.6108703e-10  -4.0874096e-02   4.2189478e+00   1.7533846e-01  -1.8989912e+08
   2.6208736e-10  -4.0684583e-02   4.2076698e+00   1.7746765e-01  -1.8900761e+08
   2.6308770e-10  -4.0495961e-02   4.1964121e+00   1.7960985e-01  -1.8811999e+08
   2.6408803e-10  -4.0308224e-02   4.1851753e+00   1.8176496e-01  -1.8723627e+08
   2.6508836e-10  -4.0121369e-02   4.1739596e+00   1.8393292e-01  -1.8635642e+08
   2.6608870e-10  -3.9935392e-02   4.1627656e+00   1.8611364e-01  -1.8548045e+08
   2.6708903e-10  -3.9750290e-02   4.1515935e+00   1.8830704e-01  -1.8460835e+08
   2.6808936e-10  -3.9566058e-02   4.1404438e+00   1.9051303e-01  -1.8374010e+08
   2.6908970e-10  -3.9382692e-02   4.1293168e+00   1.9273153e-01  -1.8287571e+08
   2.7009003e-10  -3.9200189e-02   4.1182129e+00   1.9496245e-01  -1.8201517e+08
   2.7109036e-10  -3.9018545e-02   4.1071325e+00   1.9720571e-01  -1.8115847e+08
   2.7209070e-10  -3.8837756e-02   4.0960758e+00   1.9946122e-01  -1.8030560e+08
   2.7309103e-10  -3.8657819e-02   4.0850433e+00   2.0172888e-01  -1.7945655e+08
   2.7409136e-10  -3.8478729e-02   4.0740353e+00   2.0400861e-01  -1.7861132e+08
   2.7509170e-10  -3.8300482e-02   4.0630521e+00   2.0630032e-01  -1.7776989e+08
   2.7609203e-10  -3.8123075e-02   4.0520940e+00   2.0860390e-01  -1.7693226e+08
   2.7709236e-10  -3.7946504e-02   4.0411614e+00   2.1091928e-01  -1.7609843e+08
   2.7809270e-10  -3.7770765e-02   4.0302545e+00   2.1324634e-01  -1.7526837e+08
   2.7909303e-10  -3.7595855e-02   4.0193738e+00   2.1558500e-01  -1.7444208e+08
   2.8009336e-10  -3.7421769e-02   4.0085194e+00   2.1793517e-01  -1.7361956e+08
   2.8109370e-10  -3.7248504e-02   3.9976916e+00   2.2029673e-01  -1.7280079e+08
   2.8209403e-10  -3.7076056e-02   3.9868909e+00   2.2266960e-01  -1.7198576e+08
   2.8309436e-10  -3.6904422e-02   3.9761174e+00   2.2505367e-01  -1.7117446e+08
   2.8409470e-10  -3.6733597e-02   3.9653714e+00   2.2744884e-01  -1.7036689e+08
   2.8509503e-10  -3.6563579e-02   3.9546532e+00   2.2985502e-01  -1.6956303e+08
   2.8609537e-10  -3.6394362e-02   3.9439630e+00   2.3227210e-01  -1.6876288e+08
   2.8709570e-10  -3.6225944e-02   3.9333012e+00   2.3469997e-01  -1.6796642e+08
   2.8809603e-10  -3.6058321e-02   3.9226679e+00   2.3713854e-01  -1.6717364e+08
   2.8909637e-10  -3.5891489e-02   3.9120635e+00   2.3958771e-01  -1.6638453e+08
   2.9009670e-10  -3.5725445e-02   3.9014881e+00   2.4204735e-01  -1.6559908e+08
   2.9109703e-10  -3.5560184e-02   3.8909420e+00   2.4451738e-01  -1.6481728e+08
   2.9209737e-10  -3.5395704e-02   3.8804254e+00   2.4699768e-01  -1.6403912e+08
   2.9309770e-10  -3.5232000e-02   3.8699386e+00   2.4948816e-01  -1.6326459e+08
   2.9409803e-10  -3.5069069e-02   3.8594817e+00   2.5198869e-01  -1.6249368e+08
   2.9509837e-10  -3.4906908e-02   3.8490550e+00   2.5449917e-01  -1.6172637e+08
   2.9609870e-10  -3.4745512e-02   3.8386587e+00   2.5701950e-01  -1.6096265e+08
   2.9709903e-10  -3.4584879e-02   3.8282930e+00   2.5954956e-01  -1.6020251e+08
   2.9809937e-10  -3.4425004e-02   3.8179581e+00   2.6208926e-01  -1.5944595e+08
   2.9909970e-10  -3.4265883e-02   3.8076542e+00   2.6463846e-01  -1.5869294e+08
   3.0010003e-10  -3.4107515e-02   3.7973814e+00   2.6719708e-01  -1.5794348e+08
   3.0110037e-10  -3.3949894e-02   3.7871400e+00   2.6976499e-01  -1.5719755e+08
   3.0210070e-10  -3.3793018e-02   3.7769301e+00   2.7234208e-01  -1.5645515e+08
   3.0310103e-10  -3.3636883e-02   3.7667519e+00   2.7492825e-01  -1.5571626e+08
   3.0410137e-10  -3.3481485e-02   3.7566056e+00   2.7752338e-01  -1.5498086e+08
   3.0510170e-10  -3.3326820e-02   3.7464913e+00   2.8012736e-01  -1.5424895e+08
   3.0610203e-10  -3.3172887e-02   3.7364092e+00   2.8274008e-01  -1.5352051e+08
   3.0710237e-10  -3.3019680e-02   3.7263593e+00   2.8536142e-01  -1.5279553e+08
   3.0810270e-10  -3.2867196e-02   3.7163420e+00   2.8799127e-01  -1.5207399e+08
   3.0910303e-10  -3.2715433e-02   3.7063573e+00   2.9062952e-01  -1.5135589e+08
   3.1010337e-10  -3.2564386e-02   3.6964053e+00   2.9327606e-01  -1.5064122e+08
   3.1110370e-10  -3.2414053e-02   3.6864863e+00   2.9593076e-01  -1.4992995e+08
   3.1210403e-10  -3.2264429e-02   3.6766002e+00   2.9859353e-01  -1.4922208e+08
   3.1310437e-10  -3.2115512e-02   3.6667473e+00   3.0126423e-01  -1.4851759e+08
   3.1410470e-10  -3.1967297e-02   3.6569276e+00   3.0394277e-01  -1.4781648e+08
   3.1510504e-10  -3.1819782e-02   3.6471413e+00   3.0662902e-01  -1.4711872e+08
   3.1610537e-10  -3.1672964e-02   3.6373885e+00   3.0932287e-01  -1.4642430e+08
   3.1710570e-10  -3.1526838e-02   3.6276692e+00   3.1202421e-01  -1.4573321e+08
   3.1810604e-10  -3.1381403e-02   3.6179837e+00   3.1473292e-01  -1.4504545e+08
   3.1910637e-10  -3.1236653e-02   3.6083319e+00   3.1744889e-01  -1.4436098e+08
   3.2010670e-10  -3.1092587e-02   3.5987139e+00   3.2017199e-01  -1.4367981e+08
   3.2110704e-10  -3.0949200e-02   3.5891300e+00   3.2290213e-01  -1.4300191e+08
   3.2210737e-10  -3.0806490e-02   3.5795801e+00   3.2563918e-01  -1.4232728e+08
   3.2310770e-10  -3.0664452e-02   3.5700642e+00   3.2838303e-01  -1.4165590e+08
   3.2410804e-10  -3.0523085e-02   3.5605826e+00   3.3113356e-01  -1.4098776e+08
   3.2510837e-10  -3.0382385e-02   3.5511353e+00   3.3389066e-01  -1.4032284e+08
   3.2610870e-10  -3.0242348e-02   3.5417223e+00   3.3665422e-01  -1.3966113e+08
   3.2710904e-10  -3.0102971e-02   3.5323437e+00   3.3942411e-01  -1.3900262e+08
   3.2810937e-10  -2.9964252e-02   3.5229995e+00   3.4220024e-01  -1.3834729e+08
   3.2910970e-10  -2.9826186e-02   3.5136899e+00   3.4498247e-01  -1.3769514e+08
   3.3011004e-10  -2.9688772e-02   3.5044148e+00   3.4777071e-01  -1.3704614e+08
   3.3111037e-10  -2.9552005e-02   3.4951744e+00   3.5056483e-01  -1.3640028e+08
   3.3211070e-10  -2.9415882e-02   3.4859686e+00   3.5336472e-01  -1.3575755e+08
   3.3311104e-10  -2.9280401e-02   3.4767975e+00   3.5617026e-01  -1.3511793e+08
   3.3411137e-10  -2.9145558e-02   3.4676612e+00   3.5898135e-01  -1.3448142e+08
   3.3511170e-10  -2.9011350e-02   3.4585596e+00   3.6179788e-01  -1.3384799e+08
   3.3611204e-10  -2.8877774e-02   3.4494929e+00   3.6461972e-01  -1.3321764e+08
   3.3711237e-10  -2.8744827e-02   3.4404610e+00   3.6744676e-01  -1.3259035e+08
   3.3811270e-10  -2.8612507e-02   3.4314639e+00   3.7027890e-01  -1.3196611e+08
   3.3911304e-10  -2.8480809e-02   3.4225018e+00   3.7311602e-01  -1.3134490e+08
   3.4011337e-10  -2.8349731e-02   3.4135745e+00   3.7595801e-01  -1.3072671e+08
   3.4111370e-10  -2.8219270e-02   3.4046822e+00   3.7880476e-01  -1.3011153e+08
   3.4211404e-10  -2.8089422e-02   3.3958248e+00   3.8165615e-01  -1.2949934e+08
   3.4311437e-10  -2.7960186e-02   3.3870023e+00   3.8451208e-01  -1.2889013e+08
   3.4411470e-10  -2.7831557e-02   3.3782148e+00   3.8737243e-01  -1.2828388e+08
   3.4511504e-10  -2.7703534e-02   3.3694623e+00   3.9023710e-01  -1.2768059e+08
   3.4611537e-10  -2.7576113e-02   3.3607447e+00   3.9310598e-01  -1.2708023e+08
   3.4711571e-10  -2.7449290e-02   3.3520620e+00   3.9597895e-01  -1.2648280e+08
   3.4811604e-10  -2.7323064e-02   3.3434143e+00   3.9885590e-01  -1.2588828e+08
   3.4911637e-10  -2.7197431e-02   3.3348016e+00   4.0173674e-01  -1.2529666e+08
   3.5011671e-10  -2.7072388e-02   3.3262237e+00   4.0462134e-01  -1.2470792e+08
   3.5111704e-10  -2.6947933e-02   3.3176808e+00   4.0750960e-01  -1.2412205e+08
   3.5211737e-10  -2.6824063e-02   3.3091728e+00   4.1040142e-01  -1.2353903e+08
   3.5311771e-10  -2.6700774e-02   3.3006996e+00   4.1329669e-01  -1.2295886e+08
   3.5411804e-10  -2.6578064e-02   3.2922614e+00   4.1619529e-01  -1.2238152e+08
   3.5511837e-10  -2.6455930e-02   3.2838579e+00   4.1909713e-01  -1.2180700e+08
   3.5611871e-10  -2.6334370e-02   3.2754893e+00   4.2200210e-01  -1.2123528e+08
   3.5711904e-10  -2.6213380e-02   3.2671555e+00   4.2491009e-01  -1.2066634e+08
   3.5811937e-10  -2.6092958e-02   3.2588564e+00   4.2782099e-01  -1.2010019e+08
   3.5911971e-10  -2.5973101e-02   3.2505921e+00   4.3073471e-01  -1.1953680e+08
   3.6012004e-10  -2.5853806e-02   3.2423624e+00   4.3365114e-01  -1.1897615e+08
   3.6112037e-10  -2.5735070e-02   3.2341674e+00   4.3657018e-01  -1.1841824e+08
   3.6212071e-10  -2.5616891e-02   3.2260070e+00   4.3949172e-01  -1.1786306e+08
   3.6312104e-10  -2.5499266e-02   3.2178812e+00   4.4241566e-01  -1.1731059e+08
   3.6412137e-10  -2.5382193e-02   3.2097899e+00   4.4534190e-01  -1.1676081e+08
   3.6512171e-10  -2.5265668e-02   3.2017331e+00   4.4827034e-01  -1.1621371e+08
   3.6612204e-10  -2.5149689e-02   3.1937108e+00   4.5120087e-01  -1.1566929e+08
   3.6712237e-10  -2.5034253e-02   3.1857228e+00   4.5413340e-01  -1.1512752e+08
   3.6812271e-10  -2.4919358e-02   3.1777692e+00   4.5706783e-01  -1.1458839e+08
   3.6912304e-10  -2.4805000e-02   3.1698499e+00   4.6000406e-01  -1.1405190e+08
   3.7012337e-10  -2.4691179e-02   3.1619648e+00   4.6294199e-01  -1.1351803e+08
   3.7112371e-10  -2.4577889e-02   3.1541138e+00   4.6588151e-01  -1.1298676e+08
   3.7212404e-10  -2.4465130e-02   3.1462970e+00   4.6882254e-01  -1.1245808e+08
   3.7312437e-10  -2.4352899e-02   3.1385143e+00   4.7176498e-01  -1.1193198e+08
   3.7412471e-10  -2.4241193e-02   3.1307656e+00   4.7470873e-01  -1.1140845e+08
   3.7512504e-10  -2.4130009e-02   3.1230507e+00   4.7765370e-01  -1.1088747e+08
   3.7612538e-10  -2.4019344e-02   3.1153698e+00   4.8059978e-01  -1.1036903e+08
   3.7712571e-10  -2.3909198e-02   3.1077227e+00   4.8354689e-01  -1.0985312e+08
   3.7812604e-10  -2.3799566e-02   3.1001093e+00   4.8649493e-01  -1.0933973e+08
   3.7912638e-10  -2.3690446e-02   3.0925296e+00   4.8944381e-01  -1.0882884e+08
   3.8012671e-10  -2.3581836e-02   3.0849834e+00   4.9239344e-01  -1.0832044e+08
   3.8112704e-10  -2.3473733e-02   3.0774709e+00   4.9534372e-01  -1.0781452e+08
   3.8212738e-10  -2.3366136e-02   3.0699917e+00   4.9829456e-01  -1.0731106e+08
   3.8312771e-10  -2.3259040e-02   3.0625459e+00   5.0124587e-01  -1.0681006e+08
   3.8412804e-10  -2.3152445e-02   3.0551335e+00   5.0419756e-01  -1.0631149e+08
   3.8512838e-10  -2.3046347e-02   3.0477542e+00   5.0714955e-01  -1.0581536e+08
   3.8612871e-10  -2.2940744e-02   3.0404082e+00   5.1010173e-01  -1.0532164e+08
   3.8712904e-10  -2.2835634e-02   3.0330951e+00   5.1305403e-01  -1.0483033e+08
   3.8812938e-10  -2.2731014e-02   3.0258151e+00   5.1600636e-01  -1.0434140e+08
   3.8912971e-10  -2.2626882e-02   3.0185680e+00   5.1895862e-01  -1.0385486e+08
   3.9013004e-10  -2.2523236e-02   3.0113537e+00   5.2191074e-01  -1.0337068e+08
   3.9113038e-10  -2.2420073e-02   3.0041721e+00   5.2486263e-01  -1.0288886e+08
   3.9213071e-10  -2.2317390e-02   2.9970232e+00   5.2781420e-01  -1.0240939e+08
   3.9313104e-10  -2.2215186e-02   2.9899068e+00   5.3076536e-01  -1.0193224e+08
   3.9413138e-10  -2.2113458e-02   2.9828229e+00   5.3371604e-01  -1.0145741e+08
   3.9513171e-10  -2.2012204e-02   2.9757714e+00   5.3666615e-01  -1.0098489e+08
   3.9613204e-10  -2.1911421e-02   2.9687522e+00   5.3961560e-01  -1.0051467e+08
   3.9713238e-10  -2.1811108e-02   2.9617652e+00   5.4256433e-01  -1.0004673e+08
   3.9813271e-10  -2.1711262e-02   2.9548103e+00   5.4551223e-01  -9.9581067e+07
   3.9913304e-10  -2.1611880e-02   2.9478875e+00   5.4845925e-01  -9.9117662e+07
   4.0013338e-10  -2.1512960e-02   2.9409966e+00   5.5140528e-01  -9.8656506e+07
   4.0113371e-10  -2.1414501e-02   2.9341375e+00   5.5435026e-01  -9.8197588e+07
   4.0213404e-10  -2.1316500e-02   2.9273101e+00   5.5729411e-01  -9.7740896e+07
   4.0313438e-10  -2.1218955e-02   2.9205145e+00   5.6023675e-01  -9.7286418e+07
   4.0413471e-10  -2.1121863e-02   2.9137503e+00   5.6317810e-01  -9.6834144e+07
   4.0513505e-10  -2.1025222e-02   2.9070176e+00   5.6611808e-01  -9.6384063e+07
   4.0613538e-10  -2.0929031e-02   2.9003163e+00   5.6905662e-01  -9.5936162e+07
   4.0713571e-10  -2.0833286e-02   2.8936462e+00   5.7199365e-01  -9.5490430e+07
   4.0813605e-10  -2.0737987e-02   2.8870073e+00   5.7492908e-01  -9.5046857e+07
   4.0913638e-10  -2.0643129e-02   2.8803994e+00   5.7786286e-01  -9.4605432e+07
   4.1013671e-10  -2.0548713e-02   2.8738225e+00   5.8079489e-01  -9.4166143e+07
   4.1113705e-10  -2.0454735e-02   2.8672765e+00   5.8372511e-01  -9.3728978e+07
   4.1213738e-10  -2.0361193e-02   2.8607612e+00   5.8665345e-01  -9.3293929e+07
   4.1313771e-10  -2.0268085e-02   2.8542765e+00   5.8957984e-01  -9.2860982e+07
   4.1413805e-10  -2.0175409e-02   2.8478224e+00   5.9250420e-01  -9.2430128e+07
   4.1513838e-10  -2.0083163e-02   2.8413988e+00   5.9542647e-01  -9.2001356e+07
   4.1613871e-10  -1.9991345e-02   2.8350055e+00   5.9834657e-01  -9.1574655e+07
   4.1713905e-10  -1.9899953e-02   2.8286424e+00   6.0126444e-01  -9.1150014e+07
   4.1813938e-10  -1.9808985e-02   2.8223095e+00   6.0418001e-01  -9.0727423e+07
   4.1913971e-10  -1.9718438e-02   2.8160066e+00   6.0709322e-01  -9.0306870e+07
   4.2014005e-10  -1.9628311e-02   2.8097336e+00   6.1000399e-01  -8.9888347e+07
   4.2114038e-10  -1.9538601e-02   2.8034904e+00   6.1291226e-01  -8.9471841e+07
   4.2214071e-10  -1.9449308e-02   2.7972770e+00   6.1581797e-01  -8.9057343e+07
   4.2314105e-10  -1.9360428e-02   2.7910931e+00   6.1872104e-01  -8.8644842e+07
   4.2414138e-10  -1.9271959e-02   2.7849387e+00   6.2162143e-01  -8.8234328e+07
   4.2514171e-10  -1.9183900e-02   2.7788138e+00   6.2451905e-01  -8.7825791e+07
   4.2614205e-10  -1.9096249e-02   2.7727181e+00   6.2741386e-01  -8.7419221e+07
   4.2714238e-10  -1.9009004e-02   2.7666516e+00   6.3030578e-01  -8.7014606e+07
   4.2814271e-10  -1.8922162e-02   2.7606141e+00   6.3319476e-01  -8.6611938e+07
   4.2914305e-10  -1.8835722e-02   2.7546056e+00   6.3608074e-01  -8.6211206e+07
   4.3014338e-10  -1.8749682e-02   2.7486260e+00   6.3896365e-01  -8.5812400e+07
   4.3114371e-10  -1.8664040e-02   2.7426751e+00   6.4184345e-01  -8.5415510e+07
   4.3214405e-10  -1.8578794e-02   2.7367528e+00   6.4472005e-01  -8.5020527e+07
   4.3314438e-10  -1.8493943e-02   2.7308590e+00   6.4759342e-01  -8.4627440e+07
   4.3414471e-10  -1.8409483e-02   2.7249937e+00   6.5046349e-01  -8.4236239e+07
   4.3514505e-10  -1.8325414e-02   2.7191566e+00   6.5333021e-01  -8.3846916e+07
   4.3614538e-10  -1.8241733e-02   2.7133478e+00   6.5619351e-01  -8.3459459e+07
   4.3714572e-10  -1.8158440e-02   2.7075670e+00   6.5905335e-01  -8.3073860e+07
   4.3814605e-10  -1.8075530e-02   2.7018142e+00   6.6190967e-01  -8.2690110e+07
   4.3914638e-10  -1.7993004e-02   2.6960892e+00   6.6476241e-01  -8.2308197e+07
   4.4014672e-10  -1.7910859e-02   2.6903920e+00   6.6761152e-01  -8.1928114e+07
   4.4114705e-10  -1.7829093e-02   2.6847224e+00   6.7045695e-01  -8.1549850e+07
   4.4214738e-10  -1.7747705e-02   2.6790804e+00   6.7329865e-01  -8.1173396e+07
   4.4314772e-10  -1.7666693e-02   2.6734657e+00   6.7613656e-01  -8.0798743e+07
   4.4414805e-10  -1.7586054e-02   2.6678784e+00   6.7897063e-01  -8.0425881e+07
   4.4514838e-10  -1.7505787e-02   2.6623183e+00   6.8180081e-01  -8.0054802e+07
   4.4614872e-10  -1.7425891e-02   2.6567852e+00   6.8462705e-01  -7.9685496e+07
   4.4714905e-10  -1.7346363e-02   2.6512791e+00   6.8744931e-01  -7.9317953e+07
   4.4814938e-10  -1.7267202e-02   2.6457999e+00   6.9026753e-01  -7.8952166e+07
   4.4914972e-10  -1.7188406e-02   2.6403474e+00   6.9308166e-01  -7.8588124e+07
   4.5015005e-10  -1.7109973e-02   2.6349216e+00   6.9589166e-01  -7.8225820e+07
   4.5115038e-10  -1.7031902e-02   2.6295223e+00   6.9869748e-01  -7.7865243e+07
   4.5215072e-10  -1.6954191e-02   2.6241494e+00   7.0149908e-01  -7.7506385e+07
   4.5315105e-10  -1.6876838e-02   2.6188028e+00   7.0429640e-01  -7.7149238e+07
   4.5415138e-10  -1.6799841e-02   2.6134824e+00   7.0708941e-01  -7.6793792e+07
   4.5515172e-10  -1.6723199e-02   2.6081880e+00   7.0987806e-01  -7.6440038e+07
   4.5615205e-10  -1.6646910e-02   2.6029197e+00   7.1266230e-01  -7.6087969e+07
   4.5715238e-10  -1.6570972e-02   2.5976772e+00   7.1544209e-01  -7.5737575e+07
   4.5815272e-10  -1.6495384e-02   2.5924604e+00   7.1821739e-01  -7.5388848e+07
   4.5915305e-10  -1.6420144e-02   2.5872693e+00   7.2098815e-01  -7.5041779e+07
   4.6015338e-10  -1.6345251e-02   2.5821037e+00   7.2375434e-01  -7.4696359e+07
   4.6115372e-10  -1.6270702e-02   2.5769636e+00   7.2651592e-01  -7.4352581e+07
   4.6215405e-10  -1.6196496e-02   2.5718487e+00   7.2927283e-01  -7.4010436e+07
   4.6315438e-10  -1.6122632e-02   2.5667590e+00   7.3202505e-01  -7.3669916e+07
   4.6415472e-10  -1.6049107e-02   2.5616945e+00   7.3477253e-01  -7.3331011e+07
   4.6515505e-10  -1.5975921e-02   2.5566549e+00   7.3751523e-01  -7.2993715e+07
   4.6615539e-10  -1.5903071e-02   2.5516401e+00   7.4025313e-01  -7.2658018e+07
   4.6715572e-10  -1.5830556e-02   2.5466501e+00   7.4298616e-01  -7.2323913e+07
   4.6815605e-10  -1.5758375e-02   2.5416848e+00   7.4571431e-01  -7.1991391e+07
   4.6915639e-10  -1.5686525e-02   2.5367440e+00   7.4843754e-01  -7.1660445e+07
   4.7015672e-10  -1.5615006e-02   2.5318276e+00   7.5115580e-01  -7.1331066e+07
   4.7115705e-10  -1.5543815e-02   2.5269356e+00   7.5386906e-01  -7.1003246e+07
   4.7215739e-10  -1.5472952e-02   2.5220678e+00   7.5657729e-01  -7.0676977e+07
   4.7315772e-10  -1.5402414e-02   2.5172240e+00   7.5928045e-01  -7.0352253e+07
   4.7415805e-10  -1.5332201e-02   2.5124043e+00   7.6197852e-01  -7.0029063e+07
   4.7515839e-10  -1.5262309e-02   2.5076084e+00   7.6467144e-01  -6.9707402e+07
   4.7615872e-10  -1.5192739e-02   2.5028363e+00   7.6735920e-01  -6.9387260e+07
   4.7715905e-10  -1.5123488e-02   2.4980879e+00   7.7004176e-01  -6.9068631e+07
   4.7815939e-10  -1.5054556e-02   2.4933630e+00   7.7271908e-01  -6.8751507e+07
   4.7915972e-10  -1.4985939e-02   2.4886616e+00   7.7539115e-01  -6.8435880e+07
   4.8016005e-10  -1.4917638e-02   2.4839836e+00   7.7805791e-01  -6.8121742e+07
   4.8116039e-10  -1.4849650e-02   2.4793288e+00   7.8071935e-01  -6.7809086e+07
   4.8216072e-10  -1.4781975e-02   2.4746971e+00   7.8337544e-01  -6.7497904e+07
   4.8316105e-10  -1.4714610e-02   2.4700884e+00   7.8602614e-01  -6.7188189e+07
   4.8416139e-10  -1.4647553e-02   2.4655027e+00   7.8867143e-01  -6.6879934e+07
   4.8516172e-10  -1.4580805e-02   2.4609397e+00   7.9131128e-01  -6.6573131e+07
   4.8616205e-10  -1.4514363e-02   2.4563995e+00   7.9394565e-01  -6.6267772e+07
   4.8716239e-10  -1.4448225e-02   2.4518819e+00   7.9657453e-01  -6.5963851e+07
   4.8816272e-10  -1.4382391e-02   2.4473868e+00   7.9919788e-01  -6.5661361e+07
   4.8916305e-10  -1.4316858e-02   2.4429140e+00   8.0181569e-01  -6.5360293e+07
   4.9016339e-10  -1.4251627e-02   2.4384636e+00   8.0442791e-01  -6.5060641e+07
   4.9116372e-10  -1.4186694e-02   2.4340353e+00   8.0703454e-01  -6.4762398e+07
   4.9216405e-10  -1.4122058e-02   2.4296292e+00   8.0963553e-01  -6.4465556e+07
   4.9316439e-10  -1.4057719e-02   2.4252450e+00   8.1223087e-01  -6.4170109e+07
   4.9416472e-10  -1.3993675e-02   2.4208826e+00   8.1482054e-01  -6.3876050e+07
   4.9516506e-10  -1.3929925e-02   2.4165421e+00   8.1740450e-01  -6.3583371e+07
   4.9616539e-10  -1.3866466e-02   2.4122232e+00   8.1998274e-01  -6.3292066e+07
   4.9716572e-10  -1.3803298e-02   2.4079258e+00   8.2255524e-01  -6.3002127e+07
   4.9816606e-10  -1.3740420e-02   2.4036499e+00   8.2512196e-01  -6.2713548e+07
   4.9916639e-10  -1.3677829e-02   2.3993954e+00   8.2768290e-01  -6.2426323e+07
   5.0016672e-10  -1.3615525e-02   2.3951622e+00   8.3023802e-01  -6.2140443e+07
   5.0116706e-10  -1.3553507e-02   2.3909501e+00   8.3278731e-01  -6.1855904e+07
   5.0216739e-10  -1.3491772e-02   2.3867590e+00   8.3533074e-01  -6.1572697e+07
   5.0316772e-10  -1.3430320e-02   2.3825889e+00   8.3786830e-01  -6.1290816e+07
   5.0416806e-10  -1.3369149e-02   2.3784397e+00   8.4039997e-01  -6.1010255e+07
   5.0516839e-10  -1.3308259e-02   2.3743112e+00   8.4292572e-01  -6.0731007e+07
   5.0616872e-10  -1.3247647e-02   2.3702033e+00   8.4544554e-01  -6.0453065e+07
   5.0716906e-10  -1.3187312e-02   2.3661161e+00   8.4795941e-01  -6.0176423e+07
   5.0816939e-10  -1.3127254e-02   2.3620492e+00   8.5046731e-01  -5.9901074e+07
   5.0916972e-10  -1.3067470e-02   2.3580027e+00   8.5296922e-01  -5.9627013e+07
   5.1017006e-10  -1.3007960e-02   2.3539765e+00   8.5546512e-01  -5.9354232e+07
   5.1117039e-10  -1.2948722e-02   2.3499705e+00   8.5795501e-01  -5.9082725e+07
   5.1217072e-10  -1.2889755e-02   2.3459845e+00   8.6043886e-01  -5.8812486e+07
   5.1317106e-10  -1.2831057e-02   2.3420184e+00   8.6291665e-01  -5.8543509e+07
   5.1417139e-10  -1.2772628e-02   2.3380723e+00   8.6538837e-01  -5.8275787e+07
   5.1517172e-10  -1.2714467e-02   2.3341459e+00   8.6785401e-01  -5.8009314e+07
   5.1617206e-10  -1.2656571e-02   2.3302392e+00   8.7031355e-01  -5.7744084e+07
   5.1717239e-10  -1.2598940e-02   2.3263520e+00   8.7276698e-01  -5.7480090e+07
   5.1817272e-10  -1.2541572e-02   2.3224844e+00   8.7521427e-01  -5.7217328e+07
   5.1917306e-10  -1.2484467e-02   2.3186361e+00   8.7765542e-01  -5.6955789e+07
   5.2017339e-10  -1.2427622e-02   2.3148071e+00   8.8009042e-01  -5.6695470e+07
   5.2117372e-10  -1.2371038e-02   2.3109973e+00   8.8251925e-01  -5.6436362e+07
   5.2217406e-10  -1.2314712e-02   2.3072066e+00   8.8494189e-01  -5.6178461e+07
   5.2317439e-10  -1.2258643e-02   2.3034350e+00   8.8735834e-01  -5.5921761e+07
   5.2417472e-10  -1.2202831e-02   2.2996822e+00   8.8976858e-01  -5.5666255e+07
   5.2517506e-10  -1.2147274e-02   2.2959483e+00   8.9217261e-01  -5.5411938e+07
   5.2617539e-10  -1.2091970e-02   2.2922330e+00   8.9457041e-01  -5.5158804e+07
   5.2717573e-10  -1.2036919e-02   2.2885365e+00   8.9696196e-01  -5.4906846e+07
   5.2817606e-10  -1.1982119e-02   2.2848584e+00   8.9934727e-01  -5.4656060e+07
   5.2917639e-10  -1.1927570e-02   2.2811989e+00   9.0172631e-01  -5.4406440e+07
   5.3017673e-10  -1.1873270e-02   2.2775577e+00   9.0409908e-01  -5.4157979e+07
   5.3117706e-10  -1.1819218e-02   2.2739347e+00   9.0646557e-01  -5.3910672e+07
   5.3217739e-10  -1.1765413e-02   2.2703299e+00   9.0882577e-01  -5.3664513e+07
   5.3317773e-10  -1.1711853e-02   2.2667433e+00   9.1117967e-01  -5.3419497e+07
   5.3417806e-10  -1.1658538e-02   2.2631746e+00   9.1352727e-01  -5.3175619e+07
   5.3517839e-10  -1.1605466e-02   2.2596238e+00   9.1586854e-01  -5.2932872e+07
   5.3617873e-10  -1.1552637e-02   2.2560909e+00   9.1820350e-01  -5.2691251e+07
   5.3717906e-10  -1.1500048e-02   2.2525757e+00   9.2053212e-01  -5.2450750e+07
   5.3817939e-10  -1.1447700e-02   2.2490781e+00   9.2285440e-01  -5.2211364e+07
   5.3917973e-10  -1.1395591e-02   2.2455981e+00   9.2517034e-01  -5.1973089e+07
   5.4018006e-10  -1.1343719e-02   2.2421355e+00   9.2747992e-01  -5.1735917e+07
   5.4118039e-10  -1.1292084e-02   2.2386903e+00   9.2978315e-01  -5.1499844e+07
   5.4218073e-10  -1.1240685e-02   2.2352624e+00   9.3208000e-01  -5.1264864e+07
   5.4318106e-10  -1.1189520e-02   2.2318518e+00   9.3437049e-01  -5.1030973e+07
   5.4418139e-10  -1.1138589e-02   2.2284582e+00   9.3665460e-01  -5.0798164e+07
   5.4518173e-10  -1.1087889e-02   2.2250817e+00   9.3893233e-01  -5.0566433e+07
   5.4618206e-10  -1.1037422e-02   2.2217221e+00   9.4120367e-01  -5.0335775e+07
   5.4718239e-10  -1.0987184e-02   2.2183794e+00   9.4346862e-01  -5.0106183e+07
   5.4818273e-10  -1.0937176e-02   2.2150535e+00   9.4572718e-01  -4.9877653e+07
   5.4918306e-10  -1.0887395e-02   2.2117442e+00   9.4797933e-01  -4.9650180e+07
   5.5018339e-10  -1.0837842e-02   2.2084516e+00   9.5022508e-01  -4.9423758e+07
   5.5118373e-10  -1.0788515e-02   2.2051755e+00   9.5246442e-01  -4.9198384e+07
   5.5218406e-10  -1.0739412e-02   2.2019158e+00   9.5469735e-01  -4.8974050e+07
   5.5318439e-10  -1.0690534e-02   2.1986725e+00   9.5692387e-01  -4.8750753e+07
   5.5418473e-10  -1.0641878e-02   2.1954455e+00   9.5914397e-01  -4.8528487e+07
   5.5518506e-10  -1.0593444e-02   2.1922346e+00   9.6135765e-01  -4.8307248e+07
   5.5618540e-10  -1.0545231e-02   2.1890399e+00   9.6356491e-01  -4.8087030e+07
   5.5718573e-10  -1.0497238e-02   2.1858612e+00   9.6576575e-01  -4.7867828e+07
   5.5818606e-10  -1.0449463e-02   2.1826985e+00   9.6796016e-01  -4.7649639e+07
   5.5918640e-10  -1.0401907e-02   2.1795516e+00   9.7014814e-01  -4.7432455e+07
   5.6018673e-10  -1.0354567e-02   2.1764205e+00   9.7232970e-01  -4.7216274e+07
   5.6118706e-10  -1.0307442e-02   2.1733051e+00   9.7450483e-01  -4.7001090e+07
   5.6218740e-10  -1.0260533e-02   2.1702054e+00   9.7667353e-01  -4.6786898e+07
   5.6318773e-10  -1.0213837e-02   2.1671212e+00   9.7883580e-01  -4.6573693e+07
   5.6418806e-10  -1.0167354e-02   2.1640524e+00   9.8099164e-01  -4.6361471e+07
   5.6518840e-10  -1.0121083e-02   2.1609991e+00   9.8314105e-01  -4.6150227e+07
   5.6618873e-10  -1.0075023e-02   2.1579611e+00   9.8528403e-01  -4.5939956e+07
   5.6718906e-10  -1.0029172e-02   2.1549383e+00   9.8742058e-01  -4.5730654e+07
   5.6818940e-10  -9.9835309e-03   2.1519307e+00   9.8955070e-01  -4.5522315e+07
   5.6918973e-10  -9.9380973e-03   2.1489381e+00   9.9167439e-01  -4.5314936e+07
   5.7019006e-10  -9.8928706e-03   2.1459605e+00   9.9379166e-01  -4.5108512e+07
   5.7119040e-10  -9.8478500e-03   2.1429979e+00   9.9590250e-01  -4.4903038e+07
   5.7219073e-10  -9.8030344e-03   2.1400501e+00   9.9800691e-01  -4.4698509e+07
   5.7319106e-10  -9.7584229e-03   2.1371172e+00   1.0001049e+00  -4.4494922e+07
   5.7419140e-10  -9.7140147e-03   2.1341989e+00   1.0021965e+00  -4.4292270e+07
   5.7519173e-10  -9.6698087e-03   2.1312952e+00   1.0042816e+00  -4.4090551e+07
   5.7619206e-10  -9.6258040e-03   2.1284061e+00   1.0063604e+00  -4.3889760e+07
   5.7719240e-10  -9.5819997e-03   2.1255314e+00   1.0084327e+00  -4.3689892e+07
   5.7819273e-10  -9.5383948e-03   2.1226712e+00   1.0104986e+00  -4.3490942e+07
   5.7919306e-10  -9.4949886e-03   2.1198253e+00   1.0125581e+00  -4.3292907e+07
   5.8019340e-10  -9.4517800e-03   2.1169936e+00   1.0146113e+00  -4.3095782e+07
   5.8119373e-10  -9.4087681e-03   2.1141761e+00   1.0166580e+00  -4.2899562e+07
   5.8219406e-10  -9.3659520e-03   2.1113727e+00   1.0186983e+00  -4.2704244e+07
   5.8319440e-10  -9.3233309e-03   2.1085834e+00   1.0207322e+00  -4.2509823e+07
   5.8419473e-10  -9.2809038e-03   2.1058081e+00   1.0227597e+00  -4.2316295e+07
   5.8519507e-10  -9.2386699e-03   2.1030466e+00   1.0247809e+00  -4.2123655e+07
   5.8619540e-10  -9.1966282e-03   2.1002989e+00   1.0267956e+00  -4.1931899e+07
   5.8719573e-10  -9.1547779e-03   2.0975650e+00   1.0288040e+00  -4.1741024e+07
   5.8819607e-10  -9.1131182e-03   2.0948448e+00   1.0308060e+00  -4.1551025e+07
   5.8919640e-10  -9.0716480e-03   2.0921382e+00   1.0328017e+00  -4.1361897e+07
   5.9019673e-10  -9.0303666e-03   2.0894451e+00   1.0347910e+00  -4.1173637e+07
   5.9119707e-10  -8.9892731e-03   2.0867656e+00   1.0367739e+00  -4.0986240e+07
   5.9219740e-10  -8.9483666e-03   2.0840994e+00   1.0387505e+00  -4.0799703e+07
   5.9319773e-10  -8.9076462e-03   2.0814465e+00   1.0407207e+00  -4.0614021e+07
   5.9419807e-10  -8.8671112e-03   2.0788069e+00   1.0426846e+00  -4.0429191e+07
   5.9519840e-10  -8.8267607e-03   2.0761805e+00   1.0446422e+00  -4.0245208e+07
   5.9619873e-10  -8.7865938e-03   2.0735673e+00   1.0465934e+00  -4.0062068e+07
   5.9719907e-10  -8.7466097e-03   2.0709671e+00   1.0485384e+00  -3.9879767e+07
   5.9819940e-10  -8.7068075e-03   2.0683799e+00   1.0504770e+00  -3.9698301e+07
   5.9919973e-10  -8.6671864e-03   2.0658056e+00   1.0524093e+00  -3.9517667e+07
   6.0020007e-10  -8.6277456e-03   2.0632442e+00   1.0543353e+00  -3.9337860e+07
   6.0120040e-10  -8.5884842e-03   2.0606955e+00   1.0562550e+00  -3.9158877e+07
   6.0220073e-10  -8.5494015e-03   2.0581597e+00   1.0581684e+00  -3.8980714e+07
   6.0320107e-10  -8.5104966e-03   2.0556364e+00   1.0600755e+00  -3.8803366e+07
   6.0420140e-10  -8.4717687e-03   2.0531258e+00   1.0619764e+00  -3.8626830e+07
   6.0520173e-10  -8.4332170e-03   2.0506277e+00   1.0638710e+00  -3.8451102e+07
   6.0620207e-10  -8.3948407e-03   2.0481421e+00   1.0657593e+00  -3.8276178e+07
   6.0720240e-10  -8.3566389e-03   2.0456689e+00   1.0676414e+00  -3.8102055e+07
   6.0820273e-10  -8.3186110e-03   2.0432080e+00   1.0695172e+00  -3.7928729e+07
   6.0920307e-10  -8.2807560e-03   2.0407594e+00   1.0713869e+00  -3.7756195e+07
   6.1020340e-10  -8.2430732e-03   2.0383230e+00   1.0732502e+00  -3.7584451e+07
   6.1120373e-10  -8.2055618e-03   2.0358988e+00   1.0751074e+00  -3.7413493e+07
   6.1220407e-10  -8.1682211e-03   2.0334867e+00   1.0769584e+00  -3.7243316e+07
   6.1320440e-10  -8.1310502e-03   2.0310865e+00   1.0788031e+00  -3.7073917e+07
   6.1420473e-10  -8.0940483e-03   2.0286984e+00   1.0806417e+00  -3.6905293e+07
   6.1520507e-10  -8.0572148e-03   2.0263222e+00   1.0824741e+00  -3.6737440e+07
   6.1620540e-10  -8.0205487e-03   2.0239578e+00   1.0843003e+00  -3.6570353e+07
   6.1720574e-10  -7.9840495e-03   2.0216051e+00   1.0861203e+00  -3.6404031e+07
   6.1820607e-10  -7.9477162e-03   2.0192642e+00   1.0879342e+00  -3.6238469e+07
   6.1920640e-10  -7.9115482e-03   2.0169350e+00   1.0897420e+00  -3.6073663e+07
   6.2020674e-10  -7.8755446e-03   2.0146174e+00   1.0915436e+00  -3.5909610e+07
   6.2120707e-10  -7.8397048e-03   2.0123113e+00   1.0933390e+00  -3.5746307e+07
   6.2220740e-10  -7.8040280e-03   2.0100167e+00   1.0951284e+00  -3.5583749e+07
   6.2320774e-10  -7.7685134e-03   2.0077335e+00   1.0969116e+00  -3.5421934e+07
   6.2420807e-10  -7.7331603e-03   2.0054616e+00   1.0986888e+00  -3.5260858e+07
   6.2520840e-10  -7.6979680e-03   2.0032011e+00   1.1004598e+00  -3.5100518e+07
   6.2620874e-10  -7.6629357e-03   2.0009518e+00   1.1022248e+00  -3.4940909e+07
   6.2720907e-10  -7.6280627e-03   1.9987137e+00   1.1039837e+00  -3.4782029e+07
   6.2820940e-10  -7.5933482e-03   1.9964868e+00   1.1057366e+00  -3.4623875e+07
   6.2920974e-10  -7.5587916e-03   1.9942709e+00   1.1074834e+00  -3.4466442e+07
   6.3021007e-10  -7.5243922e-03   1.9920660e+00   1.1092241e+00  -3.4309728e+07
   6.3121040e-10  -7.4901491e-03   1.9898721e+00   1.1109589e+00  -3.4153729e+07
   6.3221074e-10  -7.4560618e-03   1.9876891e+00   1.1126876e+00  -3.3998442e+07
   6.3321107e-10  -7.4221294e-03   1.9855170e+00   1.1144103e+00  -3.3843863e+07
   6.3421140e-10  -7.3883513e-03   1.9833556e+00   1.1161270e+00  -3.3689990e+07
   6.3521174e-10  -7.3547267e-03   1.9812050e+00   1.1178378e+00  -3.3536818e+07
   6.3621207e-10  -7.3212551e-03   1.9790650e+00   1.1195425e+00  -3.3384345e+07
   6.3721240e-10  -7.2879356e-03   1.9769357e+00   1.1212413e+00  -3.3232568e+07
   6.3821274e-10  -7.2547676e-03   1.9748169e+00   1.1229342e+00  -3.3081482e+07
   6.3921307e-10  -7.2217504e-03   1.9727087e+00   1.1246211e+00  -3.2931086e+07
   6.4021340e-10  -7.1888833e-03   1.9706109e+00   1.1263021e+00  -3.2781375e+07
   6.4121374e-10  -7.1561656e-03   1.9685235e+00   1.1279771e+00  -3.2632347e+07
   6.4221407e-10  -7.1235967e-03   1.9664465e+00   1.1296463e+00  -3.2483998e+07
   6.4321440e-10  -7.0911758e-03   1.9643798e+00   1.1313095e+00  -3.2336326e+07
   6.4421474e-10  -7.0589023e-03   1.9623233e+00   1.1329669e+00  -3.2189326e+07
   6.4521507e-10  -7.0267755e-03   1.9602771e+00   1.1346184e+00  -3.2042997e+07
   6.4621541e-10  -6.9947947e-03   1.9582409e+00   1.1362641e+00  -3.1897334e+07
   6.4721574e-10  -6.9629593e-03   1.9562149e+00   1.1379039e+00  -3.1752335e+07
   6.4821607e-10  -6.9312687e-03   1.9541989e+00   1.1395379e+00  -3.1607997e+07
   6.4921641e-10  -6.8997221e-03   1.9521929e+00   1.1411660e+00  -3.1464316e+07
   6.5021674e-10  -6.8683189e-03   1.9501968e+00   1.1427883e+00  -3.1321290e+07
   6.5121707e-10  -6.8370584e-03   1.9482106e+00   1.1444049e+00  -3.1178915e+07
   6.5221741e-10  -6.8059401e-03   1.9462342e+00   1.1460156e+00  -3.1037189e+07
   6.5321774e-10  -6.7749632e-03   1.9442676e+00   1.1476206e+00  -3.0896109e+07
   6.5421807e-10  -6.7441271e-03   1.9423108e+00   1.1492198e+00  -3.0755671e+07
   6.5521841e-10  -6.7134312e-03   1.9403636e+00   1.1508133e+00  -3.0615872e+07
   6.5621874e-10  -6.6828748e-03   1.9384261e+00   1.1524010e+00  -3.0476710e+07
   6.5721907e-10  -6.6524572e-03   1.9364981e+00   1.1539830e+00  -3.0338182e+07
   6.5821941e-10  -6.6221780e-03   1.9345797e+00   1.1555593e+00  -3.0200284e+07
   6.5921974e-10  -6.5920364e-03   1.9326708e+00   1.1571299e+00  -3.0063015e+07
   6.6022007e-10  -6.5620317e-03   1.9307713e+00   1.1586948e+00  -2.9926370e+07
   6.6122041e-10  -6.5321635e-03   1.9288812e+00   1.1602541e+00  -2.9790347e+07
   6.6222074e-10  -6.5024310e-03   1.9270004e+00   1.1618076e+00  -2.9654943e+07
   6.6322107e-10  -6.4728337e-03   1.9251289e+00   1.1633556e+00  -2.9520156e+07
   6.6422141e-10  -6.4433708e-03   1.9232667e+00   1.1648979e+00  -2.9385982e+07
   6.6522174e-10  -6.4140419e-03   1.9214136e+00   1.1664345e+00  -2.9252418e+07
   6.6622207e-10  -6.3848463e-03   1.9195697e+00   1.1679656e+00  -2.9119463e+07
   6.6722241e-10  -6.3557834e-03   1.9177349e+00   1.1694911e+00  -2.8987112e+07
   6.6822274e-10  -6.3268526e-03   1.9159092e+00   1.1710110e+00  -2.8855363e+07
   6.6922307e-10  -6.2980533e-03   1.9140924e+00   1.1725253e+00  -2.8724214e+07
   6.7022341e-10  -6.2693848e-03   1.9122847e+00   1.1740340e+00  -2.8593662e+07
   6.7122374e-10  -6.2408467e-03   1.9104858e+00   1.1755373e+00  -2.8463703e+07
   6.7222407e-10  -6.2124383e-03   1.9086958e+00   1.1770350e+00  -2.8334336e+07
   6.7322441e-10  -6.1841590e-03   1.9069146e+00   1.1785271e+00  -2.8205557e+07
   6.7422474e-10  -6.1560082e-03   1.9051422e+00   1.1800138e+00  -2.8077364e+07
   6.7522508e-10  -6.1279854e-03   1.9033786e+00   1.1814950e+00  -2.7949753e+07
   6.7622541e-10  -6.1000899e-03   1.9016236e+00   1.1829707e+00  -2.7822724e+07
   6.7722574e-10  -6.0723212e-03   1.8998773e+00   1.1844409e+00  -2.7696271e+07
   6.7822608e-10  -6.0446787e-03   1.8981396e+00   1.1859057e+00  -2.7570394e+07
   6.7922641e-10  -6.0171618e-03   1.8964104e+00   1.1873651e+00  -2.7445089e+07
   6.8022674e-10  -5.9897701e-03   1.8946898e+00   1.1888190e+00  -2.7320354e+07
   6.8122708e-10  -5.9625028e-03   1.8929776e+00   1.1902676e+00  -2.7196186e+07
   6.8222741e-10  -5.9353594e-03   1.8912738e+00   1.1917107e+00  -2.7072583e+07
   6.8322774e-10  -5.9083394e-03   1.8895784e+00   1.1931485e+00  -2.6949541e+07
   6.8422808e-10  -5.8814422e-03   1.8878914e+00   1.1945809e+00  -2.6827059e+07
   6.8522841e-10  -5.8546672e-03   1.8862126e+00   1.1960079e+00  -2.6705134e+07
   6.8622874e-10  -5.8280139e-03   1.8845422e+00   1.1974296e+00  -2.6583763e+07
   6.8722908e-10  -5.8014818e-03   1.8828799e+00   1.1988460e+00  -2.6462943e+07
   6.8822941e-10  -5.7750702e-03   1.8812258e+00   1.2002571e+00  -2.6342673e+07
   6.8922974e-10  -5.7487787e-03   1.8795798e+00   1.2016628e+00  -2.6222949e+07
   6.9023008e-10  -5.7226067e-03   1.8779419e+00   1.2030633e+00  -2.6103769e+07
   6.9123041e-10  -5.6965536e-03   1.8763120e+00   1.2044586e+00  -2.5985131e+07
   6.9223074e-10  -5.6706189e-03   1.8746902e+00   1.2058485e+00  -2.5867033e+07
   6.9323108e-10  -5.6448021e-03   1.8730763e+00   1.2072332e+00  -2.5749470e+07
   6.9423141e-10  -5.6191027e-03   1.8714703e+00   1.2086127e+00  -2.5632442e+07
   6.9523174e-10  -5.5935200e-03   1.8698722e+00   1.2099870e+00  -2.5515946e+07
   6.9623208e-10  -5.5680536e-03   1.8682820e+00   1.2113561e+00  -2.5399979e+07
   6.9723241e-10  -5.5427029e-03   1.8666995e+00   1.2127200e+00  -2.5284539e+07
   6.9823274e-10  -5.5174675e-03   1.8651248e+00   1.2140787e+00  -2.5169623e+07
   6.9923308e-10  -5.4923468e-03   1.8635578e+00   1.2154323e+00  -2.5055230e+07
   7.0023341e-10  -5.4673402e-03   1.8619986e+00   1.2167808e+00  -2.4941356e+07
   7.0123374e-10  -5.4424473e-03   1.8604469e+00   1.2181241e+00  -2.4827999e+07
   7.0223408e-10  -5.4176675e-03   1.8589029e+00   1.2194623e+00  -2.4715158e+07
   7.0323441e-10  -5.3930003e-03   1.8573664e+00   1.2207954e+00  -2.4602828e+07
   7.0423474e-10  -5.3684453e-03   1.8558374e+00   1.2221234e+00  -2.4491010e+07
   7.0523508e-10  -5.3440018e-03   1.8543160e+00   1.2234463e+00  -2.4379699e+07
   7.0623541e-10  -5.3196695e-03   1.8528019e+00   1.2247642e+00  -2.4268893e+07
   7.0723575e-10  -5.2954477e-03   1.8512953e+00   1.2260770e+00  -2.4158591e+07
   7.0823608e-10  -5.2713360e-03   1.8497961e+00   1.2273848e+00  -2.4048790e+07
   7.0923641e-10  -5.2473339e-03   1.8483042e+00   1.2286876e+00  -2.3939487e+07
   7.1023675e-10  -5.2234409e-03   1.8468196e+00   1.2299854e+00  -2.3830681e+07
   7.1123708e-10  -5.1996565e-03   1.8453422e+00   1.2312782e+00  -2.3722369e+07
   7.1223741e-10  -5.1759802e-03   1.8438721e+00   1.2325661e+00  -2.3614549e+07
   7.1323775e-10  -5.1524115e-03   1.8424092e+00   1.2338490e+00  -2.3507218e+07
   7.1423808e-10  -5.1289500e-03   1.8409534e+00   1.2351269e+00  -2.3400375e+07
   7.1523841e-10  -5.1055950e-03   1.8395047e+00   1.2363999e+00  -2.3294017e+07
   7.1623875e-10  -5.0823462e-03   1.8380632e+00   1.2376680e+00  -2.3188142e+07
   7.1723908e-10  -5.0592031e-03   1.8366286e+00   1.2389312e+00  -2.3082748e+07
   7.1823941e-10  -5.0361652e-03   1.8352011e+00   1.2401895e+00  -2.2977832e+07
   7.1923975e-10  -5.0132320e-03   1.8337805e+00   1.2414430e+00  -2.2873392e+07
   7.2024008e-10  -4.9904030e-03   1.8323668e+00   1.2426916e+00  -2.2769427e+07
   7.2124041e-10  -4.9676778e-03   1.8309601e+00   1.2439353e+00  -2.2665934e+07
   7.2224075e-10  -4.9450559e-03   1.8295602e+00   1.2451743e+00  -2.2562910e+07
   7.2324108e-10  -4.9225368e-03   1.8281672e+00   1.2464084e+00  -2.2460355e+07
   7.2424141e-10  -4.9001201e-03   1.8267809e+00   1.2476377e+00  -2.2358264e+07
   7.2524175e-10  -4.8778052e-03   1.8254014e+00   1.2488622e+00  -2.2256638e+07
   7.2624208e-10  -4.8555918e-03   1.8240286e+00   1.2500820e+00  -2.2155472e+07
   7.2724241e-10  -4.8334794e-03   1.8226626e+00   1.2512970e+00  -2.2054766e+07
   7.2824275e-10  -4.8114674e-03   1.8213031e+00   1.2525072e+00  -2.1954517e+07
   7.2924308e-10  -4.7895556e-03   1.8199503e+00   1.2537128e+00  -2.1854723e+07
   7.3024341e-10  -4.7677433e-03   1.8186041e+00   1.2549136e+00  -2.1755382e+07
   7.3124375e-10  -4.7460301e-03   1.8172645e+00   1.2561097e+00  -2.1656492e+07
   7.3224408e-10  -4.7244157e-03   1.8159314e+00   1.2573012e+00  -2.1558051e+07
   7.3324441e-10  -4.7028995e-03   1.8146047e+00   1.2584879e+00  -2.1460057e+07
   7.3424475e-10  -4.6814811e-03   1.8132845e+00   1.2596701e+00  -2.1362507e+07
   7.3524508e-10  -4.6601601e-03   1.8119708e+00   1.2608475e+00  -2.1265400e+07
   7.3624542e-10  -4.6389360e-03   1.8106634e+00   1.2620204e+00  -2.1168734e+07
   7.3724575e-10  -4.6178084e-03   1.8093624e+00   1.2631886e+00  -2.1072507e+07
   7.3824608e-10  -4.5967768e-03   1.8080677e+00   1.2643523e+00  -2.0976716e+07
   7.3924642e-10  -4.5758409e-03   1.8067793e+00   1.2655113e+00  -2.0881360e+07
   7.4024675e-10  -4.5550000e-03   1.8054972e+00   1.2666658e+00  -2.0786437e+07
   7.4124708e-10  -4.5342540e-03   1.8042213e+00   1.2678158e+00  -2.0691945e+07
   7.4224742e-10  -4.5136022e-03   1.8029516e+00   1.2689612e+00  -2.0597881e+07
   7.4324775e-10  -4.4930444e-03   1.8016881e+00   1.2701021e+00  -2.0504245e+07
   7.4424808e-10  -4.4725799e-03   1.8004307e+00   1.2712384e+00  -2.0411033e+07
   7.4524842e-10  -4.4522085e-03   1.7991794e+00   1.2723703e+00  -2.0318244e+07
   7.4624875e-10  -4.4319298e-03   1.7979342e+00   1.2734977e+00  -2.0225877e+07
   7.4724908e-10  -4.4117432e-03   1.7966951e+00   1.2746206e+00  -2.0133928e+07
   7.4824942e-10  -4.3916483e-03   1.7954619e+00   1.2757391e+00  -2.0042397e+07
   7.4924975e-10  -4.3716449e-03   1.7942348e+00   1.2768531e+00  -1.9951281e+07
   7.5025008e-10  -4.3517324e-03   1.7930136e+00   1.2779627e+00  -1.9860579e+07
   7.5125042e-10  -4.3319104e-03   1.7917983e+00   1.2790679e+00  -1.9770288e+07
   7.5225075e-10  -4.3121785e-03   1.7905889e+00   1.2801687e+00  -1.9680407e+07
   7.5325108e-10  -4.2925363e-03   1.7893853e+00   1.2812651e+00  -1.9590934e+07
   7.5425142e-10  -4.2729834e-03   1.7881876e+00   1.2823571e+00  -1.9501867e+07
   7.5525175e-10  -4.2535194e-03   1.7869958e+00   1.2834448e+00  -1.9413204e+07
   7.5625208e-10  -4.2341439e-03   1.7858096e+00   1.2845282e+00  -1.9324943e+07
   7.5725242e-10  -4.2148565e-03   1.7846293e+00   1.2856072e+00  -1.9237083e+07
   7.5825275e-10  -4.1956568e-03   1.7834546e+00   1.2866819e+00  -1.9149621e+07
   7.5925308e-10  -4.1765444e-03   1.7822857e+00   1.2877523e+00  -1.9062557e+07
   7.6025342e-10  -4.1575189e-03   1.7811223e+00   1.2888184e+00  -1.8975887e+07
   7.6125375e-10  -4.1385798e-03   1.7799647e+00   1.2898803e+00  -1.8889611e+07
   7.6225408e-10  -4.1197269e-03   1.7788126e+00   1.2909379e+00  -1.8803726e+07
   7.6325442e-10  -4.1009597e-03   1.7776661e+00   1.2919913e+00  -1.8718231e+07
   7.6425475e-10  -4.0822778e-03   1.7765252e+00   1.2930404e+00  -1.8633123e+07
   7.6525509e-10  -4.0636809e-03   1.7753897e+00   1.2940853e+00  -1.8548402e+07
   7.6625542e-10  -4.0451686e-03   1.7742598e+00   1.2951260e+00  -1.8464066e+07
   7.6725575e-10  -4.0267404e-03   1.7731353e+00   1.2961626e+00  -1.8380112e+07
   7.6825609e-10  -4.0083960e-03   1.7720163e+00   1.2971949e+00  -1.8296539e+07
   7.6925642e-10  -3.9901350e-03   1.7709026e+00   1.2982232e+00  -1.8213345e+07
   7.7025675e-10  -3.9719570e-03   1.7697944e+00   1.2992472e+00  -1.8130528e+07
   7.7125709e-10  -3.9538617e-03   1.7686915e+00   1.3002672e+00  -1.8048088e+07
   7.7225742e-10  -3.9358487e-03   1.7675939e+00   1.3012830e+00  -1.7966021e+07
   7.7325775e-10  -3.9179175e-03   1.7665016e+00   1.3022947e+00  -1.7884327e+07
   7.7425809e-10  -3.9000680e-03   1.7654146e+00   1.3033023e+00  -1.7803003e+07
   7.7525842e-10  -3.8822996e-03   1.7643329e+00   1.3043059e+00  -1.7722049e+07
   7.7625875e-10  -3.8646119e-03   1.7632564e+00   1.3053054e+00  -1.7641461e+07
   7.7725909e-10  -3.8470048e-03   1.7621850e+00   1.3063009e+00  -1.7561240e+07
   7.7825942e-10  -3.8294776e-03   1.7611189e+00   1.3072923e+00  -1.7481382e+07
   7.7925975e-10  -3.8120302e-03   1.7600578e+00   1.3082797e+00  -1.7401887e+07
   7.8026009e-10  -3.7946621e-03   1.7590019e+00   1.3092631e+00  -1.7322752e+07
   7.8126042e-10  -3.7773730e-03   1.7579511e+00   1.3102425e+00  -1.7243976e+07
   7.8226075e-10  -3.7601626e-03   1.7569054e+00   1.3112179e+00  -1.7165558e+07
   7.8326109e-10  -3.7430304e-03   1.7558646e+00   1.3121894e+00  -1.7087496e+07
   7.8426142e-10  -3.7259761e-03   1.7548290e+00   1.3131569e+00  -1.7009787e+07
   7.8526175e-10  -3.7089993e-03   1.7537983e+00   1.3141205e+00  -1.6932432e+07
   7.8626209e-10  -3.6920998e-03   1.7527725e+00   1.3150802e+00  -1.6855427e+07
   7.8726242e-10  -3.6752771e-03   1.7517517e+00   1.3160359e+00  -1.6778772e+07
   7.8826275e-10  -3.6585310e-03   1.7507358e+00   1.3169878e+00  -1.6702465e+07
   7.8926309e-10  -3.6418610e-03   1.7497248e+00   1.3179357e+00  -1.6626503e+07
   7.9026342e-10  -3.6252668e-03   1.7487187e+00   1.3188798e+00  -1.6550887e+07
   7.9126375e-10  -3.6087480e-03   1.7477174e+00   1.3198201e+00  -1.6475613e+07
   7.9226409e-10  -3.5923044e-03   1.7467210e+00   1.3207565e+00  -1.6400681e+07
   7.9326442e-10  -3.5759356e-03   1.7457293e+00   1.3216891e+00  -1.6326089e+07
   7.9426475e-10  -3.5596413e-03   1.7447424e+00   1.3226178e+00  -1.6251836e+07
   7.9526509e-10  -3.5434210e-03   1.7437602e+00   1.3235428e+00  -1.6177919e+07
   7.9626542e-10  -3.5272745e-03   1.7427828e+00   1.3244640e+00  -1.6104338e+07
   7.9726576e-10  -3.5112015e-03   1.7418101e+00   1.3253814e+00  -1.6031091e+07
   7.9826609e-10  -3.4952015e-03   1.7408420e+00   1.3262950e+00  -1.5958176e+07
   7.9926642e-10  -3.4792744e-03   1.7398786e+00   1.3272049e+00  -1.5885591e+07
   8.0026676e-10  -3.4634197e-03   1.7389198e+00   1.3281111e+00  -1.5813337e+07
   8.0126709e-10  -3.4476371e-03   1.7379656e+00   1.3290135e+00  -1.5741410e+07
   8.0226742e-10  -3.4319262e-03   1.7370161e+00   1.3299122e+00  -1.5669809e+07
   8.0326776e-10  -3.4162869e-03   1.7360710e+00   1.3308073e+00  -1.5598533e+07
   8.0426809e-10  -3.4007187e-03   1.7351305e+00   1.3316986e+00  -1.5527581e+07
   8.0526842e-10  -3.3852213e-03   1.7341946e+00   1.3325863e+00  -1.5456951e+07
   8.0626876e-10  -3.3697944e-03   1.7332631e+00   1.3334703e+00  -1.5386641e+07
   8.0726909e-10  -3.3544376e-03   1.7323360e+00   1.3343507e+00  -1.5316650e+07
   8.0826942e-10  -3.3391507e-03   1.7314135e+00   1.3352275e+00  -1.5246977e+07
   8.0926976e-10  -3.3239334e-03   1.7304953e+00   1.3361006e+00  -1.5177620e+07
   8.1027009e-10  -3.3087853e-03   1.7295816e+00   1.3369702e+00  -1.5108577e+07
   8.1127042e-10  -3.2937061e-03   1.7286722e+00   1.3378361e+00  -1.5039848e+07
   8.1227076e-10  -3.2786954e-03   1.7277672e+00   1.3386985e+00  -1.4971431e+07
   8.1327109e-10  -3.2637531e-03   1.7268666e+00   1.3395573e+00  -1.4903324e+07
   8.1427142e-10  -3.2488788e-03   1.7259702e+00   1.3404125e+00  -1.4835527e+07
   8.1527176e-10  -3.2340721e-03   1.7250782e+00   1.3412643e+00  -1.4768037e+07
   8.1627209e-10  -3.2193327e-03   1.7241904e+00   1.3421124e+00  -1.4700853e+07
   8.1727242e-10  -3.2046605e-03   1.7233069e+00   1.3429571e+00  -1.4633974e+07
   8.1827276e-10  -3.1900549e-03   1.7224276e+00   1.3437983e+00  -1.4567399e+07
   8.1927309e-10  -3.1755159e-03   1.7215525e+00   1.3446360e+00  -1.4501125e+07
   8.2027342e-10  -3.1610429e-03   1.7206816e+00   1.3454702e+00  -1.4435153e+07
   8.2127376e-10  -3.1466358e-03   1.7198149e+00   1.3463010e+00  -1.4369480e+07
   8.2227409e-10  -3.1322943e-03   1.7189523e+00   1.3471283e+00  -1.4304105e+07
   8.2327442e-10  -3.1180180e-03   1.7180938e+00   1.3479521e+00  -1.4239026e+07
   8.2427476e-10  -3.1038066e-03   1.7172395e+00   1.3487726e+00  -1.4174243e+07
   8.2527509e-10  -3.0896599e-03   1.7163892e+00   1.3495896e+00  -1.4109754e+07
   8.2627543e-10  -3.0755776e-03   1.7155431e+00   1.3504032e+00  -1.4045558e+07
   8.2727576e-10  -3.0615594e-03   1.7147009e+00   1.3512135e+00  -1.3981652e+07
   8.2827609e-10  -3.0476049e-03   1.7138628e+00   1.3520203e+00  -1.3918037e+07
   8.2927643e-10  -3.0337139e-03   1.7130287e+00   1.3528238e+00  -1.3854711e+07
   8.3027676e-10  -3.0198861e-03   1.7121986e+00   1.3536240e+00  -1.3791672e+07
   8.3127709e-10  -3.0061213e-03   1.7113724e+00   1.3544208e+00  -1.3728919e+07
   8.3227743e-10  -2.9924191e-03   1.7105502e+00   1.3552143e+00  -1.3666451e+07
   8.3327776e-10  -2.9787792e-03   1.7097319e+00   1.3560045e+00  -1.3604267e+07
   8.3427809e-10  -2.9652014e-03   1.7089175e+00   1.3567914e+00  -1.3542364e+07
   8.3527843e-10  -2.9516853e-03   1.7081070e+00   1.3575750e+00  -1.3480743e+07
   8.3627876e-10  -2.9382308e-03   1.7073004e+00   1.3583553e+00  -1.3419401e+07
   8.3727909e-10  -2.9248375e-03   1.7064976e+00   1.3591324e+00  -1.3358338e+07
   8.3827943e-10  -2.9115051e-03   1.7056987e+00   1.3599062e+00  -1.3297552e+07
   8.3927976e-10  -2.8982334e-03   1.7049036e+00   1.3606767e+00  -1.3237042e+07
   8.4028009e-10  -2.8850221e-03   1.7041123e+00   1.3614441e+00  -1.3176806e+07
   8.4128043e-10  -2.8718709e-03   1.7033247e+00   1.3622082e+00  -1.3116844e+07
   8.4228076e-10  -2.8587796e-03   1.7025409e+00   1.3629691e+00  -1.3057154e+07
   8.4328109e-10  -2.8457478e-03   1.7017608e+00   1.3637269e+00  -1.2997735e+07
   8.4428143e-10  -2.8327754e-03   1.7009845e+00   1.3644814e+00  -1.2938586e+07
   8.4528176e-10  -2.8198619e-03   1.7002119e+00   1.3652328e+00  -1.2879705e+07
   8.4628209e-10  -2.8070073e-03   1.6994429e+00   1.3659810e+00  -1.2821091e+07
   8.4728243e-10  -2.7942111e-03   1.6986776e+00   1.3667261e+00  -1.2762744e+07
   8.4828276e-10  -2.7814732e-03   1.6979160e+00   1.3674681e+00  -1.2704661e+07
   8.4928309e-10  -2.7687932e-03   1.6971579e+00   1.3682069e+00  -1.2646842e+07
   8.5028343e-10  -2.7561710e-03   1.6964035e+00   1.3689427e+00  -1.2589285e+07
   8.5128376e-10  -2.7436062e-03   1.6956527e+00   1.3696753e+00  -1.2531990e+07
   8.5228409e-10  -2.7310986e-03   1.6949055e+00   1.3704048e+00  -1.2474955e+07
   8.5328443e-10  -2.7186479e-03   1.6941618e+00   1.3711313e+00  -1.2418179e+07
   8.5428476e-10  -2.7062538e-03   1.6934217e+00   1.3718547e+00  -1.2361660e+07
   8.5528510e-10  -2.6939162e-03   1.6926850e+00   1.3725751e+00  -1.2305398e+07
   8.5628543e-10  -2.6816348e-03   1.6919519e+00   1.3732925e+00  -1.2249392e+07
   8.5728576e-10  -2.6694092e-03   1.6912223e+00   1.3740068e+00  -1.2193639e+07
   8.5828610e-10  -2.6572393e-03   1.6904961e+00   1.3747181e+00  -1.2138140e+07
   8.5928643e-10  -2.6451247e-03   1.6897734e+00   1.3754263e+00  -1.2082893e+07
   8.6028676e-10  -2.6330653e-03   1.6890542e+00   1.3761316e+00  -1.2027897e+07
   8.6128710e-10  -2.6210608e-03   1.6883383e+00   1.3768340e+00  -1.1973150e+07
   8.6228743e-10  -2.6091110e-03   1.6876259e+00   1.3775333e+00  -1.1918652e+07
   8.6328776e-10  -2.5972155e-03   1.6869168e+00   1.3782297e+00  -1.1864401e+07
   8.6428810e-10  -2.5853742e-03   1.6862112e+00   1.3789232e+00  -1.1810397e+07
   8.6528843e-10  -2.5735868e-03   1.6855088e+00   1.3796137e+00  -1.1756638e+07
   8.6628876e-10  -2.5618530e-03   1.6848098e+00   1.3803013e+00  -1.1703122e+07
   8.6728910e-10  -2.5501726e-03   1.6841142e+00   1.3809860e+00  -1.1649850e+07
   8.6828943e-10  -2.5385454e-03   1.6834218e+00   1.3816677e+00  -1.1596820e+07
   8.6928976e-10  -2.5269712e-03   1.6827327e+00   1.3823466e+00  -1.1544031e+07
   8.7029010e-10  -2.5154496e-03   1.6820469e+00   1.3830226e+00  -1.1491481e+07
   8.7129043e-10  -2.5039805e-03   1.6813644e+00   1.3836958e+00  -1.1439170e+07
   8.7229076e-10  -2.4925635e-03   1.6806851e+00   1.3843661e+00  -1.1387096e+07
   8.7329110e-10  -2.4811986e-03   1.6800090e+00   1.3850335e+00  -1.1335259e+07
   8.7429143e-10  -2.4698854e-03   1.6793361e+00   1.3856981e+00  -1.1283657e+07
   8.7529176e-10  -2.4586237e-03   1.6786664e+00   1.3863599e+00  -1.1232290e+07
   8.7629210e-10  -2.4474132e-03   1.6779999e+00   1.3870189e+00  -1.1181155e+07
   8.7729243e-10  -2.4362538e-03   1.6773365e+00   1.3876751e+00  -1.1130253e+07
   8.7829276e-10  -2.4251452e-03   1.6766763e+00   1.3883285e+00  -1.1079582e+07
   8.7929310e-10  -2.4140872e-03   1.6760193e+00   1.3889791e+00  -1.1029142e+07
   8.8029343e-10  -2.4030795e-03   1.6753653e+00   1.3896269e+00  -1.0978930e+07
   8.8129376e-10  -2.3921220e-03   1.6747145e+00   1.3902720e+00  -1.0928946e+07
   8.8229410e-10  -2.3812143e-03   1.6740667e+00   1.3909143e+00  -1.0879190e+07
   8.8329443e-10  -2.3703562e-03   1.6734220e+00   1.3915539e+00  -1.0829659e+07
   8.8429476e-10  -2.3595477e-03   1.6727804e+00   1.3921908e+00  -1.0780353e+07
   8.8529510e-10  -2.3487883e-03   1.6721418e+00   1.3928250e+00  -1.0731271e+07
   8.8629543e-10  -2.3380779e-03   1.6715062e+00   1.3934564e+00  -1.0682412e+07
   8.8729577e-10  -2.3274163e-03   1.6708736e+00   1.3940852e+00  -1.0633775e+07
   8.8829610e-10  -2.3168032e-03   1.6702440e+00   1.3947113e+00  -1.0585359e+07
   8.8929643e-10  -2.3062384e-03   1.6696174e+00   1.3953347e+00  -1.0537163e+07
   8.9029677e-10  -2.2957217e-03   1.6689938e+00   1.3959554e+00  -1.0489186e+07
   8.9129710e-10  -2.2852530e-03   1.6683731e+00   1.3965735e+00  -1.0441426e+07
   8.9229743e-10  -2.2748319e-03   1.6677554e+00   1.3971890e+00  -1.0393884e+07
   8.9329777e-10  -2.2644582e-03   1.6671406e+00   1.3978018e+00  -1.0346557e+07
   8.9429810e-10  -2.2541318e-03   1.6665287e+00   1.3984120e+00  -1.0299445e+07
   8.9529843e-10  -2.2438524e-03   1.6659197e+00   1.3990196e+00  -1.0252548e+07
   8.9629877e-10  -2.2336198e-03   1.6653136e+00   1.3996246e+00  -1.0205863e+07
   8.9729910e-10  -2.2234338e-03   1.6647103e+00   1.4002270e+00  -1.0159391e+07
   8.9829943e-10  -2.2132941e-03   1.6641099e+00   1.4008268e+00  -1.0113129e+07
   8.9929977e-10  -2.2032007e-03   1.6635123e+00   1.4014240e+00  -1.0067078e+07
   9.0030010e-10  -2.1931532e-03   1.6629176e+00   1.4020187e+00  -1.0021236e+07
   9.0130043e-10  -2.1831515e-03   1.6623257e+00   1.4026109e+00  -9.9756021e+06
   9.0230077e-10  -2.1731953e-03   1.6617365e+00   1.4032005e+00  -9.9301755e+06
   9.0330110e-10  -2.1632844e-03   1.6611502e+00   1.4037876e+00  -9.8849553e+06
   9.0430143e-10  -2.1534187e-03   1.6605666e+00   1.4043721e+00  -9.8399406e+06
   9.0530177e-10  -2.1435979e-03   1.6599858e+00   1.4049542e+00  -9.7951303e+06
   9.0630210e-10  -2.1338218e-03   1.6594077e+00   1.4055337e+00  -9.7505236e+06
   9.0730243e-10  -2.1240903e-03   1.6588324e+00   1.4061108e+00  -9.7061195e+06
   9.0830277e-10  -2.1144031e-03   1.6582597e+00   1.4066854e+00  -9.6619172e+06
   9.0930310e-10  -2.1047600e-03   1.6576898e+00   1.4072575e+00  -9.6179157e+06
   9.1030343e-10  -2.0951608e-03   1.6571226e+00   1.4078272e+00  -9.5741141e+06
   9.1130377e-10  -2.0856053e-03   1.6565580e+00   1.4083944e+00  -9.5305115e+06
   9.1230410e-10  -2.0760933e-03   1.6559961e+00   1.4089592e+00  -9.4871071e+06
   9.1330443e-10  -2.0666247e-03   1.6554369e+00   1.4095215e+00  -9.4438998e+06
   9.1430477e-10  -2.0571991e-03   1.6548803e+00   1.4100814e+00  -9.4008888e+06
   9.1530510e-10  -2.0478166e-03   1.6543263e+00   1.4106390e+00  -9.3580733e+06
   9.1630544e-10  -2.0384767e-03   1.6537750e+00   1.4111941e+00  -9.3154523e+06
   9.1730577e-10  -2.0291794e-03   1.6532262e+00   1.4117468e+00  -9.2730249e+06
   9.1830610e-10  -2.0199244e-03   1.6526800e+00   1.4122971e+00  -9.2307904e+06
   9.1930644e-10  -2.0107116e-03   1.6521364e+00   1.4128451e+00  -9.1887477e+06
   9.2030677e-10  -2.0015407e-03   1.6515954e+00   1.4133907e+00  -9.1468961e+06
   9.2130710e-10  -1.9924116e-03   1.6510569e+00   1.4139340e+00  -9.1052347e+06
   9.2230744e-10  -1.9833241e-03   1.6505210e+00   1.4144749e+00  -9.0637625e+06
   9.2330777e-10  -1.9742780e-03   1.6499876e+00   1.4150135e+00  -9.0224789e+06
   9.2430810e-10  -1.9652731e-03   1.6494567e+00   1.4155497e+00  -8.9813828e+06
   9.2530844e-10  -1.9563092e-03   1.6489283e+00   1.4160837e+00  -8.9404735e+06
   9.2630877e-10  -1.9473861e-03   1.6484024e+00   1.4166153e+00  -8.8997501e+06
   9.2730910e-10  -1.9385037e-03   1.6478789e+00   1.4171447e+00  -8.8592117e+06
   9.2830944e-10  -1.9296617e-03   1.6473580e+00   1.4176717e+00  -8.8188576e+06
   9.2930977e-10  -1.9208600e-03   1.6468394e+00   1.4181965e+00  -8.7786869e+06
   9.3031010e-10  -1.9120984e-03   1.6463234e+00   1.4187190e+00  -8.7386987e+06
   9.3131044e-10  -1.9033767e-03   1.6458097e+00   1.4192393e+00  -8.6988923e+06
   9.3231077e-10  -1.8946948e-03   1.6452985e+00   1.4197573e+00  -8.6592668e+06
   9.3331110e-10  -1.8860524e-03   1.6447897e+00   1.4202730e+00  -8.6198214e+06
   9.3431144e-10  -1.8774493e-03   1.6442833e+00   1.4207866e+00  -8.5805552e+06
   9.3531177e-10  -1.8688855e-03   1.6437792e+00   1.4212979e+00  -8.5414675e+06
   9.3631210e-10  -1.8603606e-03   1.6432776e+00   1.4218070e+00  -8.5025575e+06
   9.3731244e-10  -1.8518746e-03   1.6427783e+00   1.4223138e+00  -8.4638243e+06
   9.3831277e-10  -1.8434273e-03   1.6422813e+00   1.4228185e+00  -8.4252672e+06
   9.3931310e-10  -1.8350184e-03   1.6417867e+00   1.4233210e+00  -8.3868853e+06
   9.4031344e-10  -1.8266479e-03   1.6412944e+00   1.4238214e+00  -8.3486779e+06
   9.4131377e-10  -1.8183154e-03   1.6408044e+00   1.4243195e+00  -8.3106442e+06
   9.4231410e-10  -1.8100210e-03   1.6403167e+00   1.4248155e+00  -8.2727833e+06
   9.4331444e-10  -1.8017643e-03   1.6398314e+00   1.4253094e+00  -8.2350945e+06
   9.4431477e-10  -1.7935452e-03   1.6393483e+00   1.4258011e+00  -8.1975771e+06
   9.4531511e-10  -1.7853636e-03   1.6388674e+00   1.4262907e+00  -8.1602302e+06
   9.4631544e-10  -1.7772193e-03   1.6383889e+00   1.4267781e+00  -8.1230530e+06
   9.4731577e-10  -1.7691120e-03   1.6379126e+00   1.4272634e+00  -8.0860449e+06
   9.4831611e-10  -1.7610417e-03   1.6374385e+00   1.4277467e+00  -8.0492050e+06
   9.4931644e-10  -1.7530082e-03   1.6369666e+00   1.4282278e+00  -8.0125326e+06
   9.5031677e-10  -1.7450113e-03   1.6364970e+00   1.4287068e+00  -7.9760269e+06
   9.5131711e-10  -1.7370508e-03   1.6360296e+00   1.4291838e+00  -7.9396871e+06
   9.5231744e-10  -1.7291265e-03   1.6355643e+00   1.4296587e+00  -7.9035126e+06
   9.5331777e-10  -1.7212384e-03   1.6351013e+00   1.4301315e+00  -7.8675025e+06
   9.5431811e-10  -1.7133862e-03   1.6346404e+00   1.4306022e+00  -7.8316561e+06
   9.5531844e-10  -1.7055698e-03   1.6341817e+00   1.4310709e+00  -7.7959728e+06
   9.5631877e-10  -1.6977890e-03   1.6337252e+00   1.4315376e+00  -7.7604516e+06
   9.5731911e-10  -1.6900437e-03   1.6332707e+00   1.4320022e+00  -7.7250919e+06
   9.5831944e-10  -1.6823337e-03   1.6328185e+00   1.4324649e+00  -7.6898930e+06
   9.5931977e-10  -1.6746587e-03   1.6323683e+00   1.4329255e+00  -7.6548542e+06
   9.6032011e-10  -1.6670188e-03   1.6319203e+00   1.4333841e+00  -7.6199746e+06
   9.6132044e-10  -1.6594137e-03   1.6314743e+00   1.4338407e+00  -7.5852537e+06
   9.6232077e-10  -1.6518432e-03   1.6310305e+00   1.4342953e+00  -7.5506906e+06
   9.6332111e-10  -1.6443072e-03   1.6305887e+00   1.4347479e+00  -7.5162847e+06
   9.6432144e-10  -1.6368055e-03   1.6301490e+00   1.4351986e+00  -7.4820352e+06
   9.6532177e-10  -1.6293381e-03   1.6297114e+00   1.4356472e+00  -7.4479414e+06
   9.6632211e-10  -1.6219046e-03   1.6292758e+00   1.4360940e+00  -7.4140027e+06
   9.6732244e-10  -1.6145051e-03   1.6288423e+00   1.4365388e+00  -7.3802184e+06
   9.6832277e-10  -1.6071392e-03   1.6284108e+00   1.4369816e+00  -7.3465876e+06
   9.6932311e-10  -1.5998069e-03   1.6279813e+00   1.4374225e+00  -7.3131098e+06
   9.7032344e-10  -1.5925081e-03   1.6275538e+00   1.4378615e+00  -7.2797842e+06
   9.7132377e-10  -1.5852425e-03   1.6271283e+00   1.4382986e+00  -7.2466101e+06
   9.7232411e-10  -1.5780100e-03   1.6267049e+00   1.4387337e+00  -7.2135870e+06
   9.7332444e-10  -1.5708104e-03   1.6262834e+00   1.4391670e+00  -7.1807140e+06
   9.7432477e-10  -1.5636437e-03   1.6258639e+00   1.4395984e+00  -7.1479905e+06
   9.7532511e-10  -1.5565096e-03   1.6254463e+00   1.4400278e+00  -7.1154158e+06
   9.7632544e-10  -1.5494081e-03   1.6250307e+00   1.4404555e+00  -7.0829893e+06
   9.7732578e-10  -1.5423389e-03   1.6246171e+00   1.4408812e+00  -7.0507102e+06
   9.7832611e-10  -1.5353019e-03   1.6242054e+00   1.4413051e+00  -7.0185779e+06
   9.7932644e-10  -1.5282970e-03   1.6237956e+00   1.4417271e+00  -6.9865918e+06
   9.8032678e-10  -1.5213240e-03   1.6233878e+00   1.4421473e+00  -6.9547512e+06
   9.8132711e-10  -1.5143828e-03   1.6229818e+00   1.4425656e+00  -6.9230554e+06
   9.8232744e-10  -1.5074732e-03   1.6225778e+00   1.4429821e+00  -6.8915037e+06
   9.8332778e-10  -1.5005952e-03   1.6221756e+00   1.4433968e+00  -6.8600955e+06
   9.8432811e-10  -1.4937484e-03   1.6217753e+00   1.4438097e+00  -6.8288302e+06
   9.8532844e-10  -1.4869329e-03   1.6213769e+00   1.4442207e+00  -6.7977072e+06
   9.8632878e-10  -1.4801484e-03   1.6209804e+00   1.4446300e+00  -6.7667256e+06
   9.8732911e-10  -1.4733949e-03   1.6205857e+00   1.4450374e+00  -6.7358850e+06
   9.8832944e-10  -1.4666721e-03   1.6201929e+00   1.4454431e+00  -6.7051847e+06
   9.8932978e-10  -1.4599800e-03   1.6198019e+00   1.4458470e+00  -6.6746241e+06
   9.9033011e-10  -1.4533184e-03   1.6194127e+00   1.4462491e+00  -6.6442024e+06
   9.9133044e-10  -1.4466871e-03   1.6190254e+00   1.4466495e+00  -6.6139191e+06
   9.9233078e-10  -1.4400861e-03   1.6186398e+00   1.4470481e+00  -6.5837736e+06
   9.9333111e-10  -1.4335151e-03   1.6182561e+00   1.4474450e+00  -6.5537653e+06
   9.9433144e-10  -1.4269741e-03   1.6178742e+00   1.4478401e+00  -6.5238934e+06
   9.9533178e-10  -1.4204630e-03   1.6174940e+00   1.4482335e+00  -6.4941574e+06
   9.9633211e-10  -1.4139814e-03   1.6171156e+00   1.4486252e+00  -6.4645567e+06
   9.9733244e-10  -1.4075295e-03   1.6167390e+00   1.4490151e+00  -6.4350907e+06
   9.9833278e-10  -1.4011069e-03   1.6163642e+00   1.4494033e+00  -6.4057587e+06
   9.9933311e-10  -1.3947137e-03   1.6159911e+00   1.4497899e+00  -6.3765601e+06
   1.0003334e-09  -1.3883495e-03   1.6156197e+00   1.4501747e+00  -6.3474944e+06
   1.0013338e-09  -1.3820144e-03   1.6152501e+00   1.4505578e+00  -6.3185610e+06
   1.0023341e-09  -1.3757081e-03   1.6148822e+00   1.4509393e+00  -6.2897591e+06
   1.0033344e-09  -1.3694306e-03   1.6145161e+00   1.4513191e+00  -6.2610883e+06
   1.0043348e-09  -1.3631817e-03   1.6141516e+00   1.4516972e+00  -6.2325480e+06
   1.0053351e-09  -1.3569613e-03   1.6137889e+00   1.4520736e+00  -6.2041375e+06
   1.0063354e-09  -1.3507693e-03   1.6134278e+00   1.4524484e+00  -6.1758563e+06
   1.0073358e-09  -1.3446055e-03   1.6130684e+00   1.4528216e+00  -6.1477037e+06
   1.0083361e-09  -1.3384697e-03   1.6127107e+00   1.4531931e+00  -6.1196793e+06
   1.0093364e-09  -1.3323620e-03   1.6123547e+00   1.4535629e+00  -6.0917823e+06
   1.0103368e-09  -1.3262821e-03   1.6120003e+00   1.4539312e+00  -6.0640123e+06
   1.0113371e-09  -1.3202299e-03   1.6116476e+00   1.4542978e+00  -6.0363687e+06
   1.0123374e-09  -1.3142053e-03   1.6112966e+00   1.4546628e+00  -6.0088508e+06
   1.0133378e-09  -1.3082081e-03   1.6109471e+00   1.4550262e+00  -5.9814581e+06
   1.0143381e-09  -1.3022383e-03   1.6105993e+00   1.4553880e+00  -5.9541901e+06
   1.0153384e-09  -1.2962957e-03   1.6102532e+00   1.4557482e+00  -5.9270462e+06
   1.0163388e-09  -1.2903802e-03   1.6099086e+00   1.4561068e+00  -5.9000258e+06
   1.0173391e-09  -1.2844917e-03   1.6095657e+00   1.4564639e+00  -5.8731284e+06
   1.0183394e-09  -1.2786300e-03   1.6092243e+00   1.4568193e+00  -5.8463533e+06
   1.0193398e-09  -1.2727950e-03   1.6088846e+00   1.4571732e+00  -5.8197001e+06
   1.0203401e-09  -1.2669867e-03   1.6085464e+00   1.4575256e+00  -5.7931682e+06
   1.0213404e-09  -1.2612048e-03   1.6082098e+00   1.4578764e+00  -5.7667571e+06
   1.0223408e-09  -1.2554493e-03   1.6078748e+00   1.4582256e+00  -5.7404661e+06
   1.0233411e-09  -1.2497200e-03   1.6075413e+00   1.4585733e+00  -5.7142948e+06
   1.0243414e-09  -1.2440168e-03   1.6072094e+00   1.4589195e+00  -5.6882426e+06
   1.0253418e-09  -1.2383397e-03   1.6068790e+00   1.4592641e+00  -5.6623089e+06
   1.0263421e-09  -1.2326884e-03   1.6065502e+00   1.4596072e+00  -5.6364933e+06
   1.0273424e-09  -1.2270629e-03   1.6062229e+00   1.4599488e+00  -5.6107952e+06
   1.0283428e-09  -1.2214630e-03   1.6058972e+00   1.4602889e+00  -5.5852141e+06
   1.0293431e-09  -1.2158887e-03   1.6055729e+00   1.4606275e+00  -5.5597493e+06
   1.0303434e-09  -1.2103398e-03   1.6052502e+00   1.4609646e+00  -5.5344005e+06
   1.0313438e-09  -1.2048162e-03   1.6049290e+00   1.4613002e+00  -5.5091670e+06
   1.0323441e-09  -1.1993178e-03   1.6046093e+00   1.4616343e+00  -5.4840484e+06
   1.0333444e-09  -1.1938444e-03   1.6042910e+00   1.4619670e+00  -5.4590441e+06
   1.0343448e-09  -1.1883960e-03   1.6039743e+00   1.4622982e+00  -5.4341537e+06
   1.0353451e-09  -1.1829724e-03   1.6036590e+00   1.4626279e+00  -5.4093765e+06
   1.0363454e-09  -1.1775736e-03   1.6033452e+00   1.4629561e+00  -5.3847121e+06
   1.0373458e-09  -1.1721994e-03   1.6030328e+00   1.4632830e+00  -5.3601600e+06
   1.0383461e-09  -1.1668497e-03   1.6027219e+00   1.4636083e+00  -5.3357196e+06
   1.0393464e-09  -1.1615243e-03   1.6024125e+00   1.4639322e+00  -5.3113905e+06
   1.0403468e-09  -1.1562233e-03   1.6021045e+00   1.4642547e+00  -5.2871721e+06
   1.0413471e-09  -1.1509464e-03   1.6017979e+00   1.4645758e+00  -5.2630640e+06
   1.0423474e-09  -1.1456936e-03   1.6014928e+00   1.4648955e+00  -5.2390656e+06
   1.0433478e-09  -1.1404648e-03   1.6011890e+00   1.4652137e+00  -5.2151765e+06
   1.0443481e-09  -1.1352598e-03   1.6008867e+00   1.4655305e+00  -5.1913961e+06
   1.0453484e-09  -1.1300785e-03   1.6005858e+00   1.4658459e+00  -5.1677240e+06
   1.0463488e-09  -1.1249208e-03   1.6002863e+00   1.4661600e+00  -5.1441596e+06
   1.0473491e-09  -1.1197867e-03   1.5999882e+00   1.4664726e+00  -5.1207026e+06
   1.0483494e-09  -1.1146760e-03   1.5996915e+00   1.4667838e+00  -5.0973523e+06
   1.0493498e-09  -1.1095885e-03   1.5993961e+00   1.4670937e+00  -5.0741083e+06
   1.0503501e-09  -1.1045243e-03   1.5991022e+00   1.4674022e+00  -5.0509701e+06
   1.0513505e-09  -1.0994832e-03   1.5988096e+00   1.4677094e+00  -5.0279373e+06
   1.0523508e-09  -1.0944651e-03   1.5985183e+00   1.4680151e+00  -5.0050093e+06
   1.0533511e-09  -1.0894698e-03   1.5982285e+00   1.4683195e+00  -4.9821857e+06
   1.0543515e-09  -1.0844973e-03   1.5979399e+00   1.4686226e+00  -4.9594660e+06
   1.0553518e-09  -1.0795475e-03   1.5976527e+00   1.4689243e+00  -4.9368498e+06
   1.0563521e-09  -1.0746203e-03   1.5973669e+00   1.4692247e+00  -4.9143366e+06
   1.0573525e-09  -1.0697156e-03   1.5970824e+00   1.4695238e+00  -4.8919258e+06
   1.0583528e-09  -1.0648332e-03   1.5967992e+00   1.4698215e+00  -4.8696171e+06
   1.0593531e-09  -1.0599730e-03   1.5965173e+00   1.4701179e+00  -4.8474099e+06
   1.0603535e-09  -1.0551351e-03   1.5962367e+00   1.4704130e+00  -4.8253039e+06
   1.0613538e-09  -1.0503192e-03   1.5959574e+00   1.4707068e+00  -4.8032985e+06
   1.0623541e-09  -1.0455252e-03   1.5956794e+00   1.4709993e+00  -4.7813934e+06
   1.0633545e-09  -1.0407532e-03   1.5954028e+00   1.4712905e+00  -4.7595879e+06
   1.0643548e-09  -1.0360029e-03   1.5951274e+00   1.4715804e+00  -4.7378818e+06
   1.0653551e-09  -1.0312742e-03   1.5948533e+00   1.4718690e+00  -4.7162745e+06
   1.0663555e-09  -1.0265671e-03   1.5945804e+00   1.4721563e+00  -4.6947656e+06
   1.0673558e-09  -1.0218815e-03   1.5943088e+00   1.4724423e+00  -4.6733546e+06
   1.0683561e-09  -1.0172173e-03   1.5940385e+00   1.4727271e+00  -4.6520411e+06
   1.0693565e-09  -1.0125743e-03   1.5937695e+00   1.4730106e+00  -4.6308247e+06
   1.0703568e-09  -1.0079525e-03   1.5935017e+00   1.4732929e+00  -4.6097049e+06
   1.0713571e-09  -1.0033518e-03   1.5932351e+00   1.4735739e+00  -4.5886813e+06
   1.0723575e-09  -9.9877205e-04   1.5929698e+00   1.4738536e+00  -4.5677534e+06
   1.0733578e-09  -9.9421320e-04   1.5927057e+00   1.4741321e+00  -4.5469208e+06
   1.0743581e-09  -9.8967515e-04   1.5924428e+00   1.4744094e+00  -4.5261831e+06
   1.0753585e-09  -9.8515779e-04   1.5921812e+00   1.4746855e+00  -4.5055398e+06
   1.0763588e-09  -9.8066103e-04   1.5919208e+00   1.4749603e+00  -4.4849906e+06
   1.0773591e-09  -9.7618478e-04   1.5916615e+00   1.4752339e+00  -4.4645349e+06
   1.0783595e-09  -9.7172895e-04   1.5914035e+00   1.4755062e+00  -4.4441724e+06
   1.0793598e-09  -9.6729344e-04   1.5911467e+00   1.4757774e+00  -4.4239026e+06
   1.0803601e-09  -9.6287817e-04   1.5908911e+00   1.4760473e+00  -4.4037252e+06
   1.0813605e-09  -9.5848303e-04   1.5906366e+00   1.4763161e+00  -4.3836396e+06
   1.0823608e-09  -9.5410793e-04   1.5903834e+00   1.4765837e+00  -4.3636455e+06
   1.0833611e-09  -9.4975279e-04   1.5901313e+00   1.4768500e+00  -4.3437425e+06
   1.0843615e-09  -9.4541752e-04   1.5898804e+00   1.4771152e+00  -4.3239301e+06
   1.0853618e-09  -9.4110202e-04   1.5896306e+00   1.4773792e+00  -4.3042080e+06
   1.0863621e-09  -9.3680620e-04   1.5893821e+00   1.4776420e+00  -4.2845757e+06
   1.0873625e-09  -9.3252998e-04   1.5891346e+00   1.4779037e+00  -4.2650328e+06
   1.0883628e-09  -9.2827326e-04   1.5888883e+00   1.4781642e+00  -4.2455789e+06
   1.0893631e-09  -9.2403596e-04   1.5886432e+00   1.4784235e+00  -4.2262136e+06
   1.0903635e-09  -9.1981799e-04   1.5883992e+00   1.4786817e+00  -4.2069366e+06
   1.0913638e-09  -9.1561925e-04   1.5881563e+00   1.4789387e+00  -4.1877473e+06
   1.0923641e-09  -9.1143967e-04   1.5879146e+00   1.4791946e+00  -4.1686454e+06
   1.0933645e-09  -9.0727915e-04   1.5876739e+00   1.4794494e+00  -4.1496306e+06
   1.0943648e-09  -9.0313762e-04   1.5874344e+00   1.4797030e+00  -4.1307024e+06
   1.0953651e-09  -8.9901497e-04   1.5871960e+00   1.4799555e+00  -4.1118604e+06
   1.0963655e-09  -8.9491112e-04   1.5869587e+00   1.4802068e+00  -4.0931042e+06
   1.0973658e-09  -8.9082600e-04   1.5867225e+00   1.4804571e+00  -4.0744335e+06
   1.0983661e-09  -8.8675951e-04   1.5864874e+00   1.4807062e+00  -4.0558478e+06
   1.0993665e-09  -8.8271157e-04   1.5862534e+00   1.4809542e+00  -4.0373467e+06
   1.1003668e-09  -8.7868210e-04   1.5860205e+00   1.4812011e+00  -4.0189300e+06
   1.1013671e-09  -8.7467100e-04   1.5857887e+00   1.4814469e+00  -4.0005972e+06
   1.1023675e-09  -8.7067821e-04   1.5855579e+00   1.4816916e+00  -3.9823478e+06
   1.1033678e-09  -8.6670362e-04   1.5853282e+00   1.4819352e+00  -3.9641816e+06
   1.1043681e-09  -8.6274717e-04   1.5850996e+00   1.4821777e+00  -3.9460982e+06
   1.1053685e-09  -8.5880877e-04   1.5848720e+00   1.4824192e+00  -3.9280971e+06
   1.1063688e-09  -8.5488833e-04   1.5846455e+00   1.4826596e+00  -3.9101781e+06
   1.1073691e-09  -8.5098578e-04   1.5844200e+00   1.4828988e+00  -3.8923407e+06
   1.1083695e-09  -8.4710103e-04   1.5841956e+00   1.4831371e+00  -3.8745845e+06
   1.1093698e-09  -8.4323400e-04   1.5839722e+00   1.4833742e+00  -3.8569092e+06
   1.1103701e-09  -8.3938461e-04   1.5837499e+00   1.4836103e+00  -3.8393145e+06
   1.1113705e-09  -8.3555278e-04   1.5835285e+00   1.4838454e+00  -3.8217999e+06
   1.1123708e-09  -8.3173843e-04   1.5833082e+00   1.4840794e+00  -3.8043652e+06
   1.1133711e-09  -8.2794149e-04   1.5830890e+00   1.4843124e+00  -3.7870098e+06
   1.1143715e-09  -8.2416186e-04   1.5828707e+00   1.4845443e+00  -3.7697336e+06
   1.1153718e-09  -8.2039948e-04   1.5826535e+00   1.4847752e+00  -3.7525360e+06
   1.1163721e-09  -8.1665426e-04   1.5824372e+00   1.4850050e+00  -3.7354168e+06
   1.1173725e-09  -8.1292613e-04   1.5822220e+00   1.4852338e+00  -3.7183756e+06
   1.1183728e-09  -8.0921500e-04   1.5820077e+00   1.4854616e+00  -3.7014120e+06
   1.1193731e-09  -8.0552081e-04   1.5817945e+00   1.4856884e+00  -3.6845258e+06
   1.1203735e-09  -8.0184347e-04   1.5815822e+00   1.4859142e+00  -3.6677165e+06
   1.1213738e-09  -7.9818291e-04   1.5813709e+00   1.4861390e+00  -3.6509837e+06
   1.1223741e-09  -7.9453904e-04   1.5811606e+00   1.4863627e+00  -3.6343272e+06
   1.1233745e-09  -7.9091180e-04   1.5809513e+00   1.4865855e+00  -3.6177466e+06
   1.1243748e-09  -7.8730111e-04   1.5807430e+00   1.4868072e+00  -3.6012416e+06
   1.1253751e-09  -7.8370689e-04   1.5805356e+00   1.4870280e+00  -3.5848118e+06
   1.1263755e-09  -7.8012907e-04   1.5803291e+00   1.4872478e+00  -3.5684568e+06
   1.1273758e-09  -7.7656757e-04   1.5801237e+00   1.4874666e+00  -3.5521763e+06
   1.1283761e-09  -7.7302233e-04   1.5799191e+00   1.4876844e+00  -3.5359701e+06
   1.1293765e-09  -7.6949325e-04   1.5797155e+00   1.4879013e+00  -3.5198377e+06
   1.1303768e-09  -7.6598028e-04   1.5795129e+00   1.4881172e+00  -3.5037788e+06
   1.1313771e-09  -7.6248333e-04   1.5793112e+00   1.4883321e+00  -3.4877930e+06
   1.1323775e-09  -7.5900234e-04   1.5791104e+00   1.4885460e+00  -3.4718802e+06
   1.1333778e-09  -7.5553723e-04   1.5789106e+00   1.4887590e+00  -3.4560398e+06
   1.1343781e-09  -7.5208793e-04   1.5787117e+00   1.4889711e+00  -3.4402716e+06
   1.1353785e-09  -7.4865437e-04   1.5785137e+00   1.4891821e+00  -3.4245753e+06
   1.1363788e-09  -7.4523647e-04   1.5783166e+00   1.4893923e+00  -3.4089505e+06
   1.1373791e-09  -7.4183417e-04   1.5781205e+00   1.4896015e+00  -3.3933969e+06
   1.1383795e-09  -7.3844739e-04   1.5779252e+00   1.4898098e+00  -3.3779142e+06
   1.1393798e-09  -7.3507607e-04   1.5777308e+00   1.4900171e+00  -3.3625021e+06
   1.1403801e-09  -7.3172012e-04   1.5775374e+00   1.4902235e+00  -3.3471602e+06
   1.1413805e-09  -7.2837949e-04   1.5773448e+00   1.4904290e+00  -3.3318882e+06
   1.1423808e-09  -7.2505410e-04   1.5771532e+00   1.4906336e+00  -3.3166858e+06
   1.1433811e-09  -7.2174389e-04   1.5769624e+00   1.4908372e+00  -3.3015527e+06
   1.1443815e-09  -7.1844877e-04   1.5767725e+00   1.4910400e+00  -3.2864886e+06
   1.1453818e-09  -7.1516869e-04   1.5765834e+00   1.4912418e+00  -3.2714931e+06
   1.1463821e-09  -7.1190358e-04   1.5763953e+00   1.4914427e+00  -3.2565660e+06
   1.1473825e-09  -7.0865337e-04   1.5762080e+00   1.4916427e+00  -3.2417069e+06
   1.1483828e-09  -7.0541798e-04   1.5760216e+00   1.4918419e+00  -3.2269155e+06
   1.1493831e-09  -7.0219736e-04   1.5758360e+00   1.4920401e+00  -3.2121915e+06
   1.1503835e-09  -6.9899144e-04   1.5756514e+00   1.4922375e+00  -3.1975347e+06
   1.1513838e-09  -6.9580014e-04   1.5754675e+00   1.4924339e+00  -3.1829446e+06
   1.1523841e-09  -6.9262340e-04   1.5752845e+00   1.4926295e+00  -3.1684210e+06
   1.1533845e-09  -6.8946116e-04   1.5751024e+00   1.4928242e+00  -3.1539637e+06
   1.1543848e-09  -6.8631335e-04   1.5749211e+00   1.4930180e+00  -3.1395722e+06
   1.1553851e-09  -6.8317990e-04   1.5747406e+00   1.4932110e+00  -3.1252464e+06
   1.1563855e-09  -6.8006075e-04   1.5745610e+00   1.4934031e+00  -3.1109858e+06
   1.1573858e-09  -6.7695583e-04   1.5743822e+00   1.4935943e+00  -3.0967902e+06
   1.1583861e-09  -6.7386508e-04   1.5742042e+00   1.4937847e+00  -3.0826594e+06
   1.1593865e-09  -6.7078844e-04   1.5740271e+00   1.4939743e+00  -3.0685929e+06
   1.1603868e-09  -6.6772583e-04   1.5738507e+00   1.4941629e+00  -3.0545906e+06
   1.1613871e-09  -6.6467720e-04   1.5736752e+00   1.4943508e+00  -3.0406521e+06
   1.1623875e-09  -6.6164248e-04   1.5735005e+00   1.4945377e+00  -3.0267771e+06
   1.1633878e-09  -6.5862160e-04   1.5733266e+00   1.4947239e+00  -3.0129654e+06
   1.1643881e-09  -6.5561451e-04   1.5731535e+00   1.4949092e+00  -2.9992166e+06
   1.1653885e-09  -6.5262115e-04   1.5729812e+00   1.4950937e+00  -2.9855305e+06
   1.1663888e-09  -6.4964144e-04   1.5728097e+00   1.4952773e+00  -2.9719068e+06
   1.1673891e-09  -6.4667533e-04   1.5726390e+00   1.4954602e+00  -2.9583452e+06
   1.1683895e-09  -6.4372276e-04   1.5724691e+00   1.4956422e+00  -2.9448454e+06
   1.1693898e-09  -6.4078366e-04   1.5722999e+00   1.4958234e+00  -2.9314071e+06
   1.1703901e-09  -6.3785797e-04   1.5721316e+00   1.4960038e+00  -2.9180302e+06
   1.1713905e-09  -6.3494563e-04   1.5719640e+00   1.4961833e+00  -2.9047141e+06
   1.1723908e-09  -6.3204658e-04   1.5717972e+00   1.4963621e+00  -2.8914588e+06
   1.1733911e-09  -6.2916076e-04   1.5716312e+00   1.4965401e+00  -2.8782640e+06
   1.1743915e-09  -6.2628812e-04   1.5714659e+00   1.4967172e+00  -2.8651292e+06
   1.1753918e-09  -6.2342857e-04   1.5713014e+00   1.4968936e+00  -2.8520544e+06
   1.1763921e-09  -6.2058208e-04   1.5711376e+00   1.4970692e+00  -2.8390392e+06
   1.1773925e-09  -6.1774858e-04   1.5709747e+00   1.4972439e+00  -2.8260832e+06
   1.1783928e-09  -6.1492801e-04   1.5708124e+00   1.4974179e+00  -2.8131864e+06
   1.1793931e-09  -6.1212031e-04   1.5706509e+00   1.4975912e+00  -2.8003484e+06
   1.1803935e-09  -6.0932543e-04   1.5704902e+00   1.4977636e+00  -2.7875688e+06
   1.1813938e-09  -6.0654330e-04   1.5703302e+00   1.4979353e+00  -2.7748476e+06
   1.1823941e-09  -6.0377386e-04   1.5701709e+00   1.4981062e+00  -2.7621843e+06
   1.1833945e-09  -6.0101707e-04   1.5700124e+00   1.4982763e+00  -2.7495788e+06
   1.1843948e-09  -5.9827285e-04   1.5698546e+00   1.4984456e+00  -2.7370308e+06
   1.1853951e-09  -5.9554116e-04   1.5696975e+00   1.4986142e+00  -2.7245399e+06
   1.1863955e-09  -5.9282194e-04   1.5695412e+00   1.4987821e+00  -2.7121060e+06
   1.1873958e-09  -5.9011512e-04   1.5693856e+00   1.4989492e+00  -2.6997288e+06
   1.1883961e-09  -5.8742066e-04   1.5692307e+00   1.4991155e+00  -2.6874080e+06
   1.1893965e-09  -5.8473850e-04   1.5690765e+00   1.4992811e+00  -2.6751434e+06
   1.1903968e-09  -5.8206857e-04   1.5689230e+00   1.4994459e+00  -2.6629348e+06
   1.1913971e-09  -5.7941083e-04   1.5687703e+00   1.4996100e+00  -2.6507817e+06
   1.1923975e-09  -5.7676522e-04   1.5686182e+00   1.4997734e+00  -2.6386841e+06
   1.1933978e-09  -5.7413169e-04   1.5684668e+00   1.4999360e+00  -2.6266417e+06
   1.1943981e-09  -5.7151017e-04   1.5683162e+00   1.5000979e+00  -2.6146542e+06
   1.1953985e-09  -5.6890062e-04   1.5681662e+00   1.5002591e+00  -2.6027213e+06
   1.1963988e-09  -5.6630297e-04   1.5680169e+00   1.5004196e+00  -2.5908428e+06
   1.1973991e-09  -5.6371718e-04   1.5678683e+00   1.5005793e+00  -2.5790185e+06
   1.1983995e-09  -5.6114320e-04   1.5677204e+00   1.5007383e+00  -2.5672481e+06
   1.1993998e-09  -5.5858096e-04   1.5675732e+00   1.5008966e+00  -2.5555314e+06
   1.2004001e-09  -5.5603041e-04   1.5674267e+00   1.5010542e+00  -2.5438681e+06
   1.2014005e-09  -5.5349151e-04   1.5672808e+00   1.5012110e+00  -2.5322579e+06
   1.2024008e-09  -5.5096419e-04   1.5671356e+00   1.5013672e+00  -2.5207008e+06
   1.2034011e-09  -5.4844841e-04   1.5669911e+00   1.5015227e+00  -2.5091963e+06
   1.2044015e-09  -5.4594411e-04   1.5668472e+00   1.5016774e+00  -2.4977443e+06
   1.2054018e-09  -5.4345124e-04   1.5667040e+00   1.5018315e+00  -2.4863445e+06
   1.2064021e-09  -5.4096974e-04   1.5665615e+00   1.5019849e+00  -2.4749966e+06
   1.2074025e-09  -5.3849957e-04   1.5664196e+00   1.5021375e+00  -2.4637006e+06
   1.2084028e-09  -5.3604068e-04   1.5662784e+00   1.5022895e+00  -2.4524560e+06
   1.2094031e-09  -5.3359301e-04   1.5661378e+00   1.5024408e+00  -2.4412627e+06
   1.2104035e-09  -5.3115651e-04   1.5659979e+00   1.5025915e+00  -2.4301205e+06
   1.2114038e-09  -5.2873113e-04   1.5658586e+00   1.5027414e+00  -2.4190290e+06
   1.2124041e-09  -5.2631682e-04   1.5657200e+00   1.5028907e+00  -2.4079882e+06
   1.2134045e-09  -5.2391353e-04   1.5655820e+00   1.5030393e+00  -2.3969977e+06
   1.2144048e-09  -5.2152121e-04   1.5654447e+00   1.5031872e+00  -2.3860573e+06
   1.2154051e-09  -5.1913981e-04   1.5653079e+00   1.5033345e+00  -2.3751668e+06
   1.2164055e-09  -5.1676928e-04   1.5651718e+00   1.5034811e+00  -2.3643260e+06
   1.2174058e-09  -5.1440956e-04   1.5650364e+00   1.5036270e+00  -2.3535346e+06
   1.2184061e-09  -5.1206062e-04   1.5649015e+00   1.5037723e+00  -2.3427924e+06
   1.2194065e-09  -5.0972240e-04   1.5647673e+00   1.5039169e+00  -2.3320992e+06
   1.2204068e-09  -5.0739485e-04   1.5646337e+00   1.5040609e+00  -2.3214548e+06
   1.2214071e-09  -5.0507793e-04   1.5645007e+00   1.5042043e+00  -2.3108589e+06
   1.2224075e-09  -5.0277158e-04   1.5643683e+00   1.5043469e+00  -2.3003113e+06
   1.2234078e-09  -5.0047575e-04   1.5642366e+00   1.5044890e+00  -2.2898119e+06
   1.2244081e-09  -4.9819041e-04   1.5641054e+00   1.5046304e+00  -2.2793603e+06
   1.2254085e-09  -4.9591550e-04   1.5639748e+00   1.5047712e+00  -2.2689564e+06
   1.2264088e-09  -4.9365097e-04   1.5638449e+00   1.5049113e+00  -2.2585999e+06
   1.2274091e-09  -4.9139678e-04   1.5637155e+00   1.5050508e+00  -2.2482907e+06
   1.2284095e-09  -4.8915287e-04   1.5635868e+00   1.5051896e+00  -2.2380285e+06
   1.2294098e-09  -4.8691921e-04   1.5634586e+00   1.5053279e+00  -2.2278131e+06
   1.2304101e-09  -4.8469574e-04   1.5633310e+00   1.5054655e+00  -2.2176443e+06
   1.2314105e-09  -4.8248243e-04   1.5632040e+00   1.5056025e+00  -2.2075218e+06
   1.2324108e-09  -4.8027921e-04   1.5630776e+00   1.5057389e+00  -2.1974456e+06
   1.2334111e-09  -4.7808606e-04   1.5629518e+00   1.5058747e+00  -2.1874152e+06
   1.2344115e-09  -4.7590291e-04   1.5628266e+00   1.5060098e+00  -2.1774307e+06
   1.2354118e-09  -4.7372973e-04   1.5627019e+00   1.5061444e+00  -2.1674916e+06
   1.2364121e-09  -4.7156646e-04   1.5625778e+00   1.5062783e+00  -2.1575979e+06
   1.2374125e-09  -4.6941308e-04   1.5624543e+00   1.5064116e+00  -2.1477494e+06
   1.2384128e-09  -4.6726952e-04   1.5623314e+00   1.5065444e+00  -2.1379457e+06
   1.2394131e-09  -4.6513574e-04   1.5622090e+00   1.5066765e+00  -2.1281868e+06
   1.2404135e-09  -4.6301171e-04   1.5620872e+00   1.5068080e+00  -2.1184723e+06
   1.2414138e-09  -4.6089737e-04   1.5619659e+00   1.5069390e+00  -2.1088022e+06
   1.2424141e-09  -4.5879269e-04   1.5618452e+00   1.5070693e+00  -2.0991762e+06
   1.2434145e-09  -4.5669761e-04   1.5617250e+00   1.5071991e+00  -2.0895941e+06
   1.2444148e-09  -4.5461209e-04   1.5616055e+00   1.5073283e+00  -2.0800557e+06
   1.2454151e-09  -4.5253609e-04   1.5614864e+00   1.5074569e+00  -2.0705608e+06
   1.2464155e-09  -4.5046957e-04   1.5613679e+00   1.5075849e+00  -2.0611092e+06
   1.2474158e-09  -4.4841248e-04   1.5612500e+00   1.5077123e+00  -2.0517008e+06
   1.2484161e-09  -4.4636479e-04   1.5611326e+00   1.5078392e+00  -2.0423352e+06
   1.2494165e-09  -4.4432644e-04   1.5610157e+00   1.5079655e+00  -2.0330124e+06
   1.2504168e-09  -4.4229739e-04   1.5608994e+00   1.5080912e+00  -2.0237320e+06
   1.2514171e-09  -4.4027761e-04   1.5607836e+00   1.5082164e+00  -2.0144941e+06
   1.2524175e-09  -4.3826705e-04   1.5606683e+00   1.5083410e+00  -2.0052982e+06
   1.2534178e-09  -4.3626566e-04   1.5605536e+00   1.5084650e+00  -1.9961443e+06
   1.2544181e-09  -4.3427341e-04   1.5604394e+00   1.5085884e+00  -1.9870322e+06
   1.2554185e-09  -4.3229026e-04   1.5603257e+00   1.5087114e+00  -1.9779616e+06
   1.2564188e-09  -4.3031616e-04   1.5602126e+00   1.5088337e+00  -1.9689324e+06
   1.2574191e-09  -4.2835107e-04   1.5600999e+00   1.5089555e+00  -1.9599444e+06
   1.2584195e-09  -4.2639495e-04   1.5599878e+00   1.5090768e+00  -1.9509974e+06
   1.2594198e-09  -4.2444776e-04   1.5598762e+00   1.5091975e+00  -1.9420912e+06
   1.2604201e-09  -4.2250946e-04   1.5597652e+00   1.5093176e+00  -1.9332256e+06
   1.2614205e-09  -4.2058000e-04   1.5596546e+00   1.5094372e+00  -1.9244005e+06
   1.2624208e-09  -4.1865936e-04   1.5595445e+00   1.5095563e+00  -1.9156156e+06
   1.2634211e-09  -4.1674748e-04   1.5594350e+00   1.5096749e+00  -1.9068708e+06
   1.2644215e-09  -4.1484433e-04   1.5593259e+00   1.5097929e+00  -1.8981659e+06
   1.2654218e-09  -4.1294987e-04   1.5592174e+00   1.5099103e+00  -1.8895007e+06
   1.2664221e-09  -4.1106406e-04   1.5591093e+00   1.5100273e+00  -1.8808751e+06
   1.2674225e-09  -4.0918685e-04   1.5590018e+00   1.5101437e+00  -1.8722887e+06
   1.2684228e-09  -4.0731822e-04   1.5588947e+00   1.5102596e+00  -1.8637416e+06
   1.2694231e-09  -4.0545811e-04   1.5587881e+00   1.5103749e+00  -1.8552334e+06
   1.2704235e-09  -4.0360650e-04   1.5586821e+00   1.5104898e+00  -1.8467641e+06
   1.2714238e-09  -4.0176334e-04   1.5585765e+00   1.5106041e+00  -1.8383334e+06
   1.2724241e-09  -3.9992860e-04   1.5584714e+00   1.5107179e+00  -1.8299411e+06
   1.2734245e-09  -3.9810223e-04   1.5583668e+00   1.5108312e+00  -1.8215872e+06
   1.2744248e-09  -3.9628419e-04   1.5582626e+00   1.5109440e+00  -1.8132713e+06
   1.2754251e-09  -3.9447446e-04   1.5581590e+00   1.5110562e+00  -1.8049934e+06
   1.2764255e-09  -3.9267299e-04   1.5580558e+00   1.5111680e+00  -1.7967533e+06
   1.2774258e-09  -3.9087974e-04   1.5579531e+00   1.5112792e+00  -1.7885507e+06
   1.2784261e-09  -3.8909468e-04   1.5578508e+00   1.5113900e+00  -1.7803856e+06
   1.2794265e-09  -3.8731777e-04   1.5577491e+00   1.5115003e+00  -1.7722577e+06
   1.2804268e-09  -3.8554897e-04   1.5576478e+00   1.5116100e+00  -1.7641669e+06
   1.2814271e-09  -3.8378825e-04   1.5575470e+00   1.5117193e+00  -1.7561131e+06
   1.2824275e-09  -3.8203556e-04   1.5574466e+00   1.5118280e+00  -1.7480959e+06
   1.2834278e-09  -3.8029088e-04   1.5573467e+00   1.5119363e+00  -1.7401154e+06
   1.2844281e-09  -3.7855416e-04   1.5572472e+00   1.5120441e+00  -1.7321712e+06
   1.2854285e-09  -3.7682537e-04   1.5571482e+00   1.5121514e+00  -1.7242633e+06
   1.2864288e-09  -3.7510447e-04   1.5570497e+00   1.5122582e+00  -1.7163915e+06
   1.2874291e-09  -3.7339143e-04   1.5569516e+00   1.5123645e+00  -1.7085556e+06
   1.2884295e-09  -3.7168621e-04   1.5568540e+00   1.5124704e+00  -1.7007554e+06
   1.2894298e-09  -3.6998877e-04   1.5567568e+00   1.5125757e+00  -1.6929908e+06
   1.2904301e-09  -3.6829909e-04   1.5566601e+00   1.5126806e+00  -1.6852617e+06
   1.2914305e-09  -3.6661711e-04   1.5565638e+00   1.5127850e+00  -1.6775678e+06
   1.2924308e-09  -3.6494282e-04   1.5564680e+00   1.5128890e+00  -1.6699090e+06
   1.2934311e-09  -3.6327617e-04   1.5563726e+00   1.5129925e+00  -1.6622852e+06
   1.2944315e-09  -3.6161713e-04   1.5562776e+00   1.5130955e+00  -1.6546961e+06
   1.2954318e-09  -3.5996566e-04   1.5561831e+00   1.5131980e+00  -1.6471417e+06
   1.2964321e-09  -3.5832174e-04   1.5560890e+00   1.5133001e+00  -1.6396217e+06
   1.2974325e-09  -3.5668532e-04   1.5559953e+00   1.5134017e+00  -1.6321361e+06
   1.2984328e-09  -3.5505637e-04   1.5559021e+00   1.5135028e+00  -1.6246846e+06
   1.2994331e-09  -3.5343485e-04   1.5558093e+00   1.5136035e+00  -1.6172671e+06
   1.3004335e-09  -3.5182074e-04   1.5557169e+00   1.5137038e+00  -1.6098834e+06
   1.3014338e-09  -3.5021400e-04   1.5556249e+00   1.5138036e+00  -1.6025335e+06
   1.3024341e-09  -3.4861459e-04   1.5555334e+00   1.5139029e+00  -1.5952170e+06
   1.3034345e-09  -3.4702249e-04   1.5554423e+00   1.5140018e+00  -1.5879340e+06
   1.3044348e-09  -3.4543766e-04   1.5553516e+00   1.5141002e+00  -1.5806842e+06
   1.3054351e-09  -3.4386006e-04   1.5552613e+00   1.5141982e+00  -1.5734675e+06
   1.3064355e-09  -3.4228966e-04   1.5551715e+00   1.5142958e+00  -1.5662837e+06
   1.3074358e-09  -3.4072643e-04   1.5550820e+00   1.5143929e+00  -1.5591326e+06
   1.3084361e-09  -3.3917035e-04   1.5549930e+00   1.5144895e+00  -1.5520142e+06
   1.3094365e-09  -3.3762136e-04   1.5549044e+00   1.5145858e+00  -1.5449283e+06
   1.3104368e-09  -3.3607945e-04   1.5548161e+00   1.5146816e+00  -1.5378747e+06
   1.3114371e-09  -3.3454457e-04   1.5547283e+00   1.5147769e+00  -1.5308534e+06
   1.3124375e-09  -3.3301671e-04   1.5546409e+00   1.5148719e+00  -1.5238640e+06
   1.3134378e-09  -3.3149582e-04   1.5545539e+00   1.5149664e+00  -1.5169065e+06
   1.3144381e-09  -3.2998187e-04   1.5544673e+00   1.5150604e+00  -1.5099808e+06
   1.3154385e-09  -3.2847484e-04   1.5543811e+00   1.5151541e+00  -1.5030867e+06
   1.3164388e-09  -3.2697469e-04   1.5542953e+00   1.5152473e+00  -1.4962241e+06
   1.3174391e-09  -3.2548138e-04   1.5542098e+00   1.5153401e+00  -1.4893927e+06
   1.3184395e-09  -3.2399490e-04   1.5541248e+00   1.5154325e+00  -1.4825926e+06
   1.3194398e-09  -3.2251520e-04   1.5540402e+00   1.5155244e+00  -1.4758234e+06
   1.3204401e-09  -3.2104226e-04   1.5539559e+00   1.5156160e+00  -1.4690852e+06
   1.3214405e-09  -3.1957604e-04   1.5538721e+00   1.5157071e+00  -1.4623777e+06
   1.3224408e-09  -3.1811652e-04   1.5537886e+00   1.5157978e+00  -1.4557008e+06
   1.3234411e-09  -3.1666366e-04   1.5537055e+00   1.5158881e+00  -1.4490544e+06
   1.3244415e-09  -3.1521743e-04   1.5536228e+00   1.5159780e+00  -1.4424383e+06
   1.3254418e-09  -3.1377781e-04   1.5535405e+00   1.5160675e+00  -1.4358524e+06
   1.3264421e-09  -3.1234476e-04   1.5534585e+00   1.5161566e+00  -1.4292965e+06
   1.3274425e-09  -3.1091825e-04   1.5533769e+00   1.5162453e+00  -1.4227706e+06
   1.3284428e-09  -3.0949826e-04   1.5532957e+00   1.5163336e+00  -1.4162745e+06
   1.3294431e-09  -3.0808475e-04   1.5532149e+00   1.5164215e+00  -1.4098080e+06
   1.3304435e-09  -3.0667769e-04   1.5531344e+00   1.5165089e+00  -1.4033710e+06
   1.3314438e-09  -3.0527706e-04   1.5530544e+00   1.5165960e+00  -1.3969633e+06
   1.3324441e-09  -3.0388282e-04   1.5529746e+00   1.5166827e+00  -1.3905850e+06
   1.3334445e-09  -3.0249495e-04   1.5528953e+00   1.5167690e+00  -1.3842357e+06
   1.3344448e-09  -3.0111342e-04   1.5528163e+00   1.5168549e+00  -1.3779154e+06
   1.3354451e-09  -2.9973819e-04   1.5527377e+00   1.5169404e+00  -1.3716239e+06
   1.3364455e-09  -2.9836925e-04   1.5526594e+00   1.5170256e+00  -1.3653612e+06
   1.3374458e-09  -2.9700655e-04   1.5525815e+00   1.5171103e+00  -1.3591270e+06
   1.3384461e-09  -2.9565008e-04   1.5525039e+00   1.5171947e+00  -1.3529213e+06
   1.3394465e-09  -2.9429980e-04   1.5524267e+00   1.5172787e+00  -1.3467439e+06
   1.3404468e-09  -2.9295568e-04   1.5523499e+00   1.5173623e+00  -1.3405947e+06
   1.3414471e-09  -2.9161771e-04   1.5522734e+00   1.5174455e+00  -1.3344736e+06
   1.3424475e-09  -2.9028584e-04   1.5521973e+00   1.5175283e+00  -1.3283804e+06
   1.3434478e-09  -2.8896005e-04   1.5521215e+00   1.5176108e+00  -1.3223150e+06
   1.3444481e-09  -2.8764032e-04   1.5520461e+00   1.5176929e+00  -1.3162773e+06
   1.3454485e-09  -2.8632661e-04   1.5519710e+00   1.5177746e+00  -1.3102671e+06
   1.3464488e-09  -2.8501890e-04   1.5518962e+00   1.5178559e+00  -1.3042844e+06
   1.3474491e-09  -2.8371716e-04   1.5518218e+00   1.5179369e+00  -1.2983290e+06
   1.3484495e-09  -2.8242137e-04   1.5517478e+00   1.5180175e+00  -1.2924007e+06
   1.3494498e-09  -2.8113149e-04   1.5516740e+00   1.5180978e+00  -1.2864996e+06
   1.3504502e-09  -2.7984750e-04   1.5516007e+00   1.5181777e+00  -1.2806253e+06
   1.3514505e-09  -2.7856937e-04   1.5515276e+00   1.5182572e+00  -1.2747778e+06
   1.3524508e-09  -2.7729708e-04   1.5514549e+00   1.5183363e+00  -1.2689571e+06
   1.3534512e-09  -2.7603060e-04   1.5513825e+00   1.5184152e+00  -1.2631629e+06
   1.3544515e-09  -2.7476991e-04   1.5513105e+00   1.5184936e+00  -1.2573951e+06
   1.3554518e-09  -2.7351497e-04   1.5512388e+00   1.5185717e+00  -1.2516537e+06
   1.3564522e-09  -2.7226576e-04   1.5511674e+00   1.5186494e+00  -1.2459385e+06
   1.3574525e-09  -2.7102225e-04   1.5510963e+00   1.5187268e+00  -1.2402493e+06
   1.3584528e-09  -2.6978442e-04   1.5510256e+00   1.5188038e+00  -1.2345862e+06
   1.3594532e-09  -2.6855225e-04   1.5509552e+00   1.5188805e+00  -1.2289488e+06
   1.3604535e-09  -2.6732570e-04   1.5508851e+00   1.5189569e+00  -1.2233372e+06
   1.3614538e-09  -2.6610475e-04   1.5508153e+00   1.5190328e+00  -1.2177513e+06
   1.3624542e-09  -2.6488937e-04   1.5507459e+00   1.5191085e+00  -1.2121908e+06
   1.3634545e-09  -2.6367955e-04   1.5506768e+00   1.5191838e+00  -1.2066556e+06
   1.3644548e-09  -2.6247525e-04   1.5506080e+00   1.5192587e+00  -1.2011458e+06
   1.3654552e-09  -2.6127645e-04   1.5505395e+00   1.5193334e+00  -1.1956611e+06
   1.3664555e-09  -2.6008312e-04   1.5504713e+00   1.5194076e+00  -1.1902014e+06
   1.3674558e-09  -2.5889524e-04   1.5504034e+00   1.5194816e+00  -1.1847667e+06
   1.3684562e-09  -2.5771279e-04   1.5503359e+00   1.5195552e+00  -1.1793567e+06
   1.3694565e-09  -2.5653573e-04   1.5502687e+00   1.5196285e+00  -1.1739715e+06
   1.3704568e-09  -2.5536406e-04   1.5502017e+00   1.5197014e+00  -1.1686108e+06
   1.3714572e-09  -2.5419773e-04   1.5501351e+00   1.5197740e+00  -1.1632746e+06
   1.3724575e-09  -2.5303672e-04   1.5500688e+00   1.5198463e+00  -1.1579627e+06
   1.3734578e-09  -2.5188102e-04   1.5500028e+00   1.5199183e+00  -1.1526751e+06
   1.3744582e-09  -2.5073059e-04   1.5499370e+00   1.5199899e+00  -1.1474117e+06
   1.3754585e-09  -2.4958542e-04   1.5498716e+00   1.5200612e+00  -1.1421722e+06
   1.3764588e-09  -2.4844548e-04   1.5498065e+00   1.5201322e+00  -1.1369567e+06
   1.3774592e-09  -2.4731074e-04   1.5497417e+00   1.5202028e+00  -1.1317650e+06
   1.3784595e-09  -2.4618119e-04   1.5496772e+00   1.5202732e+00  -1.1265969e+06
   1.3794598e-09  -2.4505679e-04   1.5496130e+00   1.5203432e+00  -1.1214525e+06
   1.3804602e-09  -2.4393753e-04   1.5495491e+00   1.5204129e+00  -1.1163315e+06
   1.3814605e-09  -2.4282338e-04   1.5494854e+00   1.5204823e+00  -1.1112339e+06
   1.3824608e-09  -2.4171431e-04   1.5494221e+00   1.5205513e+00  -1.1061596e+06
   1.3834612e-09  -2.4061031e-04   1.5493590e+00   1.5206201e+00  -1.1011085e+06
   1.3844615e-09  -2.3951135e-04   1.5492963e+00   1.5206885e+00  -1.0960804e+06
   1.3854618e-09  -2.3841741e-04   1.5492338e+00   1.5207567e+00  -1.0910752e+06
   1.3864622e-09  -2.3732847e-04   1.5491716e+00   1.5208245e+00  -1.0860929e+06
   1.3874625e-09  -2.3624449e-04   1.5491097e+00   1.5208920e+00  -1.0811333e+06
   1.3884628e-09  -2.3516547e-04   1.5490481e+00   1.5209592e+00  -1.0761964e+06
   1.3894632e-09  -2.3409138e-04   1.5489868e+00   1.5210261e+00  -1.0712820e+06
   1.3904635e-09  -2.3302218e-04   1.5489257e+00   1.5210927e+00  -1.0663901e+06
   1.3914638e-09  -2.3195788e-04   1.5488649e+00   1.5211590e+00  -1.0615204e+06
   1.3924642e-09  -2.3089843e-04   1.5488045e+00   1.5212250e+00  -1.0566730e+06
   1.3934645e-09  -2.2984382e-04   1.5487442e+00   1.5212907e+00  -1.0518478e+06
   1.3944648e-09  -2.2879402e-04   1.5486843e+00   1.5213561e+00  -1.0470445e+06
   1.3954652e-09  -2.2774902e-04   1.5486246e+00   1.5214212e+00  -1.0422632e+06
   1.3964655e-09  -2.2670880e-04   1.5485652e+00   1.5214860e+00  -1.0375037e+06
   1.3974658e-09  -2.2567332e-04   1.5485061e+00   1.5215505e+00  -1.0327659e+06
   1.3984662e-09  -2.2464257e-04   1.5484473e+00   1.5216147e+00  -1.0280498e+06
   1.3994665e-09  -2.2361653e-04   1.5483887e+00   1.5216786e+00  -1.0233552e+06
   1.4004668e-09  -2.2259517e-04   1.5483304e+00   1.5217423e+00  -1.0186820e+06
   1.4014672e-09  -2.2157847e-04   1.5482724e+00   1.5218056e+00  -1.0140301e+06
   1.4024675e-09  -2.2056642e-04   1.5482146e+00   1.5218687e+00  -1.0093995e+06
   1.4034678e-09  -2.1955900e-04   1.5481571e+00   1.5219315e+00  -1.0047900e+06
   1.4044682e-09  -2.1855617e-04   1.5480998e+00   1.5219939e+00  -1.0002016e+06
   1.4054685e-09  -2.1755792e-04   1.5480428e+00   1.5220562e+00  -9.9563409e+05
   1.4064688e-09  -2.1656423e-04   1.5479861e+00   1.5221181e+00  -9.9108745e+05
   1.4074692e-09  -2.1557508e-04   1.5479297e+00   1.5221797e+00  -9.8656155e+05
   1.4084695e-09  -2.1459044e-04   1.5478734e+00   1.5222411e+00  -9.8205632e+05
   1.4094698e-09  -2.1361030e-04   1.5478175e+00   1.5223022e+00  -9.7757166e+05
   1.4104702e-09  -2.1263464e-04   1.5477618e+00   1.5223630e+00  -9.7310747e+05
   1.4114705e-09  -2.1166343e-04   1.5477064e+00   1.5224235e+00  -9.6866365e+05
   1.4124708e-09  -2.1069666e-04   1.5476512e+00   1.5224837e+00  -9.6424012e+05
   1.4134712e-09  -2.0973430e-04   1.5475963e+00   1.5225437e+00  -9.5983679e+05
   1.4144715e-09  -2.0877634e-04   1.5475416e+00   1.5226034e+00  -9.5545355e+05
   1.4154718e-09  -2.0782275e-04   1.5474872e+00   1.5226629e+00  -9.5109033e+05
   1.4164722e-09  -2.0687352e-04   1.5474330e+00   1.5227220e+00  -9.4674702e+05
   1.4174725e-09  -2.0592862e-04   1.5473791e+00   1.5227809e+00  -9.4242354e+05
   1.4184728e-09  -2.0498803e-04   1.5473254e+00   1.5228396e+00  -9.3811980e+05
   1.4194732e-09  -2.0405175e-04   1.5472720e+00   1.5228979e+00  -9.3383570e+05
   1.4204735e-09  -2.0311973e-04   1.5472188e+00   1.5229560e+00  -9.2957117e+05
   1.4214738e-09  -2.0219198e-04   1.5471658e+00   1.5230138e+00  -9.2532609e+05
   1.4224742e-09  -2.0126846e-04   1.5471131e+00   1.5230714e+00  -9.2110040e+05
   1.4234745e-09  -2.0034916e-04   1.5470607e+00   1.5231287e+00  -9.1689400e+05
   1.4244748e-09  -1.9943405e-04   1.5470084e+00   1.5231858e+00  -9.1270680e+05
   1.4254752e-09  -1.9852313e-04   1.5469565e+00   1.5232426e+00  -9.0853872e+05
   1.4264755e-09  -1.9761636e-04   1.5469047e+00   1.5232991e+00  -9.0438966e+05
   1.4274758e-09  -1.9671374e-04   1.5468532e+00   1.5233554e+00  -9.0025955e+05
   1.4284762e-09  -1.9581524e-04   1.5468020e+00   1.5234114e+00  -8.9614829e+05
   1.4294765e-09  -1.9492084e-04   1.5467509e+00   1.5234672e+00  -8.9205580e+05
   1.4304768e-09  -1.9403052e-04   1.5467001e+00   1.5235227e+00  -8.8798199e+05
   1.4314772e-09  -1.9314427e-04   1.5466496e+00   1.5235779e+00  -8.8392678e+05
   1.4324775e-09  -1.9226207e-04   1.5465992e+00   1.5236329e+00  -8.7989008e+05
   1.4334778e-09  -1.9138390e-04   1.5465491e+00   1.5236877e+00  -8.7587182e+05
   1.4344782e-09  -1.9050974e-04   1.5464992e+00   1.5237422e+00  -8.7187189e+05
   1.4354785e-09  -1.8963957e-04   1.5464496e+00   1.5237965e+00  -8.6789023e+05
   1.4364788e-09  -1.8877337e-04   1.5464002e+00   1.5238505e+00  -8.6392674e+05
   1.4374792e-09  -1.8791113e-04   1.5463510e+00   1.5239042e+00  -8.5998135e+05
   1.4384795e-09  -1.8705283e-04   1.5463020e+00   1.5239578e+00  -8.5605397e+05
   1.4394798e-09  -1.8619845e-04   1.5462533e+00   1.5240111e+00  -8.5214452e+05
   1.4404802e-09  -1.8534797e-04   1.5462048e+00   1.5240641e+00  -8.4825292e+05
   1.4414805e-09  -1.8450137e-04   1.5461565e+00   1.5241169e+00  -8.4437908e+05
   1.4424808e-09  -1.8365864e-04   1.5461084e+00   1.5241694e+00  -8.4052293e+05
   1.4434812e-09  -1.8281976e-04   1.5460605e+00   1.5242218e+00  -8.3668439e+05
   1.4444815e-09  -1.8198471e-04   1.5460129e+00   1.5242738e+00  -8.3286337e+05
   1.4454818e-09  -1.8115347e-04   1.5459655e+00   1.5243257e+00  -8.2905979e+05
   1.4464822e-09  -1.8032603e-04   1.5459183e+00   1.5243773e+00  -8.2527358e+05
   1.4474825e-09  -1.7950237e-04   1.5458713e+00   1.5244287e+00  -8.2150465e+05
   1.4484828e-09  -1.7868247e-04   1.5458245e+00   1.5244798e+00  -8.1775293e+05
   1.4494832e-09  -1.7786631e-04   1.5457780e+00   1.5245307e+00  -8.1401834e+05
   1.4504835e-09  -1.7705388e-04   1.5457316e+00   1.5245814e+00  -8.1030080e+05
   1.4514838e-09  -1.7624516e-04   1.5456855e+00   1.5246318e+00  -8.0660024e+05
   1.4524842e-09  -1.7544014e-04   1.5456396e+00   1.5246821e+00  -8.0291656e+05
   1.4534845e-09  -1.7463879e-04   1.5455939e+00   1.5247321e+00  -7.9924971e+05
   1.4544848e-09  -1.7384110e-04   1.5455484e+00   1.5247818e+00  -7.9559959e+05
   1.4554852e-09  -1.7304705e-04   1.5455031e+00   1.5248313e+00  -7.9196614e+05
   1.4564855e-09  -1.7225663e-04   1.5454580e+00   1.5248807e+00  -7.8834928e+05
   1.4574858e-09  -1.7146982e-04   1.5454131e+00   1.5249297e+00  -7.8474894e+05
   1.4584862e-09  -1.7068661e-04   1.5453685e+00   1.5249786e+00  -7.8116503e+05
   1.4594865e-09  -1.6990697e-04   1.5453240e+00   1.5250272e+00  -7.7759748e+05
   1.4604868e-09  -1.6913089e-04   1.5452798e+00   1.5250757e+00  -7.7404622e+05
   1.4614872e-09  -1.6835835e-04   1.5452357e+00   1.5251239e+00  -7.7051117e+05
   1.4624875e-09  -1.6758935e-04   1.5451918e+00   1.5251718e+00  -7.6699227e+05
