   0.0000000e+00  -1.1088364e-01   6.4361148e+00   1.1517195e-03  -5.2364694e+08
   6.6688896e-13  -1.1053473e-01   6.4366854e+00   1.1835227e-03  -5.2273201e+08
   1.3337779e-12  -1.1018643e-01   6.4372626e+00   1.2161476e-03  -5.2181713e+08
   2.0006669e-12  -1.0983873e-01   6.4378463e+00   1.2496138e-03  -5.2090232e+08
   2.6675559e-12  -1.0949165e-01   6.4384366e+00   1.2839414e-03  -5.1998757e+08
   3.3344448e-12  -1.0914518e-01   6.4390337e+00   1.3191506e-03  -5.1907288e+08
   4.0013338e-12  -1.0879932e-01   6.4396375e+00   1.3552625e-03  -5.1815824e+08
   4.6682227e-12  -1.0845406e-01   6.4402481e+00   1.3922983e-03  -5.1724367e+08
   5.3351117e-12  -1.0810942e-01   6.4408656e+00   1.4302798e-03  -5.1632916e+08
   6.0020007e-12  -1.0776539e-01   6.4414901e+00   1.4692293e-03  -5.1541470e+08
   6.6688896e-12  -1.0742197e-01   6.4421215e+00   1.5091695e-03  -5.1450031e+08
   7.3357786e-12  -1.0707915e-01   6.4427599e+00   1.5501235e-03  -5.1358597e+08
   8.0026676e-12  -1.0673695e-01   6.4434055e+00   1.5921152e-03  -5.1267170e+08
   8.6695565e-12  -1.0639536e-01   6.4440582e+00   1.6351685e-03  -5.1175749e+08
   9.3364455e-12  -1.0605437e-01   6.4447181e+00   1.6793083e-03  -5.1084333e+08
   1.0003334e-11  -1.0571400e-01   6.4453853e+00   1.7245597e-03  -5.0992924e+08
   1.0670223e-11  -1.0537423e-01   6.4460598e+00   1.7709485e-03  -5.0901521e+08
   1.1337112e-11  -1.0503508e-01   6.4467417e+00   1.8185008e-03  -5.0810123e+08
   1.2004001e-11  -1.0469653e-01   6.4474311e+00   1.8672436e-03  -5.0718732e+08
   1.2670890e-11  -1.0435860e-01   6.4481279e+00   1.9172042e-03  -5.0627347e+08
   1.3337779e-11  -1.0402127e-01   6.4488323e+00   1.9684105e-03  -5.0535968e+08
   1.4004668e-11  -1.0368455e-01   6.4495443e+00   2.0208910e-03  -5.0444594e+08
   1.4671557e-11  -1.0334844e-01   6.4502640e+00   2.0746747e-03  -5.0353227e+08
   1.5338446e-11  -1.0301294e-01   6.4509915e+00   2.1297914e-03  -5.0261866e+08
   1.6005335e-11  -1.0267806e-01   6.4517267e+00   2.1862713e-03  -5.0170511e+08
   1.6672224e-11  -1.0234377e-01   6.4524697e+00   2.2441452e-03  -5.0079162e+08
   1.7339113e-11  -1.0201010e-01   6.4532207e+00   2.3034449e-03  -4.9987819e+08
   1.8006002e-11  -1.0167704e-01   6.4539797e+00   2.3642022e-03  -4.9896482e+08
   1.8672891e-11  -1.0134459e-01   6.4547466e+00   2.4264501e-03  -4.9805151e+08
   1.9339780e-11  -1.0101274e-01   6.4555217e+00   2.4902221e-03  -4.9713826e+08
   2.0006669e-11  -1.0068151e-01   6.4563049e+00   2.5555521e-03  -4.9622507e+08
   2.0673558e-11  -1.0035088e-01   6.4570962e+00   2.6224751e-03  -4.9531194e+08
   2.1340447e-11  -1.0002087e-01   6.4578959e+00   2.6910265e-03  -4.9439887e+08
   2.2007336e-11  -9.9691458e-02   6.4587038e+00   2.7612425e-03  -4.9348586e+08
   2.2674225e-11  -9.9362658e-02   6.4595202e+00   2.8331601e-03  -4.9257290e+08
   2.3341114e-11  -9.9034468e-02   6.4603449e+00   2.9068167e-03  -4.9166001e+08
   2.4008003e-11  -9.8706886e-02   6.4611782e+00   2.9822510e-03  -4.9074718e+08
   2.4674892e-11  -9.8379913e-02   6.4620199e+00   3.0595018e-03  -4.8983441e+08
   2.5341781e-11  -9.8053549e-02   6.4628703e+00   3.1386092e-03  -4.8892170e+08
   2.6008670e-11  -9.7727793e-02   6.4637294e+00   3.2196137e-03  -4.8800904e+08
   2.6675559e-11  -9.7402646e-02   6.4645971e+00   3.3025569e-03  -4.8709645e+08
   2.7342447e-11  -9.7078107e-02   6.4654737e+00   3.3874810e-03  -4.8618391e+08
   2.8009336e-11  -9.6754177e-02   6.4663590e+00   3.4744290e-03  -4.8527144e+08
   2.8676225e-11  -9.6430856e-02   6.4672533e+00   3.5634449e-03  -4.8435902e+08
   2.9343114e-11  -9.6108143e-02   6.4681565e+00   3.6545733e-03  -4.8344666e+08
   3.0010003e-11  -9.5786038e-02   6.4690687e+00   3.7478599e-03  -4.8253436e+08
   3.0676892e-11  -9.5464542e-02   6.4699899e+00   3.8433510e-03  -4.8162212e+08
   3.1343781e-11  -9.5143654e-02   6.4709203e+00   3.9410940e-03  -4.8070993e+08
   3.2010670e-11  -9.4823374e-02   6.4718598e+00   4.0411372e-03  -4.7979780e+08
   3.2677559e-11  -9.4503703e-02   6.4728086e+00   4.1435296e-03  -4.7888574e+08
   3.3344448e-11  -9.4184640e-02   6.4737666e+00   4.2483213e-03  -4.7797373e+08
   3.4011337e-11  -9.3866185e-02   6.4747340e+00   4.3555633e-03  -4.7706177e+08
   3.4678226e-11  -9.3548338e-02   6.4757107e+00   4.4653074e-03  -4.7614988e+08
   3.5345115e-11  -9.3231100e-02   6.4766969e+00   4.5776067e-03  -4.7523804e+08
   3.6012004e-11  -9.2914469e-02   6.4776926e+00   4.6925150e-03  -4.7432625e+08
   3.6678893e-11  -9.2598447e-02   6.4786979e+00   4.8100871e-03  -4.7341453e+08
   3.7345782e-11  -9.2283032e-02   6.4797127e+00   4.9303789e-03  -4.7250286e+08
   3.8012671e-11  -9.1968226e-02   6.4807372e+00   5.0534473e-03  -4.7159125e+08
   3.8679560e-11  -9.1654027e-02   6.4817715e+00   5.1793503e-03  -4.7067969e+08
   3.9346449e-11  -9.1340436e-02   6.4828154e+00   5.3081468e-03  -4.6976819e+08
   4.0013338e-11  -9.1027453e-02   6.4838692e+00   5.4398969e-03  -4.6885674e+08
   4.0680227e-11  -9.0715078e-02   6.4849329e+00   5.5746618e-03  -4.6794535e+08
   4.1347116e-11  -9.0403311e-02   6.4860065e+00   5.7125037e-03  -4.6703401e+08
   4.2014005e-11  -9.0092152e-02   6.4870900e+00   5.8534859e-03  -4.6612273e+08
   4.2680894e-11  -8.9781600e-02   6.4881836e+00   5.9976730e-03  -4.6521150e+08
   4.3347783e-11  -8.9471655e-02   6.4892872e+00   6.1451305e-03  -4.6430033e+08
   4.4014672e-11  -8.9162319e-02   6.4904009e+00   6.2959254e-03  -4.6338921e+08
   4.4681561e-11  -8.8853590e-02   6.4915248e+00   6.4501255e-03  -4.6247815e+08
   4.5348449e-11  -8.8545469e-02   6.4926589e+00   6.6078001e-03  -4.6156714e+08
   4.6015338e-11  -8.8237955e-02   6.4938033e+00   6.7690196e-03  -4.6065618e+08
   4.6682227e-11  -8.7931048e-02   6.4949580e+00   6.9338555e-03  -4.5974527e+08
   4.7349116e-11  -8.7624749e-02   6.4961230e+00   7.1023809e-03  -4.5883442e+08
   4.8016005e-11  -8.7319058e-02   6.4972985e+00   7.2746697e-03  -4.5792361e+08
   4.8682894e-11  -8.7013974e-02   6.4984843e+00   7.4507975e-03  -4.5701286e+08
   4.9349783e-11  -8.6709497e-02   6.4996807e+00   7.6308409e-03  -4.5610216e+08
   5.0016672e-11  -8.6405628e-02   6.5008876e+00   7.8148781e-03  -4.5519152e+08
   5.0683561e-11  -8.6102365e-02   6.5021051e+00   8.0029883e-03  -4.5428092e+08
   5.1350450e-11  -8.5799711e-02   6.5033332e+00   8.1952522e-03  -4.5337037e+08
   5.2017339e-11  -8.5497663e-02   6.5045719e+00   8.3917521e-03  -4.5245987e+08
   5.2684228e-11  -8.5196222e-02   6.5058214e+00   8.5925713e-03  -4.5154943e+08
   5.3351117e-11  -8.4895389e-02   6.5070816e+00   8.7977948e-03  -4.5063903e+08
   5.4018006e-11  -8.4595163e-02   6.5083526e+00   9.0075089e-03  -4.4972868e+08
   5.4684895e-11  -8.4295544e-02   6.5096344e+00   9.2218012e-03  -4.4881838e+08
   5.5351784e-11  -8.3996532e-02   6.5109270e+00   9.4407610e-03  -4.4790813e+08
   5.6018673e-11  -8.3698126e-02   6.5122306e+00   9.6644791e-03  -4.4699792e+08
   5.6685562e-11  -8.3400328e-02   6.5135451e+00   9.8930475e-03  -4.4608776e+08
   5.7352451e-11  -8.3103137e-02   6.5148705e+00   1.0126560e-02  -4.4517765e+08
   5.8019340e-11  -8.2806553e-02   6.5162070e+00   1.0365112e-02  -4.4426759e+08
   5.8686229e-11  -8.2510576e-02   6.5175545e+00   1.0608799e-02  -4.4335757e+08
   5.9353118e-11  -8.2215205e-02   6.5189130e+00   1.0857722e-02  -4.4244760e+08
   6.0020007e-11  -8.1920442e-02   6.5202827e+00   1.1111978e-02  -4.4153767e+08
   6.0686896e-11  -8.1626285e-02   6.5216635e+00   1.1371671e-02  -4.4062779e+08
   6.1353785e-11  -8.1332735e-02   6.5230554e+00   1.1636902e-02  -4.3971795e+08
   6.2020674e-11  -8.1039792e-02   6.5244585e+00   1.1907778e-02  -4.3880816e+08
   6.2687563e-11  -8.0747455e-02   6.5258729e+00   1.2184403e-02  -4.3789841e+08
   6.3354451e-11  -8.0455725e-02   6.5272984e+00   1.2466888e-02  -4.3698870e+08
   6.4021340e-11  -8.0164602e-02   6.5287353e+00   1.2755340e-02  -4.3607903e+08
   6.4688229e-11  -7.9874086e-02   6.5301834e+00   1.3049873e-02  -4.3516941e+08
   6.5355118e-11  -7.9584176e-02   6.5316429e+00   1.3350599e-02  -4.3425983e+08
   6.6022007e-11  -7.9294873e-02   6.5331136e+00   1.3657633e-02  -4.3335029e+08
   6.6688896e-11  -7.9006176e-02   6.5345958e+00   1.3971093e-02  -4.3244080e+08
   6.7355785e-11  -7.8718085e-02   6.5360893e+00   1.4291096e-02  -4.3153134e+08
   6.8022674e-11  -7.8430602e-02   6.5375942e+00   1.4617764e-02  -4.3062192e+08
   6.8689563e-11  -7.8143724e-02   6.5391105e+00   1.4951219e-02  -4.2971254e+08
   6.9356452e-11  -7.7857454e-02   6.5406383e+00   1.5291584e-02  -4.2880321e+08
   7.0023341e-11  -7.7571789e-02   6.5421775e+00   1.5638986e-02  -4.2789391e+08
   7.0690230e-11  -7.7286731e-02   6.5437281e+00   1.5993554e-02  -4.2698464e+08
   7.1357119e-11  -7.7002279e-02   6.5452902e+00   1.6355416e-02  -4.2607542e+08
   7.2024008e-11  -7.6718434e-02   6.5468638e+00   1.6724704e-02  -4.2516623e+08
   7.2690897e-11  -7.6435195e-02   6.5484488e+00   1.7101553e-02  -4.2425708e+08
   7.3357786e-11  -7.6152562e-02   6.5500454e+00   1.7486098e-02  -4.2334797e+08
   7.4024675e-11  -7.5870536e-02   6.5516534e+00   1.7878476e-02  -4.2243889e+08
   7.4691564e-11  -7.5589116e-02   6.5532730e+00   1.8278828e-02  -4.2152985e+08
   7.5358453e-11  -7.5308302e-02   6.5549040e+00   1.8687295e-02  -4.2062084e+08
   7.6025342e-11  -7.5028094e-02   6.5565466e+00   1.9104021e-02  -4.1971186e+08
   7.6692231e-11  -7.4748493e-02   6.5582006e+00   1.9529152e-02  -4.1880292e+08
   7.7359120e-11  -7.4469497e-02   6.5598662e+00   1.9962835e-02  -4.1789402e+08
   7.8026009e-11  -7.4191108e-02   6.5615432e+00   2.0405222e-02  -4.1698514e+08
   7.8692898e-11  -7.3913325e-02   6.5632318e+00   2.0856463e-02  -4.1607630e+08
   7.9359787e-11  -7.3636148e-02   6.5649318e+00   2.1316713e-02  -4.1516749e+08
   8.0026676e-11  -7.3359577e-02   6.5666433e+00   2.1786129e-02  -4.1425871e+08
   8.0693565e-11  -7.3083612e-02   6.5683663e+00   2.2264870e-02  -4.1334997e+08
   8.1360453e-11  -7.2808253e-02   6.5701007e+00   2.2753096e-02  -4.1244125e+08
   8.2027342e-11  -7.2533500e-02   6.5718466e+00   2.3250970e-02  -4.1153256e+08
   8.2694231e-11  -7.2259353e-02   6.5736039e+00   2.3758657e-02  -4.1062391e+08
   8.3361120e-11  -7.1985812e-02   6.5753726e+00   2.4276326e-02  -4.0971528e+08
   8.4028009e-11  -7.1712877e-02   6.5771526e+00   2.4804145e-02  -4.0880668e+08
   8.4694898e-11  -7.1440548e-02   6.5789441e+00   2.5342287e-02  -4.0789811e+08
   8.5361787e-11  -7.1168825e-02   6.5807469e+00   2.5890927e-02  -4.0698956e+08
   8.6028676e-11  -7.0897708e-02   6.5825610e+00   2.6450240e-02  -4.0608105e+08
   8.6695565e-11  -7.0627196e-02   6.5843863e+00   2.7020407e-02  -4.0517256e+08
   8.7362454e-11  -7.0357291e-02   6.5862230e+00   2.7601607e-02  -4.0426409e+08
   8.8029343e-11  -7.0087991e-02   6.5880708e+00   2.8194026e-02  -4.0335566e+08
   8.8696232e-11  -6.9819297e-02   6.5899299e+00   2.8797849e-02  -4.0244724e+08
   8.9363121e-11  -6.9551209e-02   6.5918001e+00   2.9413265e-02  -4.0153886e+08
   9.0030010e-11  -6.9283727e-02   6.5936814e+00   3.0040465e-02  -4.0063049e+08
   9.0696899e-11  -6.9016850e-02   6.5955738e+00   3.0679641e-02  -3.9972216e+08
   9.1363788e-11  -6.8750580e-02   6.5974773e+00   3.1330991e-02  -3.9881384e+08
   9.2030677e-11  -6.8484915e-02   6.5993917e+00   3.1994711e-02  -3.9790555e+08
   9.2697566e-11  -6.8219856e-02   6.6013171e+00   3.2671003e-02  -3.9699728e+08
   9.3364455e-11  -6.7955402e-02   6.6032533e+00   3.3360070e-02  -3.9608903e+08
   9.4031344e-11  -6.7691554e-02   6.6052004e+00   3.4062118e-02  -3.9518081e+08
   9.4698233e-11  -6.7428312e-02   6.6071583e+00   3.4777354e-02  -3.9427261e+08
   9.5365122e-11  -6.7165676e-02   6.6091269e+00   3.5505991e-02  -3.9336442e+08
   9.6032011e-11  -6.6903645e-02   6.6111062e+00   3.6248240e-02  -3.9245626e+08
   9.6698900e-11  -6.6642220e-02   6.6130961e+00   3.7004318e-02  -3.9154812e+08
   9.7365789e-11  -6.6381400e-02   6.6150965e+00   3.7774443e-02  -3.9064000e+08
   9.8032678e-11  -6.6121186e-02   6.6171074e+00   3.8558835e-02  -3.8973190e+08
   9.8699567e-11  -6.5861578e-02   6.6191287e+00   3.9357720e-02  -3.8882382e+08
   9.9366455e-11  -6.5602576e-02   6.6211604e+00   4.0171322e-02  -3.8791576e+08
   1.0003334e-10  -6.5344178e-02   6.6232023e+00   4.0999870e-02  -3.8700771e+08
   1.0070023e-10  -6.5086387e-02   6.6252544e+00   4.1843596e-02  -3.8609969e+08
   1.0136712e-10  -6.4829201e-02   6.6273166e+00   4.2702734e-02  -3.8519168e+08
   1.0203401e-10  -6.4572621e-02   6.6293889e+00   4.3577520e-02  -3.8428369e+08
   1.0270090e-10  -6.4316646e-02   6.6314711e+00   4.4468193e-02  -3.8337572e+08
   1.0336779e-10  -6.4061276e-02   6.6335631e+00   4.5374995e-02  -3.8246777e+08
   1.0403468e-10  -6.3806512e-02   6.6356649e+00   4.6298171e-02  -3.8155983e+08
   1.0470157e-10  -6.3552354e-02   6.6377764e+00   4.7237968e-02  -3.8065191e+08
   1.0536846e-10  -6.3298801e-02   6.6398974e+00   4.8194635e-02  -3.7974401e+08
   1.0603535e-10  -6.3045854e-02   6.6420279e+00   4.9168426e-02  -3.7883612e+08
   1.0670223e-10  -6.2793512e-02   6.6441678e+00   5.0159594e-02  -3.7792825e+08
   1.0736912e-10  -6.2541775e-02   6.6463169e+00   5.1168398e-02  -3.7702040e+08
   1.0803601e-10  -6.2290644e-02   6.6484752e+00   5.2195099e-02  -3.7611256e+08
   1.0870290e-10  -6.2040119e-02   6.6506426e+00   5.3239959e-02  -3.7520474e+08
   1.0936979e-10  -6.1790199e-02   6.6528189e+00   5.4303244e-02  -3.7429693e+08
   1.1003668e-10  -6.1540884e-02   6.6550040e+00   5.5385222e-02  -3.7338914e+08
   1.1070357e-10  -6.1292174e-02   6.6571978e+00   5.6486166e-02  -3.7248136e+08
   1.1137046e-10  -6.1044070e-02   6.6594002e+00   5.7606348e-02  -3.7157360e+08
   1.1203735e-10  -6.0796572e-02   6.6616110e+00   5.8746045e-02  -3.7066586e+08
   1.1270423e-10  -6.0549679e-02   6.6638302e+00   5.9905537e-02  -3.6975813e+08
   1.1337112e-10  -6.0303391e-02   6.6660575e+00   6.1085104e-02  -3.6885041e+08
   1.1403801e-10  -6.0057708e-02   6.6682929e+00   6.2285032e-02  -3.6794271e+08
   1.1470490e-10  -5.9812631e-02   6.6705362e+00   6.3505607e-02  -3.6703503e+08
   1.1537179e-10  -5.9568159e-02   6.6727873e+00   6.4747120e-02  -3.6612736e+08
   1.1603868e-10  -5.9324293e-02   6.6750460e+00   6.6009862e-02  -3.6521971e+08
   1.1670557e-10  -5.9081032e-02   6.6773122e+00   6.7294129e-02  -3.6431207e+08
   1.1737246e-10  -5.8838376e-02   6.6795857e+00   6.8600219e-02  -3.6340445e+08
   1.1803935e-10  -5.8596325e-02   6.6818664e+00   6.9928431e-02  -3.6249684e+08
   1.1870624e-10  -5.8354880e-02   6.6841541e+00   7.1279068e-02  -3.6158925e+08
   1.1937312e-10  -5.8114040e-02   6.6864487e+00   7.2652437e-02  -3.6068168e+08
   1.2004001e-10  -5.7873805e-02   6.6887499e+00   7.4048845e-02  -3.5977412e+08
   1.2070690e-10  -5.7634176e-02   6.6910577e+00   7.5468602e-02  -3.5886658e+08
   1.2137379e-10  -5.7395151e-02   6.6933718e+00   7.6912022e-02  -3.5795905e+08
   1.2204068e-10  -5.7156732e-02   6.6956921e+00   7.8379421e-02  -3.5705155e+08
   1.2270757e-10  -5.6918918e-02   6.6980183e+00   7.9871116e-02  -3.5614406e+08
   1.2337446e-10  -5.6681710e-02   6.7003504e+00   8.1387429e-02  -3.5523659e+08
   1.2404135e-10  -5.6445106e-02   6.7026881e+00   8.2928682e-02  -3.5432913e+08
   1.2470824e-10  -5.6209108e-02   6.7050313e+00   8.4495201e-02  -3.5342170e+08
   1.2537513e-10  -5.5973715e-02   6.7073797e+00   8.6087315e-02  -3.5251428e+08
   1.2604201e-10  -5.5738927e-02   6.7097331e+00   8.7705353e-02  -3.5160689e+08
   1.2670890e-10  -5.5504744e-02   6.7120914e+00   8.9349649e-02  -3.5069951e+08
   1.2737579e-10  -5.5271166e-02   6.7144543e+00   9.1020537e-02  -3.4979216e+08
   1.2804268e-10  -5.5038194e-02   6.7168217e+00   9.2718356e-02  -3.4888483e+08
   1.2870957e-10  -5.4805826e-02   6.7191933e+00   9.4443446e-02  -3.4797751e+08
   1.2937646e-10  -5.4574064e-02   6.7215689e+00   9.6196147e-02  -3.4707023e+08
   1.3004335e-10  -5.4342907e-02   6.7239483e+00   9.7976806e-02  -3.4616296e+08
   1.3071024e-10  -5.4112354e-02   6.7263313e+00   9.9785768e-02  -3.4525572e+08
   1.3137713e-10  -5.3882407e-02   6.7287176e+00   1.0162338e-01  -3.4434850e+08
   1.3204401e-10  -5.3653065e-02   6.7311070e+00   1.0349000e-01  -3.4344131e+08
   1.3271090e-10  -5.3424328e-02   6.7334994e+00   1.0538598e-01  -3.4253415e+08
   1.3337779e-10  -5.3196195e-02   6.7358943e+00   1.0731166e-01  -3.4162701e+08
   1.3404468e-10  -5.2968668e-02   6.7382917e+00   1.0926742e-01  -3.4071990e+08
   1.3471157e-10  -5.2741746e-02   6.7406913e+00   1.1125360e-01  -3.3981282e+08
   1.3537846e-10  -5.2515428e-02   6.7430928e+00   1.1327057e-01  -3.3890577e+08
   1.3604535e-10  -5.2289716e-02   6.7454959e+00   1.1531870e-01  -3.3799875e+08
   1.3671224e-10  -5.2064608e-02   6.7479005e+00   1.1739834e-01  -3.3709176e+08
   1.3737913e-10  -5.1840105e-02   6.7503063e+00   1.1950986e-01  -3.3618481e+08
   1.3804602e-10  -5.1616207e-02   6.7527129e+00   1.2165364e-01  -3.3527789e+08
   1.3871290e-10  -5.1392914e-02   6.7551202e+00   1.2383005e-01  -3.3437101e+08
   1.3937979e-10  -5.1170226e-02   6.7575278e+00   1.2603944e-01  -3.3346416e+08
   1.4004668e-10  -5.0948143e-02   6.7599355e+00   1.2828221e-01  -3.3255736e+08
   1.4071357e-10  -5.0726664e-02   6.7623431e+00   1.3055872e-01  -3.3165059e+08
   1.4138046e-10  -5.0505790e-02   6.7647502e+00   1.3286935e-01  -3.3074386e+08
   1.4204735e-10  -5.0285520e-02   6.7671565e+00   1.3521448e-01  -3.2983718e+08
   1.4271424e-10  -5.0065856e-02   6.7695618e+00   1.3759449e-01  -3.2893054e+08
   1.4338113e-10  -4.9846795e-02   6.7719658e+00   1.4000976e-01  -3.2802395e+08
   1.4404802e-10  -4.9628340e-02   6.7743681e+00   1.4246067e-01  -3.2711740e+08
   1.4471490e-10  -4.9410489e-02   6.7767686e+00   1.4494760e-01  -3.2621091e+08
   1.4538179e-10  -4.9193243e-02   6.7791668e+00   1.4747095e-01  -3.2530446e+08
   1.4604868e-10  -4.8976601e-02   6.7815625e+00   1.5003109e-01  -3.2439807e+08
   1.4671557e-10  -4.8760563e-02   6.7839554e+00   1.5262842e-01  -3.2349173e+08
   1.4738246e-10  -4.8545130e-02   6.7863451e+00   1.5526331e-01  -3.2258545e+08
   1.4804935e-10  -4.8330302e-02   6.7887314e+00   1.5793617e-01  -3.2167922e+08
   1.4871624e-10  -4.8116077e-02   6.7911139e+00   1.6064737e-01  -3.2077306e+08
   1.4938313e-10  -4.7902457e-02   6.7934923e+00   1.6339732e-01  -3.1986696e+08
   1.5005002e-10  -4.7689442e-02   6.7958663e+00   1.6618639e-01  -3.1896092e+08
   1.5071691e-10  -4.7477030e-02   6.7982355e+00   1.6901499e-01  -3.1805495e+08
   1.5138379e-10  -4.7265223e-02   6.8005997e+00   1.7188350e-01  -3.1714905e+08
   1.5205068e-10  -4.7054019e-02   6.8029584e+00   1.7479231e-01  -3.1624322e+08
   1.5271757e-10  -4.6843420e-02   6.8053113e+00   1.7774183e-01  -3.1533747e+08
   1.5338446e-10  -4.6633425e-02   6.8076582e+00   1.8073244e-01  -3.1443179e+08
   1.5405135e-10  -4.6424034e-02   6.8099986e+00   1.8376453e-01  -3.1352619e+08
   1.5471824e-10  -4.6215247e-02   6.8123322e+00   1.8683850e-01  -3.1262067e+08
   1.5538513e-10  -4.6007064e-02   6.8146587e+00   1.8995475e-01  -3.1171523e+08
   1.5605202e-10  -4.5799484e-02   6.8169776e+00   1.9311366e-01  -3.1080989e+08
   1.5671891e-10  -4.5592508e-02   6.8192887e+00   1.9631564e-01  -3.0990463e+08
   1.5738580e-10  -4.5386136e-02   6.8215916e+00   1.9956106e-01  -3.0899946e+08
   1.5805268e-10  -4.5180368e-02   6.8238859e+00   2.0285034e-01  -3.0809439e+08
   1.5871957e-10  -4.4975203e-02   6.8261713e+00   2.0618384e-01  -3.0718942e+08
   1.5938646e-10  -4.4770641e-02   6.8284473e+00   2.0956198e-01  -3.0628455e+08
   1.6005335e-10  -4.4566684e-02   6.8307136e+00   2.1298514e-01  -3.0537978e+08
   1.6072024e-10  -4.4363329e-02   6.8329698e+00   2.1645371e-01  -3.0447512e+08
   1.6138713e-10  -4.4160578e-02   6.8352156e+00   2.1996808e-01  -3.0357057e+08
   1.6205402e-10  -4.3958429e-02   6.8374506e+00   2.2352864e-01  -3.0266614e+08
   1.6272091e-10  -4.3756885e-02   6.8396743e+00   2.2713578e-01  -3.0176183e+08
   1.6338780e-10  -4.3555943e-02   6.8418865e+00   2.3078988e-01  -3.0085763e+08
   1.6405468e-10  -4.3355604e-02   6.8440866e+00   2.3449133e-01  -2.9995357e+08
   1.6472157e-10  -4.3155868e-02   6.8462744e+00   2.3824051e-01  -2.9904963e+08
   1.6538846e-10  -4.2956734e-02   6.8484493e+00   2.4203780e-01  -2.9814582e+08
   1.6605535e-10  -4.2758204e-02   6.8506112e+00   2.4588359e-01  -2.9724215e+08
   1.6672224e-10  -4.2560276e-02   6.8527594e+00   2.4977825e-01  -2.9633862e+08
   1.6738913e-10  -4.2362950e-02   6.8548937e+00   2.5372217e-01  -2.9543524e+08
   1.6805602e-10  -4.2166227e-02   6.8570136e+00   2.5771571e-01  -2.9453200e+08
   1.6872291e-10  -4.1970107e-02   6.8591187e+00   2.6175925e-01  -2.9362892e+08
   1.6938980e-10  -4.1774588e-02   6.8612086e+00   2.6585316e-01  -2.9272600e+08
   1.7005669e-10  -4.1579672e-02   6.8632829e+00   2.6999780e-01  -2.9182323e+08
   1.7072357e-10  -4.1385358e-02   6.8653412e+00   2.7419356e-01  -2.9092063e+08
   1.7139046e-10  -4.1191645e-02   6.8673831e+00   2.7844079e-01  -2.9001821e+08
   1.7205735e-10  -4.0998534e-02   6.8694082e+00   2.8273984e-01  -2.8911596e+08
   1.7272424e-10  -4.0806025e-02   6.8714160e+00   2.8709109e-01  -2.8821388e+08
   1.7339113e-10  -4.0614118e-02   6.8734061e+00   2.9149488e-01  -2.8731200e+08
   1.7405802e-10  -4.0422812e-02   6.8753782e+00   2.9595156e-01  -2.8641030e+08
   1.7472491e-10  -4.0232107e-02   6.8773317e+00   3.0046150e-01  -2.8550880e+08
   1.7539180e-10  -4.0042003e-02   6.8792664e+00   3.0502502e-01  -2.8460750e+08
   1.7605869e-10  -3.9852501e-02   6.8811816e+00   3.0964249e-01  -2.8370640e+08
   1.7672558e-10  -3.9663599e-02   6.8830771e+00   3.1431422e-01  -2.8280551e+08
   1.7739246e-10  -3.9475298e-02   6.8849524e+00   3.1904057e-01  -2.8190484e+08
   1.7805935e-10  -3.9287598e-02   6.8868071e+00   3.2382186e-01  -2.8100440e+08
   1.7872624e-10  -3.9100498e-02   6.8886407e+00   3.2865842e-01  -2.8010417e+08
   1.7939313e-10  -3.8913998e-02   6.8904528e+00   3.3355057e-01  -2.7920419e+08
   1.8006002e-10  -3.8728098e-02   6.8922431e+00   3.3849864e-01  -2.7830444e+08
   1.8072691e-10  -3.8542799e-02   6.8940109e+00   3.4350294e-01  -2.7740493e+08
   1.8139380e-10  -3.8358099e-02   6.8957561e+00   3.4856377e-01  -2.7650568e+08
   1.8206069e-10  -3.8173999e-02   6.8974780e+00   3.5368145e-01  -2.7560668e+08
   1.8272758e-10  -3.7990498e-02   6.8991763e+00   3.5885628e-01  -2.7470794e+08
   1.8339446e-10  -3.7807597e-02   6.9008505e+00   3.6408855e-01  -2.7380947e+08
   1.8406135e-10  -3.7625294e-02   6.9025003e+00   3.6937856e-01  -2.7291128e+08
   1.8472824e-10  -3.7443591e-02   6.9041251e+00   3.7472660e-01  -2.7201338e+08
   1.8539513e-10  -3.7262486e-02   6.9057247e+00   3.8013293e-01  -2.7111576e+08
   1.8606202e-10  -3.7081980e-02   6.9072984e+00   3.8559785e-01  -2.7021843e+08
   1.8672891e-10  -3.6902072e-02   6.9088459e+00   3.9112162e-01  -2.6932141e+08
   1.8739580e-10  -3.6722763e-02   6.9103668e+00   3.9670450e-01  -2.6842470e+08
   1.8806269e-10  -3.6544051e-02   6.9118607e+00   4.0234676e-01  -2.6752830e+08
   1.8872958e-10  -3.6365937e-02   6.9133271e+00   4.0804865e-01  -2.6663223e+08
   1.8939647e-10  -3.6188420e-02   6.9147655e+00   4.1381042e-01  -2.6573649e+08
   1.9006335e-10  -3.6011501e-02   6.9161757e+00   4.1963230e-01  -2.6484108e+08
   1.9073024e-10  -3.5835178e-02   6.9175570e+00   4.2551453e-01  -2.6394602e+08
   1.9139713e-10  -3.5659453e-02   6.9189092e+00   4.3145735e-01  -2.6305132e+08
   1.9206402e-10  -3.5484324e-02   6.9202319e+00   4.3746097e-01  -2.6215698e+08
   1.9273091e-10  -3.5309791e-02   6.9215244e+00   4.4352560e-01  -2.6126300e+08
   1.9339780e-10  -3.5135855e-02   6.9227866e+00   4.4965146e-01  -2.6036940e+08
   1.9406469e-10  -3.4962514e-02   6.9240179e+00   4.5583875e-01  -2.5947619e+08
   1.9473158e-10  -3.4789769e-02   6.9252179e+00   4.6208766e-01  -2.5858337e+08
   1.9539847e-10  -3.4617619e-02   6.9263863e+00   4.6839838e-01  -2.5769095e+08
   1.9606536e-10  -3.4446064e-02   6.9275225e+00   4.7477109e-01  -2.5679894e+08
   1.9673224e-10  -3.4275104e-02   6.9286263e+00   4.8120597e-01  -2.5590735e+08
   1.9739913e-10  -3.4104738e-02   6.9296972e+00   4.8770317e-01  -2.5501618e+08
   1.9806602e-10  -3.3934967e-02   6.9307348e+00   4.9426285e-01  -2.5412546e+08
   1.9873291e-10  -3.3765789e-02   6.9317386e+00   5.0088517e-01  -2.5323517e+08
   1.9939980e-10  -3.3597205e-02   6.9327084e+00   5.0757026e-01  -2.5234534e+08
   2.0006669e-10  -3.3429214e-02   6.9336437e+00   5.1431827e-01  -2.5145597e+08
   2.0073358e-10  -3.3261817e-02   6.9345441e+00   5.2112930e-01  -2.5056707e+08
   2.0140047e-10  -3.3095011e-02   6.9354092e+00   5.2800349e-01  -2.4967865e+08
   2.0206736e-10  -3.2928799e-02   6.9362386e+00   5.3494095e-01  -2.4879073e+08
   2.0273424e-10  -3.2763178e-02   6.9370320e+00   5.4194176e-01  -2.4790330e+08
   2.0340113e-10  -3.2598149e-02   6.9377890e+00   5.4900603e-01  -2.4701638e+08
   2.0406802e-10  -3.2433711e-02   6.9385092e+00   5.5613383e-01  -2.4612998e+08
   2.0473491e-10  -3.2269864e-02   6.9391922e+00   5.6332525e-01  -2.4524411e+08
   2.0540180e-10  -3.2106608e-02   6.9398377e+00   5.7058035e-01  -2.4435878e+08
   2.0606869e-10  -3.1943942e-02   6.9404453e+00   5.7789918e-01  -2.4347399e+08
   2.0673558e-10  -3.1781866e-02   6.9410146e+00   5.8528179e-01  -2.4258977e+08
   2.0740247e-10  -3.1620379e-02   6.9415453e+00   5.9272822e-01  -2.4170611e+08
   2.0806936e-10  -3.1459481e-02   6.9420371e+00   6.0023850e-01  -2.4082304e+08
   2.0873625e-10  -3.1299173e-02   6.9424895e+00   6.0781265e-01  -2.3994055e+08
   2.0940313e-10  -3.1139452e-02   6.9429023e+00   6.1545069e-01  -2.3905867e+08
   2.1007002e-10  -3.0980320e-02   6.9432752e+00   6.2315260e-01  -2.3817739e+08
   2.1073691e-10  -3.0821775e-02   6.9436077e+00   6.3091839e-01  -2.3729674e+08
   2.1140380e-10  -3.0663817e-02   6.9438995e+00   6.3874804e-01  -2.3641672e+08
   2.1207069e-10  -3.0506446e-02   6.9441504e+00   6.4664151e-01  -2.3553735e+08
   2.1273758e-10  -3.0349661e-02   6.9443600e+00   6.5459878e-01  -2.3465863e+08
   2.1340447e-10  -3.0193461e-02   6.9445281e+00   6.6261979e-01  -2.3378057e+08
   2.1407136e-10  -3.0037848e-02   6.9446542e+00   6.7070448e-01  -2.3290320e+08
   2.1473825e-10  -2.9882819e-02   6.9447381e+00   6.7885280e-01  -2.3202651e+08
   2.1540514e-10  -2.9728374e-02   6.9447796e+00   6.8706465e-01  -2.3115052e+08
   2.1607202e-10  -2.9574513e-02   6.9447783e+00   6.9533997e-01  -2.3027525e+08
   2.1673891e-10  -2.9421236e-02   6.9447339e+00   7.0367864e-01  -2.2940070e+08
   2.1740580e-10  -2.9268542e-02   6.9446462e+00   7.1208056e-01  -2.2852689e+08
   2.1807269e-10  -2.9116431e-02   6.9445148e+00   7.2054561e-01  -2.2765382e+08
   2.1873958e-10  -2.8964901e-02   6.9443396e+00   7.2907367e-01  -2.2678152e+08
   2.1940647e-10  -2.8813953e-02   6.9441203e+00   7.3766460e-01  -2.2590998e+08
   2.2007336e-10  -2.8663586e-02   6.9438566e+00   7.4631825e-01  -2.2503923e+08
   2.2074025e-10  -2.8513799e-02   6.9435483e+00   7.5503446e-01  -2.2416928e+08
   2.2140714e-10  -2.8364592e-02   6.9431951e+00   7.6381305e-01  -2.2330013e+08
   2.2207402e-10  -2.8215965e-02   6.9427969e+00   7.7265386e-01  -2.2243181e+08
   2.2274091e-10  -2.8067916e-02   6.9423533e+00   7.8155670e-01  -2.2156432e+08
   2.2340780e-10  -2.7920446e-02   6.9418642e+00   7.9052135e-01  -2.2069767e+08
   2.2407469e-10  -2.7773553e-02   6.9413293e+00   7.9954762e-01  -2.1983189e+08
   2.2474158e-10  -2.7627238e-02   6.9407485e+00   8.0863527e-01  -2.1896698e+08
   2.2540847e-10  -2.7481498e-02   6.9401216e+00   8.1778409e-01  -2.1810295e+08
   2.2607536e-10  -2.7336335e-02   6.9394483e+00   8.2699382e-01  -2.1723982e+08
   2.2674225e-10  -2.7191747e-02   6.9387285e+00   8.3626422e-01  -2.1637760e+08
   2.2740914e-10  -2.7047734e-02   6.9379620e+00   8.4559503e-01  -2.1551631e+08
   2.2807603e-10  -2.6904295e-02   6.9371487e+00   8.5498596e-01  -2.1465595e+08
   2.2874291e-10  -2.6761430e-02   6.9362884e+00   8.6443674e-01  -2.1379654e+08
   2.2940980e-10  -2.6619137e-02   6.9353809e+00   8.7394707e-01  -2.1293810e+08
   2.3007669e-10  -2.6477416e-02   6.9344261e+00   8.8351666e-01  -2.1208064e+08
   2.3074358e-10  -2.6336267e-02   6.9334239e+00   8.9314518e-01  -2.1122416e+08
   2.3141047e-10  -2.6195689e-02   6.9323741e+00   9.0283231e-01  -2.1036869e+08
   2.3207736e-10  -2.6055681e-02   6.9312766e+00   9.1257772e-01  -2.0951424e+08
   2.3274425e-10  -2.5916242e-02   6.9301313e+00   9.2238106e-01  -2.0866082e+08
   2.3341114e-10  -2.5777372e-02   6.9289381e+00   9.3224199e-01  -2.0780845e+08
   2.3407803e-10  -2.5639071e-02   6.9276969e+00   9.4216012e-01  -2.0695713e+08
   2.3474491e-10  -2.5501336e-02   6.9264076e+00   9.5213510e-01  -2.0610689e+08
   2.3541180e-10  -2.5364169e-02   6.9250702e+00   9.6216653e-01  -2.0525773e+08
   2.3607869e-10  -2.5227567e-02   6.9236845e+00   9.7225402e-01  -2.0440968e+08
   2.3674558e-10  -2.5091530e-02   6.9222505e+00   9.8239716e-01  -2.0356274e+08
   2.3741247e-10  -2.4956058e-02   6.9207682e+00   9.9259555e-01  -2.0271693e+08
   2.3807936e-10  -2.4821150e-02   6.9192374e+00   1.0028488e+00  -2.0187226e+08
   2.3874625e-10  -2.4686804e-02   6.9176583e+00   1.0131564e+00  -2.0102875e+08
   2.3941314e-10  -2.4553021e-02   6.9160306e+00   1.0235179e+00  -2.0018641e+08
   2.4008003e-10  -2.4419799e-02   6.9143545e+00   1.0339329e+00  -1.9934526e+08
   2.4074692e-10  -2.4287138e-02   6.9126298e+00   1.0444010e+00  -1.9850530e+08
   2.4141380e-10  -2.4155036e-02   6.9108567e+00   1.0549216e+00  -1.9766656e+08
   2.4208069e-10  -2.4023493e-02   6.9090350e+00   1.0654943e+00  -1.9682905e+08
   2.4274758e-10  -2.3892509e-02   6.9071649e+00   1.0761187e+00  -1.9599278e+08
   2.4341447e-10  -2.3762081e-02   6.9052462e+00   1.0867941e+00  -1.9515777e+08
   2.4408136e-10  -2.3632210e-02   6.9032791e+00   1.0975201e+00  -1.9432403e+08
   2.4474825e-10  -2.3502895e-02   6.9012637e+00   1.1082961e+00  -1.9349158e+08
   2.4541514e-10  -2.3374135e-02   6.8991998e+00   1.1191218e+00  -1.9266042e+08
   2.4608203e-10  -2.3245928e-02   6.8970876e+00   1.1299964e+00  -1.9183058e+08
   2.4674892e-10  -2.3118274e-02   6.8949272e+00   1.1409196e+00  -1.9100207e+08
   2.4741581e-10  -2.2991173e-02   6.8927186e+00   1.1518906e+00  -1.9017491e+08
   2.4808269e-10  -2.2864622e-02   6.8904620e+00   1.1629091e+00  -1.8934910e+08
   2.4874958e-10  -2.2738622e-02   6.8881573e+00   1.1739744e+00  -1.8852466e+08
   2.4941647e-10  -2.2613171e-02   6.8858047e+00   1.1850859e+00  -1.8770161e+08
   2.5008336e-10  -2.2488269e-02   6.8834042e+00   1.1962431e+00  -1.8687996e+08
   2.5075025e-10  -2.2363914e-02   6.8809561e+00   1.2074454e+00  -1.8605973e+08
   2.5141714e-10  -2.2240106e-02   6.8784604e+00   1.2186922e+00  -1.8524092e+08
   2.5208403e-10  -2.2116843e-02   6.8759173e+00   1.2299828e+00  -1.8442356e+08
   2.5275092e-10  -2.1994125e-02   6.8733268e+00   1.2413167e+00  -1.8360766e+08
   2.5341781e-10  -2.1871950e-02   6.8706892e+00   1.2526934e+00  -1.8279324e+08
   2.5408469e-10  -2.1750318e-02   6.8680045e+00   1.2641120e+00  -1.8198030e+08
   2.5475158e-10  -2.1629228e-02   6.8652730e+00   1.2755721e+00  -1.8116886e+08
   2.5541847e-10  -2.1508678e-02   6.8624948e+00   1.2870729e+00  -1.8035894e+08
   2.5608536e-10  -2.1388668e-02   6.8596701e+00   1.2986139e+00  -1.7955055e+08
   2.5675225e-10  -2.1269197e-02   6.8567990e+00   1.3101944e+00  -1.7874370e+08
   2.5741914e-10  -2.1150263e-02   6.8538819e+00   1.3218138e+00  -1.7793841e+08
   2.5808603e-10  -2.1031865e-02   6.8509187e+00   1.3334713e+00  -1.7713470e+08
   2.5875292e-10  -2.0914004e-02   6.8479099e+00   1.3451664e+00  -1.7633257e+08
   2.5941981e-10  -2.0796676e-02   6.8448555e+00   1.3568983e+00  -1.7553205e+08
   2.6008670e-10  -2.0679882e-02   6.8417559e+00   1.3686664e+00  -1.7473314e+08
   2.6075358e-10  -2.0563620e-02   6.8386111e+00   1.3804700e+00  -1.7393586e+08
   2.6142047e-10  -2.0447889e-02   6.8354216e+00   1.3923084e+00  -1.7314022e+08
   2.6208736e-10  -2.0332689e-02   6.8321874e+00   1.4041810e+00  -1.7234624e+08
   2.6275425e-10  -2.0218017e-02   6.8289090e+00   1.4160870e+00  -1.7155393e+08
   2.6342114e-10  -2.0103873e-02   6.8255864e+00   1.4280257e+00  -1.7076330e+08
   2.6408803e-10  -1.9990256e-02   6.8222200e+00   1.4399965e+00  -1.6997438e+08
   2.6475492e-10  -1.9877164e-02   6.8188101e+00   1.4519987e+00  -1.6918716e+08
   2.6542181e-10  -1.9764597e-02   6.8153570e+00   1.4640314e+00  -1.6840167e+08
   2.6608870e-10  -1.9652553e-02   6.8118608e+00   1.4760941e+00  -1.6761793e+08
   2.6675559e-10  -1.9541031e-02   6.8083220e+00   1.4881860e+00  -1.6683593e+08
   2.6742247e-10  -1.9430030e-02   6.8047408e+00   1.5003064e+00  -1.6605570e+08
   2.6808936e-10  -1.9319549e-02   6.8011175e+00   1.5124545e+00  -1.6527725e+08
   2.6875625e-10  -1.9209586e-02   6.7974524e+00   1.5246297e+00  -1.6450059e+08
   2.6942314e-10  -1.9100141e-02   6.7937458e+00   1.5368312e+00  -1.6372574e+08
   2.7009003e-10  -1.8991212e-02   6.7899982e+00   1.5490583e+00  -1.6295270e+08
   2.7075692e-10  -1.8882797e-02   6.7862097e+00   1.5613102e+00  -1.6218150e+08
   2.7142381e-10  -1.8774897e-02   6.7823807e+00   1.5735863e+00  -1.6141214e+08
   2.7209070e-10  -1.8667509e-02   6.7785117e+00   1.5858857e+00  -1.6064464e+08
   2.7275759e-10  -1.8560632e-02   6.7746028e+00   1.5982078e+00  -1.5987901e+08
   2.7342447e-10  -1.8454265e-02   6.7706545e+00   1.6105518e+00  -1.5911526e+08
   2.7409136e-10  -1.8348407e-02   6.7666671e+00   1.6229170e+00  -1.5835341e+08
   2.7475825e-10  -1.8243056e-02   6.7626410e+00   1.6353026e+00  -1.5759346e+08
   2.7542514e-10  -1.8138211e-02   6.7585765e+00   1.6477079e+00  -1.5683544e+08
   2.7609203e-10  -1.8033871e-02   6.7544741e+00   1.6601321e+00  -1.5607934e+08
   2.7675892e-10  -1.7930035e-02   6.7503341e+00   1.6725745e+00  -1.5532519e+08
   2.7742581e-10  -1.7826701e-02   6.7461568e+00   1.6850344e+00  -1.5457300e+08
   2.7809270e-10  -1.7723868e-02   6.7419427e+00   1.6975111e+00  -1.5382277e+08
   2.7875959e-10  -1.7621535e-02   6.7376922e+00   1.7100036e+00  -1.5307452e+08
   2.7942648e-10  -1.7519700e-02   6.7334056e+00   1.7225115e+00  -1.5232826e+08
   2.8009336e-10  -1.7418362e-02   6.7290833e+00   1.7350338e+00  -1.5158401e+08
   2.8076025e-10  -1.7317520e-02   6.7247258e+00   1.7475699e+00  -1.5084176e+08
   2.8142714e-10  -1.7217172e-02   6.7203335e+00   1.7601189e+00  -1.5010155e+08
   2.8209403e-10  -1.7117317e-02   6.7159067e+00   1.7726802e+00  -1.4936337e+08
   2.8276092e-10  -1.7017954e-02   6.7114459e+00   1.7852531e+00  -1.4862723e+08
   2.8342781e-10  -1.6919081e-02   6.7069515e+00   1.7978367e+00  -1.4789315e+08
   2.8409470e-10  -1.6820697e-02   6.7024239e+00   1.8104304e+00  -1.4716115e+08
   2.8476159e-10  -1.6722800e-02   6.6978636e+00   1.8230335e+00  -1.4643122e+08
   2.8542848e-10  -1.6625389e-02   6.6932709e+00   1.8356450e+00  -1.4570338e+08
   2.8609537e-10  -1.6528463e-02   6.6886463e+00   1.8482645e+00  -1.4497764e+08
   2.8676225e-10  -1.6432021e-02   6.6839903e+00   1.8608910e+00  -1.4425401e+08
   2.8742914e-10  -1.6336060e-02   6.6793032e+00   1.8735240e+00  -1.4353250e+08
   2.8809603e-10  -1.6240580e-02   6.6745856e+00   1.8861626e+00  -1.4281312e+08
   2.8876292e-10  -1.6145578e-02   6.6698378e+00   1.8988062e+00  -1.4209588e+08
   2.8942981e-10  -1.6051055e-02   6.6650603e+00   1.9114540e+00  -1.4138078e+08
   2.9009670e-10  -1.5957007e-02   6.6602535e+00   1.9241053e+00  -1.4066785e+08
   2.9076359e-10  -1.5863434e-02   6.6554179e+00   1.9367594e+00  -1.3995708e+08
   2.9143048e-10  -1.5770335e-02   6.6505540e+00   1.9494155e+00  -1.3924849e+08
   2.9209737e-10  -1.5677707e-02   6.6456622e+00   1.9620731e+00  -1.3854209e+08
   2.9276425e-10  -1.5585550e-02   6.6407429e+00   1.9747313e+00  -1.3783788e+08
   2.9343114e-10  -1.5493861e-02   6.6357966e+00   1.9873895e+00  -1.3713588e+08
   2.9409803e-10  -1.5402640e-02   6.6308237e+00   2.0000470e+00  -1.3643609e+08
   2.9476492e-10  -1.5311885e-02   6.6258248e+00   2.0127031e+00  -1.3573851e+08
   2.9543181e-10  -1.5221594e-02   6.6208002e+00   2.0253570e+00  -1.3504317e+08
   2.9609870e-10  -1.5131767e-02   6.6157505e+00   2.0380081e+00  -1.3435006e+08
   2.9676559e-10  -1.5042401e-02   6.6106761e+00   2.0506558e+00  -1.3365920e+08
   2.9743248e-10  -1.4953494e-02   6.6055774e+00   2.0632993e+00  -1.3297059e+08
   2.9809937e-10  -1.4865047e-02   6.6004550e+00   2.0759381e+00  -1.3228424e+08
   2.9876626e-10  -1.4777056e-02   6.5953092e+00   2.0885713e+00  -1.3160016e+08
   2.9943314e-10  -1.4689521e-02   6.5901406e+00   2.1011983e+00  -1.3091835e+08
   3.0010003e-10  -1.4602439e-02   6.5849497e+00   2.1138186e+00  -1.3023883e+08
   3.0076692e-10  -1.4515810e-02   6.5797367e+00   2.1264313e+00  -1.2956159e+08
   3.0143381e-10  -1.4429632e-02   6.5745024e+00   2.1390360e+00  -1.2888665e+08
   3.0210070e-10  -1.4343904e-02   6.5692470e+00   2.1516319e+00  -1.2821401e+08
   3.0276759e-10  -1.4258623e-02   6.5639711e+00   2.1642184e+00  -1.2754368e+08
   3.0343448e-10  -1.4173788e-02   6.5586752e+00   2.1767949e+00  -1.2687567e+08
   3.0410137e-10  -1.4089398e-02   6.5533596e+00   2.1893607e+00  -1.2620997e+08
   3.0476826e-10  -1.4005451e-02   6.5480250e+00   2.2019152e+00  -1.2554661e+08
   3.0543515e-10  -1.3921946e-02   6.5426716e+00   2.2144579e+00  -1.2488557e+08
   3.0610203e-10  -1.3838881e-02   6.5373001e+00   2.2269880e+00  -1.2422688e+08
   3.0676892e-10  -1.3756254e-02   6.5319108e+00   2.2395050e+00  -1.2357053e+08
   3.0743581e-10  -1.3674065e-02   6.5265042e+00   2.2520083e+00  -1.2291653e+08
   3.0810270e-10  -1.3592311e-02   6.5210808e+00   2.2644973e+00  -1.2226488e+08
   3.0876959e-10  -1.3510990e-02   6.5156410e+00   2.2769714e+00  -1.2161560e+08
   3.0943648e-10  -1.3430102e-02   6.5101854e+00   2.2894300e+00  -1.2096868e+08
   3.1010337e-10  -1.3349644e-02   6.5047142e+00   2.3018726e+00  -1.2032413e+08
   3.1077026e-10  -1.3269615e-02   6.4992281e+00   2.3142986e+00  -1.1968195e+08
   3.1143715e-10  -1.3190014e-02   6.4937275e+00   2.3267073e+00  -1.1904215e+08
   3.1210403e-10  -1.3110839e-02   6.4882127e+00   2.3390984e+00  -1.1840473e+08
   3.1277092e-10  -1.3032088e-02   6.4826844e+00   2.3514711e+00  -1.1776970e+08
   3.1343781e-10  -1.2953760e-02   6.4771428e+00   2.3638250e+00  -1.1713706e+08
   3.1410470e-10  -1.2875853e-02   6.4715885e+00   2.3761595e+00  -1.1650682e+08
   3.1477159e-10  -1.2798365e-02   6.4660219e+00   2.3884741e+00  -1.1587897e+08
   3.1543848e-10  -1.2721295e-02   6.4604435e+00   2.4007683e+00  -1.1525352e+08
   3.1610537e-10  -1.2644642e-02   6.4548537e+00   2.4130415e+00  -1.1463048e+08
   3.1677226e-10  -1.2568403e-02   6.4492529e+00   2.4252933e+00  -1.1400984e+08
   3.1743915e-10  -1.2492577e-02   6.4436415e+00   2.4375231e+00  -1.1339161e+08
   3.1810604e-10  -1.2417163e-02   6.4380201e+00   2.4497304e+00  -1.1277580e+08
   3.1877292e-10  -1.2342159e-02   6.4323890e+00   2.4619147e+00  -1.1216240e+08
   3.1943981e-10  -1.2267563e-02   6.4267487e+00   2.4740756e+00  -1.1155142e+08
   3.2010670e-10  -1.2193373e-02   6.4210996e+00   2.4862126e+00  -1.1094287e+08
   3.2077359e-10  -1.2119589e-02   6.4154421e+00   2.4983252e+00  -1.1033673e+08
   3.2144048e-10  -1.2046208e-02   6.4097767e+00   2.5104129e+00  -1.0973302e+08
   3.2210737e-10  -1.1973229e-02   6.4041037e+00   2.5224753e+00  -1.0913173e+08
   3.2277426e-10  -1.1900650e-02   6.3984237e+00   2.5345120e+00  -1.0853287e+08
   3.2344115e-10  -1.1828470e-02   6.3927369e+00   2.5465224e+00  -1.0793644e+08
   3.2410804e-10  -1.1756686e-02   6.3870438e+00   2.5585061e+00  -1.0734244e+08
   3.2477492e-10  -1.1685298e-02   6.3813449e+00   2.5704628e+00  -1.0675087e+08
   3.2544181e-10  -1.1614304e-02   6.3756405e+00   2.5823919e+00  -1.0616174e+08
   3.2610870e-10  -1.1543701e-02   6.3699310e+00   2.5942932e+00  -1.0557504e+08
   3.2677559e-10  -1.1473489e-02   6.3642169e+00   2.6061660e+00  -1.0499077e+08
   3.2744248e-10  -1.1403666e-02   6.3584985e+00   2.6180102e+00  -1.0440894e+08
   3.2810937e-10  -1.1334230e-02   6.3527762e+00   2.6298252e+00  -1.0382954e+08
   3.2877626e-10  -1.1265180e-02   6.3470504e+00   2.6416106e+00  -1.0325258e+08
   3.2944315e-10  -1.1196514e-02   6.3413216e+00   2.6533662e+00  -1.0267805e+08
   3.3011004e-10  -1.1128230e-02   6.3355900e+00   2.6650914e+00  -1.0210596e+08
   3.3077693e-10  -1.1060327e-02   6.3298561e+00   2.6767860e+00  -1.0153631e+08
   3.3144381e-10  -1.0992802e-02   6.3241203e+00   2.6884496e+00  -1.0096909e+08
   3.3211070e-10  -1.0925656e-02   6.3183828e+00   2.7000817e+00  -1.0040430e+08
   3.3277759e-10  -1.0858885e-02   6.3126442e+00   2.7116822e+00  -9.9841954e+07
   3.3344448e-10  -1.0792488e-02   6.3069047e+00   2.7232506e+00  -9.9282038e+07
   3.3411137e-10  -1.0726464e-02   6.3011648e+00   2.7347865e+00  -9.8724554e+07
   3.3477826e-10  -1.0660811e-02   6.2954247e+00   2.7462897e+00  -9.8169502e+07
   3.3544515e-10  -1.0595527e-02   6.2896849e+00   2.7577599e+00  -9.7616881e+07
   3.3611204e-10  -1.0530611e-02   6.2839457e+00   2.7691967e+00  -9.7066689e+07
   3.3677893e-10  -1.0466061e-02   6.2782074e+00   2.7805998e+00  -9.6518926e+07
   3.3744582e-10  -1.0401876e-02   6.2724704e+00   2.7919689e+00  -9.5973588e+07
   3.3811270e-10  -1.0338053e-02   6.2667351e+00   2.8033037e+00  -9.5430676e+07
   3.3877959e-10  -1.0274592e-02   6.2610017e+00   2.8146040e+00  -9.4890186e+07
   3.3944648e-10  -1.0211490e-02   6.2552707e+00   2.8258693e+00  -9.4352118e+07
   3.4011337e-10  -1.0148746e-02   6.2495422e+00   2.8370996e+00  -9.3816468e+07
   3.4078026e-10  -1.0086359e-02   6.2438168e+00   2.8482944e+00  -9.3283236e+07
   3.4144715e-10  -1.0024327e-02   6.2380946e+00   2.8594536e+00  -9.2752418e+07
   3.4211404e-10  -9.9626475e-03   6.2323761e+00   2.8705768e+00  -9.2224013e+07
   3.4278093e-10  -9.9013198e-03   6.2266614e+00   2.8816639e+00  -9.1698017e+07
   3.4344782e-10  -9.8403421e-03   6.2209510e+00   2.8927146e+00  -9.1174428e+07
   3.4411470e-10  -9.7797128e-03   6.2152452e+00   2.9037285e+00  -9.0653244e+07
   3.4478159e-10  -9.7194302e-03   6.2095442e+00   2.9147056e+00  -9.0134461e+07
   3.4544848e-10  -9.6594929e-03   6.2038484e+00   2.9256456e+00  -8.9618077e+07
   3.4611537e-10  -9.5998991e-03   6.1981580e+00   2.9365482e+00  -8.9104088e+07
   3.4678226e-10  -9.5406473e-03   6.1924734e+00   2.9474133e+00  -8.8592491e+07
   3.4744915e-10  -9.4817358e-03   6.1867948e+00   2.9582406e+00  -8.8083283e+07
   3.4811604e-10  -9.4231632e-03   6.1811226e+00   2.9690300e+00  -8.7576460e+07
   3.4878293e-10  -9.3649277e-03   6.1754569e+00   2.9797812e+00  -8.7072019e+07
   3.4944982e-10  -9.3070279e-03   6.1697982e+00   2.9904940e+00  -8.6569956e+07
   3.5011671e-10  -9.2494621e-03   6.1641465e+00   3.0011683e+00  -8.6070268e+07
   3.5078359e-10  -9.1922287e-03   6.1585024e+00   3.0118039e+00  -8.5572950e+07
   3.5145048e-10  -9.1353262e-03   6.1528659e+00   3.0224006e+00  -8.5077999e+07
   3.5211737e-10  -9.0787530e-03   6.1472373e+00   3.0329583e+00  -8.4585410e+07
   3.5278426e-10  -9.0225075e-03   6.1416170e+00   3.0434767e+00  -8.4095180e+07
   3.5345115e-10  -8.9665882e-03   6.1360052e+00   3.0539558e+00  -8.3607304e+07
   3.5411804e-10  -8.9109934e-03   6.1304021e+00   3.0643954e+00  -8.3121777e+07
   3.5478493e-10  -8.8557216e-03   6.1248080e+00   3.0747953e+00  -8.2638596e+07
   3.5545182e-10  -8.8007713e-03   6.1192230e+00   3.0851554e+00  -8.2157756e+07
   3.5611871e-10  -8.7461409e-03   6.1136476e+00   3.0954755e+00  -8.1679251e+07
   3.5678560e-10  -8.6918288e-03   6.1080818e+00   3.1057556e+00  -8.1203078e+07
   3.5745248e-10  -8.6378335e-03   6.1025260e+00   3.1159955e+00  -8.0729232e+07
   3.5811937e-10  -8.5841534e-03   6.0969803e+00   3.1261951e+00  -8.0257707e+07
   3.5878626e-10  -8.5307870e-03   6.0914450e+00   3.1363543e+00  -7.9788499e+07
   3.5945315e-10  -8.4777327e-03   6.0859203e+00   3.1464729e+00  -7.9321602e+07
   3.6012004e-10  -8.4249891e-03   6.0804064e+00   3.1565510e+00  -7.8857012e+07
   3.6078693e-10  -8.3725545e-03   6.0749035e+00   3.1665882e+00  -7.8394723e+07
   3.6145382e-10  -8.3204274e-03   6.0694119e+00   3.1765847e+00  -7.7934730e+07
   3.6212071e-10  -8.2686063e-03   6.0639318e+00   3.1865403e+00  -7.7477027e+07
   3.6278760e-10  -8.2170897e-03   6.0584633e+00   3.1964548e+00  -7.7021609e+07
   3.6345448e-10  -8.1658761e-03   6.0530067e+00   3.2063283e+00  -7.6568471e+07
   3.6412137e-10  -8.1149639e-03   6.0475621e+00   3.2161607e+00  -7.6117606e+07
   3.6478826e-10  -8.0643516e-03   6.0421298e+00   3.2259518e+00  -7.5669010e+07
   3.6545515e-10  -8.0140377e-03   6.0367098e+00   3.2357016e+00  -7.5222676e+07
   3.6612204e-10  -7.9640207e-03   6.0313026e+00   3.2454102e+00  -7.4778598e+07
   3.6678893e-10  -7.9142991e-03   6.0259081e+00   3.2550773e+00  -7.4336771e+07
   3.6745582e-10  -7.8648715e-03   6.0205266e+00   3.2647029e+00  -7.3897188e+07
   3.6812271e-10  -7.8157362e-03   6.0151582e+00   3.2742871e+00  -7.3459844e+07
   3.6878960e-10  -7.7668918e-03   6.0098032e+00   3.2838298e+00  -7.3024732e+07
   3.6945649e-10  -7.7183369e-03   6.0044617e+00   3.2933308e+00  -7.2591847e+07
   3.7012337e-10  -7.6700699e-03   5.9991338e+00   3.3027903e+00  -7.2161181e+07
   3.7079026e-10  -7.6220894e-03   5.9938197e+00   3.3122081e+00  -7.1732729e+07
   3.7145715e-10  -7.5743939e-03   5.9885197e+00   3.3215842e+00  -7.1306485e+07
   3.7212404e-10  -7.5269819e-03   5.9832337e+00   3.3309187e+00  -7.0882441e+07
   3.7279093e-10  -7.4798520e-03   5.9779621e+00   3.3402114e+00  -7.0460592e+07
   3.7345782e-10  -7.4330026e-03   5.9727049e+00   3.3494625e+00  -7.0040931e+07
   3.7412471e-10  -7.3864324e-03   5.9674622e+00   3.3586718e+00  -6.9623451e+07
   3.7479160e-10  -7.3401399e-03   5.9622343e+00   3.3678393e+00  -6.9208146e+07
   3.7545849e-10  -7.2941236e-03   5.9570212e+00   3.3769652e+00  -6.8795008e+07
   3.7612538e-10  -7.2483822e-03   5.9518232e+00   3.3860493e+00  -6.8384032e+07
   3.7679226e-10  -7.2029140e-03   5.9466402e+00   3.3950916e+00  -6.7975210e+07
   3.7745915e-10  -7.1577178e-03   5.9414725e+00   3.4040922e+00  -6.7568536e+07
   3.7812604e-10  -7.1127921e-03   5.9363202e+00   3.4130511e+00  -6.7164003e+07
   3.7879293e-10  -7.0681355e-03   5.9311834e+00   3.4219683e+00  -6.6761604e+07
   3.7945982e-10  -7.0237465e-03   5.9260622e+00   3.4308438e+00  -6.6361331e+07
   3.8012671e-10  -6.9796237e-03   5.9209568e+00   3.4396777e+00  -6.5963178e+07
   3.8079360e-10  -6.9357658e-03   5.9158672e+00   3.4484699e+00  -6.5567138e+07
   3.8146049e-10  -6.8921713e-03   5.9107936e+00   3.4572205e+00  -6.5173203e+07
   3.8212738e-10  -6.8488387e-03   5.9057361e+00   3.4659295e+00  -6.4781367e+07
   3.8279426e-10  -6.8057668e-03   5.9006947e+00   3.4745970e+00  -6.4391622e+07
   3.8346115e-10  -6.7629542e-03   5.8956696e+00   3.4832229e+00  -6.4003962e+07
   3.8412804e-10  -6.7203993e-03   5.8906609e+00   3.4918074e+00  -6.3618378e+07
   3.8479493e-10  -6.6781009e-03   5.8856687e+00   3.5003505e+00  -6.3234864e+07
   3.8546182e-10  -6.6360576e-03   5.8806930e+00   3.5088522e+00  -6.2853412e+07
   3.8612871e-10  -6.5942679e-03   5.8757340e+00   3.5173125e+00  -6.2474015e+07
   3.8679560e-10  -6.5527306e-03   5.8707918e+00   3.5257316e+00  -6.2096665e+07
   3.8746249e-10  -6.5114443e-03   5.8658664e+00   3.5341095e+00  -6.1721356e+07
   3.8812938e-10  -6.4704076e-03   5.8609579e+00   3.5424461e+00  -6.1348079e+07
   3.8879627e-10  -6.4296192e-03   5.8560664e+00   3.5507417e+00  -6.0976827e+07
   3.8946315e-10  -6.3890776e-03   5.8511921e+00   3.5589962e+00  -6.0607593e+07
   3.9013004e-10  -6.3487816e-03   5.8463348e+00   3.5672097e+00  -6.0240369e+07
   3.9079693e-10  -6.3087299e-03   5.8414948e+00   3.5753824e+00  -5.9875148e+07
   3.9146382e-10  -6.2689210e-03   5.8366721e+00   3.5835141e+00  -5.9511921e+07
   3.9213071e-10  -6.2293538e-03   5.8318667e+00   3.5916051e+00  -5.9150682e+07
   3.9279760e-10  -6.1900267e-03   5.8270788e+00   3.5996554e+00  -5.8791423e+07
   3.9346449e-10  -6.1509386e-03   5.8223084e+00   3.6076651e+00  -5.8434136e+07
   3.9413138e-10  -6.1120881e-03   5.8175555e+00   3.6156342e+00  -5.8078814e+07
   3.9479827e-10  -6.0734739e-03   5.8128203e+00   3.6235628e+00  -5.7725448e+07
   3.9546516e-10  -6.0350947e-03   5.8081027e+00   3.6314511e+00  -5.7374031e+07
   3.9613204e-10  -5.9969493e-03   5.8034029e+00   3.6392990e+00  -5.7024555e+07
   3.9679893e-10  -5.9590362e-03   5.7987208e+00   3.6471068e+00  -5.6677014e+07
   3.9746582e-10  -5.9213543e-03   5.7940565e+00   3.6548744e+00  -5.6331398e+07
   3.9813271e-10  -5.8839022e-03   5.7894101e+00   3.6626020e+00  -5.5987700e+07
   3.9879960e-10  -5.8466787e-03   5.7847817e+00   3.6702897e+00  -5.5645912e+07
   3.9946649e-10  -5.8096825e-03   5.7801712e+00   3.6779375e+00  -5.5306027e+07
   4.0013338e-10  -5.7729123e-03   5.7755787e+00   3.6855456e+00  -5.4968037e+07
   4.0080027e-10  -5.7363669e-03   5.7710042e+00   3.6931140e+00  -5.4631933e+07
   4.0146716e-10  -5.7000450e-03   5.7664478e+00   3.7006429e+00  -5.4297709e+07
   4.0213404e-10  -5.6639454e-03   5.7619096e+00   3.7081323e+00  -5.3965355e+07
   4.0280093e-10  -5.6280668e-03   5.7573894e+00   3.7155824e+00  -5.3634865e+07
   4.0346782e-10  -5.5924080e-03   5.7528875e+00   3.7229932e+00  -5.3306231e+07
   4.0413471e-10  -5.5569677e-03   5.7484037e+00   3.7303649e+00  -5.2979444e+07
   4.0480160e-10  -5.5217448e-03   5.7439382e+00   3.7376976e+00  -5.2654497e+07
   4.0546849e-10  -5.4867379e-03   5.7394909e+00   3.7449914e+00  -5.2331382e+07
   4.0613538e-10  -5.4519459e-03   5.7350619e+00   3.7522464e+00  -5.2010090e+07
   4.0680227e-10  -5.4173676e-03   5.7306512e+00   3.7594626e+00  -5.1690615e+07
   4.0746916e-10  -5.3830017e-03   5.7262588e+00   3.7666404e+00  -5.1372948e+07
   4.0813605e-10  -5.3488471e-03   5.7218847e+00   3.7737796e+00  -5.1057082e+07
   4.0880293e-10  -5.3149025e-03   5.7175290e+00   3.7808805e+00  -5.0743007e+07
   4.0946982e-10  -5.2811668e-03   5.7131917e+00   3.7879432e+00  -5.0430718e+07
   4.1013671e-10  -5.2476387e-03   5.7088727e+00   3.7949678e+00  -5.0120205e+07
   4.1080360e-10  -5.2143172e-03   5.7045721e+00   3.8019544e+00  -4.9811460e+07
   4.1147049e-10  -5.1812009e-03   5.7002899e+00   3.8089031e+00  -4.9504476e+07
   4.1213738e-10  -5.1482888e-03   5.6960261e+00   3.8158141e+00  -4.9199246e+07
   4.1280427e-10  -5.1155797e-03   5.6917808e+00   3.8226874e+00  -4.8895760e+07
   4.1347116e-10  -5.0830723e-03   5.6875538e+00   3.8295233e+00  -4.8594011e+07
   4.1413805e-10  -5.0507657e-03   5.6833452e+00   3.8363218e+00  -4.8293992e+07
   4.1480493e-10  -5.0186585e-03   5.6791551e+00   3.8430831e+00  -4.7995694e+07
   4.1547182e-10  -4.9867497e-03   5.6749834e+00   3.8498073e+00  -4.7699109e+07
   4.1613871e-10  -4.9550381e-03   5.6708300e+00   3.8564944e+00  -4.7404230e+07
   4.1680560e-10  -4.9235226e-03   5.6666951e+00   3.8631448e+00  -4.7111049e+07
   4.1747249e-10  -4.8922020e-03   5.6625786e+00   3.8697584e+00  -4.6819557e+07
   4.1813938e-10  -4.8610753e-03   5.6584805e+00   3.8763354e+00  -4.6529748e+07
   4.1880627e-10  -4.8301413e-03   5.6544008e+00   3.8828759e+00  -4.6241612e+07
   4.1947316e-10  -4.7993989e-03   5.6503395e+00   3.8893802e+00  -4.5955143e+07
   4.2014005e-10  -4.7688470e-03   5.6462965e+00   3.8958482e+00  -4.5670332e+07
   4.2080694e-10  -4.7384845e-03   5.6422719e+00   3.9022802e+00  -4.5387172e+07
   4.2147382e-10  -4.7083102e-03   5.6382657e+00   3.9086763e+00  -4.5105655e+07
   4.2214071e-10  -4.6783232e-03   5.6342778e+00   3.9150366e+00  -4.4825772e+07
   4.2280760e-10  -4.6485222e-03   5.6303082e+00   3.9213612e+00  -4.4547517e+07
   4.2347449e-10  -4.6189063e-03   5.6263569e+00   3.9276503e+00  -4.4270881e+07
   4.2414138e-10  -4.5894743e-03   5.6224238e+00   3.9339041e+00  -4.3995856e+07
   4.2480827e-10  -4.5602252e-03   5.6185091e+00   3.9401226e+00  -4.3722435e+07
   4.2547516e-10  -4.5311580e-03   5.6146126e+00   3.9463061e+00  -4.3450611e+07
   4.2614205e-10  -4.5022714e-03   5.6107343e+00   3.9524545e+00  -4.3180374e+07
   4.2680894e-10  -4.4735646e-03   5.6068742e+00   3.9585682e+00  -4.2911719e+07
   4.2747583e-10  -4.4450364e-03   5.6030323e+00   3.9646472e+00  -4.2644636e+07
   4.2814271e-10  -4.4166858e-03   5.5992085e+00   3.9706917e+00  -4.2379118e+07
   4.2880960e-10  -4.3885117e-03   5.5954029e+00   3.9767017e+00  -4.2115157e+07
   4.2947649e-10  -4.3605131e-03   5.5916153e+00   3.9826775e+00  -4.1852747e+07
   4.3014338e-10  -4.3326891e-03   5.5878459e+00   3.9886193e+00  -4.1591878e+07
   4.3081027e-10  -4.3050385e-03   5.5840944e+00   3.9945270e+00  -4.1332544e+07
   4.3147716e-10  -4.2775603e-03   5.5803610e+00   4.0004009e+00  -4.1074737e+07
   4.3214405e-10  -4.2502536e-03   5.5766456e+00   4.0062412e+00  -4.0818449e+07
   4.3281094e-10  -4.2231172e-03   5.5729481e+00   4.0120479e+00  -4.0563672e+07
   4.3347783e-10  -4.1961503e-03   5.5692686e+00   4.0178212e+00  -4.0310400e+07
   4.3414471e-10  -4.1693518e-03   5.5656069e+00   4.0235613e+00  -4.0058624e+07
   4.3481160e-10  -4.1427207e-03   5.5619631e+00   4.0292683e+00  -3.9808337e+07
   4.3547849e-10  -4.1162560e-03   5.5583371e+00   4.0349424e+00  -3.9559531e+07
   4.3614538e-10  -4.0899567e-03   5.5547289e+00   4.0405836e+00  -3.9312199e+07
   4.3681227e-10  -4.0638219e-03   5.5511384e+00   4.0461921e+00  -3.9066334e+07
   4.3747916e-10  -4.0378506e-03   5.5475657e+00   4.0517682e+00  -3.8821927e+07
   4.3814605e-10  -4.0120417e-03   5.5440106e+00   4.0573118e+00  -3.8578972e+07
   4.3881294e-10  -3.9863945e-03   5.5404731e+00   4.0628233e+00  -3.8337461e+07
   4.3947983e-10  -3.9609078e-03   5.5369532e+00   4.0683026e+00  -3.8097386e+07
   4.4014672e-10  -3.9355807e-03   5.5334509e+00   4.0737500e+00  -3.7858740e+07
   4.4081360e-10  -3.9104123e-03   5.5299661e+00   4.0791656e+00  -3.7621517e+07
   4.4148049e-10  -3.8854016e-03   5.5264988e+00   4.0845496e+00  -3.7385707e+07
   4.4214738e-10  -3.8605477e-03   5.5230488e+00   4.0899021e+00  -3.7151305e+07
   4.4281427e-10  -3.8358497e-03   5.5196163e+00   4.0952232e+00  -3.6918303e+07
   4.4348116e-10  -3.8113066e-03   5.5162011e+00   4.1005131e+00  -3.6686693e+07
   4.4414805e-10  -3.7869175e-03   5.5128032e+00   4.1057720e+00  -3.6456468e+07
   4.4481494e-10  -3.7626815e-03   5.5094225e+00   4.1109999e+00  -3.6227621e+07
   4.4548183e-10  -3.7385976e-03   5.5060591e+00   4.1161971e+00  -3.6000145e+07
   4.4614872e-10  -3.7146650e-03   5.5027128e+00   4.1213636e+00  -3.5774033e+07
   4.4681561e-10  -3.6908827e-03   5.4993836e+00   4.1264997e+00  -3.5549276e+07
   4.4748249e-10  -3.6672498e-03   5.4960714e+00   4.1316054e+00  -3.5325869e+07
   4.4814938e-10  -3.6437655e-03   5.4927763e+00   4.1366810e+00  -3.5103804e+07
   4.4881627e-10  -3.6204289e-03   5.4894982e+00   4.1417265e+00  -3.4883074e+07
   4.4948316e-10  -3.5972389e-03   5.4862369e+00   4.1467421e+00  -3.4663671e+07
   4.5015005e-10  -3.5741949e-03   5.4829925e+00   4.1517279e+00  -3.4445590e+07
   4.5081694e-10  -3.5512959e-03   5.4797650e+00   4.1566842e+00  -3.4228822e+07
   4.5148383e-10  -3.5285410e-03   5.4765542e+00   4.1616110e+00  -3.4013360e+07
   4.5215072e-10  -3.5059293e-03   5.4733601e+00   4.1665084e+00  -3.3799198e+07
   4.5281761e-10  -3.4834601e-03   5.4701827e+00   4.1713768e+00  -3.3586329e+07
   4.5348449e-10  -3.4611323e-03   5.4670219e+00   4.1762160e+00  -3.3374746e+07
   4.5415138e-10  -3.4389453e-03   5.4638777e+00   4.1810264e+00  -3.3164441e+07
   4.5481827e-10  -3.4168981e-03   5.4607499e+00   4.1858081e+00  -3.2955408e+07
   4.5548516e-10  -3.3949898e-03   5.4576387e+00   4.1905612e+00  -3.2747640e+07
   4.5615205e-10  -3.3732197e-03   5.4545438e+00   4.1952858e+00  -3.2541130e+07
   4.5681894e-10  -3.3515869e-03   5.4514652e+00   4.1999821e+00  -3.2335872e+07
   4.5748583e-10  -3.3300906e-03   5.4484030e+00   4.2046503e+00  -3.2131858e+07
   4.5815272e-10  -3.3087299e-03   5.4453570e+00   4.2092904e+00  -3.1929081e+07
   4.5881961e-10  -3.2875040e-03   5.4423272e+00   4.2139027e+00  -3.1727536e+07
   4.5948650e-10  -3.2664121e-03   5.4393135e+00   4.2184872e+00  -3.1527214e+07
   4.6015338e-10  -3.2454534e-03   5.4363159e+00   4.2230442e+00  -3.1328110e+07
   4.6082027e-10  -3.2246271e-03   5.4333342e+00   4.2275737e+00  -3.1130217e+07
   4.6148716e-10  -3.2039323e-03   5.4303686e+00   4.2320759e+00  -3.0933528e+07
   4.6215405e-10  -3.1833684e-03   5.4274189e+00   4.2365509e+00  -3.0738037e+07
   4.6282094e-10  -3.1629344e-03   5.4244850e+00   4.2409989e+00  -3.0543737e+07
   4.6348783e-10  -3.1426295e-03   5.4215668e+00   4.2454200e+00  -3.0350620e+07
   4.6415472e-10  -3.1224531e-03   5.4186645e+00   4.2498144e+00  -3.0158682e+07
   4.6482161e-10  -3.1024043e-03   5.4157778e+00   4.2541821e+00  -2.9967915e+07
   4.6548850e-10  -3.0824823e-03   5.4129067e+00   4.2585234e+00  -2.9778312e+07
   4.6615539e-10  -3.0626864e-03   5.4100512e+00   4.2628384e+00  -2.9589868e+07
   4.6682227e-10  -3.0430157e-03   5.4072111e+00   4.2671272e+00  -2.9402575e+07
   4.6748916e-10  -3.0234696e-03   5.4043865e+00   4.2713899e+00  -2.9216428e+07
   4.6815605e-10  -3.0040473e-03   5.4015773e+00   4.2756268e+00  -2.9031420e+07
   4.6882294e-10  -2.9847479e-03   5.3987835e+00   4.2798378e+00  -2.8847544e+07
   4.6948983e-10  -2.9655708e-03   5.3960049e+00   4.2840233e+00  -2.8664795e+07
   4.7015672e-10  -2.9465152e-03   5.3932415e+00   4.2881832e+00  -2.8483166e+07
   4.7082361e-10  -2.9275803e-03   5.3904932e+00   4.2923178e+00  -2.8302650e+07
   4.7149050e-10  -2.9087655e-03   5.3877600e+00   4.2964271e+00  -2.8123241e+07
   4.7215739e-10  -2.8900699e-03   5.3850419e+00   4.3005114e+00  -2.7944934e+07
   4.7282427e-10  -2.8714929e-03   5.3823387e+00   4.3045707e+00  -2.7767722e+07
   4.7349116e-10  -2.8530337e-03   5.3796505e+00   4.3086052e+00  -2.7591598e+07
   4.7415805e-10  -2.8346916e-03   5.3769770e+00   4.3126150e+00  -2.7416557e+07
   4.7482494e-10  -2.8164659e-03   5.3743184e+00   4.3166003e+00  -2.7242592e+07
   4.7549183e-10  -2.7983558e-03   5.3716745e+00   4.3205611e+00  -2.7069698e+07
   4.7615872e-10  -2.7803607e-03   5.3690453e+00   4.3244977e+00  -2.6897868e+07
   4.7682561e-10  -2.7624798e-03   5.3664307e+00   4.3284101e+00  -2.6727096e+07
   4.7749250e-10  -2.7447124e-03   5.3638306e+00   4.3322985e+00  -2.6557376e+07
   4.7815939e-10  -2.7270579e-03   5.3612450e+00   4.3361631e+00  -2.6388702e+07
   4.7882628e-10  -2.7095155e-03   5.3586738e+00   4.3400039e+00  -2.6221069e+07
   4.7949316e-10  -2.6920846e-03   5.3561170e+00   4.3438210e+00  -2.6054469e+07
   4.8016005e-10  -2.6747644e-03   5.3535745e+00   4.3476147e+00  -2.5888898e+07
   4.8082694e-10  -2.6575543e-03   5.3510463e+00   4.3513850e+00  -2.5724350e+07
   4.8149383e-10  -2.6404536e-03   5.3485322e+00   4.3551321e+00  -2.5560818e+07
   4.8216072e-10  -2.6234616e-03   5.3460322e+00   4.3588561e+00  -2.5398296e+07
   4.8282761e-10  -2.6065777e-03   5.3435464e+00   4.3625571e+00  -2.5236780e+07
   4.8349450e-10  -2.5898012e-03   5.3410745e+00   4.3662353e+00  -2.5076262e+07
   4.8416139e-10  -2.5731313e-03   5.3386165e+00   4.3698907e+00  -2.4916738e+07
   4.8482828e-10  -2.5565675e-03   5.3361724e+00   4.3735236e+00  -2.4758202e+07
   4.8549517e-10  -2.5401092e-03   5.3337422e+00   4.3771340e+00  -2.4600648e+07
   4.8616205e-10  -2.5237555e-03   5.3313256e+00   4.3807221e+00  -2.4444069e+07
   4.8682894e-10  -2.5075060e-03   5.3289228e+00   4.3842880e+00  -2.4288461e+07
   4.8749583e-10  -2.4913599e-03   5.3265336e+00   4.3878318e+00  -2.4133819e+07
   4.8816272e-10  -2.4753166e-03   5.3241580e+00   4.3913536e+00  -2.3980135e+07
   4.8882961e-10  -2.4593755e-03   5.3217959e+00   4.3948536e+00  -2.3827405e+07
   4.8949650e-10  -2.4435359e-03   5.3194473e+00   4.3983319e+00  -2.3675624e+07
   4.9016339e-10  -2.4277973e-03   5.3171120e+00   4.4017886e+00  -2.3524785e+07
   4.9083028e-10  -2.4121589e-03   5.3147901e+00   4.4052238e+00  -2.3374883e+07
   4.9149717e-10  -2.3966202e-03   5.3124814e+00   4.4086377e+00  -2.3225914e+07
   4.9216405e-10  -2.3811805e-03   5.3101859e+00   4.4120304e+00  -2.3077870e+07
   4.9283094e-10  -2.3658392e-03   5.3079036e+00   4.4154020e+00  -2.2930747e+07
   4.9349783e-10  -2.3505957e-03   5.3056344e+00   4.4187526e+00  -2.2784540e+07
   4.9416472e-10  -2.3354495e-03   5.3033781e+00   4.4220824e+00  -2.2639243e+07
   4.9483161e-10  -2.3203998e-03   5.3011349e+00   4.4253914e+00  -2.2494850e+07
   4.9549850e-10  -2.3054461e-03   5.2989045e+00   4.4286798e+00  -2.2351357e+07
   4.9616539e-10  -2.2905879e-03   5.2966870e+00   4.4319477e+00  -2.2208759e+07
   4.9683228e-10  -2.2758244e-03   5.2944823e+00   4.4351952e+00  -2.2067049e+07
   4.9749917e-10  -2.2611551e-03   5.2922903e+00   4.4384225e+00  -2.1926223e+07
   4.9816606e-10  -2.2465795e-03   5.2901109e+00   4.4416296e+00  -2.1786275e+07
   4.9883294e-10  -2.2320969e-03   5.2879441e+00   4.4448168e+00  -2.1647201e+07
   4.9949983e-10  -2.2177067e-03   5.2857899e+00   4.4479839e+00  -2.1508995e+07
   5.0016672e-10  -2.2034085e-03   5.2836482e+00   4.4511313e+00  -2.1371651e+07
   5.0083361e-10  -2.1892015e-03   5.2815189e+00   4.4542591e+00  -2.1235166e+07
   5.0150050e-10  -2.1750853e-03   5.2794019e+00   4.4573672e+00  -2.1099534e+07
   5.0216739e-10  -2.1610592e-03   5.2772972e+00   4.4604559e+00  -2.0964749e+07
   5.0283428e-10  -2.1471228e-03   5.2752048e+00   4.4635253e+00  -2.0830808e+07
   5.0350117e-10  -2.1332754e-03   5.2731246e+00   4.4665754e+00  -2.0697703e+07
   5.0416806e-10  -2.1195165e-03   5.2710564e+00   4.4696065e+00  -2.0565432e+07
   5.0483494e-10  -2.1058455e-03   5.2690004e+00   4.4726185e+00  -2.0433989e+07
   5.0550183e-10  -2.0922619e-03   5.2669563e+00   4.4756117e+00  -2.0303368e+07
   5.0616872e-10  -2.0787651e-03   5.2649242e+00   4.4785860e+00  -2.0173566e+07
   5.0683561e-10  -2.0653546e-03   5.2629039e+00   4.4815418e+00  -2.0044577e+07
   5.0750250e-10  -2.0520299e-03   5.2608955e+00   4.4844789e+00  -1.9916396e+07
   5.0816939e-10  -2.0387904e-03   5.2588989e+00   4.4873976e+00  -1.9789018e+07
   5.0883628e-10  -2.0256356e-03   5.2569139e+00   4.4902980e+00  -1.9662439e+07
   5.0950317e-10  -2.0125649e-03   5.2549406e+00   4.4931801e+00  -1.9536654e+07
   5.1017006e-10  -1.9995778e-03   5.2529789e+00   4.4960442e+00  -1.9411659e+07
   5.1083695e-10  -1.9866739e-03   5.2510288e+00   4.4988902e+00  -1.9287447e+07
   5.1150383e-10  -1.9738525e-03   5.2490901e+00   4.5017183e+00  -1.9164016e+07
   5.1217072e-10  -1.9611132e-03   5.2471628e+00   4.5045286e+00  -1.9041359e+07
   5.1283761e-10  -1.9484554e-03   5.2452469e+00   4.5073212e+00  -1.8919473e+07
   5.1350450e-10  -1.9358786e-03   5.2433422e+00   4.5100962e+00  -1.8798353e+07
   5.1417139e-10  -1.9233824e-03   5.2414489e+00   4.5128538e+00  -1.8677994e+07
   5.1483828e-10  -1.9109662e-03   5.2395667e+00   4.5155939e+00  -1.8558391e+07
   5.1550517e-10  -1.8986294e-03   5.2376956e+00   4.5183168e+00  -1.8439541e+07
   5.1617206e-10  -1.8863717e-03   5.2358356e+00   4.5210226e+00  -1.8321438e+07
   5.1683895e-10  -1.8741925e-03   5.2339866e+00   4.5237112e+00  -1.8204078e+07
   5.1750584e-10  -1.8620914e-03   5.2321486e+00   4.5263829e+00  -1.8087457e+07
   5.1817272e-10  -1.8500677e-03   5.2303215e+00   4.5290377e+00  -1.7971570e+07
   5.1883961e-10  -1.8381211e-03   5.2285052e+00   4.5316758e+00  -1.7856413e+07
   5.1950650e-10  -1.8262511e-03   5.2266997e+00   4.5342971e+00  -1.7741980e+07
   5.2017339e-10  -1.8144571e-03   5.2249049e+00   4.5369020e+00  -1.7628269e+07
   5.2084028e-10  -1.8027387e-03   5.2231208e+00   4.5394903e+00  -1.7515274e+07
   5.2150717e-10  -1.7910955e-03   5.2213474e+00   4.5420623e+00  -1.7402992e+07
   5.2217406e-10  -1.7795268e-03   5.2195845e+00   4.5446181e+00  -1.7291417e+07
   5.2284095e-10  -1.7680324e-03   5.2178321e+00   4.5471576e+00  -1.7180546e+07
   5.2350784e-10  -1.7566117e-03   5.2160901e+00   4.5496811e+00  -1.7070374e+07
   5.2417472e-10  -1.7452642e-03   5.2143586e+00   4.5521887e+00  -1.6960898e+07
   5.2484161e-10  -1.7339894e-03   5.2126374e+00   4.5546803e+00  -1.6852112e+07
   5.2550850e-10  -1.7227870e-03   5.2109265e+00   4.5571562e+00  -1.6744013e+07
   5.2617539e-10  -1.7116565e-03   5.2092258e+00   4.5596164e+00  -1.6636596e+07
   5.2684228e-10  -1.7005974e-03   5.2075353e+00   4.5620610e+00  -1.6529858e+07
   5.2750917e-10  -1.6896092e-03   5.2058550e+00   4.5644901e+00  -1.6423794e+07
   5.2817606e-10  -1.6786915e-03   5.2041847e+00   4.5669038e+00  -1.6318400e+07
   5.2884295e-10  -1.6678439e-03   5.2025244e+00   4.5693022e+00  -1.6213672e+07
   5.2950984e-10  -1.6570659e-03   5.2008741e+00   4.5716853e+00  -1.6109606e+07
   5.3017673e-10  -1.6463571e-03   5.1992337e+00   4.5740534e+00  -1.6006198e+07
   5.3084361e-10  -1.6357171e-03   5.1976032e+00   4.5764064e+00  -1.5903444e+07
   5.3151050e-10  -1.6251453e-03   5.1959825e+00   4.5787445e+00  -1.5801339e+07
   5.3217739e-10  -1.6146414e-03   5.1943715e+00   4.5810678e+00  -1.5699881e+07
   5.3284428e-10  -1.6042050e-03   5.1927702e+00   4.5833763e+00  -1.5599065e+07
   5.3351117e-10  -1.5938356e-03   5.1911786e+00   4.5856701e+00  -1.5498887e+07
   5.3417806e-10  -1.5835328e-03   5.1895966e+00   4.5879493e+00  -1.5399343e+07
   5.3484495e-10  -1.5732962e-03   5.1880241e+00   4.5902141e+00  -1.5300430e+07
   5.3551184e-10  -1.5631253e-03   5.1864611e+00   4.5924645e+00  -1.5202142e+07
   5.3617873e-10  -1.5530198e-03   5.1849075e+00   4.5947005e+00  -1.5104478e+07
   5.3684562e-10  -1.5429791e-03   5.1833633e+00   4.5969224e+00  -1.5007432e+07
   5.3751250e-10  -1.5330030e-03   5.1818285e+00   4.5991301e+00  -1.4911001e+07
   5.3817939e-10  -1.5230910e-03   5.1803030e+00   4.6013237e+00  -1.4815182e+07
   5.3884628e-10  -1.5132427e-03   5.1787867e+00   4.6035034e+00  -1.4719970e+07
   5.3951317e-10  -1.5034577e-03   5.1772795e+00   4.6056692e+00  -1.4625361e+07
   5.4018006e-10  -1.4937356e-03   5.1757815e+00   4.6078212e+00  -1.4531353e+07
   5.4084695e-10  -1.4840760e-03   5.1742926e+00   4.6099596e+00  -1.4437941e+07
   5.4151384e-10  -1.4744785e-03   5.1728128e+00   4.6120842e+00  -1.4345122e+07
   5.4218073e-10  -1.4649427e-03   5.1713419e+00   4.6141954e+00  -1.4252891e+07
   5.4284762e-10  -1.4554682e-03   5.1698799e+00   4.6162931e+00  -1.4161246e+07
   5.4351450e-10  -1.4460546e-03   5.1684268e+00   4.6183774e+00  -1.4070183e+07
   5.4418139e-10  -1.4367015e-03   5.1669826e+00   4.6204485e+00  -1.3979698e+07
   5.4484828e-10  -1.4274086e-03   5.1655472e+00   4.6225063e+00  -1.3889788e+07
   5.4551517e-10  -1.4181755e-03   5.1641204e+00   4.6245510e+00  -1.3800449e+07
   5.4618206e-10  -1.4090018e-03   5.1627024e+00   4.6265827e+00  -1.3711677e+07
   5.4684895e-10  -1.3998871e-03   5.1612930e+00   4.6286014e+00  -1.3623469e+07
   5.4751584e-10  -1.3908310e-03   5.1598922e+00   4.6306072e+00  -1.3535822e+07
   5.4818273e-10  -1.3818331e-03   5.1585000e+00   4.6326003e+00  -1.3448733e+07
   5.4884962e-10  -1.3728932e-03   5.1571163e+00   4.6345806e+00  -1.3362196e+07
   5.4951651e-10  -1.3640108e-03   5.1557409e+00   4.6365482e+00  -1.3276210e+07
   5.5018339e-10  -1.3551856e-03   5.1543740e+00   4.6385033e+00  -1.3190771e+07
   5.5085028e-10  -1.3464171e-03   5.1530155e+00   4.6404459e+00  -1.3105876e+07
   5.5151717e-10  -1.3377051e-03   5.1516653e+00   4.6423761e+00  -1.3021520e+07
   5.5218406e-10  -1.3290492e-03   5.1503233e+00   4.6442939e+00  -1.2937701e+07
   5.5285095e-10  -1.3204490e-03   5.1489895e+00   4.6461995e+00  -1.2854416e+07
   5.5351784e-10  -1.3119042e-03   5.1476639e+00   4.6480930e+00  -1.2771661e+07
   5.5418473e-10  -1.3034143e-03   5.1463464e+00   4.6499743e+00  -1.2689432e+07
   5.5485162e-10  -1.2949792e-03   5.1450370e+00   4.6518435e+00  -1.2607727e+07
   5.5551851e-10  -1.2865983e-03   5.1437357e+00   4.6537009e+00  -1.2526543e+07
   5.5618540e-10  -1.2782714e-03   5.1424423e+00   4.6555463e+00  -1.2445875e+07
   5.5685228e-10  -1.2699981e-03   5.1411568e+00   4.6573800e+00  -1.2365721e+07
   5.5751917e-10  -1.2617782e-03   5.1398792e+00   4.6592019e+00  -1.2286078e+07
   5.5818606e-10  -1.2536111e-03   5.1386095e+00   4.6610121e+00  -1.2206943e+07
   5.5885295e-10  -1.2454967e-03   5.1373476e+00   4.6628108e+00  -1.2128312e+07
   5.5951984e-10  -1.2374346e-03   5.1360935e+00   4.6645979e+00  -1.2050182e+07
   5.6018673e-10  -1.2294243e-03   5.1348470e+00   4.6663736e+00  -1.1972550e+07
   5.6085362e-10  -1.2214657e-03   5.1336083e+00   4.6681380e+00  -1.1895413e+07
   5.6152051e-10  -1.2135584e-03   5.1323771e+00   4.6698910e+00  -1.1818768e+07
   5.6218740e-10  -1.2057020e-03   5.1311536e+00   4.6716328e+00  -1.1742612e+07
   5.6285428e-10  -1.1978962e-03   5.1299375e+00   4.6733635e+00  -1.1666942e+07
   5.6352117e-10  -1.1901408e-03   5.1287290e+00   4.6750830e+00  -1.1591754e+07
   5.6418806e-10  -1.1824353e-03   5.1275279e+00   4.6767916e+00  -1.1517046e+07
   5.6485495e-10  -1.1747795e-03   5.1263343e+00   4.6784891e+00  -1.1442815e+07
   5.6552184e-10  -1.1671730e-03   5.1251480e+00   4.6801759e+00  -1.1369058e+07
   5.6618873e-10  -1.1596156e-03   5.1239690e+00   4.6818517e+00  -1.1295771e+07
   5.6685562e-10  -1.1521069e-03   5.1227973e+00   4.6835169e+00  -1.1222953e+07
   5.6752251e-10  -1.1446466e-03   5.1216329e+00   4.6851714e+00  -1.1150599e+07
   5.6818940e-10  -1.1372343e-03   5.1204756e+00   4.6868152e+00  -1.1078707e+07
   5.6885629e-10  -1.1298699e-03   5.1193255e+00   4.6884485e+00  -1.1007275e+07
   5.6952317e-10  -1.1225530e-03   5.1181825e+00   4.6900714e+00  -1.0936299e+07
   5.7019006e-10  -1.1152832e-03   5.1170466e+00   4.6916838e+00  -1.0865776e+07
   5.7085695e-10  -1.1080604e-03   5.1159177e+00   4.6932859e+00  -1.0795704e+07
   5.7152384e-10  -1.1008841e-03   5.1147958e+00   4.6948777e+00  -1.0726080e+07
   5.7219073e-10  -1.0937540e-03   5.1136809e+00   4.6964592e+00  -1.0656901e+07
   5.7285762e-10  -1.0866700e-03   5.1125729e+00   4.6980307e+00  -1.0588163e+07
   5.7352451e-10  -1.0796317e-03   5.1114717e+00   4.6995920e+00  -1.0519866e+07
   5.7419140e-10  -1.0726388e-03   5.1103774e+00   4.7011433e+00  -1.0452005e+07
   5.7485829e-10  -1.0656909e-03   5.1092898e+00   4.7026847e+00  -1.0384578e+07
   5.7552518e-10  -1.0587879e-03   5.1082091e+00   4.7042161e+00  -1.0317582e+07
   5.7619206e-10  -1.0519295e-03   5.1071350e+00   4.7057377e+00  -1.0251015e+07
   5.7685895e-10  -1.0451153e-03   5.1060676e+00   4.7072495e+00  -1.0184873e+07
   5.7752584e-10  -1.0383450e-03   5.1050068e+00   4.7087517e+00  -1.0119155e+07
   5.7819273e-10  -1.0316185e-03   5.1039526e+00   4.7102441e+00  -1.0053857e+07
   5.7885962e-10  -1.0249353e-03   5.1029050e+00   4.7117270e+00  -9.9889768e+06
   5.7952651e-10  -1.0182953e-03   5.1018639e+00   4.7132004e+00  -9.9245120e+06
   5.8019340e-10  -1.0116981e-03   5.1008292e+00   4.7146642e+00  -9.8604598e+06
   5.8086029e-10  -1.0051435e-03   5.0998010e+00   4.7161187e+00  -9.7968177e+06
   5.8152718e-10  -9.9863127e-04   5.0987792e+00   4.7175638e+00  -9.7335830e+06
   5.8219406e-10  -9.9216102e-04   5.0977638e+00   4.7189996e+00  -9.6707531e+06
   5.8286095e-10  -9.8573254e-04   5.0967547e+00   4.7204262e+00  -9.6083257e+06
   5.8352784e-10  -9.7934556e-04   5.0957519e+00   4.7218436e+00  -9.5462980e+06
   5.8419473e-10  -9.7299981e-04   5.0947553e+00   4.7232519e+00  -9.4846676e+06
   5.8486162e-10  -9.6669503e-04   5.0937649e+00   4.7246512e+00  -9.4234321e+06
   5.8552851e-10  -9.6043096e-04   5.0927807e+00   4.7260414e+00  -9.3625888e+06
   5.8619540e-10  -9.5420733e-04   5.0918027e+00   4.7274227e+00  -9.3021354e+06
   5.8686229e-10  -9.4802389e-04   5.0908308e+00   4.7287951e+00  -9.2420693e+06
   5.8752918e-10  -9.4188038e-04   5.0898649e+00   4.7301587e+00  -9.1823882e+06
   5.8819607e-10  -9.3577654e-04   5.0889051e+00   4.7315135e+00  -9.1230896e+06
   5.8886295e-10  -9.2971212e-04   5.0879512e+00   4.7328596e+00  -9.0641711e+06
   5.8952984e-10  -9.2368686e-04   5.0870034e+00   4.7341970e+00  -9.0056303e+06
   5.9019673e-10  -9.1770052e-04   5.0860614e+00   4.7355258e+00  -8.9474649e+06
   5.9086362e-10  -9.1175285e-04   5.0851253e+00   4.7368460e+00  -8.8896724e+06
   5.9153051e-10  -9.0584359e-04   5.0841951e+00   4.7381578e+00  -8.8322505e+06
   5.9219740e-10  -8.9997250e-04   5.0832707e+00   4.7394611e+00  -8.7751968e+06
   5.9286429e-10  -8.9413934e-04   5.0823521e+00   4.7407560e+00  -8.7185091e+06
   5.9353118e-10  -8.8834387e-04   5.0814393e+00   4.7420425e+00  -8.6621851e+06
   5.9419807e-10  -8.8258583e-04   5.0805321e+00   4.7433208e+00  -8.6062223e+06
   5.9486495e-10  -8.7686500e-04   5.0796307e+00   4.7445908e+00  -8.5506187e+06
   5.9553184e-10  -8.7118113e-04   5.0787349e+00   4.7458527e+00  -8.4953718e+06
   5.9619873e-10  -8.6553398e-04   5.0778447e+00   4.7471064e+00  -8.4404794e+06
   5.9686562e-10  -8.5992332e-04   5.0769600e+00   4.7483521e+00  -8.3859393e+06
   5.9753251e-10  -8.5434892e-04   5.0760810e+00   4.7495897e+00  -8.3317493e+06
   5.9819940e-10  -8.4881054e-04   5.0752074e+00   4.7508193e+00  -8.2779071e+06
   5.9886629e-10  -8.4330796e-04   5.0743393e+00   4.7520411e+00  -8.2244105e+06
   5.9953318e-10  -8.3784093e-04   5.0734767e+00   4.7532549e+00  -8.1712575e+06
   6.0020007e-10  -8.3240924e-04   5.0726195e+00   4.7544609e+00  -8.1184457e+06
   6.0086696e-10  -8.2701265e-04   5.0717677e+00   4.7556592e+00  -8.0659730e+06
   6.0153384e-10  -8.2165095e-04   5.0709212e+00   4.7568497e+00  -8.0138373e+06
   6.0220073e-10  -8.1632390e-04   5.0700800e+00   4.7580325e+00  -7.9620364e+06
   6.0286762e-10  -8.1103128e-04   5.0692441e+00   4.7592078e+00  -7.9105683e+06
   6.0353451e-10  -8.0577288e-04   5.0684135e+00   4.7603754e+00  -7.8594308e+06
   6.0420140e-10  -8.0054847e-04   5.0675881e+00   4.7615355e+00  -7.8086218e+06
   6.0486829e-10  -7.9535784e-04   5.0667679e+00   4.7626881e+00  -7.7581392e+06
   6.0553518e-10  -7.9020077e-04   5.0659528e+00   4.7638333e+00  -7.7079810e+06
   6.0620207e-10  -7.8507704e-04   5.0651429e+00   4.7649711e+00  -7.6581451e+06
   6.0686896e-10  -7.7998643e-04   5.0643380e+00   4.7661016e+00  -7.6086295e+06
   6.0753585e-10  -7.7492874e-04   5.0635383e+00   4.7672248e+00  -7.5594322e+06
   6.0820273e-10  -7.6990376e-04   5.0627435e+00   4.7683407e+00  -7.5105510e+06
   6.0886962e-10  -7.6491127e-04   5.0619538e+00   4.7694494e+00  -7.4619841e+06
   6.0953651e-10  -7.5995106e-04   5.0611691e+00   4.7705510e+00  -7.4137293e+06
   6.1020340e-10  -7.5502293e-04   5.0603892e+00   4.7716454e+00  -7.3657849e+06
   6.1087029e-10  -7.5012667e-04   5.0596143e+00   4.7727328e+00  -7.3181486e+06
   6.1153718e-10  -7.4526208e-04   5.0588443e+00   4.7738132e+00  -7.2708187e+06
   6.1220407e-10  -7.4042894e-04   5.0580792e+00   4.7748866e+00  -7.2237932e+06
   6.1287096e-10  -7.3562707e-04   5.0573188e+00   4.7759531e+00  -7.1770701e+06
   6.1353785e-10  -7.3085626e-04   5.0565633e+00   4.7770127e+00  -7.1306475e+06
   6.1420473e-10  -7.2611631e-04   5.0558125e+00   4.7780654e+00  -7.0845235e+06
   6.1487162e-10  -7.2140701e-04   5.0550665e+00   4.7791114e+00  -7.0386962e+06
   6.1553851e-10  -7.1672818e-04   5.0543251e+00   4.7801506e+00  -6.9931637e+06
   6.1620540e-10  -7.1207962e-04   5.0535885e+00   4.7811831e+00  -6.9479242e+06
   6.1687229e-10  -7.0746113e-04   5.0528565e+00   4.7822089e+00  -6.9029757e+06
   6.1753918e-10  -7.0287252e-04   5.0521291e+00   4.7832281e+00  -6.8583165e+06
   6.1820607e-10  -6.9831359e-04   5.0514063e+00   4.7842407e+00  -6.8139447e+06
   6.1887296e-10  -6.9378417e-04   5.0506881e+00   4.7852468e+00  -6.7698584e+06
   6.1953985e-10  -6.8928404e-04   5.0499744e+00   4.7862463e+00  -6.7260559e+06
   6.2020674e-10  -6.8481304e-04   5.0492653e+00   4.7872395e+00  -6.6825353e+06
   6.2087362e-10  -6.8037096e-04   5.0485606e+00   4.7882262e+00  -6.6392949e+06
   6.2154051e-10  -6.7595763e-04   5.0478604e+00   4.7892065e+00  -6.5963328e+06
   6.2220740e-10  -6.7157286e-04   5.0471646e+00   4.7901805e+00  -6.5536473e+06
   6.2287429e-10  -6.6721646e-04   5.0464732e+00   4.7911482e+00  -6.5112367e+06
   6.2354118e-10  -6.6288825e-04   5.0457862e+00   4.7921096e+00  -6.4690991e+06
   6.2420807e-10  -6.5858806e-04   5.0451035e+00   4.7930649e+00  -6.4272329e+06
   6.2487496e-10  -6.5431569e-04   5.0444251e+00   4.7940139e+00  -6.3856362e+06
   6.2554185e-10  -6.5007098e-04   5.0437511e+00   4.7949569e+00  -6.3443075e+06
   6.2620874e-10  -6.4585374e-04   5.0430813e+00   4.7958937e+00  -6.3032449e+06
   6.2687563e-10  -6.4166379e-04   5.0424157e+00   4.7968245e+00  -6.2624469e+06
   6.2754251e-10  -6.3750096e-04   5.0417544e+00   4.7977492e+00  -6.2219116e+06
   6.2820940e-10  -6.3336508e-04   5.0410972e+00   4.7986680e+00  -6.1816375e+06
   6.2887629e-10  -6.2925598e-04   5.0404443e+00   4.7995809e+00  -6.1416228e+06
   6.2954318e-10  -6.2517347e-04   5.0397954e+00   4.8004878e+00  -6.1018660e+06
   6.3021007e-10  -6.2111738e-04   5.0391507e+00   4.8013889e+00  -6.0623653e+06
   6.3087696e-10  -6.1708756e-04   5.0385100e+00   4.8022841e+00  -6.0231191e+06
   6.3154385e-10  -6.1308382e-04   5.0378735e+00   4.8031736e+00  -5.9841258e+06
   6.3221074e-10  -6.0910601e-04   5.0372409e+00   4.8040573e+00  -5.9453838e+06
   6.3287763e-10  -6.0515395e-04   5.0366124e+00   4.8049353e+00  -5.9068916e+06
   6.3354451e-10  -6.0122747e-04   5.0359878e+00   4.8058076e+00  -5.8686474e+06
   6.3421140e-10  -5.9732642e-04   5.0353673e+00   4.8066743e+00  -5.8306497e+06
   6.3487829e-10  -5.9345063e-04   5.0347506e+00   4.8075354e+00  -5.7928970e+06
   6.3554518e-10  -5.8959993e-04   5.0341379e+00   4.8083909e+00  -5.7553876e+06
   6.3621207e-10  -5.8577416e-04   5.0335290e+00   4.8092409e+00  -5.7181200e+06
   6.3687896e-10  -5.8197317e-04   5.0329241e+00   4.8100853e+00  -5.6810927e+06
   6.3754585e-10  -5.7819679e-04   5.0323229e+00   4.8109244e+00  -5.6443042e+06
   6.3821274e-10  -5.7444487e-04   5.0317256e+00   4.8117579e+00  -5.6077529e+06
   6.3887963e-10  -5.7071725e-04   5.0311321e+00   4.8125861e+00  -5.5714373e+06
   6.3954652e-10  -5.6701376e-04   5.0305424e+00   4.8134090e+00  -5.5353558e+06
   6.4021340e-10  -5.6333426e-04   5.0299564e+00   4.8142265e+00  -5.4995071e+06
   6.4088029e-10  -5.5967859e-04   5.0293741e+00   4.8150387e+00  -5.4638895e+06
   6.4154718e-10  -5.5604659e-04   5.0287955e+00   4.8158457e+00  -5.4285017e+06
   6.4221407e-10  -5.5243812e-04   5.0282206e+00   4.8166474e+00  -5.3933422e+06
   6.4288096e-10  -5.4885302e-04   5.0276494e+00   4.8174440e+00  -5.3584095e+06
   6.4354785e-10  -5.4529114e-04   5.0270818e+00   4.8182354e+00  -5.3237021e+06
   6.4421474e-10  -5.4175233e-04   5.0265178e+00   4.8190217e+00  -5.2892186e+06
   6.4488163e-10  -5.3823645e-04   5.0259574e+00   4.8198029e+00  -5.2549576e+06
   6.4554852e-10  -5.3474334e-04   5.0254006e+00   4.8205790e+00  -5.2209176e+06
   6.4621541e-10  -5.3127286e-04   5.0248473e+00   4.8213501e+00  -5.1870973e+06
   6.4688229e-10  -5.2782485e-04   5.0242975e+00   4.8221162e+00  -5.1534953e+06
   6.4754918e-10  -5.2439919e-04   5.0237512e+00   4.8228774e+00  -5.1201100e+06
   6.4821607e-10  -5.2099572e-04   5.0232084e+00   4.8236336e+00  -5.0869402e+06
   6.4888296e-10  -5.1761429e-04   5.0226691e+00   4.8243850e+00  -5.0539845e+06
   6.4954985e-10  -5.1425478e-04   5.0221332e+00   4.8251315e+00  -5.0212415e+06
   6.5021674e-10  -5.1091703e-04   5.0216007e+00   4.8258731e+00  -4.9887098e+06
   6.5088363e-10  -5.0760090e-04   5.0210716e+00   4.8266100e+00  -4.9563881e+06
   6.5155052e-10  -5.0430626e-04   5.0205459e+00   4.8273420e+00  -4.9242751e+06
   6.5221741e-10  -5.0103296e-04   5.0200235e+00   4.8280694e+00  -4.8923693e+06
   6.5288429e-10  -4.9778088e-04   5.0195045e+00   4.8287920e+00  -4.8606696e+06
   6.5355118e-10  -4.9454986e-04   5.0189887e+00   4.8295100e+00  -4.8291744e+06
   6.5421807e-10  -4.9133979e-04   5.0184763e+00   4.8302233e+00  -4.7978827e+06
   6.5488496e-10  -4.8815051e-04   5.0179671e+00   4.8309319e+00  -4.7667929e+06
   6.5555185e-10  -4.8498190e-04   5.0174611e+00   4.8316360e+00  -4.7359040e+06
   6.5621874e-10  -4.8183382e-04   5.0169584e+00   4.8323356e+00  -4.7052144e+06
   6.5688563e-10  -4.7870614e-04   5.0164589e+00   4.8330306e+00  -4.6747231e+06
   6.5755252e-10  -4.7559873e-04   5.0159626e+00   4.8337211e+00  -4.6444287e+06
   6.5821941e-10  -4.7251146e-04   5.0154695e+00   4.8344071e+00  -4.6143299e+06
   6.5888630e-10  -4.6944420e-04   5.0149795e+00   4.8350887e+00  -4.5844255e+06
   6.5955318e-10  -4.6639682e-04   5.0144926e+00   4.8357658e+00  -4.5547143e+06
   6.6022007e-10  -4.6336918e-04   5.0140088e+00   4.8364386e+00  -4.5251950e+06
   6.6088696e-10  -4.6036117e-04   5.0135281e+00   4.8371071e+00  -4.4958663e+06
   6.6155385e-10  -4.5737265e-04   5.0130505e+00   4.8377712e+00  -4.4667271e+06
   6.6222074e-10  -4.5440350e-04   5.0125760e+00   4.8384310e+00  -4.4377762e+06
   6.6288763e-10  -4.5145360e-04   5.0121044e+00   4.8390865e+00  -4.4090123e+06
   6.6355452e-10  -4.4852282e-04   5.0116359e+00   4.8397378e+00  -4.3804342e+06
   6.6422141e-10  -4.4561103e-04   5.0111704e+00   4.8403848e+00  -4.3520407e+06
   6.6488830e-10  -4.4271812e-04   5.0107079e+00   4.8410277e+00  -4.3238308e+06
   6.6555519e-10  -4.3984396e-04   5.0102483e+00   4.8416664e+00  -4.2958030e+06
   6.6622207e-10  -4.3698843e-04   5.0097916e+00   4.8423009e+00  -4.2679565e+06
   6.6688896e-10  -4.3415142e-04   5.0093379e+00   4.8429314e+00  -4.2402898e+06
   6.6755585e-10  -4.3133279e-04   5.0088870e+00   4.8435577e+00  -4.2128019e+06
   6.6822274e-10  -4.2853244e-04   5.0084391e+00   4.8441801e+00  -4.1854917e+06
   6.6888963e-10  -4.2575023e-04   5.0079940e+00   4.8447983e+00  -4.1583580e+06
   6.6955652e-10  -4.2298607e-04   5.0075517e+00   4.8454126e+00  -4.1313997e+06
   6.7022341e-10  -4.2023983e-04   5.0071123e+00   4.8460229e+00  -4.1046156e+06
   6.7089030e-10  -4.1751139e-04   5.0066757e+00   4.8466292e+00  -4.0780046e+06
   6.7155719e-10  -4.1480064e-04   5.0062419e+00   4.8472316e+00  -4.0515656e+06
   6.7222407e-10  -4.1210746e-04   5.0058108e+00   4.8478301e+00  -4.0252975e+06
   6.7289096e-10  -4.0943174e-04   5.0053825e+00   4.8484247e+00  -3.9991993e+06
   6.7355785e-10  -4.0677338e-04   5.0049570e+00   4.8490155e+00  -3.9732698e+06
   6.7422474e-10  -4.0413225e-04   5.0045342e+00   4.8496025e+00  -3.9475079e+06
   6.7489163e-10  -4.0150824e-04   5.0041141e+00   4.8501856e+00  -3.9219125e+06
   6.7555852e-10  -3.9890125e-04   5.0036966e+00   4.8507649e+00  -3.8964827e+06
   6.7622541e-10  -3.9631116e-04   5.0032819e+00   4.8513405e+00  -3.8712172e+06
   6.7689230e-10  -3.9373787e-04   5.0028698e+00   4.8519124e+00  -3.8461151e+06
   6.7755919e-10  -3.9118126e-04   5.0024603e+00   4.8524806e+00  -3.8211754e+06
   6.7822608e-10  -3.8864124e-04   5.0020535e+00   4.8530451e+00  -3.7963969e+06
   6.7889296e-10  -3.8611768e-04   5.0016492e+00   4.8536059e+00  -3.7717787e+06
   6.7955985e-10  -3.8361048e-04   5.0012476e+00   4.8541631e+00  -3.7473196e+06
   6.8022674e-10  -3.8111955e-04   5.0008485e+00   4.8547166e+00  -3.7230188e+06
   6.8089363e-10  -3.7864477e-04   5.0004520e+00   4.8552666e+00  -3.6988751e+06
   6.8156052e-10  -3.7618604e-04   5.0000580e+00   4.8558130e+00  -3.6748875e+06
   6.8222741e-10  -3.7374325e-04   4.9996666e+00   4.8563559e+00  -3.6510551e+06
   6.8289430e-10  -3.7131631e-04   4.9992776e+00   4.8568953e+00  -3.6273769e+06
   6.8356119e-10  -3.6890510e-04   4.9988912e+00   4.8574311e+00  -3.6038518e+06
   6.8422808e-10  -3.6650953e-04   4.9985072e+00   4.8579635e+00  -3.5804789e+06
   6.8489496e-10  -3.6412950e-04   4.9981257e+00   4.8584925e+00  -3.5572572e+06
   6.8556185e-10  -3.6176491e-04   4.9977466e+00   4.8590180e+00  -3.5341857e+06
   6.8622874e-10  -3.5941565e-04   4.9973700e+00   4.8595401e+00  -3.5112634e+06
   6.8689563e-10  -3.5708163e-04   4.9969958e+00   4.8600588e+00  -3.4884895e+06
   6.8756252e-10  -3.5476275e-04   4.9966239e+00   4.8605741e+00  -3.4658629e+06
   6.8822941e-10  -3.5245891e-04   4.9962545e+00   4.8610861e+00  -3.4433827e+06
   6.8889630e-10  -3.5017001e-04   4.9958874e+00   4.8615948e+00  -3.4210479e+06
   6.8956319e-10  -3.4789596e-04   4.9955227e+00   4.8621002e+00  -3.3988577e+06
   6.9023008e-10  -3.4563666e-04   4.9951603e+00   4.8626023e+00  -3.3768110e+06
   6.9089697e-10  -3.4339201e-04   4.9948003e+00   4.8631012e+00  -3.3549070e+06
   6.9156385e-10  -3.4116192e-04   4.9944426e+00   4.8635968e+00  -3.3331447e+06
   6.9223074e-10  -3.3894630e-04   4.9940871e+00   4.8640892e+00  -3.3115233e+06
   6.9289763e-10  -3.3674506e-04   4.9937339e+00   4.8645784e+00  -3.2900418e+06
   6.9356452e-10  -3.3455809e-04   4.9933830e+00   4.8650645e+00  -3.2686993e+06
   6.9423141e-10  -3.3238531e-04   4.9930344e+00   4.8655474e+00  -3.2474949e+06
   6.9489830e-10  -3.3022662e-04   4.9926880e+00   4.8660271e+00  -3.2264278e+06
   6.9556519e-10  -3.2808194e-04   4.9923438e+00   4.8665038e+00  -3.2054970e+06
   6.9623208e-10  -3.2595117e-04   4.9920018e+00   4.8669773e+00  -3.1847017e+06
   6.9689897e-10  -3.2383422e-04   4.9916621e+00   4.8674478e+00  -3.1640410e+06
   6.9756586e-10  -3.2173101e-04   4.9913245e+00   4.8679152e+00  -3.1435141e+06
   6.9823274e-10  -3.1964144e-04   4.9909890e+00   4.8683796e+00  -3.1231200e+06
   6.9889963e-10  -3.1756543e-04   4.9906558e+00   4.8688410e+00  -3.1028579e+06
   6.9956652e-10  -3.1550289e-04   4.9903246e+00   4.8692994e+00  -3.0827270e+06
   7.0023341e-10  -3.1345373e-04   4.9899956e+00   4.8697548e+00  -3.0627264e+06
   7.0090030e-10  -3.1141787e-04   4.9896687e+00   4.8702073e+00  -3.0428552e+06
   7.0156719e-10  -3.0939521e-04   4.9893439e+00   4.8706568e+00  -3.0231128e+06
   7.0223408e-10  -3.0738568e-04   4.9890212e+00   4.8711034e+00  -3.0034981e+06
   7.0290097e-10  -3.0538918e-04   4.9887006e+00   4.8715471e+00  -2.9840105e+06
   7.0356786e-10  -3.0340564e-04   4.9883820e+00   4.8719880e+00  -2.9646490e+06
   7.0423474e-10  -3.0143497e-04   4.9880655e+00   4.8724260e+00  -2.9454128e+06
   7.0490163e-10  -2.9947709e-04   4.9877510e+00   4.8728611e+00  -2.9263013e+06
   7.0556852e-10  -2.9753191e-04   4.9874385e+00   4.8732934e+00  -2.9073135e+06
   7.0623541e-10  -2.9559935e-04   4.9871281e+00   4.8737229e+00  -2.8884486e+06
   7.0690230e-10  -2.9367933e-04   4.9868196e+00   4.8741496e+00  -2.8697059e+06
   7.0756919e-10  -2.9177177e-04   4.9865131e+00   4.8745736e+00  -2.8510845e+06
   7.0823608e-10  -2.8987659e-04   4.9862086e+00   4.8749948e+00  -2.8325838e+06
   7.0890297e-10  -2.8799371e-04   4.9859060e+00   4.8754133e+00  -2.8142028e+06
   7.0956986e-10  -2.8612304e-04   4.9856054e+00   4.8758290e+00  -2.7959409e+06
   7.1023675e-10  -2.8426452e-04   4.9853068e+00   4.8762421e+00  -2.7777973e+06
   7.1090363e-10  -2.8241805e-04   4.9850100e+00   4.8766525e+00  -2.7597712e+06
   7.1157052e-10  -2.8058357e-04   4.9847151e+00   4.8770602e+00  -2.7418618e+06
   7.1223741e-10  -2.7876099e-04   4.9844222e+00   4.8774652e+00  -2.7240684e+06
   7.1290430e-10  -2.7695024e-04   4.9841311e+00   4.8778677e+00  -2.7063903e+06
   7.1357119e-10  -2.7515124e-04   4.9838419e+00   4.8782675e+00  -2.6888267e+06
   7.1423808e-10  -2.7336392e-04   4.9835546e+00   4.8786647e+00  -2.6713768e+06
   7.1490497e-10  -2.7158819e-04   4.9832691e+00   4.8790594e+00  -2.6540400e+06
   7.1557186e-10  -2.6982399e-04   4.9829855e+00   4.8794515e+00  -2.6368155e+06
   7.1623875e-10  -2.6807124e-04   4.9827037e+00   4.8798411e+00  -2.6197026e+06
   7.1690564e-10  -2.6632987e-04   4.9824236e+00   4.8802281e+00  -2.6027005e+06
   7.1757252e-10  -2.6459979e-04   4.9821454e+00   4.8806126e+00  -2.5858085e+06
   7.1823941e-10  -2.6288095e-04   4.9818690e+00   4.8809946e+00  -2.5690260e+06
   7.1890630e-10  -2.6117326e-04   4.9815944e+00   4.8813741e+00  -2.5523522e+06
   7.1957319e-10  -2.5947665e-04   4.9813215e+00   4.8817512e+00  -2.5357865e+06
   7.2024008e-10  -2.5779106e-04   4.9810504e+00   4.8821258e+00  -2.5193280e+06
   7.2090697e-10  -2.5611641e-04   4.9807810e+00   4.8824980e+00  -2.5029762e+06
   7.2157386e-10  -2.5445262e-04   4.9805134e+00   4.8828678e+00  -2.4867304e+06
   7.2224075e-10  -2.5279964e-04   4.9802475e+00   4.8832352e+00  -2.4705898e+06
   7.2290764e-10  -2.5115738e-04   4.9799833e+00   4.8836002e+00  -2.4545538e+06
   7.2357452e-10  -2.4952578e-04   4.9797208e+00   4.8839628e+00  -2.4386217e+06
   7.2424141e-10  -2.4790478e-04   4.9794600e+00   4.8843231e+00  -2.4227928e+06
   7.2490830e-10  -2.4629429e-04   4.9792009e+00   4.8846810e+00  -2.4070665e+06
   7.2557519e-10  -2.4469426e-04   4.9789434e+00   4.8850367e+00  -2.3914421e+06
   7.2624208e-10  -2.4310462e-04   4.9786876e+00   4.8853900e+00  -2.3759190e+06
   7.2690897e-10  -2.4152529e-04   4.9784335e+00   4.8857410e+00  -2.3604964e+06
   7.2757586e-10  -2.3995622e-04   4.9781810e+00   4.8860897e+00  -2.3451738e+06
   7.2824275e-10  -2.3839733e-04   4.9779301e+00   4.8864362e+00  -2.3299505e+06
   7.2890964e-10  -2.3684856e-04   4.9776808e+00   4.8867804e+00  -2.3148259e+06
   7.2957653e-10  -2.3530984e-04   4.9774331e+00   4.8871224e+00  -2.2997993e+06
   7.3024341e-10  -2.3378112e-04   4.9771871e+00   4.8874621e+00  -2.2848700e+06
   7.3091030e-10  -2.3226231e-04   4.9769426e+00   4.8877997e+00  -2.2700376e+06
   7.3157719e-10  -2.3075337e-04   4.9766997e+00   4.8881351e+00  -2.2553012e+06
   7.3224408e-10  -2.2925422e-04   4.9764583e+00   4.8884683e+00  -2.2406604e+06
   7.3291097e-10  -2.2776480e-04   4.9762186e+00   4.8887993e+00  -2.2261145e+06
   7.3357786e-10  -2.2628506e-04   4.9759803e+00   4.8891282e+00  -2.2116628e+06
   7.3424475e-10  -2.2481492e-04   4.9757436e+00   4.8894549e+00  -2.1973048e+06
   7.3491164e-10  -2.2335432e-04   4.9755084e+00   4.8897795e+00  -2.1830399e+06
   7.3557853e-10  -2.2190320e-04   4.9752748e+00   4.8901021e+00  -2.1688675e+06
   7.3624542e-10  -2.2046151e-04   4.9750426e+00   4.8904225e+00  -2.1547869e+06
   7.3691230e-10  -2.1902918e-04   4.9748120e+00   4.8907408e+00  -2.1407976e+06
   7.3757919e-10  -2.1760614e-04   4.9745828e+00   4.8910571e+00  -2.1268990e+06
   7.3824608e-10  -2.1619235e-04   4.9743551e+00   4.8913713e+00  -2.1130905e+06
   7.3891297e-10  -2.1478773e-04   4.9741289e+00   4.8916835e+00  -2.0993715e+06
   7.3957986e-10  -2.1339223e-04   4.9739041e+00   4.8919937e+00  -2.0857415e+06
   7.4024675e-10  -2.1200579e-04   4.9736808e+00   4.8923018e+00  -2.0721998e+06
   7.4091364e-10  -2.1062836e-04   4.9734589e+00   4.8926080e+00  -2.0587459e+06
   7.4158053e-10  -2.0925986e-04   4.9732385e+00   4.8929121e+00  -2.0453792e+06
   7.4224742e-10  -2.0790026e-04   4.9730194e+00   4.8932143e+00  -2.0320992e+06
   7.4291430e-10  -2.0654948e-04   4.9728018e+00   4.8935145e+00  -2.0189053e+06
   7.4358119e-10  -2.0520747e-04   4.9725856e+00   4.8938128e+00  -2.0057969e+06
   7.4424808e-10  -2.0387417e-04   4.9723708e+00   4.8941091e+00  -1.9927736e+06
   7.4491497e-10  -2.0254953e-04   4.9721574e+00   4.8944035e+00  -1.9798346e+06
   7.4558186e-10  -2.0123349e-04   4.9719453e+00   4.8946960e+00  -1.9669796e+06
   7.4624875e-10  -1.9992600e-04   4.9717347e+00   4.8949866e+00  -1.9542079e+06
   7.4691564e-10  -1.9862699e-04   4.9715253e+00   4.8952753e+00  -1.9415191e+06
   7.4758253e-10  -1.9733642e-04   4.9713174e+00   4.8955622e+00  -1.9289125e+06
   7.4824942e-10  -1.9605423e-04   4.9711107e+00   4.8958471e+00  -1.9163877e+06
   7.4891631e-10  -1.9478037e-04   4.9709054e+00   4.8961302e+00  -1.9039440e+06
   7.4958319e-10  -1.9351478e-04   4.9707015e+00   4.8964115e+00  -1.8915811e+06
   7.5025008e-10  -1.9225740e-04   4.9704988e+00   4.8966910e+00  -1.8792984e+06
   7.5091697e-10  -1.9100819e-04   4.9702975e+00   4.8969686e+00  -1.8670953e+06
   7.5158386e-10  -1.8976709e-04   4.9700974e+00   4.8972445e+00  -1.8549713e+06
   7.5225075e-10  -1.8853406e-04   4.9698987e+00   4.8975185e+00  -1.8429260e+06
   7.5291764e-10  -1.8730902e-04   4.9697012e+00   4.8977908e+00  -1.8309587e+06
   7.5358453e-10  -1.8609195e-04   4.9695050e+00   4.8980613e+00  -1.8190691e+06
   7.5425142e-10  -1.8488277e-04   4.9693101e+00   4.8983300e+00  -1.8072566e+06
   7.5491831e-10  -1.8368145e-04   4.9691164e+00   4.8985970e+00  -1.7955207e+06
   7.5558520e-10  -1.8248793e-04   4.9689240e+00   4.8988623e+00  -1.7838610e+06
   7.5625208e-10  -1.8130216e-04   4.9687328e+00   4.8991259e+00  -1.7722768e+06
   7.5691897e-10  -1.8012409e-04   4.9685429e+00   4.8993877e+00  -1.7607678e+06
   7.5758586e-10  -1.7895367e-04   4.9683542e+00   4.8996478e+00  -1.7493334e+06
   7.5825275e-10  -1.7779085e-04   4.9681667e+00   4.8999063e+00  -1.7379732e+06
   7.5891964e-10  -1.7663558e-04   4.9679804e+00   4.9001630e+00  -1.7266867e+06
   7.5958653e-10  -1.7548782e-04   4.9677953e+00   4.9004181e+00  -1.7154734e+06
   7.6025342e-10  -1.7434751e-04   4.9676114e+00   4.9006716e+00  -1.7043328e+06
   7.6092031e-10  -1.7321460e-04   4.9674287e+00   4.9009234e+00  -1.6932645e+06
   7.6158720e-10  -1.7208905e-04   4.9672472e+00   4.9011735e+00  -1.6822680e+06
   7.6225408e-10  -1.7097081e-04   4.9670668e+00   4.9014220e+00  -1.6713428e+06
   7.6292097e-10  -1.6985983e-04   4.9668876e+00   4.9016690e+00  -1.6604885e+06
   7.6358786e-10  -1.6875607e-04   4.9667096e+00   4.9019143e+00  -1.6497046e+06
   7.6425475e-10  -1.6765948e-04   4.9665327e+00   4.9021580e+00  -1.6389907e+06
   7.6492164e-10  -1.6657001e-04   4.9663570e+00   4.9024001e+00  -1.6283462e+06
   7.6558853e-10  -1.6548761e-04   4.9661824e+00   4.9026407e+00  -1.6177708e+06
   7.6625542e-10  -1.6441225e-04   4.9660090e+00   4.9028797e+00  -1.6072641e+06
   7.6692231e-10  -1.6334386e-04   4.9658366e+00   4.9031172e+00  -1.5968254e+06
   7.6758920e-10  -1.6228242e-04   4.9656654e+00   4.9033531e+00  -1.5864545e+06
   7.6825609e-10  -1.6122787e-04   4.9654952e+00   4.9035875e+00  -1.5761509e+06
   7.6892297e-10  -1.6018017e-04   4.9653262e+00   4.9038203e+00  -1.5659142e+06
   7.6958986e-10  -1.5913927e-04   4.9651583e+00   4.9040517e+00  -1.5557438e+06
   7.7025675e-10  -1.5810514e-04   4.9649914e+00   4.9042815e+00  -1.5456394e+06
   7.7092364e-10  -1.5707772e-04   4.9648257e+00   4.9045099e+00  -1.5356006e+06
   7.7159053e-10  -1.5605697e-04   4.9646610e+00   4.9047367e+00  -1.5256269e+06
   7.7225742e-10  -1.5504286e-04   4.9644973e+00   4.9049621e+00  -1.5157180e+06
   7.7292431e-10  -1.5403533e-04   4.9643347e+00   4.9051860e+00  -1.5058733e+06
   7.7359120e-10  -1.5303434e-04   4.9641732e+00   4.9054085e+00  -1.4960925e+06
   7.7425809e-10  -1.5203986e-04   4.9640127e+00   4.9056295e+00  -1.4863751e+06
   7.7492497e-10  -1.5105183e-04   4.9638533e+00   4.9058491e+00  -1.4767208e+06
   7.7559186e-10  -1.5007023e-04   4.9636949e+00   4.9060673e+00  -1.4671292e+06
   7.7625875e-10  -1.4909500e-04   4.9635375e+00   4.9062840e+00  -1.4575998e+06
   7.7692564e-10  -1.4812610e-04   4.9633811e+00   4.9064994e+00  -1.4481322e+06
   7.7759253e-10  -1.4716350e-04   4.9632257e+00   4.9067133e+00  -1.4387261e+06
   7.7825942e-10  -1.4620714e-04   4.9630714e+00   4.9069259e+00  -1.4293810e+06
   7.7892631e-10  -1.4525701e-04   4.9629180e+00   4.9071371e+00  -1.4200965e+06
   7.7959320e-10  -1.4431304e-04   4.9627657e+00   4.9073469e+00  -1.4108723e+06
   7.8026009e-10  -1.4337520e-04   4.9626143e+00   4.9075553e+00  -1.4017079e+06
   7.8092698e-10  -1.4244346e-04   4.9624639e+00   4.9077624e+00  -1.3926030e+06
   7.8159386e-10  -1.4151777e-04   4.9623144e+00   4.9079681e+00  -1.3835572e+06
   7.8226075e-10  -1.4059809e-04   4.9621660e+00   4.9081725e+00  -1.3745701e+06
   7.8292764e-10  -1.3968438e-04   4.9620185e+00   4.9083756e+00  -1.3656414e+06
   7.8359453e-10  -1.3877661e-04   4.9618719e+00   4.9085774e+00  -1.3567705e+06
   7.8426142e-10  -1.3787474e-04   4.9617263e+00   4.9087778e+00  -1.3479573e+06
   7.8492831e-10  -1.3697872e-04   4.9615817e+00   4.9089769e+00  -1.3392012e+06
   7.8559520e-10  -1.3608853e-04   4.9614379e+00   4.9091748e+00  -1.3305020e+06
   7.8626209e-10  -1.3520412e-04   4.9612951e+00   4.9093714e+00  -1.3218592e+06
   7.8692898e-10  -1.3432545e-04   4.9611533e+00   4.9095666e+00  -1.3132725e+06
   7.8759587e-10  -1.3345249e-04   4.9610123e+00   4.9097607e+00  -1.3047415e+06
   7.8826275e-10  -1.3258520e-04   4.9608723e+00   4.9099534e+00  -1.2962659e+06
   7.8892964e-10  -1.3172355e-04   4.9607331e+00   4.9101449e+00  -1.2878453e+06
   7.8959653e-10  -1.3086749e-04   4.9605949e+00   4.9103352e+00  -1.2794794e+06
   7.9026342e-10  -1.3001699e-04   4.9604576e+00   4.9105242e+00  -1.2711678e+06
   7.9093031e-10  -1.2917202e-04   4.9603211e+00   4.9107120e+00  -1.2629101e+06
   7.9159720e-10  -1.2833254e-04   4.9601855e+00   4.9108986e+00  -1.2547060e+06
   7.9226409e-10  -1.2749851e-04   4.9600509e+00   4.9110840e+00  -1.2465551e+06
   7.9293098e-10  -1.2666990e-04   4.9599170e+00   4.9112681e+00  -1.2384572e+06
   7.9359787e-10  -1.2584667e-04   4.9597841e+00   4.9114511e+00  -1.2304118e+06
   7.9426475e-10  -1.2502879e-04   4.9596520e+00   4.9116329e+00  -1.2224187e+06
   7.9493164e-10  -1.2421623e-04   4.9595207e+00   4.9118134e+00  -1.2144774e+06
   7.9559853e-10  -1.2340894e-04   4.9593904e+00   4.9119929e+00  -1.2065877e+06
   7.9626542e-10  -1.2260689e-04   4.9592608e+00   4.9121711e+00  -1.1987491e+06
   7.9693231e-10  -1.2181006e-04   4.9591321e+00   4.9123482e+00  -1.1909615e+06
   7.9759920e-10  -1.2101841e-04   4.9590042e+00   4.9125242e+00  -1.1832244e+06
   7.9826609e-10  -1.2023189e-04   4.9588772e+00   4.9126990e+00  -1.1755376e+06
   7.9893298e-10  -1.1945049e-04   4.9587510e+00   4.9128726e+00  -1.1679006e+06
   7.9959987e-10  -1.1867416e-04   4.9586255e+00   4.9130452e+00  -1.1603132e+06
   8.0026676e-10  -1.1790288e-04   4.9585010e+00   4.9132166e+00  -1.1527751e+06
   8.0093364e-10  -1.1713660e-04   4.9583772e+00   4.9133869e+00  -1.1452859e+06
   8.0160053e-10  -1.1637531e-04   4.9582542e+00   4.9135561e+00  -1.1378453e+06
   8.0226742e-10  -1.1561896e-04   4.9581320e+00   4.9137242e+00  -1.1304530e+06
   8.0293431e-10  -1.1486753e-04   4.9580106e+00   4.9138912e+00  -1.1231087e+06
   8.0360120e-10  -1.1412097e-04   4.9578900e+00   4.9140571e+00  -1.1158121e+06
   8.0426809e-10  -1.1337927e-04   4.9577701e+00   4.9142220e+00  -1.1085629e+06
   8.0493498e-10  -1.1264239e-04   4.9576511e+00   4.9143858e+00  -1.1013607e+06
   8.0560187e-10  -1.1191029e-04   4.9575328e+00   4.9145485e+00  -1.0942053e+06
   8.0626876e-10  -1.1118295e-04   4.9574153e+00   4.9147101e+00  -1.0870963e+06
   8.0693565e-10  -1.1046033e-04   4.9572985e+00   4.9148707e+00  -1.0800335e+06
   8.0760253e-10  -1.0974241e-04   4.9571825e+00   4.9150303e+00  -1.0730165e+06
   8.0826942e-10  -1.0902916e-04   4.9570672e+00   4.9151888e+00  -1.0660451e+06
   8.0893631e-10  -1.0832054e-04   4.9569527e+00   4.9153463e+00  -1.0591190e+06
   8.0960320e-10  -1.0761652e-04   4.9568390e+00   4.9155028e+00  -1.0522378e+06
   8.1027009e-10  -1.0691707e-04   4.9567259e+00   4.9156582e+00  -1.0454013e+06
   8.1093698e-10  -1.0622217e-04   4.9566137e+00   4.9158127e+00  -1.0386092e+06
   8.1160387e-10  -1.0553179e-04   4.9565021e+00   4.9159661e+00  -1.0318611e+06
   8.1227076e-10  -1.0484589e-04   4.9563912e+00   4.9161185e+00  -1.0251569e+06
   8.1293765e-10  -1.0416445e-04   4.9562811e+00   4.9162700e+00  -1.0184962e+06
   8.1360453e-10  -1.0348743e-04   4.9561717e+00   4.9164205e+00  -1.0118788e+06
   8.1427142e-10  -1.0281482e-04   4.9560630e+00   4.9165700e+00  -1.0053043e+06
   8.1493831e-10  -1.0214657e-04   4.9559550e+00   4.9167185e+00  -9.9877256e+05
   8.1560520e-10  -1.0148267e-04   4.9558477e+00   4.9168660e+00  -9.9228319e+05
   8.1627209e-10  -1.0082308e-04   4.9557411e+00   4.9170126e+00  -9.8583595e+05
   8.1693898e-10  -1.0016777e-04   4.9556351e+00   4.9171583e+00  -9.7943058e+05
   8.1760587e-10  -9.9516725e-05   4.9555299e+00   4.9173030e+00  -9.7306679e+05
   8.1827276e-10  -9.8869908e-05   4.9554254e+00   4.9174467e+00  -9.6674433e+05
   8.1893965e-10  -9.8227293e-05   4.9553215e+00   4.9175895e+00  -9.6046292e+05
   8.1960654e-10  -9.7588854e-05   4.9552183e+00   4.9177314e+00  -9.5422230e+05
   8.2027342e-10  -9.6954564e-05   4.9551158e+00   4.9178724e+00  -9.4802220e+05
   8.2094031e-10  -9.6324394e-05   4.9550139e+00   4.9180125e+00  -9.4186236e+05
   8.2160720e-10  -9.5698320e-05   4.9549127e+00   4.9181516e+00  -9.3574252e+05
   8.2227409e-10  -9.5076313e-05   4.9548121e+00   4.9182898e+00  -9.2966241e+05
   8.2294098e-10  -9.4458348e-05   4.9547122e+00   4.9184272e+00  -9.2362179e+05
   8.2360787e-10  -9.3844398e-05   4.9546130e+00   4.9185636e+00  -9.1762040e+05
   8.2427476e-10  -9.3234437e-05   4.9545144e+00   4.9186992e+00  -9.1165797e+05
   8.2494165e-10  -9.2628440e-05   4.9544164e+00   4.9188339e+00  -9.0573426e+05
   8.2560854e-10  -9.2026380e-05   4.9543191e+00   4.9189677e+00  -8.9984902e+05
   8.2627543e-10  -9.1428233e-05   4.9542224e+00   4.9191006e+00  -8.9400200e+05
   8.2694231e-10  -9.0833972e-05   4.9541263e+00   4.9192327e+00  -8.8819295e+05
   8.2760920e-10  -9.0243572e-05   4.9540308e+00   4.9193639e+00  -8.8242162e+05
   8.2827609e-10  -8.9657009e-05   4.9539360e+00   4.9194943e+00  -8.7668777e+05
   8.2894298e-10  -8.9074257e-05   4.9538418e+00   4.9196238e+00  -8.7099115e+05
   8.2960987e-10  -8.8495292e-05   4.9537482e+00   4.9197525e+00  -8.6533153e+05
   8.3027676e-10  -8.7920089e-05   4.9536551e+00   4.9198803e+00  -8.5970867e+05
   8.3094365e-10  -8.7348623e-05   4.9535627e+00   4.9200073e+00  -8.5412232e+05
   8.3161054e-10  -8.6780871e-05   4.9534709e+00   4.9201335e+00  -8.4857225e+05
   8.3227743e-10  -8.6216808e-05   4.9533797e+00   4.9202589e+00  -8.4305822e+05
   8.3294431e-10  -8.5656411e-05   4.9532891e+00   4.9203834e+00  -8.3758000e+05
   8.3361120e-10  -8.5099655e-05   4.9531991e+00   4.9205072e+00  -8.3213736e+05
   8.3427809e-10  -8.4546516e-05   4.9531096e+00   4.9206301e+00  -8.2673007e+05
   8.3494498e-10  -8.3996973e-05   4.9530208e+00   4.9207522e+00  -8.2135789e+05
   8.3561187e-10  -8.3451000e-05   4.9529325e+00   4.9208736e+00  -8.1602060e+05
   8.3627876e-10  -8.2908575e-05   4.9528448e+00   4.9209941e+00  -8.1071798e+05
   8.3694565e-10  -8.2369674e-05   4.9527576e+00   4.9211139e+00  -8.0544980e+05
   8.3761254e-10  -8.1834276e-05   4.9526710e+00   4.9212329e+00  -8.0021583e+05
   8.3827943e-10  -8.1302356e-05   4.9525850e+00   4.9213511e+00  -7.9501585e+05
   8.3894632e-10  -8.0773894e-05   4.9524995e+00   4.9214686e+00  -7.8984964e+05
   8.3961320e-10  -8.0248865e-05   4.9524146e+00   4.9215852e+00  -7.8471699e+05
   8.4028009e-10  -7.9727248e-05   4.9523302e+00   4.9217012e+00  -7.7961768e+05
   8.4094698e-10  -7.9209021e-05   4.9522464e+00   4.9218163e+00  -7.7455148e+05
   8.4161387e-10  -7.8694161e-05   4.9521632e+00   4.9219308e+00  -7.6951819e+05
   8.4228076e-10  -7.8182647e-05   4.9520804e+00   4.9220445e+00  -7.6451759e+05
   8.4294765e-10  -7.7674457e-05   4.9519982e+00   4.9221574e+00  -7.5954947e+05
   8.4361454e-10  -7.7169570e-05   4.9519166e+00   4.9222696e+00  -7.5461362e+05
   8.4428143e-10  -7.6667963e-05   4.9518354e+00   4.9223811e+00  -7.4970982e+05
   8.4494832e-10  -7.6169616e-05   4.9517548e+00   4.9224919e+00  -7.4483788e+05
   8.4561521e-10  -7.5674508e-05   4.9516747e+00   4.9226019e+00  -7.3999758e+05
   8.4628209e-10  -7.5182617e-05   4.9515952e+00   4.9227112e+00  -7.3518872e+05
   8.4694898e-10  -7.4693922e-05   4.9515161e+00   4.9228198e+00  -7.3041109e+05
   8.4761587e-10  -7.4208404e-05   4.9514376e+00   4.9229277e+00  -7.2566450e+05
   8.4828276e-10  -7.3726040e-05   4.9513596e+00   4.9230349e+00  -7.2094874e+05
   8.4894965e-10  -7.3246811e-05   4.9512820e+00   4.9231414e+00  -7.1626361e+05
   8.4961654e-10  -7.2770697e-05   4.9512050e+00   4.9232473e+00  -7.1160891e+05
   8.5028343e-10  -7.2297676e-05   4.9511285e+00   4.9233524e+00  -7.0698444e+05
   8.5095032e-10  -7.1827730e-05   4.9510525e+00   4.9234568e+00  -7.0239001e+05
   8.5161721e-10  -7.1360837e-05   4.9509769e+00   4.9235606e+00  -6.9782543e+05
   8.5228409e-10  -7.0896979e-05   4.9509019e+00   4.9236637e+00  -6.9329049e+05
   8.5295098e-10  -7.0436135e-05   4.9508273e+00   4.9237661e+00  -6.8878502e+05
   8.5361787e-10  -6.9978286e-05   4.9507533e+00   4.9238679e+00  -6.8430881e+05
   8.5428476e-10  -6.9523413e-05   4.9506797e+00   4.9239690e+00  -6.7986167e+05
   8.5495165e-10  -6.9071495e-05   4.9506066e+00   4.9240694e+00  -6.7544343e+05
   8.5561854e-10  -6.8622515e-05   4.9505339e+00   4.9241692e+00  -6.7105388e+05
   8.5628543e-10  -6.8176452e-05   4.9504618e+00   4.9242683e+00  -6.6669285e+05
   8.5695232e-10  -6.7733288e-05   4.9503901e+00   4.9243668e+00  -6.6236014e+05
   8.5761921e-10  -6.7293005e-05   4.9503188e+00   4.9244647e+00  -6.5805558e+05
   8.5828610e-10  -6.6855582e-05   4.9502481e+00   4.9245619e+00  -6.5377899e+05
   8.5895298e-10  -6.6421003e-05   4.9501777e+00   4.9246585e+00  -6.4953017e+05
   8.5961987e-10  -6.5989247e-05   4.9501079e+00   4.9247544e+00  -6.4530895e+05
   8.6028676e-10  -6.5560298e-05   4.9500385e+00   4.9248497e+00  -6.4111516e+05
   8.6095365e-10  -6.5134136e-05   4.9499695e+00   4.9249445e+00  -6.3694861e+05
   8.6162054e-10  -6.4710744e-05   4.9499010e+00   4.9250386e+00  -6.3280912e+05
   8.6228743e-10  -6.4290103e-05   4.9498329e+00   4.9251320e+00  -6.2869653e+05
   8.6295432e-10  -6.3872196e-05   4.9497653e+00   4.9252249e+00  -6.2461065e+05
   8.6362121e-10  -6.3457005e-05   4.9496981e+00   4.9253172e+00  -6.2055131e+05
   8.6428810e-10  -6.3044513e-05   4.9496314e+00   4.9254089e+00  -6.1651835e+05
   8.6495498e-10  -6.2634701e-05   4.9495651e+00   4.9255000e+00  -6.1251158e+05
   8.6562187e-10  -6.2227552e-05   4.9494992e+00   4.9255904e+00  -6.0853085e+05
   8.6628876e-10  -6.1823050e-05   4.9494337e+00   4.9256803e+00  -6.0457597e+05
   8.6695565e-10  -6.1421177e-05   4.9493687e+00   4.9257697e+00  -6.0064679e+05
   8.6762254e-10  -6.1021915e-05   4.9493041e+00   4.9258584e+00  -5.9674313e+05
   8.6828943e-10  -6.0625248e-05   4.9492399e+00   4.9259465e+00  -5.9286484e+05
   8.6895632e-10  -6.0231159e-05   4.9491761e+00   4.9260341e+00  -5.8901173e+05
   8.6962321e-10  -5.9839632e-05   4.9491128e+00   4.9261211e+00  -5.8518366e+05
   8.7029010e-10  -5.9450649e-05   4.9490498e+00   4.9262076e+00  -5.8138046e+05
   8.7095699e-10  -5.9064194e-05   4.9489873e+00   4.9262935e+00  -5.7760197e+05
   8.7162387e-10  -5.8680250e-05   4.9489251e+00   4.9263788e+00  -5.7384803e+05
   8.7229076e-10  -5.8298803e-05   4.9488634e+00   4.9264636e+00  -5.7011847e+05
   8.7295765e-10  -5.7919834e-05   4.9488021e+00   4.9265478e+00  -5.6641314e+05
   8.7362454e-10  -5.7543328e-05   4.9487411e+00   4.9266315e+00  -5.6273189e+05
   8.7429143e-10  -5.7169269e-05   4.9486806e+00   4.9267146e+00  -5.5907455e+05
   8.7495832e-10  -5.6797641e-05   4.9486205e+00   4.9267972e+00  -5.5544098e+05
   8.7562521e-10  -5.6428429e-05   4.9485607e+00   4.9268793e+00  -5.5183101e+05
   8.7629210e-10  -5.6061616e-05   4.9485013e+00   4.9269608e+00  -5.4824449e+05
   8.7695899e-10  -5.5697187e-05   4.9484423e+00   4.9270418e+00  -5.4468128e+05
   8.7762588e-10  -5.5335127e-05   4.9483837e+00   4.9271223e+00  -5.4114121e+05
   8.7829276e-10  -5.4975420e-05   4.9483255e+00   4.9272022e+00  -5.3762415e+05
   8.7895965e-10  -5.4618051e-05   4.9482677e+00   4.9272816e+00  -5.3412993e+05
   8.7962654e-10  -5.4263004e-05   4.9482102e+00   4.9273605e+00  -5.3065842e+05
   8.8029343e-10  -5.3910265e-05   4.9481531e+00   4.9274389e+00  -5.2720946e+05
   8.8096032e-10  -5.3559819e-05   4.9480964e+00   4.9275168e+00  -5.2378291e+05
   8.8162721e-10  -5.3211650e-05   4.9480400e+00   4.9275942e+00  -5.2037862e+05
   8.8229410e-10  -5.2865744e-05   4.9479840e+00   4.9276711e+00  -5.1699645e+05
   8.8296099e-10  -5.2522087e-05   4.9479284e+00   4.9277474e+00  -5.1363626e+05
   8.8362788e-10  -5.2180663e-05   4.9478732e+00   4.9278233e+00  -5.1029790e+05
   8.8429476e-10  -5.1841458e-05   4.9478182e+00   4.9278987e+00  -5.0698123e+05
   8.8496165e-10  -5.1504458e-05   4.9477637e+00   4.9279736e+00  -5.0368610e+05
   8.8562854e-10  -5.1169648e-05   4.9477095e+00   4.9280480e+00  -5.0041239e+05
   8.8629543e-10  -5.0837014e-05   4.9476557e+00   4.9281219e+00  -4.9715995e+05
   8.8696232e-10  -5.0506542e-05   4.9476022e+00   4.9281954e+00  -4.9392864e+05
   8.8762921e-10  -5.0178218e-05   4.9475490e+00   4.9282684e+00  -4.9071832e+05
   8.8829610e-10  -4.9852028e-05   4.9474962e+00   4.9283408e+00  -4.8752886e+05
   8.8896299e-10  -4.9527958e-05   4.9474437e+00   4.9284129e+00  -4.8436013e+05
   8.8962988e-10  -4.9205995e-05   4.9473916e+00   4.9284844e+00  -4.8121199e+05
   8.9029677e-10  -4.8886124e-05   4.9473398e+00   4.9285555e+00  -4.7808430e+05
   8.9096365e-10  -4.8568332e-05   4.9472884e+00   4.9286261e+00  -4.7497693e+05
   8.9163054e-10  -4.8252606e-05   4.9472373e+00   4.9286963e+00  -4.7188975e+05
   8.9229743e-10  -4.7938931e-05   4.9471865e+00   4.9287660e+00  -4.6882263e+05
   8.9296432e-10  -4.7627296e-05   4.9471360e+00   4.9288353e+00  -4.6577544e+05
   8.9363121e-10  -4.7317686e-05   4.9470859e+00   4.9289041e+00  -4.6274806e+05
   8.9429810e-10  -4.7010088e-05   4.9470361e+00   4.9289725e+00  -4.5974034e+05
   8.9496499e-10  -4.6704490e-05   4.9469867e+00   4.9290404e+00  -4.5675216e+05
   8.9563188e-10  -4.6400878e-05   4.9469375e+00   4.9291078e+00  -4.5378340e+05
   8.9629877e-10  -4.6099240e-05   4.9468887e+00   4.9291749e+00  -4.5083393e+05
   8.9696566e-10  -4.5799562e-05   4.9468401e+00   4.9292415e+00  -4.4790363e+05
   8.9763254e-10  -4.5501831e-05   4.9467919e+00   4.9293077e+00  -4.4499237e+05
   8.9829943e-10  -4.5206036e-05   4.9467441e+00   4.9293734e+00  -4.4210002e+05
   8.9896632e-10  -4.4912164e-05   4.9466965e+00   4.9294387e+00  -4.3922647e+05
   8.9963321e-10  -4.4620202e-05   4.9466492e+00   4.9295036e+00  -4.3637159e+05
   9.0030010e-10  -4.4330137e-05   4.9466022e+00   4.9295681e+00  -4.3353526e+05
   9.0096699e-10  -4.4041958e-05   4.9465556e+00   4.9296321e+00  -4.3071736e+05
   9.0163388e-10  -4.3755652e-05   4.9465092e+00   4.9296957e+00  -4.2791777e+05
   9.0230077e-10  -4.3471206e-05   4.9464632e+00   4.9297590e+00  -4.2513638e+05
   9.0296766e-10  -4.3188610e-05   4.9464174e+00   4.9298218e+00  -4.2237305e+05
   9.0363454e-10  -4.2907851e-05   4.9463720e+00   4.9298842e+00  -4.1962768e+05
   9.0430143e-10  -4.2628916e-05   4.9463268e+00   4.9299461e+00  -4.1690016e+05
   9.0496832e-10  -4.2351794e-05   4.9462819e+00   4.9300077e+00  -4.1419035e+05
   9.0563521e-10  -4.2076474e-05   4.9462373e+00   4.9300689e+00  -4.1149816e+05
   9.0630210e-10  -4.1802943e-05   4.9461930e+00   4.9301297e+00  -4.0882346e+05
   9.0696899e-10  -4.1531191e-05   4.9461490e+00   4.9301901e+00  -4.0616613e+05
   9.0763588e-10  -4.1261204e-05   4.9461053e+00   4.9302501e+00  -4.0352608e+05
   9.0830277e-10  -4.0992973e-05   4.9460619e+00   4.9303097e+00  -4.0090318e+05
   9.0896966e-10  -4.0726484e-05   4.9460187e+00   4.9303689e+00  -3.9829733e+05
   9.0963655e-10  -4.0461729e-05   4.9459759e+00   4.9304278e+00  -3.9570841e+05
   9.1030343e-10  -4.0198694e-05   4.9459333e+00   4.9304862e+00  -3.9313631e+05
   9.1097032e-10  -3.9937368e-05   4.9458910e+00   4.9305443e+00  -3.9058093e+05
   9.1163721e-10  -3.9677742e-05   4.9458489e+00   4.9306020e+00  -3.8804215e+05
   9.1230410e-10  -3.9419803e-05   4.9458072e+00   4.9306593e+00  -3.8551988e+05
   9.1297099e-10  -3.9163540e-05   4.9457657e+00   4.9307163e+00  -3.8301399e+05
   9.1363788e-10  -3.8908943e-05   4.9457244e+00   4.9307729e+00  -3.8052438e+05
   9.1430477e-10  -3.8656002e-05   4.9456835e+00   4.9308291e+00  -3.7805096e+05
   9.1497166e-10  -3.8404704e-05   4.9456428e+00   4.9308849e+00  -3.7559360e+05
   9.1563855e-10  -3.8155040e-05   4.9456023e+00   4.9309404e+00  -3.7315222e+05
   9.1630544e-10  -3.7906998e-05   4.9455622e+00   4.9309956e+00  -3.7072670e+05
   9.1697232e-10  -3.7660569e-05   4.9455223e+00   4.9310503e+00  -3.6831695e+05
   9.1763921e-10  -3.7415742e-05   4.9454826e+00   4.9311047e+00  -3.6592285e+05
   9.1830610e-10  -3.7172506e-05   4.9454432e+00   4.9311588e+00  -3.6354431e+05
   9.1897299e-10  -3.6930851e-05   4.9454041e+00   4.9312125e+00  -3.6118123e+05
   9.1963988e-10  -3.6690767e-05   4.9453652e+00   4.9312659e+00  -3.5883351e+05
   9.2030677e-10  -3.6452243e-05   4.9453266e+00   4.9313189e+00  -3.5650104e+05
   9.2097366e-10  -3.6215270e-05   4.9452882e+00   4.9313715e+00  -3.5418373e+05
   9.2164055e-10  -3.5979837e-05   4.9452501e+00   4.9314239e+00  -3.5188148e+05
   9.2230744e-10  -3.5745935e-05   4.9452122e+00   4.9314758e+00  -3.4959419e+05
   9.2297432e-10  -3.5513553e-05   4.9451746e+00   4.9315275e+00  -3.4732176e+05
   9.2364121e-10  -3.5282682e-05   4.9451372e+00   4.9315788e+00  -3.4506411e+05
   9.2430810e-10  -3.5053311e-05   4.9451000e+00   4.9316298e+00  -3.4282112e+05
   9.2497499e-10  -3.4825431e-05   4.9450631e+00   4.9316804e+00  -3.4059271e+05
   9.2564188e-10  -3.4599033e-05   4.9450265e+00   4.9317307e+00  -3.3837879e+05
   9.2630877e-10  -3.4374106e-05   4.9449900e+00   4.9317807e+00  -3.3617925e+05
   9.2697566e-10  -3.4150641e-05   4.9449538e+00   4.9318304e+00  -3.3399400e+05
   9.2764255e-10  -3.3928629e-05   4.9449179e+00   4.9318797e+00  -3.3182296e+05
   9.2830944e-10  -3.3708060e-05   4.9448822e+00   4.9319287e+00  -3.2966602e+05
   9.2897633e-10  -3.3488924e-05   4.9448467e+00   4.9319774e+00  -3.2752311e+05
   9.2964321e-10  -3.3271214e-05   4.9448114e+00   4.9320258e+00  -3.2539412e+05
   9.3031010e-10  -3.3054918e-05   4.9447764e+00   4.9320739e+00  -3.2327896e+05
   9.3097699e-10  -3.2840028e-05   4.9447416e+00   4.9321217e+00  -3.2117756e+05
   9.3164388e-10  -3.2626535e-05   4.9447070e+00   4.9321691e+00  -3.1908980e+05
   9.3231077e-10  -3.2414430e-05   4.9446726e+00   4.9322162e+00  -3.1701562e+05
   9.3297766e-10  -3.2203704e-05   4.9446385e+00   4.9322631e+00  -3.1495492e+05
   9.3364455e-10  -3.1994347e-05   4.9446046e+00   4.9323096e+00  -3.1290761e+05
   9.3431144e-10  -3.1786352e-05   4.9445709e+00   4.9323558e+00  -3.1087360e+05
   9.3497833e-10  -3.1579708e-05   4.9445374e+00   4.9324018e+00  -3.0885282e+05
   9.3564522e-10  -3.1374408e-05   4.9445042e+00   4.9324474e+00  -3.0684516e+05
   9.3631210e-10  -3.1170442e-05   4.9444711e+00   4.9324927e+00  -3.0485056e+05
   9.3697899e-10  -3.0967802e-05   4.9444383e+00   4.9325377e+00  -3.0286892e+05
   9.3764588e-10  -3.0766479e-05   4.9444057e+00   4.9325825e+00  -3.0090015e+05
   9.3831277e-10  -3.0566465e-05   4.9443733e+00   4.9326269e+00  -2.9894418e+05
   9.3897966e-10  -3.0367751e-05   4.9443411e+00   4.9326711e+00  -2.9700093e+05
   9.3964655e-10  -3.0170329e-05   4.9443092e+00   4.9327150e+00  -2.9507030e+05
   9.4031344e-10  -2.9974190e-05   4.9442774e+00   4.9327586e+00  -2.9315222e+05
   9.4098033e-10  -2.9779326e-05   4.9442458e+00   4.9328019e+00  -2.9124661e+05
   9.4164722e-10  -2.9585729e-05   4.9442145e+00   4.9328449e+00  -2.8935338e+05
   9.4231410e-10  -2.9393390e-05   4.9441833e+00   4.9328876e+00  -2.8747245e+05
   9.4298099e-10  -2.9202302e-05   4.9441524e+00   4.9329301e+00  -2.8560375e+05
   9.4364788e-10  -2.9012456e-05   4.9441216e+00   4.9329723e+00  -2.8374720e+05
   9.4431477e-10  -2.8823843e-05   4.9440910e+00   4.9330142e+00  -2.8190271e+05
   9.4498166e-10  -2.8636457e-05   4.9440607e+00   4.9330559e+00  -2.8007021e+05
   9.4564855e-10  -2.8450289e-05   4.9440305e+00   4.9330972e+00  -2.7824962e+05
   9.4631544e-10  -2.8265332e-05   4.9440006e+00   4.9331383e+00  -2.7644086e+05
   9.4698233e-10  -2.8081576e-05   4.9439708e+00   4.9331792e+00  -2.7464386e+05
   9.4764922e-10  -2.7899015e-05   4.9439412e+00   4.9332198e+00  -2.7285854e+05
   9.4831611e-10  -2.7717641e-05   4.9439119e+00   4.9332601e+00  -2.7108482e+05
   9.4898299e-10  -2.7537445e-05   4.9438827e+00   4.9333001e+00  -2.6932262e+05
   9.4964988e-10  -2.7358422e-05   4.9438537e+00   4.9333399e+00  -2.6757189e+05
   9.5031677e-10  -2.7180561e-05   4.9438249e+00   4.9333794e+00  -2.6583252e+05
   9.5098366e-10  -2.7003858e-05   4.9437962e+00   4.9334187e+00  -2.6410447e+05
   9.5165055e-10  -2.6828302e-05   4.9437678e+00   4.9334577e+00  -2.6238765e+05
   9.5231744e-10  -2.6653888e-05   4.9437395e+00   4.9334965e+00  -2.6068198e+05
   9.5298433e-10  -2.6480608e-05   4.9437115e+00   4.9335350e+00  -2.5898740e+05
   9.5365122e-10  -2.6308454e-05   4.9436836e+00   4.9335732e+00  -2.5730383e+05
   9.5431811e-10  -2.6137419e-05   4.9436559e+00   4.9336113e+00  -2.5563121e+05
   9.5498499e-10  -2.5967496e-05   4.9436283e+00   4.9336490e+00  -2.5396946e+05
   9.5565188e-10  -2.5798678e-05   4.9436010e+00   4.9336865e+00  -2.5231851e+05
   9.5631877e-10  -2.5630957e-05   4.9435738e+00   4.9337238e+00  -2.5067828e+05
   9.5698566e-10  -2.5464327e-05   4.9435468e+00   4.9337608e+00  -2.4904872e+05
   9.5765255e-10  -2.5298779e-05   4.9435200e+00   4.9337976e+00  -2.4742975e+05
   9.5831944e-10  -2.5134308e-05   4.9434934e+00   4.9338342e+00  -2.4582131e+05
   9.5898633e-10  -2.4970906e-05   4.9434669e+00   4.9338705e+00  -2.4422331e+05
   9.5965322e-10  -2.4808566e-05   4.9434406e+00   4.9339066e+00  -2.4263571e+05
   9.6032011e-10  -2.4647281e-05   4.9434145e+00   4.9339424e+00  -2.4105842e+05
   9.6098700e-10  -2.4487045e-05   4.9433885e+00   4.9339780e+00  -2.3949138e+05
   9.6165388e-10  -2.4327851e-05   4.9433627e+00   4.9340134e+00  -2.3793453e+05
   9.6232077e-10  -2.4169691e-05   4.9433371e+00   4.9340486e+00  -2.3638780e+05
   9.6298766e-10  -2.4012560e-05   4.9433116e+00   4.9340835e+00  -2.3485112e+05
   9.6365455e-10  -2.3856450e-05   4.9432863e+00   4.9341182e+00  -2.3332443e+05
   9.6432144e-10  -2.3701355e-05   4.9432612e+00   4.9341526e+00  -2.3180766e+05
   9.6498833e-10  -2.3547268e-05   4.9432363e+00   4.9341869e+00  -2.3030075e+05
   9.6565522e-10  -2.3394182e-05   4.9432115e+00   4.9342209e+00  -2.2880364e+05
   9.6632211e-10  -2.3242092e-05   4.9431868e+00   4.9342547e+00  -2.2731625e+05
   9.6698900e-10  -2.3090991e-05   4.9431623e+00   4.9342883e+00  -2.2583854e+05
   9.6765589e-10  -2.2940872e-05   4.9431380e+00   4.9343217e+00  -2.2437043e+05
   9.6832277e-10  -2.2791728e-05   4.9431139e+00   4.9343548e+00  -2.2291186e+05
   9.6898966e-10  -2.2643555e-05   4.9430898e+00   4.9343877e+00  -2.2146277e+05
   9.6965655e-10  -2.2496344e-05   4.9430660e+00   4.9344205e+00  -2.2002310e+05
   9.7032344e-10  -2.2350090e-05   4.9430423e+00   4.9344530e+00  -2.1859278e+05
   9.7099033e-10  -2.2204788e-05   4.9430188e+00   4.9344852e+00  -2.1717177e+05
   9.7165722e-10  -2.2060430e-05   4.9429954e+00   4.9345173e+00  -2.1575999e+05
   9.7232411e-10  -2.1917010e-05   4.9429721e+00   4.9345492e+00  -2.1435739e+05
   9.7299100e-10  -2.1774522e-05   4.9429490e+00   4.9345809e+00  -2.1296390e+05
   9.7365789e-10  -2.1632961e-05   4.9429261e+00   4.9346123e+00  -2.1157947e+05
   9.7432477e-10  -2.1492320e-05   4.9429033e+00   4.9346436e+00  -2.1020404e+05
   9.7499166e-10  -2.1352594e-05   4.9428807e+00   4.9346746e+00  -2.0883755e+05
