   0.0000000e+00  -1.1521778e-01   6.3982452e+00   8.1717137e-04  -5.2262347e+08
   6.6688896e-13  -1.1486955e-01   6.3982980e+00   8.3962404e-04  -5.2170178e+08
   1.3337779e-12  -1.1452194e-01   6.3983512e+00   8.6265242e-04  -5.2078009e+08
   2.0006669e-12  -1.1417495e-01   6.3984048e+00   8.8627005e-04  -5.1985842e+08
   2.6675559e-12  -1.1382856e-01   6.3984588e+00   9.1049079e-04  -5.1893677e+08
   3.3344448e-12  -1.1348280e-01   6.3985131e+00   9.3532878e-04  -5.1801513e+08
   4.0013338e-12  -1.1313765e-01   6.3985678e+00   9.6079844e-04  -5.1709350e+08
   4.6682227e-12  -1.1279311e-01   6.3986228e+00   9.8691451e-04  -5.1617189e+08
   5.3351117e-12  -1.1244919e-01   6.3986782e+00   1.0136920e-03  -5.1525030e+08
   6.0020007e-12  -1.1210588e-01   6.3987340e+00   1.0411464e-03  -5.1432872e+08
   6.6688896e-12  -1.1176319e-01   6.3987901e+00   1.0692932e-03  -5.1340715e+08
   7.3357786e-12  -1.1142111e-01   6.3988466e+00   1.0981484e-03  -5.1248560e+08
   8.0026676e-12  -1.1107965e-01   6.3989034e+00   1.1277285e-03  -5.1156407e+08
   8.6695565e-12  -1.1073880e-01   6.3989605e+00   1.1580501e-03  -5.1064255e+08
   9.3364455e-12  -1.1039856e-01   6.3990180e+00   1.1891301e-03  -5.0972105e+08
   1.0003334e-11  -1.1005894e-01   6.3990758e+00   1.2209859e-03  -5.0879957e+08
   1.0670223e-11  -1.0971994e-01   6.3991339e+00   1.2536352e-03  -5.0787810e+08
   1.1337112e-11  -1.0938155e-01   6.3991924e+00   1.2870960e-03  -5.0695665e+08
   1.2004001e-11  -1.0904377e-01   6.3992511e+00   1.3213869e-03  -5.0603522e+08
   1.2670890e-11  -1.0870661e-01   6.3993102e+00   1.3565265e-03  -5.0511380e+08
   1.3337779e-11  -1.0837006e-01   6.3993695e+00   1.3925341e-03  -5.0419240e+08
   1.4004668e-11  -1.0803413e-01   6.3994292e+00   1.4294291e-03  -5.0327102e+08
   1.4671557e-11  -1.0769881e-01   6.3994891e+00   1.4672316e-03  -5.0234966e+08
   1.5338446e-11  -1.0736410e-01   6.3995493e+00   1.5059619e-03  -5.0142832e+08
   1.6005335e-11  -1.0703001e-01   6.3996097e+00   1.5456407e-03  -5.0050699e+08
   1.6672224e-11  -1.0669654e-01   6.3996705e+00   1.5862892e-03  -4.9958569e+08
   1.7339113e-11  -1.0636368e-01   6.3997315e+00   1.6279289e-03  -4.9866440e+08
   1.8006002e-11  -1.0603143e-01   6.3997927e+00   1.6705818e-03  -4.9774314e+08
   1.8672891e-11  -1.0569980e-01   6.3998541e+00   1.7142704e-03  -4.9682189e+08
   1.9339780e-11  -1.0536878e-01   6.3999158e+00   1.7590175e-03  -4.9590066e+08
   2.0006669e-11  -1.0503838e-01   6.3999777e+00   1.8048464e-03  -4.9497946e+08
   2.0673558e-11  -1.0470859e-01   6.4000398e+00   1.8517808e-03  -4.9405827e+08
   2.1340447e-11  -1.0437941e-01   6.4001021e+00   1.8998450e-03  -4.9313711e+08
   2.2007336e-11  -1.0405085e-01   6.4001646e+00   1.9490635e-03  -4.9221596e+08
   2.2674225e-11  -1.0372291e-01   6.4002273e+00   1.9994617e-03  -4.9129484e+08
   2.3341114e-11  -1.0339557e-01   6.4002901e+00   2.0510650e-03  -4.9037374e+08
   2.4008003e-11  -1.0306886e-01   6.4003531e+00   2.1038997e-03  -4.8945266e+08
   2.4674892e-11  -1.0274275e-01   6.4004162e+00   2.1579922e-03  -4.8853161e+08
   2.5341781e-11  -1.0241726e-01   6.4004795e+00   2.2133697e-03  -4.8761058e+08
   2.6008670e-11  -1.0209239e-01   6.4005429e+00   2.2700598e-03  -4.8668957e+08
   2.6675559e-11  -1.0176813e-01   6.4006063e+00   2.3280907e-03  -4.8576858e+08
   2.7342447e-11  -1.0144448e-01   6.4006699e+00   2.3874910e-03  -4.8484762e+08
   2.8009336e-11  -1.0112145e-01   6.4007335e+00   2.4482899e-03  -4.8392668e+08
   2.8676225e-11  -1.0079903e-01   6.4007972e+00   2.5105171e-03  -4.8300577e+08
   2.9343114e-11  -1.0047723e-01   6.4008610e+00   2.5742029e-03  -4.8208489e+08
   3.0010003e-11  -1.0015604e-01   6.4009248e+00   2.6393781e-03  -4.8116402e+08
   3.0676892e-11  -9.9835461e-02   6.4009886e+00   2.7060742e-03  -4.8024319e+08
   3.1343781e-11  -9.9515499e-02   6.4010524e+00   2.7743231e-03  -4.7932238e+08
   3.2010670e-11  -9.9196151e-02   6.4011162e+00   2.8441573e-03  -4.7840160e+08
   3.2677559e-11  -9.8877418e-02   6.4011800e+00   2.9156100e-03  -4.7748084e+08
   3.3344448e-11  -9.8559298e-02   6.4012437e+00   2.9887150e-03  -4.7656011e+08
   3.4011337e-11  -9.8241793e-02   6.4013074e+00   3.0635066e-03  -4.7563941e+08
   3.4678226e-11  -9.7924901e-02   6.4013709e+00   3.1400198e-03  -4.7471874e+08
   3.5345115e-11  -9.7608624e-02   6.4014344e+00   3.2182901e-03  -4.7379810e+08
   3.6012004e-11  -9.7292960e-02   6.4014978e+00   3.2983538e-03  -4.7287748e+08
   3.6678893e-11  -9.6977910e-02   6.4015610e+00   3.3802477e-03  -4.7195690e+08
   3.7345782e-11  -9.6663475e-02   6.4016241e+00   3.4640094e-03  -4.7103634e+08
   3.8012671e-11  -9.6349653e-02   6.4016869e+00   3.5496770e-03  -4.7011582e+08
   3.8679560e-11  -9.6036445e-02   6.4017496e+00   3.6372894e-03  -4.6919533e+08
   3.9346449e-11  -9.5723851e-02   6.4018121e+00   3.7268860e-03  -4.6827487e+08
   4.0013338e-11  -9.5411871e-02   6.4018743e+00   3.8185071e-03  -4.6735444e+08
   4.0680227e-11  -9.5100504e-02   6.4019363e+00   3.9121935e-03  -4.6643404e+08
   4.1347116e-11  -9.4789752e-02   6.4019979e+00   4.0079869e-03  -4.6551368e+08
   4.2014005e-11  -9.4479613e-02   6.4020593e+00   4.1059296e-03  -4.6459335e+08
   4.2680894e-11  -9.4170088e-02   6.4021203e+00   4.2060646e-03  -4.6367306e+08
   4.3347783e-11  -9.3861176e-02   6.4021810e+00   4.3084357e-03  -4.6275280e+08
   4.4014672e-11  -9.3552879e-02   6.4022412e+00   4.4130874e-03  -4.6183257e+08
   4.4681561e-11  -9.3245195e-02   6.4023011e+00   4.5200649e-03  -4.6091239e+08
   4.5348449e-11  -9.2938124e-02   6.4023605e+00   4.6294142e-03  -4.5999223e+08
   4.6015338e-11  -9.2631668e-02   6.4024195e+00   4.7411822e-03  -4.5907212e+08
   4.6682227e-11  -9.2325825e-02   6.4024779e+00   4.8554164e-03  -4.5815204e+08
   4.7349116e-11  -9.2020595e-02   6.4025359e+00   4.9721651e-03  -4.5723200e+08
   4.8016005e-11  -9.1715979e-02   6.4025933e+00   5.0914775e-03  -4.5631200e+08
   4.8682894e-11  -9.1411977e-02   6.4026501e+00   5.2134036e-03  -4.5539204e+08
   4.9349783e-11  -9.1108588e-02   6.4027063e+00   5.3379941e-03  -4.5447212e+08
   5.0016672e-11  -9.0805813e-02   6.4027619e+00   5.4653006e-03  -4.5355224e+08
   5.0683561e-11  -9.0503651e-02   6.4028168e+00   5.5953756e-03  -4.5263241e+08
   5.1350450e-11  -9.0202102e-02   6.4028710e+00   5.7282723e-03  -4.5171261e+08
   5.2017339e-11  -8.9901167e-02   6.4029245e+00   5.8640449e-03  -4.5079286e+08
   5.2684228e-11  -8.9600845e-02   6.4029772e+00   6.0027484e-03  -4.4987315e+08
   5.3351117e-11  -8.9301137e-02   6.4030291e+00   6.1444386e-03  -4.4895349e+08
   5.4018006e-11  -8.9002042e-02   6.4030802e+00   6.2891723e-03  -4.4803387e+08
   5.4684895e-11  -8.8703560e-02   6.4031304e+00   6.4370072e-03  -4.4711430e+08
   5.5351784e-11  -8.8405692e-02   6.4031796e+00   6.5880019e-03  -4.4619477e+08
   5.6018673e-11  -8.8108436e-02   6.4032280e+00   6.7422157e-03  -4.4527529e+08
   5.6685562e-11  -8.7811794e-02   6.4032753e+00   6.8997091e-03  -4.4435586e+08
   5.7352451e-11  -8.7515765e-02   6.4033217e+00   7.0605434e-03  -4.4343648e+08
   5.8019340e-11  -8.7220349e-02   6.4033669e+00   7.2247809e-03  -4.4251715e+08
   5.8686229e-11  -8.6925546e-02   6.4034111e+00   7.3924849e-03  -4.4159787e+08
   5.9353118e-11  -8.6631357e-02   6.4034541e+00   7.5637194e-03  -4.4067864e+08
   6.0020007e-11  -8.6337780e-02   6.4034960e+00   7.7385498e-03  -4.3975946e+08
   6.0686896e-11  -8.6044816e-02   6.4035366e+00   7.9170420e-03  -4.3884034e+08
   6.1353785e-11  -8.5752465e-02   6.4035760e+00   8.0992634e-03  -4.3792127e+08
   6.2020674e-11  -8.5460727e-02   6.4036140e+00   8.2852819e-03  -4.3700226e+08
   6.2687563e-11  -8.5169602e-02   6.4036507e+00   8.4751668e-03  -4.3608330e+08
   6.3354451e-11  -8.4879090e-02   6.4036860e+00   8.6689883e-03  -4.3516440e+08
   6.4021340e-11  -8.4589191e-02   6.4037198e+00   8.8668174e-03  -4.3424555e+08
   6.4688229e-11  -8.4299904e-02   6.4037521e+00   9.0687266e-03  -4.3332677e+08
   6.5355118e-11  -8.4011230e-02   6.4037829e+00   9.2747890e-03  -4.3240805e+08
   6.6022007e-11  -8.3723169e-02   6.4038122e+00   9.4850791e-03  -4.3148938e+08
   6.6688896e-11  -8.3435720e-02   6.4038397e+00   9.6996722e-03  -4.3057078e+08
   6.7355785e-11  -8.3148884e-02   6.4038656e+00   9.9186449e-03  -4.2965224e+08
   6.8022674e-11  -8.2862661e-02   6.4038897e+00   1.0142075e-02  -4.2873377e+08
   6.8689563e-11  -8.2577050e-02   6.4039121e+00   1.0370041e-02  -4.2781536e+08
   6.9356452e-11  -8.2292052e-02   6.4039325e+00   1.0602622e-02  -4.2689702e+08
   7.0023341e-11  -8.2007666e-02   6.4039511e+00   1.0839900e-02  -4.2597874e+08
   7.0690230e-11  -8.1723892e-02   6.4039677e+00   1.1081956e-02  -4.2506054e+08
   7.1357119e-11  -8.1440731e-02   6.4039823e+00   1.1328875e-02  -4.2414240e+08
   7.2024008e-11  -8.1158182e-02   6.4039949e+00   1.1580739e-02  -4.2322433e+08
   7.2690897e-11  -8.0876245e-02   6.4040053e+00   1.1837635e-02  -4.2230634e+08
   7.3357786e-11  -8.0594920e-02   6.4040135e+00   1.2099649e-02  -4.2138842e+08
   7.4024675e-11  -8.0314208e-02   6.4040194e+00   1.2366869e-02  -4.2047057e+08
   7.4691564e-11  -8.0034107e-02   6.4040231e+00   1.2639384e-02  -4.1955280e+08
   7.5358453e-11  -7.9754619e-02   6.4040244e+00   1.2917285e-02  -4.1863511e+08
   7.6025342e-11  -7.9475743e-02   6.4040232e+00   1.3200661e-02  -4.1771750e+08
   7.6692231e-11  -7.9197478e-02   6.4040196e+00   1.3489607e-02  -4.1679996e+08
   7.7359120e-11  -7.8919826e-02   6.4040134e+00   1.3784215e-02  -4.1588251e+08
   7.8026009e-11  -7.8642785e-02   6.4040045e+00   1.4084582e-02  -4.1496513e+08
   7.8692898e-11  -7.8366356e-02   6.4039930e+00   1.4390802e-02  -4.1404785e+08
   7.9359787e-11  -7.8090539e-02   6.4039787e+00   1.4702974e-02  -4.1313064e+08
   8.0026676e-11  -7.7815333e-02   6.4039615e+00   1.5021196e-02  -4.1221353e+08
   8.0693565e-11  -7.7540739e-02   6.4039415e+00   1.5345568e-02  -4.1129650e+08
   8.1360453e-11  -7.7266757e-02   6.4039185e+00   1.5676191e-02  -4.1037956e+08
   8.2027342e-11  -7.6993386e-02   6.4038924e+00   1.6013168e-02  -4.0946271e+08
   8.2694231e-11  -7.6720626e-02   6.4038633e+00   1.6356603e-02  -4.0854595e+08
   8.3361120e-11  -7.6448478e-02   6.4038309e+00   1.6706600e-02  -4.0762929e+08
   8.4028009e-11  -7.6176941e-02   6.4037953e+00   1.7063266e-02  -4.0671273e+08
   8.4694898e-11  -7.5906016e-02   6.4037563e+00   1.7426708e-02  -4.0579626e+08
   8.5361787e-11  -7.5635701e-02   6.4037139e+00   1.7797036e-02  -4.0487989e+08
   8.6028676e-11  -7.5365998e-02   6.4036680e+00   1.8174359e-02  -4.0396362e+08
   8.6695565e-11  -7.5096906e-02   6.4036185e+00   1.8558789e-02  -4.0304745e+08
   8.7362454e-11  -7.4828424e-02   6.4035653e+00   1.8950439e-02  -4.0213139e+08
   8.8029343e-11  -7.4560554e-02   6.4035084e+00   1.9349422e-02  -4.0121543e+08
   8.8696232e-11  -7.4293294e-02   6.4034477e+00   1.9755855e-02  -4.0029958e+08
   8.9363121e-11  -7.4026645e-02   6.4033831e+00   2.0169855e-02  -3.9938384e+08
   9.0030010e-11  -7.3760607e-02   6.4033144e+00   2.0591538e-02  -3.9846821e+08
   9.0696899e-11  -7.3495179e-02   6.4032417e+00   2.1021026e-02  -3.9755269e+08
   9.1363788e-11  -7.3230362e-02   6.4031648e+00   2.1458437e-02  -3.9663729e+08
   9.2030677e-11  -7.2966156e-02   6.4030837e+00   2.1903896e-02  -3.9572200e+08
   9.2697566e-11  -7.2702559e-02   6.4029982e+00   2.2357525e-02  -3.9480683e+08
   9.3364455e-11  -7.2439573e-02   6.4029083e+00   2.2819449e-02  -3.9389178e+08
   9.4031344e-11  -7.2177198e-02   6.4028138e+00   2.3289794e-02  -3.9297686e+08
   9.4698233e-11  -7.1915432e-02   6.4027147e+00   2.3768688e-02  -3.9206206e+08
   9.5365122e-11  -7.1654276e-02   6.4026109e+00   2.4256260e-02  -3.9114738e+08
   9.6032011e-11  -7.1393731e-02   6.4025023e+00   2.4752640e-02  -3.9023284e+08
   9.6698900e-11  -7.1133795e-02   6.4023887e+00   2.5257960e-02  -3.8931842e+08
   9.7365789e-11  -7.0874469e-02   6.4022702e+00   2.5772353e-02  -3.8840414e+08
   9.8032678e-11  -7.0615753e-02   6.4021465e+00   2.6295953e-02  -3.8748999e+08
   9.8699567e-11  -7.0357646e-02   6.4020176e+00   2.6828896e-02  -3.8657597e+08
   9.9366455e-11  -7.0100149e-02   6.4018834e+00   2.7371319e-02  -3.8566210e+08
   1.0003334e-10  -6.9843261e-02   6.4017438e+00   2.7923361e-02  -3.8474837e+08
   1.0070023e-10  -6.9586983e-02   6.4015987e+00   2.8485162e-02  -3.8383478e+08
   1.0136712e-10  -6.9331314e-02   6.4014479e+00   2.9056863e-02  -3.8292134e+08
   1.0203401e-10  -6.9076254e-02   6.4012914e+00   2.9638606e-02  -3.8200805e+08
   1.0270090e-10  -6.8821803e-02   6.4011291e+00   3.0230536e-02  -3.8109490e+08
   1.0336779e-10  -6.8567961e-02   6.4009608e+00   3.0832798e-02  -3.8018191e+08
   1.0403468e-10  -6.8314727e-02   6.4007864e+00   3.1445539e-02  -3.7926908e+08
   1.0470157e-10  -6.8062103e-02   6.4006059e+00   3.2068907e-02  -3.7835640e+08
   1.0536846e-10  -6.7810087e-02   6.4004191e+00   3.2703052e-02  -3.7744388e+08
   1.0603535e-10  -6.7558680e-02   6.4002259e+00   3.3348124e-02  -3.7653153e+08
   1.0670223e-10  -6.7307881e-02   6.4000262e+00   3.4004275e-02  -3.7561934e+08
   1.0736912e-10  -6.7057690e-02   6.3998199e+00   3.4671660e-02  -3.7470732e+08
   1.0803601e-10  -6.6808108e-02   6.3996068e+00   3.5350433e-02  -3.7379547e+08
   1.0870290e-10  -6.6559133e-02   6.3993868e+00   3.6040750e-02  -3.7288380e+08
   1.0936979e-10  -6.6310767e-02   6.3991599e+00   3.6742769e-02  -3.7197230e+08
   1.1003668e-10  -6.6063008e-02   6.3989258e+00   3.7456649e-02  -3.7106098e+08
   1.1070357e-10  -6.5815857e-02   6.3986845e+00   3.8182550e-02  -3.7014984e+08
   1.1137046e-10  -6.5569314e-02   6.3984359e+00   3.8920634e-02  -3.6923889e+08
   1.1203735e-10  -6.5323378e-02   6.3981798e+00   3.9671064e-02  -3.6832812e+08
   1.1270423e-10  -6.5078049e-02   6.3979160e+00   4.0434004e-02  -3.6741754e+08
   1.1337112e-10  -6.4833328e-02   6.3976446e+00   4.1209619e-02  -3.6650716e+08
   1.1403801e-10  -6.4589214e-02   6.3973653e+00   4.1998076e-02  -3.6559697e+08
   1.1470490e-10  -6.4345706e-02   6.3970780e+00   4.2799545e-02  -3.6468699e+08
   1.1537179e-10  -6.4102806e-02   6.3967826e+00   4.3614192e-02  -3.6377720e+08
   1.1603868e-10  -6.3860512e-02   6.3964789e+00   4.4442191e-02  -3.6286762e+08
   1.1670557e-10  -6.3618825e-02   6.3961668e+00   4.5283712e-02  -3.6195825e+08
   1.1737246e-10  -6.3377744e-02   6.3958463e+00   4.6138928e-02  -3.6104909e+08
   1.1803935e-10  -6.3137269e-02   6.3955171e+00   4.7008014e-02  -3.6014014e+08
   1.1870624e-10  -6.2897401e-02   6.3951790e+00   4.7891146e-02  -3.5923141e+08
   1.1937312e-10  -6.2658138e-02   6.3948321e+00   4.8788501e-02  -3.5832291e+08
   1.2004001e-10  -6.2419482e-02   6.3944761e+00   4.9700256e-02  -3.5741463e+08
   1.2070690e-10  -6.2181430e-02   6.3941109e+00   5.0626590e-02  -3.5650657e+08
   1.2137379e-10  -6.1943985e-02   6.3937363e+00   5.1567684e-02  -3.5559875e+08
   1.2204068e-10  -6.1707145e-02   6.3933523e+00   5.2523720e-02  -3.5469116e+08
   1.2270757e-10  -6.1470910e-02   6.3929586e+00   5.3494881e-02  -3.5378382e+08
   1.2337446e-10  -6.1235280e-02   6.3925551e+00   5.4481349e-02  -3.5287671e+08
   1.2404135e-10  -6.1000255e-02   6.3921417e+00   5.5483310e-02  -3.5196985e+08
   1.2470824e-10  -6.0765834e-02   6.3917183e+00   5.6500951e-02  -3.5106323e+08
   1.2537513e-10  -6.0532019e-02   6.3912846e+00   5.7534457e-02  -3.5015687e+08
   1.2604201e-10  -6.0298807e-02   6.3908406e+00   5.8584017e-02  -3.4925077e+08
   1.2670890e-10  -6.0066200e-02   6.3903860e+00   5.9649821e-02  -3.4834493e+08
   1.2737579e-10  -5.9834197e-02   6.3899208e+00   6.0732059e-02  -3.4743935e+08
   1.2804268e-10  -5.9602797e-02   6.3894448e+00   6.1830921e-02  -3.4653403e+08
   1.2870957e-10  -5.9372002e-02   6.3889578e+00   6.2946600e-02  -3.4562899e+08
   1.2937646e-10  -5.9141809e-02   6.3884597e+00   6.4079290e-02  -3.4472423e+08
   1.3004335e-10  -5.8912221e-02   6.3879503e+00   6.5229184e-02  -3.4381974e+08
   1.3071024e-10  -5.8683235e-02   6.3874295e+00   6.6396477e-02  -3.4291554e+08
   1.3137713e-10  -5.8454852e-02   6.3868971e+00   6.7581365e-02  -3.4201162e+08
   1.3204401e-10  -5.8227072e-02   6.3863530e+00   6.8784045e-02  -3.4110800e+08
   1.3271090e-10  -5.7999894e-02   6.3857969e+00   7.0004715e-02  -3.4020467e+08
   1.3337779e-10  -5.7773319e-02   6.3852288e+00   7.1243573e-02  -3.3930164e+08
   1.3404468e-10  -5.7547346e-02   6.3846485e+00   7.2500818e-02  -3.3839892e+08
   1.3471157e-10  -5.7321975e-02   6.3840558e+00   7.3776650e-02  -3.3749650e+08
   1.3537846e-10  -5.7097205e-02   6.3834505e+00   7.5071271e-02  -3.3659440e+08
   1.3604535e-10  -5.6873037e-02   6.3828326e+00   7.6384881e-02  -3.3569261e+08
   1.3671224e-10  -5.6649471e-02   6.3822018e+00   7.7717683e-02  -3.3479115e+08
   1.3737913e-10  -5.6426505e-02   6.3815579e+00   7.9069879e-02  -3.3389001e+08
   1.3804602e-10  -5.6204141e-02   6.3809009e+00   8.0441674e-02  -3.3298920e+08
   1.3871290e-10  -5.5982377e-02   6.3802305e+00   8.1833272e-02  -3.3208872e+08
   1.3937979e-10  -5.5761213e-02   6.3795465e+00   8.3244876e-02  -3.3118859e+08
   1.4004668e-10  -5.5540650e-02   6.3788489e+00   8.4676692e-02  -3.3028880e+08
   1.4071357e-10  -5.5320686e-02   6.3781374e+00   8.6128926e-02  -3.2938935e+08
   1.4138046e-10  -5.5101323e-02   6.3774119e+00   8.7601785e-02  -3.2849026e+08
   1.4204735e-10  -5.4882558e-02   6.3766722e+00   8.9095475e-02  -3.2759153e+08
   1.4271424e-10  -5.4664393e-02   6.3759181e+00   9.0610202e-02  -3.2669316e+08
   1.4338113e-10  -5.4446827e-02   6.3751495e+00   9.2146176e-02  -3.2579516e+08
   1.4404802e-10  -5.4229860e-02   6.3743662e+00   9.3703602e-02  -3.2489753e+08
   1.4471490e-10  -5.4013492e-02   6.3735680e+00   9.5282690e-02  -3.2400028e+08
   1.4538179e-10  -5.3797721e-02   6.3727548e+00   9.6883649e-02  -3.2310341e+08
   1.4604868e-10  -5.3582549e-02   6.3719263e+00   9.8506686e-02  -3.2220693e+08
   1.4671557e-10  -5.3367974e-02   6.3710825e+00   1.0015201e-01  -3.2131084e+08
   1.4738246e-10  -5.3153997e-02   6.3702230e+00   1.0181983e-01  -3.2041515e+08
   1.4804935e-10  -5.2940617e-02   6.3693479e+00   1.0351036e-01  -3.1951986e+08
   1.4871624e-10  -5.2727834e-02   6.3684569e+00   1.0522380e-01  -3.1862498e+08
   1.4938313e-10  -5.2515647e-02   6.3675497e+00   1.0696037e-01  -3.1773051e+08
   1.5005002e-10  -5.2304057e-02   6.3666263e+00   1.0872027e-01  -3.1683646e+08
   1.5071691e-10  -5.2093063e-02   6.3656865e+00   1.1050372e-01  -3.1594284e+08
   1.5138379e-10  -5.1882665e-02   6.3647301e+00   1.1231092e-01  -3.1504964e+08
   1.5205068e-10  -5.1672863e-02   6.3637569e+00   1.1414208e-01  -3.1415688e+08
   1.5271757e-10  -5.1463655e-02   6.3627668e+00   1.1599741e-01  -3.1326456e+08
   1.5338446e-10  -5.1255043e-02   6.3617595e+00   1.1787712e-01  -3.1237269e+08
   1.5405135e-10  -5.1047025e-02   6.3607349e+00   1.1978142e-01  -3.1148127e+08
   1.5471824e-10  -5.0839602e-02   6.3596929e+00   1.2171052e-01  -3.1059030e+08
   1.5538513e-10  -5.0632773e-02   6.3586332e+00   1.2366462e-01  -3.0969980e+08
   1.5605202e-10  -5.0426537e-02   6.3575557e+00   1.2564394e-01  -3.0880977e+08
   1.5671891e-10  -5.0220895e-02   6.3564602e+00   1.2764868e-01  -3.0792021e+08
   1.5738580e-10  -5.0015845e-02   6.3553465e+00   1.2967904e-01  -3.0703113e+08
   1.5805268e-10  -4.9811389e-02   6.3542145e+00   1.3173524e-01  -3.0614254e+08
   1.5871957e-10  -4.9607525e-02   6.3530639e+00   1.3381748e-01  -3.0525444e+08
   1.5938646e-10  -4.9404253e-02   6.3518947e+00   1.3592596e-01  -3.0436683e+08
   1.6005335e-10  -4.9201573e-02   6.3507066e+00   1.3806089e-01  -3.0347973e+08
   1.6072024e-10  -4.8999485e-02   6.3494994e+00   1.4022248e-01  -3.0259314e+08
   1.6138713e-10  -4.8797987e-02   6.3482730e+00   1.4241092e-01  -3.0170707e+08
   1.6205402e-10  -4.8597080e-02   6.3470273e+00   1.4462642e-01  -3.0082152e+08
   1.6272091e-10  -4.8396764e-02   6.3457620e+00   1.4686918e-01  -2.9993650e+08
   1.6338780e-10  -4.8197038e-02   6.3444769e+00   1.4913940e-01  -2.9905201e+08
   1.6405468e-10  -4.7997901e-02   6.3431720e+00   1.5143729e-01  -2.9816806e+08
   1.6472157e-10  -4.7799354e-02   6.3418469e+00   1.5376303e-01  -2.9728467e+08
   1.6538846e-10  -4.7601395e-02   6.3405017e+00   1.5611684e-01  -2.9640182e+08
   1.6605535e-10  -4.7404025e-02   6.3391360e+00   1.5849890e-01  -2.9551953e+08
   1.6672224e-10  -4.7207244e-02   6.3377497e+00   1.6090940e-01  -2.9463781e+08
   1.6738913e-10  -4.7011050e-02   6.3363427e+00   1.6334856e-01  -2.9375667e+08
   1.6805602e-10  -4.6815444e-02   6.3349147e+00   1.6581655e-01  -2.9287610e+08
   1.6872291e-10  -4.6620424e-02   6.3334657e+00   1.6831357e-01  -2.9199612e+08
   1.6938980e-10  -4.6425992e-02   6.3319954e+00   1.7083982e-01  -2.9111673e+08
   1.7005669e-10  -4.6232145e-02   6.3305037e+00   1.7339547e-01  -2.9023794e+08
   1.7072357e-10  -4.6038885e-02   6.3289904e+00   1.7598072e-01  -2.8935976e+08
   1.7139046e-10  -4.5846210e-02   6.3274554e+00   1.7859576e-01  -2.8848219e+08
   1.7205735e-10  -4.5654120e-02   6.3258984e+00   1.8124076e-01  -2.8760524e+08
   1.7272424e-10  -4.5462614e-02   6.3243194e+00   1.8391592e-01  -2.8672892e+08
   1.7339113e-10  -4.5271693e-02   6.3227181e+00   1.8662142e-01  -2.8585323e+08
   1.7405802e-10  -4.5081356e-02   6.3210945e+00   1.8935742e-01  -2.8497818e+08
   1.7472491e-10  -4.4891602e-02   6.3194483e+00   1.9212412e-01  -2.8410378e+08
   1.7539180e-10  -4.4702431e-02   6.3177794e+00   1.9492169e-01  -2.8323003e+08
   1.7605869e-10  -4.4513842e-02   6.3160876e+00   1.9775030e-01  -2.8235694e+08
   1.7672558e-10  -4.4325835e-02   6.3143728e+00   2.0061012e-01  -2.8148453e+08
   1.7739246e-10  -4.4138410e-02   6.3126349e+00   2.0350134e-01  -2.8061278e+08
   1.7805935e-10  -4.3951566e-02   6.3108736e+00   2.0642410e-01  -2.7974172e+08
   1.7872624e-10  -4.3765303e-02   6.3090888e+00   2.0937859e-01  -2.7887135e+08
   1.7939313e-10  -4.3579620e-02   6.3072804e+00   2.1236497e-01  -2.7800168e+08
   1.8006002e-10  -4.3394516e-02   6.3054482e+00   2.1538339e-01  -2.7713271e+08
   1.8072691e-10  -4.3209992e-02   6.3035921e+00   2.1843402e-01  -2.7626446e+08
   1.8139380e-10  -4.3026047e-02   6.3017120e+00   2.2151702e-01  -2.7539692e+08
   1.8206069e-10  -4.2842680e-02   6.2998076e+00   2.2463254e-01  -2.7453011e+08
   1.8272758e-10  -4.2659891e-02   6.2978789e+00   2.2778073e-01  -2.7366403e+08
   1.8339446e-10  -4.2477679e-02   6.2959257e+00   2.3096175e-01  -2.7279870e+08
   1.8406135e-10  -4.2296044e-02   6.2939479e+00   2.3417574e-01  -2.7193411e+08
   1.8472824e-10  -4.2114985e-02   6.2919453e+00   2.3742286e-01  -2.7107028e+08
   1.8539513e-10  -4.1934502e-02   6.2899178e+00   2.4070323e-01  -2.7020721e+08
   1.8606202e-10  -4.1754595e-02   6.2878653e+00   2.4401701e-01  -2.6934492e+08
   1.8672891e-10  -4.1575262e-02   6.2857876e+00   2.4736432e-01  -2.6848340e+08
   1.8739580e-10  -4.1396504e-02   6.2836846e+00   2.5074532e-01  -2.6762268e+08
   1.8806269e-10  -4.1218319e-02   6.2815562e+00   2.5416011e-01  -2.6676274e+08
   1.8872958e-10  -4.1040707e-02   6.2794023e+00   2.5760885e-01  -2.6590361e+08
   1.8939647e-10  -4.0863668e-02   6.2772226e+00   2.6109165e-01  -2.6504529e+08
   1.9006335e-10  -4.0687201e-02   6.2750172e+00   2.6460863e-01  -2.6418778e+08
   1.9073024e-10  -4.0511306e-02   6.2727859e+00   2.6815993e-01  -2.6333110e+08
   1.9139713e-10  -4.0335982e-02   6.2705286e+00   2.7174564e-01  -2.6247526e+08
   1.9206402e-10  -4.0161228e-02   6.2682452e+00   2.7536590e-01  -2.6162025e+08
   1.9273091e-10  -3.9987044e-02   6.2659355e+00   2.7902080e-01  -2.6076610e+08
   1.9339780e-10  -3.9813430e-02   6.2635994e+00   2.8271047e-01  -2.5991280e+08
   1.9406469e-10  -3.9640384e-02   6.2612369e+00   2.8643499e-01  -2.5906037e+08
   1.9473158e-10  -3.9467907e-02   6.2588478e+00   2.9019449e-01  -2.5820881e+08
   1.9539847e-10  -3.9295996e-02   6.2564320e+00   2.9398904e-01  -2.5735813e+08
   1.9606536e-10  -3.9124653e-02   6.2539895e+00   2.9781875e-01  -2.5650834e+08
   1.9673224e-10  -3.8953877e-02   6.2515201e+00   3.0168371e-01  -2.5565945e+08
   1.9739913e-10  -3.8783666e-02   6.2490237e+00   3.0558401e-01  -2.5481146e+08
   1.9806602e-10  -3.8614020e-02   6.2465003e+00   3.0951973e-01  -2.5396438e+08
   1.9873291e-10  -3.8444939e-02   6.2439497e+00   3.1349095e-01  -2.5311823e+08
   1.9939980e-10  -3.8276422e-02   6.2413719e+00   3.1749775e-01  -2.5227301e+08
   2.0006669e-10  -3.8108469e-02   6.2387668e+00   3.2154021e-01  -2.5142872e+08
   2.0073358e-10  -3.7941078e-02   6.2361343e+00   3.2561839e-01  -2.5058538e+08
   2.0140047e-10  -3.7774249e-02   6.2334743e+00   3.2973235e-01  -2.4974299e+08
   2.0206736e-10  -3.7607981e-02   6.2307868e+00   3.3388218e-01  -2.4890157e+08
   2.0273424e-10  -3.7442274e-02   6.2280716e+00   3.3806791e-01  -2.4806111e+08
   2.0340113e-10  -3.7277128e-02   6.2253288e+00   3.4228961e-01  -2.4722164e+08
   2.0406802e-10  -3.7112541e-02   6.2225581e+00   3.4654733e-01  -2.4638315e+08
   2.0473491e-10  -3.6948512e-02   6.2197597e+00   3.5084112e-01  -2.4554565e+08
   2.0540180e-10  -3.6785042e-02   6.2169334e+00   3.5517101e-01  -2.4470916e+08
   2.0606869e-10  -3.6622130e-02   6.2140791e+00   3.5953706e-01  -2.4387369e+08
   2.0673558e-10  -3.6459774e-02   6.2111969e+00   3.6393928e-01  -2.4303923e+08
   2.0740247e-10  -3.6297974e-02   6.2082865e+00   3.6837773e-01  -2.4220580e+08
   2.0806936e-10  -3.6136730e-02   6.2053481e+00   3.7285241e-01  -2.4137340e+08
   2.0873625e-10  -3.5976040e-02   6.2023816e+00   3.7736337e-01  -2.4054205e+08
   2.0940313e-10  -3.5815905e-02   6.1993868e+00   3.8191061e-01  -2.3971176e+08
   2.1007002e-10  -3.5656323e-02   6.1963638e+00   3.8649415e-01  -2.3888252e+08
   2.1073691e-10  -3.5497293e-02   6.1933126e+00   3.9111400e-01  -2.3805436e+08
   2.1140380e-10  -3.5338816e-02   6.1902330e+00   3.9577018e-01  -2.3722728e+08
   2.1207069e-10  -3.5180889e-02   6.1871252e+00   4.0046267e-01  -2.3640128e+08
   2.1273758e-10  -3.5023513e-02   6.1839889e+00   4.0519149e-01  -2.3557637e+08
   2.1340447e-10  -3.4866687e-02   6.1808243e+00   4.0995662e-01  -2.3475257e+08
   2.1407136e-10  -3.4710410e-02   6.1776313e+00   4.1475806e-01  -2.3392989e+08
   2.1473825e-10  -3.4554681e-02   6.1744099e+00   4.1959578e-01  -2.3310832e+08
   2.1540514e-10  -3.4399499e-02   6.1711601e+00   4.2446978e-01  -2.3228788e+08
   2.1607202e-10  -3.4244864e-02   6.1678818e+00   4.2938003e-01  -2.3146858e+08
   2.1673891e-10  -3.4090775e-02   6.1645750e+00   4.3432650e-01  -2.3065042e+08
   2.1740580e-10  -3.3937232e-02   6.1612398e+00   4.3930916e-01  -2.2983342e+08
   2.1807269e-10  -3.3784233e-02   6.1578762e+00   4.4432797e-01  -2.2901758e+08
   2.1873958e-10  -3.3631777e-02   6.1544841e+00   4.4938290e-01  -2.2820291e+08
   2.1940647e-10  -3.3479864e-02   6.1510636e+00   4.5447390e-01  -2.2738942e+08
   2.2007336e-10  -3.3328494e-02   6.1476147e+00   4.5960092e-01  -2.2657712e+08
   2.2074025e-10  -3.3177664e-02   6.1441373e+00   4.6476390e-01  -2.2576601e+08
   2.2140714e-10  -3.3027376e-02   6.1406316e+00   4.6996280e-01  -2.2495611e+08
   2.2207402e-10  -3.2877626e-02   6.1370974e+00   4.7519754e-01  -2.2414742e+08
   2.2274091e-10  -3.2728416e-02   6.1335350e+00   4.8046806e-01  -2.2333995e+08
   2.2340780e-10  -3.2579744e-02   6.1299441e+00   4.8577429e-01  -2.2253371e+08
   2.2407469e-10  -3.2431609e-02   6.1263250e+00   4.9111616e-01  -2.2172870e+08
   2.2474158e-10  -3.2284010e-02   6.1226777e+00   4.9649358e-01  -2.2092494e+08
   2.2540847e-10  -3.2136947e-02   6.1190021e+00   5.0190646e-01  -2.2012244e+08
   2.2607536e-10  -3.1990419e-02   6.1152984e+00   5.0735473e-01  -2.1932120e+08
   2.2674225e-10  -3.1844424e-02   6.1115665e+00   5.1283829e-01  -2.1852123e+08
   2.2740914e-10  -3.1698963e-02   6.1078065e+00   5.1835703e-01  -2.1772254e+08
   2.2807603e-10  -3.1554034e-02   6.1040185e+00   5.2391086e-01  -2.1692513e+08
   2.2874291e-10  -3.1409636e-02   6.1002025e+00   5.2949968e-01  -2.1612903e+08
   2.2940980e-10  -3.1265768e-02   6.0963586e+00   5.3512336e-01  -2.1533422e+08
   2.3007669e-10  -3.1122430e-02   6.0924869e+00   5.4078180e-01  -2.1454073e+08
   2.3074358e-10  -3.0979621e-02   6.0885874e+00   5.4647487e-01  -2.1374855e+08
   2.3141047e-10  -3.0837339e-02   6.0846601e+00   5.5220246e-01  -2.1295771e+08
   2.3207736e-10  -3.0695585e-02   6.0807052e+00   5.5796442e-01  -2.1216820e+08
   2.3274425e-10  -3.0554356e-02   6.0767228e+00   5.6376064e-01  -2.1138003e+08
   2.3341114e-10  -3.0413653e-02   6.0727128e+00   5.6959098e-01  -2.1059322e+08
   2.3407803e-10  -3.0273474e-02   6.0686755e+00   5.7545528e-01  -2.0980777e+08
   2.3474491e-10  -3.0133818e-02   6.0646109e+00   5.8135341e-01  -2.0902369e+08
   2.3541180e-10  -2.9994685e-02   6.0605190e+00   5.8728522e-01  -2.0824098e+08
   2.3607869e-10  -2.9856073e-02   6.0564000e+00   5.9325056e-01  -2.0745966e+08
   2.3674558e-10  -2.9717981e-02   6.0522540e+00   5.9924925e-01  -2.0667973e+08
   2.3741247e-10  -2.9580410e-02   6.0480810e+00   6.0528115e-01  -2.0590120e+08
   2.3807936e-10  -2.9443356e-02   6.0438812e+00   6.1134609e-01  -2.0512407e+08
   2.3874625e-10  -2.9306821e-02   6.0396547e+00   6.1744389e-01  -2.0434837e+08
   2.3941314e-10  -2.9170803e-02   6.0354016e+00   6.2357438e-01  -2.0357409e+08
   2.4008003e-10  -2.9035300e-02   6.0311220e+00   6.2973739e-01  -2.0280123e+08
   2.4074692e-10  -2.8900312e-02   6.0268161e+00   6.3593272e-01  -2.0202982e+08
   2.4141380e-10  -2.8765838e-02   6.0224838e+00   6.4216019e-01  -2.0125986e+08
   2.4208069e-10  -2.8631877e-02   6.0181255e+00   6.4841961e-01  -2.0049135e+08
   2.4274758e-10  -2.8498428e-02   6.0137412e+00   6.5471079e-01  -1.9972430e+08
   2.4341447e-10  -2.8365490e-02   6.0093310e+00   6.6103353e-01  -1.9895873e+08
   2.4408136e-10  -2.8233062e-02   6.0048950e+00   6.6738762e-01  -1.9819463e+08
   2.4474825e-10  -2.8101143e-02   6.0004335e+00   6.7377286e-01  -1.9743201e+08
   2.4541514e-10  -2.7969732e-02   5.9959465e+00   6.8018903e-01  -1.9667089e+08
   2.4608203e-10  -2.7838828e-02   5.9914342e+00   6.8663593e-01  -1.9591127e+08
   2.4674892e-10  -2.7708431e-02   5.9868968e+00   6.9311333e-01  -1.9515316e+08
   2.4741581e-10  -2.7578538e-02   5.9823343e+00   6.9962101e-01  -1.9439656e+08
   2.4808269e-10  -2.7449149e-02   5.9777470e+00   7.0615875e-01  -1.9364148e+08
   2.4874958e-10  -2.7320263e-02   5.9731350e+00   7.1272632e-01  -1.9288794e+08
   2.4941647e-10  -2.7191880e-02   5.9684984e+00   7.1932348e-01  -1.9213593e+08
   2.5008336e-10  -2.7063997e-02   5.9638375e+00   7.2595001e-01  -1.9138546e+08
   2.5075025e-10  -2.6936614e-02   5.9591523e+00   7.3260565e-01  -1.9063655e+08
   2.5141714e-10  -2.6809730e-02   5.9544431e+00   7.3929018e-01  -1.8988919e+08
   2.5208403e-10  -2.6683344e-02   5.9497100e+00   7.4600333e-01  -1.8914340e+08
   2.5275092e-10  -2.6557454e-02   5.9449532e+00   7.5274486e-01  -1.8839918e+08
   2.5341781e-10  -2.6432061e-02   5.9401729e+00   7.5951453e-01  -1.8765654e+08
   2.5408469e-10  -2.6307162e-02   5.9353693e+00   7.6631206e-01  -1.8691549e+08
   2.5475158e-10  -2.6182756e-02   5.9305425e+00   7.7313721e-01  -1.8617603e+08
   2.5541847e-10  -2.6058843e-02   5.9256927e+00   7.7998971e-01  -1.8543817e+08
   2.5608536e-10  -2.5935422e-02   5.9208201e+00   7.8686929e-01  -1.8470191e+08
   2.5675225e-10  -2.5812491e-02   5.9159249e+00   7.9377569e-01  -1.8396727e+08
   2.5741914e-10  -2.5690050e-02   5.9110073e+00   8.0070863e-01  -1.8323425e+08
   2.5808603e-10  -2.5568097e-02   5.9060675e+00   8.0766784e-01  -1.8250285e+08
   2.5875292e-10  -2.5446630e-02   5.9011057e+00   8.1465305e-01  -1.8177309e+08
   2.5941981e-10  -2.5325650e-02   5.8961221e+00   8.2166396e-01  -1.8104497e+08
   2.6008670e-10  -2.5205155e-02   5.8911169e+00   8.2870031e-01  -1.8031849e+08
   2.6075358e-10  -2.5085144e-02   5.8860902e+00   8.3576179e-01  -1.7959367e+08
   2.6142047e-10  -2.4965616e-02   5.8810424e+00   8.4284813e-01  -1.7887050e+08
   2.6208736e-10  -2.4846569e-02   5.8759736e+00   8.4995904e-01  -1.7814900e+08
   2.6275425e-10  -2.4728003e-02   5.8708840e+00   8.5709422e-01  -1.7742917e+08
   2.6342114e-10  -2.4609917e-02   5.8657738e+00   8.6425337e-01  -1.7671102e+08
   2.6408803e-10  -2.4492308e-02   5.8606433e+00   8.7143619e-01  -1.7599455e+08
   2.6475492e-10  -2.4375177e-02   5.8554927e+00   8.7864239e-01  -1.7527977e+08
   2.6542181e-10  -2.4258522e-02   5.8503222e+00   8.8587167e-01  -1.7456668e+08
   2.6608870e-10  -2.4142342e-02   5.8451319e+00   8.9312371e-01  -1.7385530e+08
   2.6675559e-10  -2.4026636e-02   5.8399223e+00   9.0039821e-01  -1.7314562e+08
   2.6742247e-10  -2.3911402e-02   5.8346933e+00   9.0769486e-01  -1.7243765e+08
   2.6808936e-10  -2.3796640e-02   5.8294454e+00   9.1501334e-01  -1.7173140e+08
   2.6875625e-10  -2.3682348e-02   5.8241787e+00   9.2235336e-01  -1.7102688e+08
   2.6942314e-10  -2.3568526e-02   5.8188935e+00   9.2971458e-01  -1.7032409e+08
   2.7009003e-10  -2.3455171e-02   5.8135900e+00   9.3709670e-01  -1.6962303e+08
   2.7075692e-10  -2.3342284e-02   5.8082684e+00   9.4449939e-01  -1.6892371e+08
   2.7142381e-10  -2.3229862e-02   5.8029289e+00   9.5192233e-01  -1.6822613e+08
   2.7209070e-10  -2.3117905e-02   5.7975719e+00   9.5936520e-01  -1.6753031e+08
   2.7275759e-10  -2.3006411e-02   5.7921975e+00   9.6682768e-01  -1.6683624e+08
   2.7342447e-10  -2.2895380e-02   5.7868060e+00   9.7430944e-01  -1.6614394e+08
   2.7409136e-10  -2.2784809e-02   5.7813976e+00   9.8181015e-01  -1.6545340e+08
   2.7475825e-10  -2.2674699e-02   5.7759726e+00   9.8932949e-01  -1.6476463e+08
   2.7542514e-10  -2.2565047e-02   5.7705312e+00   9.9686712e-01  -1.6407764e+08
   2.7609203e-10  -2.2455853e-02   5.7650736e+00   1.0044227e+00  -1.6339242e+08
   2.7675892e-10  -2.2347115e-02   5.7596002e+00   1.0119960e+00  -1.6270900e+08
   2.7742581e-10  -2.2238832e-02   5.7541112e+00   1.0195865e+00  -1.6202737e+08
   2.7809270e-10  -2.2131003e-02   5.7486067e+00   1.0271940e+00  -1.6134753e+08
   2.7875959e-10  -2.2023627e-02   5.7430871e+00   1.0348181e+00  -1.6066949e+08
   2.7942648e-10  -2.1916702e-02   5.7375527e+00   1.0424585e+00  -1.5999325e+08
   2.8009336e-10  -2.1810228e-02   5.7320036e+00   1.0501149e+00  -1.5931883e+08
   2.8076025e-10  -2.1704202e-02   5.7264401e+00   1.0577869e+00  -1.5864621e+08
   2.8142714e-10  -2.1598625e-02   5.7208626e+00   1.0654741e+00  -1.5797542e+08
   2.8209403e-10  -2.1493495e-02   5.7152711e+00   1.0731763e+00  -1.5730644e+08
   2.8276092e-10  -2.1388810e-02   5.7096661e+00   1.0808931e+00  -1.5663929e+08
   2.8342781e-10  -2.1284569e-02   5.7040477e+00   1.0886242e+00  -1.5597398e+08
   2.8409470e-10  -2.1180771e-02   5.6984162e+00   1.0963691e+00  -1.5531049e+08
   2.8476159e-10  -2.1077415e-02   5.6927719e+00   1.1041277e+00  -1.5464885e+08
   2.8542848e-10  -2.0974500e-02   5.6871151e+00   1.1118995e+00  -1.5398904e+08
   2.8609537e-10  -2.0872024e-02   5.6814459e+00   1.1196841e+00  -1.5333108e+08
   2.8676225e-10  -2.0769986e-02   5.6757647e+00   1.1274813e+00  -1.5267497e+08
   2.8742914e-10  -2.0668386e-02   5.6700717e+00   1.1352907e+00  -1.5202071e+08
   2.8809603e-10  -2.0567220e-02   5.6643672e+00   1.1431120e+00  -1.5136831e+08
   2.8876292e-10  -2.0466490e-02   5.6586514e+00   1.1509448e+00  -1.5071777e+08
   2.8942981e-10  -2.0366192e-02   5.6529246e+00   1.1587887e+00  -1.5006909e+08
   2.9009670e-10  -2.0266326e-02   5.6471871e+00   1.1666435e+00  -1.4942228e+08
   2.9076359e-10  -2.0166892e-02   5.6414391e+00   1.1745088e+00  -1.4877734e+08
   2.9143048e-10  -2.0067886e-02   5.6356809e+00   1.1823842e+00  -1.4813427e+08
   2.9209737e-10  -1.9969309e-02   5.6299127e+00   1.1902694e+00  -1.4749308e+08
   2.9276425e-10  -1.9871159e-02   5.6241349e+00   1.1981641e+00  -1.4685376e+08
   2.9343114e-10  -1.9773434e-02   5.6183477e+00   1.2060679e+00  -1.4621633e+08
   2.9409803e-10  -1.9676134e-02   5.6125513e+00   1.2139805e+00  -1.4558078e+08
   2.9476492e-10  -1.9579257e-02   5.6067460e+00   1.2219014e+00  -1.4494712e+08
   2.9543181e-10  -1.9482802e-02   5.6009320e+00   1.2298305e+00  -1.4431535e+08
   2.9609870e-10  -1.9386767e-02   5.5951098e+00   1.2377674e+00  -1.4368548e+08
   2.9676559e-10  -1.9291152e-02   5.5892794e+00   1.2457116e+00  -1.4305749e+08
   2.9743248e-10  -1.9195956e-02   5.5834411e+00   1.2536629e+00  -1.4243141e+08
   2.9809937e-10  -1.9101176e-02   5.5775953e+00   1.2616210e+00  -1.4180723e+08
   2.9876626e-10  -1.9006811e-02   5.5717422e+00   1.2695854e+00  -1.4118495e+08
   2.9943314e-10  -1.8912861e-02   5.5658820e+00   1.2775559e+00  -1.4056457e+08
   3.0010003e-10  -1.8819324e-02   5.5600150e+00   1.2855321e+00  -1.3994611e+08
   3.0076692e-10  -1.8726199e-02   5.5541415e+00   1.2935137e+00  -1.3932955e+08
   3.0143381e-10  -1.8633485e-02   5.5482617e+00   1.3015004e+00  -1.3871490e+08
   3.0210070e-10  -1.8541179e-02   5.5423759e+00   1.3094918e+00  -1.3810216e+08
   3.0276759e-10  -1.8449282e-02   5.5364844e+00   1.3174875e+00  -1.3749134e+08
   3.0343448e-10  -1.8357791e-02   5.5305873e+00   1.3254874e+00  -1.3688244e+08
   3.0410137e-10  -1.8266706e-02   5.5246850e+00   1.3334909e+00  -1.3627546e+08
   3.0476826e-10  -1.8176025e-02   5.5187777e+00   1.3414978e+00  -1.3567039e+08
   3.0543515e-10  -1.8085746e-02   5.5128657e+00   1.3495079e+00  -1.3506725e+08
   3.0610203e-10  -1.7995870e-02   5.5069493e+00   1.3575206e+00  -1.3446603e+08
   3.0676892e-10  -1.7906393e-02   5.5010286e+00   1.3655358e+00  -1.3386674e+08
   3.0743581e-10  -1.7817316e-02   5.4951039e+00   1.3735531e+00  -1.3326937e+08
   3.0810270e-10  -1.7728636e-02   5.4891756e+00   1.3815721e+00  -1.3267393e+08
   3.0876959e-10  -1.7640353e-02   5.4832438e+00   1.3895926e+00  -1.3208042e+08
   3.0943648e-10  -1.7552465e-02   5.4773088e+00   1.3976142e+00  -1.3148883e+08
   3.1010337e-10  -1.7464970e-02   5.4713708e+00   1.4056367e+00  -1.3089918e+08
   3.1077026e-10  -1.7377869e-02   5.4654302e+00   1.4136596e+00  -1.3031146e+08
   3.1143715e-10  -1.7291158e-02   5.4594870e+00   1.4216827e+00  -1.2972567e+08
   3.1210403e-10  -1.7204838e-02   5.4535417e+00   1.4297057e+00  -1.2914182e+08
   3.1277092e-10  -1.7118906e-02   5.4475944e+00   1.4377283e+00  -1.2855989e+08
   3.1343781e-10  -1.7033362e-02   5.4416454e+00   1.4457501e+00  -1.2797991e+08
   3.1410470e-10  -1.6948204e-02   5.4356949e+00   1.4537709e+00  -1.2740186e+08
   3.1477159e-10  -1.6863431e-02   5.4297432e+00   1.4617903e+00  -1.2682574e+08
   3.1543848e-10  -1.6779041e-02   5.4237905e+00   1.4698080e+00  -1.2625156e+08
   3.1610537e-10  -1.6695033e-02   5.4178370e+00   1.4778237e+00  -1.2567932e+08
   3.1677226e-10  -1.6611407e-02   5.4118830e+00   1.4858372e+00  -1.2510901e+08
   3.1743915e-10  -1.6528160e-02   5.4059288e+00   1.4938482e+00  -1.2454064e+08
   3.1810604e-10  -1.6445292e-02   5.3999745e+00   1.5018562e+00  -1.2397421e+08
   3.1877292e-10  -1.6362800e-02   5.3940204e+00   1.5098611e+00  -1.2340972e+08
   3.1943981e-10  -1.6280685e-02   5.3880667e+00   1.5178626e+00  -1.2284716e+08
   3.2010670e-10  -1.6198944e-02   5.3821137e+00   1.5258603e+00  -1.2228654e+08
   3.2077359e-10  -1.6117576e-02   5.3761616e+00   1.5338540e+00  -1.2172786e+08
   3.2144048e-10  -1.6036580e-02   5.3702106e+00   1.5418433e+00  -1.2117111e+08
   3.2210737e-10  -1.5955955e-02   5.3642609e+00   1.5498281e+00  -1.2061630e+08
   3.2277426e-10  -1.5875699e-02   5.3583129e+00   1.5578080e+00  -1.2006343e+08
   3.2344115e-10  -1.5795811e-02   5.3523666e+00   1.5657827e+00  -1.1951250e+08
   3.2410804e-10  -1.5716290e-02   5.3464223e+00   1.5737520e+00  -1.1896349e+08
   3.2477492e-10  -1.5637134e-02   5.3404803e+00   1.5817156e+00  -1.1841643e+08
   3.2544181e-10  -1.5558343e-02   5.3345408e+00   1.5896732e+00  -1.1787130e+08
   3.2610870e-10  -1.5479914e-02   5.3286039e+00   1.5976245e+00  -1.1732810e+08
   3.2677559e-10  -1.5401847e-02   5.3226699e+00   1.6055693e+00  -1.1678684e+08
   3.2744248e-10  -1.5324140e-02   5.3167391e+00   1.6135073e+00  -1.1624751e+08
   3.2810937e-10  -1.5246793e-02   5.3108115e+00   1.6214383e+00  -1.1571011e+08
   3.2877626e-10  -1.5169803e-02   5.3048875e+00   1.6293619e+00  -1.1517464e+08
   3.2944315e-10  -1.5093170e-02   5.2989673e+00   1.6372780e+00  -1.1464109e+08
   3.3011004e-10  -1.5016891e-02   5.2930510e+00   1.6451862e+00  -1.1410948e+08
   3.3077693e-10  -1.4940967e-02   5.2871389e+00   1.6530863e+00  -1.1357980e+08
   3.3144381e-10  -1.4865395e-02   5.2812311e+00   1.6609781e+00  -1.1305204e+08
   3.3211070e-10  -1.4790175e-02   5.2753279e+00   1.6688613e+00  -1.1252621e+08
   3.3277759e-10  -1.4715304e-02   5.2694294e+00   1.6767357e+00  -1.1200229e+08
   3.3344448e-10  -1.4640783e-02   5.2635360e+00   1.6846010e+00  -1.1148031e+08
   3.3411137e-10  -1.4566608e-02   5.2576477e+00   1.6924569e+00  -1.1096024e+08
   3.3477826e-10  -1.4492780e-02   5.2517647e+00   1.7003033e+00  -1.1044209e+08
   3.3544515e-10  -1.4419297e-02   5.2458874e+00   1.7081399e+00  -1.0992586e+08
   3.3611204e-10  -1.4346158e-02   5.2400157e+00   1.7159664e+00  -1.0941155e+08
   3.3677893e-10  -1.4273361e-02   5.2341500e+00   1.7237827e+00  -1.0889915e+08
   3.3744582e-10  -1.4200905e-02   5.2282905e+00   1.7315885e+00  -1.0838866e+08
   3.3811270e-10  -1.4128789e-02   5.2224372e+00   1.7393835e+00  -1.0788008e+08
   3.3877959e-10  -1.4057011e-02   5.2165905e+00   1.7471676e+00  -1.0737342e+08
   3.3944648e-10  -1.3985570e-02   5.2107504e+00   1.7549405e+00  -1.0686866e+08
   3.4011337e-10  -1.3914466e-02   5.2049172e+00   1.7627021e+00  -1.0636580e+08
   3.4078026e-10  -1.3843696e-02   5.1990910e+00   1.7704520e+00  -1.0586485e+08
   3.4144715e-10  -1.3773260e-02   5.1932720e+00   1.7781901e+00  -1.0536580e+08
   3.4211404e-10  -1.3703156e-02   5.1874605e+00   1.7859161e+00  -1.0486865e+08
   3.4278093e-10  -1.3633383e-02   5.1816565e+00   1.7936299e+00  -1.0437339e+08
   3.4344782e-10  -1.3563939e-02   5.1758602e+00   1.8013312e+00  -1.0388003e+08
   3.4411470e-10  -1.3494824e-02   5.1700719e+00   1.8090199e+00  -1.0338856e+08
   3.4478159e-10  -1.3426036e-02   5.1642916e+00   1.8166957e+00  -1.0289898e+08
   3.4544848e-10  -1.3357574e-02   5.1585196e+00   1.8243584e+00  -1.0241129e+08
   3.4611537e-10  -1.3289436e-02   5.1527559e+00   1.8320079e+00  -1.0192548e+08
   3.4678226e-10  -1.3221622e-02   5.1470009e+00   1.8396439e+00  -1.0144156e+08
   3.4744915e-10  -1.3154130e-02   5.1412545e+00   1.8472663e+00  -1.0095952e+08
   3.4811604e-10  -1.3086959e-02   5.1355171e+00   1.8548748e+00  -1.0047935e+08
   3.4878293e-10  -1.3020107e-02   5.1297887e+00   1.8624694e+00  -1.0000106e+08
   3.4944982e-10  -1.2953574e-02   5.1240694e+00   1.8700497e+00  -9.9524637e+07
   3.5011671e-10  -1.2887358e-02   5.1183596e+00   1.8776156e+00  -9.9050086e+07
   3.5078359e-10  -1.2821457e-02   5.1126592e+00   1.8851669e+00  -9.8577401e+07
   3.5145048e-10  -1.2755871e-02   5.1069685e+00   1.8927035e+00  -9.8106580e+07
   3.5211737e-10  -1.2690599e-02   5.1012875e+00   1.9002252e+00  -9.7637620e+07
   3.5278426e-10  -1.2625639e-02   5.0956165e+00   1.9077318e+00  -9.7170517e+07
   3.5345115e-10  -1.2560990e-02   5.0899556e+00   1.9152231e+00  -9.6705269e+07
   3.5411804e-10  -1.2496650e-02   5.0843049e+00   1.9226990e+00  -9.6241873e+07
   3.5478493e-10  -1.2432619e-02   5.0786645e+00   1.9301593e+00  -9.5780325e+07
   3.5545182e-10  -1.2368895e-02   5.0730346e+00   1.9376039e+00  -9.5320622e+07
   3.5611871e-10  -1.2305477e-02   5.0674154e+00   1.9450326e+00  -9.4862762e+07
   3.5678560e-10  -1.2242363e-02   5.0618069e+00   1.9524451e+00  -9.4406741e+07
   3.5745248e-10  -1.2179553e-02   5.0562094e+00   1.9598415e+00  -9.3952556e+07
   3.5811937e-10  -1.2117046e-02   5.0506228e+00   1.9672215e+00  -9.3500203e+07
   3.5878626e-10  -1.2054839e-02   5.0450474e+00   1.9745849e+00  -9.3049679e+07
   3.5945315e-10  -1.1992933e-02   5.0394833e+00   1.9819317e+00  -9.2600981e+07
   3.6012004e-10  -1.1931325e-02   5.0339305e+00   1.9892617e+00  -9.2154105e+07
   3.6078693e-10  -1.1870014e-02   5.0283893e+00   1.9965747e+00  -9.1709048e+07
   3.6145382e-10  -1.1809000e-02   5.0228597e+00   2.0038707e+00  -9.1265806e+07
   3.6212071e-10  -1.1748281e-02   5.0173419e+00   2.0111494e+00  -9.0824377e+07
   3.6278760e-10  -1.1687855e-02   5.0118360e+00   2.0184107e+00  -9.0384755e+07
   3.6345448e-10  -1.1627722e-02   5.0063420e+00   2.0256545e+00  -8.9946938e+07
   3.6412137e-10  -1.1567880e-02   5.0008602e+00   2.0328807e+00  -8.9510922e+07
   3.6478826e-10  -1.1508329e-02   4.9953905e+00   2.0400892e+00  -8.9076703e+07
   3.6545515e-10  -1.1449067e-02   4.9899332e+00   2.0472798e+00  -8.8644278e+07
   3.6612204e-10  -1.1390092e-02   4.9844882e+00   2.0544523e+00  -8.8213642e+07
   3.6678893e-10  -1.1331404e-02   4.9790559e+00   2.0616068e+00  -8.7784793e+07
   3.6745582e-10  -1.1273001e-02   4.9736361e+00   2.0687430e+00  -8.7357725e+07
   3.6812271e-10  -1.1214883e-02   4.9682291e+00   2.0758609e+00  -8.6932436e+07
   3.6878960e-10  -1.1157048e-02   4.9628349e+00   2.0829603e+00  -8.6508920e+07
   3.6945649e-10  -1.1099494e-02   4.9574536e+00   2.0900411e+00  -8.6087176e+07
   3.7012337e-10  -1.1042221e-02   4.9520854e+00   2.0971032e+00  -8.5667197e+07
   3.7079026e-10  -1.0985228e-02   4.9467303e+00   2.1041465e+00  -8.5248981e+07
   3.7145715e-10  -1.0928513e-02   4.9413884e+00   2.1111709e+00  -8.4832524e+07
   3.7212404e-10  -1.0872075e-02   4.9360598e+00   2.1181764e+00  -8.4417821e+07
   3.7279093e-10  -1.0815913e-02   4.9307446e+00   2.1251627e+00  -8.4004868e+07
   3.7345782e-10  -1.0760026e-02   4.9254428e+00   2.1321298e+00  -8.3593661e+07
   3.7412471e-10  -1.0704413e-02   4.9201547e+00   2.1390777e+00  -8.3184195e+07
   3.7479160e-10  -1.0649072e-02   4.9148801e+00   2.1460061e+00  -8.2776468e+07
   3.7545849e-10  -1.0594003e-02   4.9096194e+00   2.1529151e+00  -8.2370474e+07
   3.7612538e-10  -1.0539203e-02   4.9043724e+00   2.1598045e+00  -8.1966209e+07
   3.7679226e-10  -1.0484673e-02   4.8991393e+00   2.1666743e+00  -8.1563670e+07
   3.7745915e-10  -1.0430410e-02   4.8939201e+00   2.1735243e+00  -8.1162851e+07
   3.7812604e-10  -1.0376415e-02   4.8887150e+00   2.1803545e+00  -8.0763748e+07
   3.7879293e-10  -1.0322685e-02   4.8835241e+00   2.1871648e+00  -8.0366358e+07
   3.7945982e-10  -1.0269219e-02   4.8783473e+00   2.1939552e+00  -7.9970675e+07
   3.8012671e-10  -1.0216017e-02   4.8731847e+00   2.2007254e+00  -7.9576695e+07
   3.8079360e-10  -1.0163077e-02   4.8680365e+00   2.2074756e+00  -7.9184414e+07
   3.8146049e-10  -1.0110398e-02   4.8629027e+00   2.2142055e+00  -7.8793828e+07
   3.8212738e-10  -1.0057979e-02   4.8577833e+00   2.2209152e+00  -7.8404931e+07
   3.8279426e-10  -1.0005818e-02   4.8526785e+00   2.2276046e+00  -7.8017720e+07
   3.8346115e-10  -9.9539156e-03   4.8475882e+00   2.2342735e+00  -7.7632190e+07
   3.8412804e-10  -9.9022695e-03   4.8425126e+00   2.2409220e+00  -7.7248336e+07
   3.8479493e-10  -9.8508789e-03   4.8374517e+00   2.2475499e+00  -7.6866154e+07
   3.8546182e-10  -9.7997425e-03   4.8324055e+00   2.2541573e+00  -7.6485639e+07
   3.8612871e-10  -9.7488594e-03   4.8273742e+00   2.2607440e+00  -7.6106787e+07
   3.8679560e-10  -9.6982285e-03   4.8223577e+00   2.2673100e+00  -7.5729593e+07
   3.8746249e-10  -9.6478485e-03   4.8173561e+00   2.2738552e+00  -7.5354052e+07
   3.8812938e-10  -9.5977184e-03   4.8123696e+00   2.2803797e+00  -7.4980160e+07
   3.8879627e-10  -9.5478371e-03   4.8073980e+00   2.2868832e+00  -7.4607912e+07
   3.8946315e-10  -9.4982036e-03   4.8024415e+00   2.2933659e+00  -7.4237304e+07
   3.9013004e-10  -9.4488167e-03   4.7975002e+00   2.2998276e+00  -7.3868329e+07
   3.9079693e-10  -9.3996753e-03   4.7925740e+00   2.3062682e+00  -7.3500985e+07
   3.9146382e-10  -9.3507783e-03   4.7876630e+00   2.3126879e+00  -7.3135266e+07
   3.9213071e-10  -9.3021247e-03   4.7827673e+00   2.3190864e+00  -7.2771167e+07
   3.9279760e-10  -9.2537134e-03   4.7778869e+00   2.3254638e+00  -7.2408684e+07
   3.9346449e-10  -9.2055433e-03   4.7730218e+00   2.3318201e+00  -7.2047812e+07
   3.9413138e-10  -9.1576134e-03   4.7681721e+00   2.3381551e+00  -7.1688546e+07
   3.9479827e-10  -9.1099225e-03   4.7633378e+00   2.3444689e+00  -7.1330881e+07
   3.9546516e-10  -9.0624696e-03   4.7585190e+00   2.3507614e+00  -7.0974812e+07
   3.9613204e-10  -9.0152537e-03   4.7537156e+00   2.3570326e+00  -7.0620335e+07
   3.9679893e-10  -8.9682737e-03   4.7489278e+00   2.3632825e+00  -7.0267444e+07
   3.9746582e-10  -8.9215284e-03   4.7441555e+00   2.3695110e+00  -6.9916135e+07
   3.9813271e-10  -8.8750170e-03   4.7393988e+00   2.3757181e+00  -6.9566403e+07
   3.9879960e-10  -8.8287382e-03   4.7346577e+00   2.3819038e+00  -6.9218243e+07
   3.9946649e-10  -8.7826911e-03   4.7299323e+00   2.3880680e+00  -6.8871649e+07
   4.0013338e-10  -8.7368747e-03   4.7252225e+00   2.3942108e+00  -6.8526618e+07
   4.0080027e-10  -8.6912879e-03   4.7205284e+00   2.4003321e+00  -6.8183144e+07
   4.0146716e-10  -8.6459296e-03   4.7158501e+00   2.4064319e+00  -6.7841222e+07
   4.0213404e-10  -8.6007988e-03   4.7111874e+00   2.4125101e+00  -6.7500848e+07
   4.0280093e-10  -8.5558945e-03   4.7065406e+00   2.4185669e+00  -6.7162016e+07
   4.0346782e-10  -8.5112157e-03   4.7019095e+00   2.4246020e+00  -6.6824721e+07
   4.0413471e-10  -8.4667613e-03   4.6972942e+00   2.4306156e+00  -6.6488958e+07
   4.0480160e-10  -8.4225304e-03   4.6926948e+00   2.4366076e+00  -6.6154723e+07
   4.0546849e-10  -8.3785218e-03   4.6881112e+00   2.4425780e+00  -6.5822010e+07
   4.0613538e-10  -8.3347346e-03   4.6835434e+00   2.4485269e+00  -6.5490814e+07
   4.0680227e-10  -8.2911678e-03   4.6789916e+00   2.4544541e+00  -6.5161131e+07
   4.0746916e-10  -8.2478204e-03   4.6744556e+00   2.4603596e+00  -6.4832954e+07
   4.0813605e-10  -8.2046913e-03   4.6699355e+00   2.4662436e+00  -6.4506281e+07
   4.0880293e-10  -8.1617797e-03   4.6654314e+00   2.4721060e+00  -6.4181104e+07
   4.0946982e-10  -8.1190843e-03   4.6609431e+00   2.4779467e+00  -6.3857419e+07
   4.1013671e-10  -8.0766044e-03   4.6564708e+00   2.4837657e+00  -6.3535222e+07
   4.1080360e-10  -8.0343389e-03   4.6520145e+00   2.4895632e+00  -6.3214506e+07
   4.1147049e-10  -7.9922867e-03   4.6475741e+00   2.4953390e+00  -6.2895267e+07
   4.1213738e-10  -7.9504470e-03   4.6431497e+00   2.5010932e+00  -6.2577501e+07
   4.1280427e-10  -7.9088187e-03   4.6387412e+00   2.5068258e+00  -6.2261201e+07
   4.1347116e-10  -7.8674009e-03   4.6343487e+00   2.5125367e+00  -6.1946363e+07
   4.1413805e-10  -7.8261925e-03   4.6299722e+00   2.5182261e+00  -6.1632981e+07
   4.1480493e-10  -7.7851927e-03   4.6256116e+00   2.5238938e+00  -6.1321051e+07
   4.1547182e-10  -7.7444004e-03   4.6212671e+00   2.5295399e+00  -6.1010568e+07
   4.1613871e-10  -7.7038147e-03   4.6169385e+00   2.5351645e+00  -6.0701526e+07
   4.1680560e-10  -7.6634347e-03   4.6126259e+00   2.5407674e+00  -6.0393920e+07
   4.1747249e-10  -7.6232593e-03   4.6083293e+00   2.5463488e+00  -6.0087746e+07
   4.1813938e-10  -7.5832876e-03   4.6040486e+00   2.5519087e+00  -5.9782998e+07
   4.1880627e-10  -7.5435187e-03   4.5997840e+00   2.5574470e+00  -5.9479671e+07
   4.1947316e-10  -7.5039516e-03   4.5955353e+00   2.5629638e+00  -5.9177759e+07
   4.2014005e-10  -7.4645855e-03   4.5913026e+00   2.5684590e+00  -5.8877259e+07
   4.2080694e-10  -7.4254192e-03   4.5870858e+00   2.5739328e+00  -5.8578164e+07
   4.2147382e-10  -7.3864520e-03   4.5828850e+00   2.5793851e+00  -5.8280470e+07
   4.2214071e-10  -7.3476828e-03   4.5787002e+00   2.5848160e+00  -5.7984171e+07
   4.2280760e-10  -7.3091108e-03   4.5745313e+00   2.5902254e+00  -5.7689263e+07
   4.2347449e-10  -7.2707350e-03   4.5703784e+00   2.5956134e+00  -5.7395741e+07
   4.2414138e-10  -7.2325545e-03   4.5662414e+00   2.6009800e+00  -5.7103598e+07
   4.2480827e-10  -7.1945684e-03   4.5621203e+00   2.6063252e+00  -5.6812831e+07
   4.2547516e-10  -7.1567757e-03   4.5580151e+00   2.6116491e+00  -5.6523433e+07
   4.2614205e-10  -7.1191756e-03   4.5539258e+00   2.6169516e+00  -5.6235401e+07
   4.2680894e-10  -7.0817671e-03   4.5498524e+00   2.6222329e+00  -5.5948728e+07
   4.2747583e-10  -7.0445494e-03   4.5457948e+00   2.6274929e+00  -5.5663411e+07
   4.2814271e-10  -7.0075215e-03   4.5417532e+00   2.6327316e+00  -5.5379443e+07
   4.2880960e-10  -6.9706826e-03   4.5377273e+00   2.6379491e+00  -5.5096819e+07
   4.2947649e-10  -6.9340317e-03   4.5337173e+00   2.6431454e+00  -5.4815535e+07
   4.3014338e-10  -6.8975679e-03   4.5297231e+00   2.6483206e+00  -5.4535586e+07
   4.3081027e-10  -6.8612904e-03   4.5257447e+00   2.6534747e+00  -5.4256965e+07
   4.3147716e-10  -6.8251983e-03   4.5217821e+00   2.6586076e+00  -5.3979669e+07
   4.3214405e-10  -6.7892907e-03   4.5178352e+00   2.6637195e+00  -5.3703693e+07
   4.3281094e-10  -6.7535667e-03   4.5139041e+00   2.6688104e+00  -5.3429030e+07
   4.3347783e-10  -6.7180254e-03   4.5099887e+00   2.6738802e+00  -5.3155676e+07
   4.3414471e-10  -6.6826660e-03   4.5060891e+00   2.6789291e+00  -5.2883627e+07
   4.3481160e-10  -6.6474876e-03   4.5022051e+00   2.6839571e+00  -5.2612876e+07
   4.3547849e-10  -6.6124894e-03   4.4983367e+00   2.6889641e+00  -5.2343419e+07
   4.3614538e-10  -6.5776704e-03   4.4944840e+00   2.6939503e+00  -5.2075252e+07
   4.3681227e-10  -6.5430298e-03   4.4906470e+00   2.6989157e+00  -5.1808368e+07
   4.3747916e-10  -6.5085668e-03   4.4868255e+00   2.7038603e+00  -5.1542762e+07
   4.3814605e-10  -6.4742806e-03   4.4830196e+00   2.7087842e+00  -5.1278431e+07
   4.3881294e-10  -6.4401702e-03   4.4792292e+00   2.7136873e+00  -5.1015368e+07
   4.3947983e-10  -6.4062348e-03   4.4754544e+00   2.7185698e+00  -5.0753569e+07
   4.4014672e-10  -6.3724736e-03   4.4716951e+00   2.7234317e+00  -5.0493029e+07
   4.4081360e-10  -6.3388857e-03   4.4679513e+00   2.7282730e+00  -5.0233742e+07
   4.4148049e-10  -6.3054704e-03   4.4642229e+00   2.7330937e+00  -4.9975704e+07
   4.4214738e-10  -6.2722267e-03   4.4605099e+00   2.7378939e+00  -4.9718910e+07
   4.4281427e-10  -6.2391539e-03   4.4568123e+00   2.7426737e+00  -4.9463354e+07
   4.4348116e-10  -6.2062511e-03   4.4531301e+00   2.7474331e+00  -4.9209033e+07
   4.4414805e-10  -6.1735175e-03   4.4494632e+00   2.7521721e+00  -4.8955940e+07
   4.4481494e-10  -6.1409523e-03   4.4458117e+00   2.7568907e+00  -4.8704071e+07
   4.4548183e-10  -6.1085546e-03   4.4421754e+00   2.7615891e+00  -4.8453420e+07
   4.4614872e-10  -6.0763237e-03   4.4385544e+00   2.7662672e+00  -4.8203984e+07
   4.4681561e-10  -6.0442588e-03   4.4349486e+00   2.7709252e+00  -4.7955757e+07
   4.4748249e-10  -6.0123590e-03   4.4313580e+00   2.7755630e+00  -4.7708733e+07
   4.4814938e-10  -5.9806236e-03   4.4277826e+00   2.7801807e+00  -4.7462909e+07
   4.4881627e-10  -5.9490517e-03   4.4242223e+00   2.7847784e+00  -4.7218279e+07
   4.4948316e-10  -5.9176426e-03   4.4206770e+00   2.7893561e+00  -4.6974839e+07
   4.5015005e-10  -5.8863954e-03   4.4171469e+00   2.7939138e+00  -4.6732582e+07
   4.5081694e-10  -5.8553094e-03   4.4136318e+00   2.7984516e+00  -4.6491506e+07
   4.5148383e-10  -5.8243838e-03   4.4101317e+00   2.8029695e+00  -4.6251604e+07
   4.5215072e-10  -5.7936178e-03   4.4066466e+00   2.8074677e+00  -4.6012871e+07
   4.5281761e-10  -5.7630106e-03   4.4031764e+00   2.8119461e+00  -4.5775304e+07
   4.5348449e-10  -5.7325615e-03   4.3997211e+00   2.8164048e+00  -4.5538897e+07
   4.5415138e-10  -5.7022697e-03   4.3962807e+00   2.8208438e+00  -4.5303644e+07
   4.5481827e-10  -5.6721344e-03   4.3928551e+00   2.8252633e+00  -4.5069543e+07
   4.5548516e-10  -5.6421548e-03   4.3894443e+00   2.8296631e+00  -4.4836587e+07
   4.5615205e-10  -5.6123302e-03   4.3860483e+00   2.8340435e+00  -4.4604771e+07
   4.5681894e-10  -5.5826598e-03   4.3826670e+00   2.8384045e+00  -4.4374092e+07
   4.5748583e-10  -5.5531429e-03   4.3793004e+00   2.8427460e+00  -4.4144543e+07
   4.5815272e-10  -5.5237787e-03   4.3759485e+00   2.8470682e+00  -4.3916121e+07
   4.5881961e-10  -5.4945665e-03   4.3726112e+00   2.8513711e+00  -4.3688821e+07
   4.5948650e-10  -5.4655055e-03   4.3692884e+00   2.8556548e+00  -4.3462638e+07
   4.6015338e-10  -5.4365949e-03   4.3659802e+00   2.8599193e+00  -4.3237566e+07
   4.6082027e-10  -5.4078341e-03   4.3626865e+00   2.8641647e+00  -4.3013602e+07
   4.6148716e-10  -5.3792223e-03   4.3594073e+00   2.8683910e+00  -4.2790741e+07
   4.6215405e-10  -5.3507588e-03   4.3561425e+00   2.8725983e+00  -4.2568977e+07
   4.6282094e-10  -5.3224428e-03   4.3528921e+00   2.8767867e+00  -4.2348307e+07
   4.6348783e-10  -5.2942736e-03   4.3496561e+00   2.8809561e+00  -4.2128725e+07
   4.6415472e-10  -5.2662505e-03   4.3464344e+00   2.8851067e+00  -4.1910227e+07
   4.6482161e-10  -5.2383728e-03   4.3432270e+00   2.8892385e+00  -4.1692808e+07
   4.6548850e-10  -5.2106397e-03   4.3400337e+00   2.8933516e+00  -4.1476464e+07
   4.6615539e-10  -5.1830505e-03   4.3368547e+00   2.8974460e+00  -4.1261190e+07
   4.6682227e-10  -5.1556046e-03   4.3336899e+00   2.9015217e+00  -4.1046980e+07
   4.6748916e-10  -5.1283011e-03   4.3305392e+00   2.9055789e+00  -4.0833832e+07
   4.6815605e-10  -5.1011395e-03   4.3274025e+00   2.9096176e+00  -4.0621739e+07
   4.6882294e-10  -5.0741189e-03   4.3242799e+00   2.9136379e+00  -4.0410697e+07
   4.6948983e-10  -5.0472388e-03   4.3211713e+00   2.9176398e+00  -4.0200703e+07
   4.7015672e-10  -5.0204983e-03   4.3180766e+00   2.9216233e+00  -3.9991750e+07
   4.7082361e-10  -4.9938969e-03   4.3149959e+00   2.9255885e+00  -3.9783836e+07
   4.7149050e-10  -4.9674338e-03   4.3119290e+00   2.9295356e+00  -3.9576954e+07
   4.7215739e-10  -4.9411083e-03   4.3088760e+00   2.9334644e+00  -3.9371101e+07
   4.7282427e-10  -4.9149197e-03   4.3058367e+00   2.9373752e+00  -3.9166272e+07
   4.7349116e-10  -4.8888675e-03   4.3028113e+00   2.9412679e+00  -3.8962462e+07
   4.7415805e-10  -4.8629508e-03   4.2997995e+00   2.9451427e+00  -3.8759667e+07
   4.7482494e-10  -4.8371690e-03   4.2968013e+00   2.9489995e+00  -3.8557883e+07
   4.7549183e-10  -4.8115215e-03   4.2938168e+00   2.9528385e+00  -3.8357105e+07
   4.7615872e-10  -4.7860075e-03   4.2908459e+00   2.9566596e+00  -3.8157328e+07
   4.7682561e-10  -4.7606264e-03   4.2878886e+00   2.9604631e+00  -3.7958549e+07
   4.7749250e-10  -4.7353776e-03   4.2849447e+00   2.9642488e+00  -3.7760762e+07
   4.7815939e-10  -4.7102604e-03   4.2820142e+00   2.9680169e+00  -3.7563963e+07
   4.7882628e-10  -4.6852740e-03   4.2790972e+00   2.9717675e+00  -3.7368148e+07
   4.7949316e-10  -4.6604180e-03   4.2761936e+00   2.9755005e+00  -3.7173313e+07
   4.8016005e-10  -4.6356915e-03   4.2733032e+00   2.9792161e+00  -3.6979452e+07
   4.8082694e-10  -4.6110940e-03   4.2704262e+00   2.9829143e+00  -3.6786562e+07
   4.8149383e-10  -4.5866249e-03   4.2675624e+00   2.9865952e+00  -3.6594639e+07
   4.8216072e-10  -4.5622834e-03   4.2647118e+00   2.9902588e+00  -3.6403677e+07
   4.8282761e-10  -4.5380689e-03   4.2618743e+00   2.9939053e+00  -3.6213673e+07
   4.8349450e-10  -4.5139809e-03   4.2590499e+00   2.9975345e+00  -3.6024622e+07
   4.8416139e-10  -4.4900186e-03   4.2562386e+00   3.0011467e+00  -3.5836521e+07
   4.8482828e-10  -4.4661815e-03   4.2534404e+00   3.0047419e+00  -3.5649364e+07
   4.8549517e-10  -4.4424688e-03   4.2506550e+00   3.0083202e+00  -3.5463147e+07
   4.8616205e-10  -4.4188801e-03   4.2478827e+00   3.0118815e+00  -3.5277866e+07
   4.8682894e-10  -4.3954145e-03   4.2451232e+00   3.0154260e+00  -3.5093518e+07
   4.8749583e-10  -4.3720717e-03   4.2423765e+00   3.0189537e+00  -3.4910097e+07
   4.8816272e-10  -4.3488508e-03   4.2396427e+00   3.0224647e+00  -3.4727599e+07
   4.8882961e-10  -4.3257514e-03   4.2369216e+00   3.0259590e+00  -3.4546020e+07
   4.8949650e-10  -4.3027727e-03   4.2342132e+00   3.0294368e+00  -3.4365357e+07
   4.9016339e-10  -4.2799143e-03   4.2315175e+00   3.0328980e+00  -3.4185604e+07
   4.9083028e-10  -4.2571754e-03   4.2288344e+00   3.0363428e+00  -3.4006758e+07
   4.9149717e-10  -4.2345554e-03   4.2261638e+00   3.0397711e+00  -3.3828815e+07
   4.9216405e-10  -4.2120539e-03   4.2235058e+00   3.0431831e+00  -3.3651769e+07
   4.9283094e-10  -4.1896701e-03   4.2208603e+00   3.0465788e+00  -3.3475618e+07
   4.9349783e-10  -4.1674036e-03   4.2182272e+00   3.0499583e+00  -3.3300357e+07
   4.9416472e-10  -4.1452536e-03   4.2156065e+00   3.0533216e+00  -3.3125982e+07
   4.9483161e-10  -4.1232196e-03   4.2129982e+00   3.0566689e+00  -3.2952489e+07
   4.9549850e-10  -4.1013010e-03   4.2104022e+00   3.0600000e+00  -3.2779873e+07
   4.9616539e-10  -4.0794972e-03   4.2078184e+00   3.0633152e+00  -3.2608132e+07
   4.9683228e-10  -4.0578077e-03   4.2052469e+00   3.0666145e+00  -3.2437260e+07
   4.9749917e-10  -4.0362319e-03   4.2026875e+00   3.0698980e+00  -3.2267254e+07
   4.9816606e-10  -4.0147691e-03   4.2001403e+00   3.0731656e+00  -3.2098109e+07
   4.9883294e-10  -3.9934189e-03   4.1976051e+00   3.0764175e+00  -3.1929822e+07
   4.9949983e-10  -3.9721806e-03   4.1950820e+00   3.0796537e+00  -3.1762388e+07
   5.0016672e-10  -3.9510537e-03   4.1925709e+00   3.0828743e+00  -3.1595805e+07
   5.0083361e-10  -3.9300377e-03   4.1900717e+00   3.0860794e+00  -3.1430067e+07
   5.0150050e-10  -3.9091318e-03   4.1875844e+00   3.0892689e+00  -3.1265170e+07
   5.0216739e-10  -3.8883357e-03   4.1851090e+00   3.0924431e+00  -3.1101112e+07
   5.0283428e-10  -3.8676487e-03   4.1826454e+00   3.0956018e+00  -3.0937887e+07
   5.0350117e-10  -3.8470703e-03   4.1801935e+00   3.0987453e+00  -3.0775493e+07
   5.0416806e-10  -3.8265999e-03   4.1777534e+00   3.1018735e+00  -3.0613924e+07
   5.0483494e-10  -3.8062370e-03   4.1753249e+00   3.1049865e+00  -3.0453178e+07
   5.0550183e-10  -3.7859810e-03   4.1729081e+00   3.1080844e+00  -3.0293250e+07
   5.0616872e-10  -3.7658314e-03   4.1705029e+00   3.1111673e+00  -3.0134137e+07
   5.0683561e-10  -3.7457877e-03   4.1681092e+00   3.1142351e+00  -2.9975834e+07
   5.0750250e-10  -3.7258492e-03   4.1657270e+00   3.1172880e+00  -2.9818338e+07
   5.0816939e-10  -3.7060156e-03   4.1633563e+00   3.1203260e+00  -2.9661645e+07
   5.0883628e-10  -3.6862861e-03   4.1609970e+00   3.1233492e+00  -2.9505751e+07
   5.0950317e-10  -3.6666604e-03   4.1586490e+00   3.1263577e+00  -2.9350653e+07
   5.1017006e-10  -3.6471378e-03   4.1563124e+00   3.1293514e+00  -2.9196347e+07
   5.1083695e-10  -3.6277179e-03   4.1539870e+00   3.1323305e+00  -2.9042828e+07
   5.1150383e-10  -3.6084001e-03   4.1516729e+00   3.1352950e+00  -2.8890093e+07
   5.1217072e-10  -3.5891839e-03   4.1493700e+00   3.1382450e+00  -2.8738139e+07
   5.1283761e-10  -3.5700688e-03   4.1470782e+00   3.1411805e+00  -2.8586962e+07
   5.1350450e-10  -3.5510543e-03   4.1447974e+00   3.1441016e+00  -2.8436558e+07
   5.1417139e-10  -3.5321398e-03   4.1425278e+00   3.1470084e+00  -2.8286923e+07
   5.1483828e-10  -3.5133248e-03   4.1402691e+00   3.1499009e+00  -2.8138054e+07
   5.1550517e-10  -3.4946089e-03   4.1380215e+00   3.1527792e+00  -2.7989947e+07
   5.1617206e-10  -3.4759915e-03   4.1357847e+00   3.1556433e+00  -2.7842599e+07
   5.1683895e-10  -3.4574721e-03   4.1335588e+00   3.1584933e+00  -2.7696005e+07
   5.1750584e-10  -3.4390502e-03   4.1313437e+00   3.1613293e+00  -2.7550162e+07
   5.1817272e-10  -3.4207253e-03   4.1291395e+00   3.1641513e+00  -2.7405067e+07
   5.1883961e-10  -3.4024970e-03   4.1269459e+00   3.1669593e+00  -2.7260716e+07
   5.1950650e-10  -3.3843647e-03   4.1247631e+00   3.1697535e+00  -2.7117106e+07
   5.2017339e-10  -3.3663279e-03   4.1225909e+00   3.1725339e+00  -2.6974232e+07
   5.2084028e-10  -3.3483861e-03   4.1204293e+00   3.1753005e+00  -2.6832092e+07
   5.2150717e-10  -3.3305389e-03   4.1182783e+00   3.1780535e+00  -2.6690681e+07
   5.2217406e-10  -3.3127858e-03   4.1161379e+00   3.1807928e+00  -2.6549997e+07
   5.2284095e-10  -3.2951263e-03   4.1140079e+00   3.1835185e+00  -2.6410036e+07
   5.2350784e-10  -3.2775598e-03   4.1118883e+00   3.1862308e+00  -2.6270794e+07
   5.2417472e-10  -3.2600860e-03   4.1097791e+00   3.1889295e+00  -2.6132267e+07
   5.2484161e-10  -3.2427043e-03   4.1076803e+00   3.1916149e+00  -2.5994454e+07
   5.2550850e-10  -3.2254143e-03   4.1055918e+00   3.1942869e+00  -2.5857349e+07
   5.2617539e-10  -3.2082155e-03   4.1035135e+00   3.1969457e+00  -2.5720949e+07
   5.2684228e-10  -3.1911075e-03   4.1014455e+00   3.1995912e+00  -2.5585252e+07
   5.2750917e-10  -3.1740897e-03   4.0993876e+00   3.2022235e+00  -2.5450253e+07
   5.2817606e-10  -3.1571617e-03   4.0973399e+00   3.2048428e+00  -2.5315950e+07
   5.2884295e-10  -3.1403230e-03   4.0953023e+00   3.2074490e+00  -2.5182338e+07
   5.2950984e-10  -3.1235732e-03   4.0932747e+00   3.2100422e+00  -2.5049416e+07
   5.3017673e-10  -3.1069118e-03   4.0912571e+00   3.2126224e+00  -2.4917178e+07
   5.3084361e-10  -3.0903384e-03   4.0892495e+00   3.2151898e+00  -2.4785622e+07
   5.3151050e-10  -3.0738525e-03   4.0872518e+00   3.2177443e+00  -2.4654745e+07
   5.3217739e-10  -3.0574537e-03   4.0852639e+00   3.2202861e+00  -2.4524543e+07
   5.3284428e-10  -3.0411415e-03   4.0832860e+00   3.2228151e+00  -2.4395013e+07
   5.3351117e-10  -3.0249154e-03   4.0813178e+00   3.2253315e+00  -2.4266152e+07
   5.3417806e-10  -3.0087751e-03   4.0793593e+00   3.2278353e+00  -2.4137956e+07
   5.3484495e-10  -2.9927200e-03   4.0774106e+00   3.2303266e+00  -2.4010423e+07
   5.3551184e-10  -2.9767498e-03   4.0754715e+00   3.2328053e+00  -2.3883548e+07
   5.3617873e-10  -2.9608639e-03   4.0735420e+00   3.2352717e+00  -2.3757329e+07
   5.3684562e-10  -2.9450620e-03   4.0716222e+00   3.2377256e+00  -2.3631763e+07
   5.3751250e-10  -2.9293437e-03   4.0697118e+00   3.2401673e+00  -2.3506846e+07
   5.3817939e-10  -2.9137084e-03   4.0678110e+00   3.2425966e+00  -2.3382575e+07
   5.3884628e-10  -2.8981558e-03   4.0659196e+00   3.2450138e+00  -2.3258947e+07
   5.3951317e-10  -2.8826855e-03   4.0640377e+00   3.2474187e+00  -2.3135958e+07
   5.4018006e-10  -2.8672969e-03   4.0621651e+00   3.2498116e+00  -2.3013607e+07
   5.4084695e-10  -2.8519897e-03   4.0603018e+00   3.2521925e+00  -2.2891889e+07
   5.4151384e-10  -2.8367635e-03   4.0584479e+00   3.2545613e+00  -2.2770801e+07
   5.4218073e-10  -2.8216179e-03   4.0566031e+00   3.2569182e+00  -2.2650341e+07
   5.4284762e-10  -2.8065523e-03   4.0547677e+00   3.2592632e+00  -2.2530504e+07
   5.4351450e-10  -2.7915665e-03   4.0529413e+00   3.2615964e+00  -2.2411289e+07
   5.4418139e-10  -2.7766600e-03   4.0511241e+00   3.2639178e+00  -2.2292692e+07
   5.4484828e-10  -2.7618324e-03   4.0493160e+00   3.2662275e+00  -2.2174710e+07
   5.4551517e-10  -2.7470832e-03   4.0475169e+00   3.2685255e+00  -2.2057341e+07
   5.4618206e-10  -2.7324121e-03   4.0457269e+00   3.2708119e+00  -2.1940580e+07
   5.4684895e-10  -2.7178187e-03   4.0439458e+00   3.2730867e+00  -2.1824425e+07
   5.4751584e-10  -2.7033026e-03   4.0421736e+00   3.2753501e+00  -2.1708872e+07
   5.4818273e-10  -2.6888633e-03   4.0404104e+00   3.2776019e+00  -2.1593920e+07
   5.4884962e-10  -2.6745005e-03   4.0386559e+00   3.2798424e+00  -2.1479565e+07
   5.4951651e-10  -2.6602137e-03   4.0369103e+00   3.2820715e+00  -2.1365804e+07
   5.5018339e-10  -2.6460026e-03   4.0351735e+00   3.2842892e+00  -2.1252634e+07
   5.5085028e-10  -2.6318668e-03   4.0334453e+00   3.2864958e+00  -2.1140052e+07
   5.5151717e-10  -2.6178059e-03   4.0317259e+00   3.2886911e+00  -2.1028055e+07
   5.5218406e-10  -2.6038195e-03   4.0300151e+00   3.2908753e+00  -2.0916641e+07
   5.5285095e-10  -2.5899072e-03   4.0283129e+00   3.2930484e+00  -2.0805806e+07
   5.5351784e-10  -2.5760686e-03   4.0266193e+00   3.2952105e+00  -2.0695548e+07
   5.5418473e-10  -2.5623033e-03   4.0249343e+00   3.2973616e+00  -2.0585863e+07
   5.5485162e-10  -2.5486110e-03   4.0232577e+00   3.2995017e+00  -2.0476749e+07
   5.5551851e-10  -2.5349913e-03   4.0215896e+00   3.3016309e+00  -2.0368204e+07
   5.5618540e-10  -2.5214438e-03   4.0199299e+00   3.3037493e+00  -2.0260223e+07
   5.5685228e-10  -2.5079682e-03   4.0182785e+00   3.3058570e+00  -2.0152804e+07
   5.5751917e-10  -2.4945639e-03   4.0166355e+00   3.3079538e+00  -2.0045945e+07
   5.5818606e-10  -2.4812308e-03   4.0150009e+00   3.3100400e+00  -1.9939643e+07
   5.5885295e-10  -2.4679683e-03   4.0133744e+00   3.3121156e+00  -1.9833895e+07
   5.5951984e-10  -2.4547762e-03   4.0117562e+00   3.3141805e+00  -1.9728698e+07
   5.6018673e-10  -2.4416541e-03   4.0101462e+00   3.3162350e+00  -1.9624049e+07
   5.6085362e-10  -2.4286016e-03   4.0085444e+00   3.3182789e+00  -1.9519946e+07
   5.6152051e-10  -2.4156183e-03   4.0069506e+00   3.3203124e+00  -1.9416386e+07
   5.6218740e-10  -2.4027039e-03   4.0053650e+00   3.3223355e+00  -1.9313366e+07
   5.6285428e-10  -2.3898581e-03   4.0037873e+00   3.3243482e+00  -1.9210884e+07
   5.6352117e-10  -2.3770804e-03   4.0022177e+00   3.3263507e+00  -1.9108937e+07
   5.6418806e-10  -2.3643705e-03   4.0006560e+00   3.3283429e+00  -1.9007521e+07
   5.6485495e-10  -2.3517281e-03   3.9991023e+00   3.3303250e+00  -1.8906635e+07
   5.6552184e-10  -2.3391528e-03   3.9975564e+00   3.3322969e+00  -1.8806276e+07
   5.6618873e-10  -2.3266442e-03   3.9960184e+00   3.3342586e+00  -1.8706441e+07
   5.6685562e-10  -2.3142020e-03   3.9944882e+00   3.3362104e+00  -1.8607128e+07
   5.6752251e-10  -2.3018259e-03   3.9929658e+00   3.3381521e+00  -1.8508333e+07
   5.6818940e-10  -2.2895156e-03   3.9914512e+00   3.3400839e+00  -1.8410055e+07
   5.6885629e-10  -2.2772706e-03   3.9899442e+00   3.3420058e+00  -1.8312290e+07
   5.6952317e-10  -2.2650906e-03   3.9884449e+00   3.3439178e+00  -1.8215037e+07
   5.7019006e-10  -2.2529753e-03   3.9869533e+00   3.3458200e+00  -1.8118292e+07
   5.7085695e-10  -2.2409243e-03   3.9854692e+00   3.3477124e+00  -1.8022053e+07
   5.7152384e-10  -2.2289374e-03   3.9839927e+00   3.3495951e+00  -1.7926317e+07
   5.7219073e-10  -2.2170142e-03   3.9825238e+00   3.3514681e+00  -1.7831082e+07
   5.7285762e-10  -2.2051543e-03   3.9810623e+00   3.3533315e+00  -1.7736346e+07
   5.7352451e-10  -2.1933574e-03   3.9796083e+00   3.3551854e+00  -1.7642105e+07
   5.7419140e-10  -2.1816232e-03   3.9781617e+00   3.3570296e+00  -1.7548358e+07
   5.7485829e-10  -2.1699514e-03   3.9767225e+00   3.3588644e+00  -1.7455101e+07
   5.7552518e-10  -2.1583415e-03   3.9752907e+00   3.3606898e+00  -1.7362333e+07
   5.7619206e-10  -2.1467934e-03   3.9738661e+00   3.3625058e+00  -1.7270051e+07
   5.7685895e-10  -2.1353067e-03   3.9724489e+00   3.3643124e+00  -1.7178252e+07
   5.7752584e-10  -2.1238810e-03   3.9710389e+00   3.3661097e+00  -1.7086934e+07
   5.7819273e-10  -2.1125161e-03   3.9696361e+00   3.3678977e+00  -1.6996095e+07
   5.7885962e-10  -2.1012116e-03   3.9682405e+00   3.3696765e+00  -1.6905731e+07
   5.7952651e-10  -2.0899672e-03   3.9668520e+00   3.3714462e+00  -1.6815842e+07
   5.8019340e-10  -2.0787826e-03   3.9654707e+00   3.3732067e+00  -1.6726423e+07
   5.8086029e-10  -2.0676575e-03   3.9640964e+00   3.3749581e+00  -1.6637474e+07
   5.8152718e-10  -2.0565915e-03   3.9627292e+00   3.3767005e+00  -1.6548991e+07
   5.8219406e-10  -2.0455844e-03   3.9613689e+00   3.3784339e+00  -1.6460972e+07
   5.8286095e-10  -2.0346359e-03   3.9600157e+00   3.3801583e+00  -1.6373415e+07
   5.8352784e-10  -2.0237456e-03   3.9586694e+00   3.3818738e+00  -1.6286317e+07
   5.8419473e-10  -2.0129132e-03   3.9573300e+00   3.3835805e+00  -1.6199677e+07
   5.8486162e-10  -2.0021384e-03   3.9559975e+00   3.3852783e+00  -1.6113491e+07
   5.8552851e-10  -1.9914210e-03   3.9546718e+00   3.3869674e+00  -1.6027758e+07
   5.8619540e-10  -1.9807606e-03   3.9533530e+00   3.3886477e+00  -1.5942475e+07
   5.8686229e-10  -1.9701569e-03   3.9520409e+00   3.3903194e+00  -1.5857639e+07
   5.8752918e-10  -1.9596096e-03   3.9507355e+00   3.3919823e+00  -1.5773250e+07
   5.8819607e-10  -1.9491185e-03   3.9494369e+00   3.3936367e+00  -1.5689303e+07
   5.8886295e-10  -1.9386832e-03   3.9481450e+00   3.3952825e+00  -1.5605798e+07
   5.8952984e-10  -1.9283035e-03   3.9468597e+00   3.3969198e+00  -1.5522731e+07
   5.9019673e-10  -1.9179790e-03   3.9455810e+00   3.3985486e+00  -1.5440101e+07
   5.9086362e-10  -1.9077095e-03   3.9443089e+00   3.4001689e+00  -1.5357906e+07
   5.9153051e-10  -1.8974946e-03   3.9430434e+00   3.4017808e+00  -1.5276142e+07
   5.9219740e-10  -1.8873342e-03   3.9417843e+00   3.4033844e+00  -1.5194809e+07
   5.9286429e-10  -1.8772278e-03   3.9405318e+00   3.4049797e+00  -1.5113903e+07
   5.9353118e-10  -1.8671753e-03   3.9392857e+00   3.4065667e+00  -1.5033422e+07
   5.9419807e-10  -1.8571762e-03   3.9380461e+00   3.4081454e+00  -1.4953365e+07
   5.9486495e-10  -1.8472305e-03   3.9368128e+00   3.4097160e+00  -1.4873729e+07
   5.9553184e-10  -1.8373377e-03   3.9355859e+00   3.4112784e+00  -1.4794513e+07
   5.9619873e-10  -1.8274976e-03   3.9343654e+00   3.4128327e+00  -1.4715713e+07
   5.9686562e-10  -1.8177099e-03   3.9331511e+00   3.4143789e+00  -1.4637327e+07
   5.9753251e-10  -1.8079743e-03   3.9319431e+00   3.4159171e+00  -1.4559355e+07
   5.9819940e-10  -1.7982906e-03   3.9307414e+00   3.4174472e+00  -1.4481793e+07
   5.9886629e-10  -1.7886585e-03   3.9295459e+00   3.4189695e+00  -1.4404639e+07
   5.9953318e-10  -1.7790777e-03   3.9283565e+00   3.4204838e+00  -1.4327891e+07
   6.0020007e-10  -1.7695480e-03   3.9271733e+00   3.4219902e+00  -1.4251548e+07
   6.0086696e-10  -1.7600690e-03   3.9259962e+00   3.4234888e+00  -1.4175607e+07
   6.0153384e-10  -1.7506406e-03   3.9248252e+00   3.4249796e+00  -1.4100066e+07
   6.0220073e-10  -1.7412624e-03   3.9236603e+00   3.4264626e+00  -1.4024923e+07
   6.0286762e-10  -1.7319341e-03   3.9225014e+00   3.4279379e+00  -1.3950177e+07
   6.0353451e-10  -1.7226556e-03   3.9213485e+00   3.4294055e+00  -1.3875824e+07
   6.0420140e-10  -1.7134266e-03   3.9202016e+00   3.4308655e+00  -1.3801863e+07
   6.0486829e-10  -1.7042467e-03   3.9190606e+00   3.4323179e+00  -1.3728291e+07
   6.0553518e-10  -1.6951158e-03   3.9179255e+00   3.4337627e+00  -1.3655108e+07
   6.0620207e-10  -1.6860336e-03   3.9167963e+00   3.4352000e+00  -1.3582311e+07
   6.0686896e-10  -1.6769997e-03   3.9156729e+00   3.4366297e+00  -1.3509898e+07
   6.0753585e-10  -1.6680141e-03   3.9145554e+00   3.4380520e+00  -1.3437866e+07
   6.0820273e-10  -1.6590763e-03   3.9134437e+00   3.4394669e+00  -1.3366215e+07
   6.0886962e-10  -1.6501862e-03   3.9123378e+00   3.4408745e+00  -1.3294941e+07
   6.0953651e-10  -1.6413436e-03   3.9112375e+00   3.4422746e+00  -1.3224044e+07
   6.1020340e-10  -1.6325480e-03   3.9101431e+00   3.4436675e+00  -1.3153521e+07
   6.1087029e-10  -1.6237994e-03   3.9090542e+00   3.4450531e+00  -1.3083370e+07
   6.1153718e-10  -1.6150975e-03   3.9079711e+00   3.4464314e+00  -1.3013589e+07
   6.1220407e-10  -1.6064419e-03   3.9068935e+00   3.4478026e+00  -1.2944177e+07
   6.1287096e-10  -1.5978326e-03   3.9058216e+00   3.4491665e+00  -1.2875131e+07
   6.1353785e-10  -1.5892691e-03   3.9047552e+00   3.4505234e+00  -1.2806450e+07
   6.1420473e-10  -1.5807514e-03   3.9036944e+00   3.4518732e+00  -1.2738132e+07
   6.1487162e-10  -1.5722790e-03   3.9026391e+00   3.4532159e+00  -1.2670174e+07
   6.1553851e-10  -1.5638519e-03   3.9015893e+00   3.4545516e+00  -1.2602575e+07
   6.1620540e-10  -1.5554697e-03   3.9005450e+00   3.4558803e+00  -1.2535334e+07
   6.1687229e-10  -1.5471323e-03   3.8995060e+00   3.4572020e+00  -1.2468448e+07
   6.1753918e-10  -1.5388394e-03   3.8984725e+00   3.4585168e+00  -1.2401915e+07
   6.1820607e-10  -1.5305907e-03   3.8974444e+00   3.4598248e+00  -1.2335734e+07
   6.1887296e-10  -1.5223860e-03   3.8964216e+00   3.4611259e+00  -1.2269902e+07
   6.1953985e-10  -1.5142251e-03   3.8954042e+00   3.4624202e+00  -1.2204419e+07
   6.2020674e-10  -1.5061078e-03   3.8943920e+00   3.4637077e+00  -1.2139282e+07
   6.2087362e-10  -1.4980338e-03   3.8933851e+00   3.4649885e+00  -1.2074489e+07
   6.2154051e-10  -1.4900029e-03   3.8923835e+00   3.4662626e+00  -1.2010039e+07
   6.2220740e-10  -1.4820148e-03   3.8913871e+00   3.4675299e+00  -1.1945929e+07
   6.2287429e-10  -1.4740694e-03   3.8903959e+00   3.4687907e+00  -1.1882159e+07
   6.2354118e-10  -1.4661665e-03   3.8894099e+00   3.4700448e+00  -1.1818726e+07
   6.2420807e-10  -1.4583057e-03   3.8884290e+00   3.4712924e+00  -1.1755628e+07
   6.2487496e-10  -1.4504868e-03   3.8874532e+00   3.4725334e+00  -1.1692865e+07
   6.2554185e-10  -1.4427098e-03   3.8864825e+00   3.4737679e+00  -1.1630433e+07
   6.2620874e-10  -1.4349742e-03   3.8855169e+00   3.4749960e+00  -1.1568332e+07
   6.2687563e-10  -1.4272800e-03   3.8845563e+00   3.4762176e+00  -1.1506560e+07
   6.2754251e-10  -1.4196268e-03   3.8836007e+00   3.4774328e+00  -1.1445114e+07
   6.2820940e-10  -1.4120145e-03   3.8826502e+00   3.4786416e+00  -1.1383994e+07
   6.2887629e-10  -1.4044429e-03   3.8817046e+00   3.4798441e+00  -1.1323197e+07
   6.2954318e-10  -1.3969117e-03   3.8807639e+00   3.4810402e+00  -1.1262722e+07
   6.3021007e-10  -1.3894207e-03   3.8798281e+00   3.4822301e+00  -1.1202568e+07
   6.3087696e-10  -1.3819697e-03   3.8788973e+00   3.4834137e+00  -1.1142732e+07
   6.3154385e-10  -1.3745586e-03   3.8779713e+00   3.4845911e+00  -1.1083213e+07
   6.3221074e-10  -1.3671870e-03   3.8770501e+00   3.4857623e+00  -1.1024009e+07
   6.3287763e-10  -1.3598548e-03   3.8761338e+00   3.4869274e+00  -1.0965118e+07
   6.3354451e-10  -1.3525618e-03   3.8752223e+00   3.4880863e+00  -1.0906540e+07
   6.3421140e-10  -1.3453077e-03   3.8743155e+00   3.4892392e+00  -1.0848272e+07
   6.3487829e-10  -1.3380924e-03   3.8734135e+00   3.4903860e+00  -1.0790313e+07
   6.3554518e-10  -1.3309156e-03   3.8725162e+00   3.4915268e+00  -1.0732661e+07
   6.3621207e-10  -1.3237772e-03   3.8716236e+00   3.4926615e+00  -1.0675314e+07
   6.3687896e-10  -1.3166770e-03   3.8707356e+00   3.4937903e+00  -1.0618272e+07
   6.3754585e-10  -1.3096146e-03   3.8698524e+00   3.4949132e+00  -1.0561532e+07
   6.3821274e-10  -1.3025900e-03   3.8689737e+00   3.4960301e+00  -1.0505092e+07
   6.3887963e-10  -1.2956030e-03   3.8680997e+00   3.4971412e+00  -1.0448952e+07
   6.3954652e-10  -1.2886533e-03   3.8672302e+00   3.4982464e+00  -1.0393109e+07
   6.4021340e-10  -1.2817407e-03   3.8663653e+00   3.4993458e+00  -1.0337563e+07
   6.4088029e-10  -1.2748651e-03   3.8655049e+00   3.5004395e+00  -1.0282311e+07
   6.4154718e-10  -1.2680262e-03   3.8646490e+00   3.5015273e+00  -1.0227352e+07
   6.4221407e-10  -1.2612239e-03   3.8637976e+00   3.5026095e+00  -1.0172685e+07
   6.4288096e-10  -1.2544579e-03   3.8629507e+00   3.5036859e+00  -1.0118308e+07
   6.4354785e-10  -1.2477281e-03   3.8621082e+00   3.5047567e+00  -1.0064219e+07
   6.4421474e-10  -1.2410343e-03   3.8612702e+00   3.5058218e+00  -1.0010417e+07
   6.4488163e-10  -1.2343763e-03   3.8604365e+00   3.5068813e+00  -9.9569007e+06
   6.4554852e-10  -1.2277539e-03   3.8596072e+00   3.5079352e+00  -9.9036683e+06
   6.4621541e-10  -1.2211668e-03   3.8587823e+00   3.5089836e+00  -9.8507184e+06
   6.4688229e-10  -1.2146150e-03   3.8579617e+00   3.5100264e+00  -9.7980496e+06
   6.4754918e-10  -1.2080983e-03   3.8571454e+00   3.5110638e+00  -9.7456602e+06
   6.4821607e-10  -1.2016163e-03   3.8563334e+00   3.5120957e+00  -9.6935490e+06
   6.4888296e-10  -1.1951691e-03   3.8555257e+00   3.5131221e+00  -9.6417144e+06
   6.4954985e-10  -1.1887563e-03   3.8547222e+00   3.5141431e+00  -9.5901550e+06
   6.5021674e-10  -1.1823778e-03   3.8539229e+00   3.5151588e+00  -9.5388694e+06
   6.5088363e-10  -1.1760334e-03   3.8531278e+00   3.5161691e+00  -9.4878561e+06
   6.5155052e-10  -1.1697229e-03   3.8523369e+00   3.5171740e+00  -9.4371137e+06
   6.5221741e-10  -1.1634462e-03   3.8515502e+00   3.5181737e+00  -9.3866408e+06
   6.5288429e-10  -1.1572031e-03   3.8507676e+00   3.5191680e+00  -9.3364360e+06
   6.5355118e-10  -1.1509933e-03   3.8499891e+00   3.5201571e+00  -9.2864979e+06
   6.5421807e-10  -1.1448168e-03   3.8492147e+00   3.5211410e+00  -9.2368250e+06
   6.5488496e-10  -1.1386733e-03   3.8484444e+00   3.5221198e+00  -9.1874161e+06
   6.5555185e-10  -1.1325627e-03   3.8476781e+00   3.5230933e+00  -9.1382696e+06
   6.5621874e-10  -1.1264847e-03   3.8469159e+00   3.5240617e+00  -9.0893843e+06
   6.5688563e-10  -1.1204393e-03   3.8461577e+00   3.5250250e+00  -9.0407587e+06
   6.5755252e-10  -1.1144262e-03   3.8454034e+00   3.5259832e+00  -8.9923916e+06
   6.5821941e-10  -1.1084453e-03   3.8446532e+00   3.5269363e+00  -8.9442815e+06
   6.5888630e-10  -1.1024964e-03   3.8439069e+00   3.5278844e+00  -8.8964271e+06
   6.5955318e-10  -1.0965793e-03   3.8431645e+00   3.5288275e+00  -8.8488271e+06
   6.6022007e-10  -1.0906939e-03   3.8424260e+00   3.5297656e+00  -8.8014802e+06
   6.6088696e-10  -1.0848400e-03   3.8416914e+00   3.5306987e+00  -8.7543849e+06
   6.6155385e-10  -1.0790174e-03   3.8409607e+00   3.5316269e+00  -8.7075401e+06
   6.6222074e-10  -1.0732259e-03   3.8402338e+00   3.5325502e+00  -8.6609443e+06
   6.6288763e-10  -1.0674655e-03   3.8395108e+00   3.5334686e+00  -8.6145963e+06
   6.6355452e-10  -1.0617358e-03   3.8387916e+00   3.5343822e+00  -8.5684947e+06
   6.6422141e-10  -1.0560369e-03   3.8380761e+00   3.5352909e+00  -8.5226384e+06
   6.6488830e-10  -1.0503684e-03   3.8373645e+00   3.5361948e+00  -8.4770259e+06
   6.6555519e-10  -1.0447303e-03   3.8366565e+00   3.5370940e+00  -8.4316560e+06
   6.6622207e-10  -1.0391223e-03   3.8359524e+00   3.5379884e+00  -8.3865275e+06
   6.6688896e-10  -1.0335444e-03   3.8352519e+00   3.5388780e+00  -8.3416391e+06
   6.6755585e-10  -1.0279963e-03   3.8345551e+00   3.5397629e+00  -8.2969894e+06
   6.6822274e-10  -1.0224779e-03   3.8338620e+00   3.5406432e+00  -8.2525774e+06
   6.6888963e-10  -1.0169891e-03   3.8331726e+00   3.5415188e+00  -8.2084016e+06
   6.6955652e-10  -1.0115296e-03   3.8324868e+00   3.5423898e+00  -8.1644609e+06
   6.7022341e-10  -1.0060994e-03   3.8318046e+00   3.5432561e+00  -8.1207541e+06
   6.7089030e-10  -1.0006982e-03   3.8311260e+00   3.5441179e+00  -8.0772798e+06
   6.7155719e-10  -9.9532595e-04   3.8304510e+00   3.5449751e+00  -8.0340370e+06
   6.7222407e-10  -9.8998246e-04   3.8297795e+00   3.5458277e+00  -7.9910243e+06
   6.7289096e-10  -9.8466758e-04   3.8291116e+00   3.5466759e+00  -7.9482405e+06
   6.7355785e-10  -9.7938116e-04   3.8284473e+00   3.5475195e+00  -7.9056845e+06
   6.7422474e-10  -9.7412304e-04   3.8277864e+00   3.5483587e+00  -7.8633551e+06
   6.7489163e-10  -9.6889308e-04   3.8271290e+00   3.5491935e+00  -7.8212511e+06
   6.7555852e-10  -9.6369111e-04   3.8264751e+00   3.5500238e+00  -7.7793712e+06
   6.7622541e-10  -9.5851701e-04   3.8258247e+00   3.5508497e+00  -7.7377143e+06
   6.7689230e-10  -9.5337061e-04   3.8251777e+00   3.5516712e+00  -7.6962793e+06
   6.7755919e-10  -9.4825177e-04   3.8245341e+00   3.5524884e+00  -7.6550649e+06
   6.7822608e-10  -9.4316035e-04   3.8238939e+00   3.5533013e+00  -7.6140700e+06
   6.7889296e-10  -9.3809619e-04   3.8232571e+00   3.5541098e+00  -7.5732934e+06
   6.7955985e-10  -9.3305915e-04   3.8226236e+00   3.5549140e+00  -7.5327341e+06
   6.8022674e-10  -9.2804909e-04   3.8219935e+00   3.5557140e+00  -7.4923908e+06
   6.8089363e-10  -9.2306586e-04   3.8213668e+00   3.5565098e+00  -7.4522624e+06
   6.8156052e-10  -9.1810932e-04   3.8207433e+00   3.5573013e+00  -7.4123478e+06
   6.8222741e-10  -9.1317933e-04   3.8201232e+00   3.5580886e+00  -7.3726458e+06
   6.8289430e-10  -9.0827574e-04   3.8195063e+00   3.5588718e+00  -7.3331554e+06
   6.8356119e-10  -9.0339842e-04   3.8188927e+00   3.5596508e+00  -7.2938754e+06
   6.8422808e-10  -8.9854723e-04   3.8182823e+00   3.5604256e+00  -7.2548048e+06
   6.8489496e-10  -8.9372203e-04   3.8176752e+00   3.5611964e+00  -7.2159423e+06
   6.8556185e-10  -8.8892267e-04   3.8170713e+00   3.5619631e+00  -7.1772870e+06
   6.8622874e-10  -8.8414902e-04   3.8164705e+00   3.5627257e+00  -7.1388376e+06
   6.8689563e-10  -8.7940095e-04   3.8158730e+00   3.5634842e+00  -7.1005932e+06
   6.8756252e-10  -8.7467831e-04   3.8152786e+00   3.5642387e+00  -7.0625527e+06
   6.8822941e-10  -8.6998097e-04   3.8146874e+00   3.5649892e+00  -7.0247149e+06
   6.8889630e-10  -8.6530880e-04   3.8140992e+00   3.5657358e+00  -6.9870789e+06
   6.8956319e-10  -8.6066167e-04   3.8135143e+00   3.5664783e+00  -6.9496434e+06
   6.9023008e-10  -8.5603943e-04   3.8129324e+00   3.5672169e+00  -6.9124076e+06
   6.9089697e-10  -8.5144196e-04   3.8123535e+00   3.5679516e+00  -6.8753703e+06
   6.9156385e-10  -8.4686912e-04   3.8117778e+00   3.5686824e+00  -6.8385305e+06
   6.9223074e-10  -8.4232078e-04   3.8112051e+00   3.5694094e+00  -6.8018872e+06
   6.9289763e-10  -8.3779682e-04   3.8106354e+00   3.5701324e+00  -6.7654392e+06
   6.9356452e-10  -8.3329710e-04   3.8100688e+00   3.5708516e+00  -6.7291857e+06
   6.9423141e-10  -8.2882149e-04   3.8095051e+00   3.5715670e+00  -6.6931255e+06
   6.9489830e-10  -8.2436987e-04   3.8089445e+00   3.5722786e+00  -6.6572576e+06
   6.9556519e-10  -8.1994210e-04   3.8083868e+00   3.5729864e+00  -6.6215810e+06
   6.9623208e-10  -8.1553806e-04   3.8078320e+00   3.5736905e+00  -6.5860947e+06
   6.9689897e-10  -8.1115763e-04   3.8072802e+00   3.5743908e+00  -6.5507977e+06
   6.9756586e-10  -8.0680067e-04   3.8067314e+00   3.5750874e+00  -6.5156891e+06
   6.9823274e-10  -8.0246706e-04   3.8061854e+00   3.5757803e+00  -6.4807677e+06
   6.9889963e-10  -7.9815668e-04   3.8056423e+00   3.5764695e+00  -6.4460327e+06
   6.9956652e-10  -7.9386940e-04   3.8051021e+00   3.5771550e+00  -6.4114829e+06
   7.0023341e-10  -7.8960510e-04   3.8045648e+00   3.5778369e+00  -6.3771176e+06
   7.0090030e-10  -7.8536366e-04   3.8040303e+00   3.5785151e+00  -6.3429356e+06
   7.0156719e-10  -7.8114495e-04   3.8034987e+00   3.5791898e+00  -6.3089360e+06
   7.0223408e-10  -7.7694886e-04   3.8029699e+00   3.5798609e+00  -6.2751178e+06
   7.0290097e-10  -7.7277526e-04   3.8024439e+00   3.5805284e+00  -6.2414802e+06
   7.0356786e-10  -7.6862403e-04   3.8019206e+00   3.5811923e+00  -6.2080220e+06
   7.0423474e-10  -7.6449506e-04   3.8014002e+00   3.5818528e+00  -6.1747425e+06
   7.0490163e-10  -7.6038822e-04   3.8008825e+00   3.5825097e+00  -6.1416406e+06
   7.0556852e-10  -7.5630339e-04   3.8003676e+00   3.5831631e+00  -6.1087154e+06
   7.0623541e-10  -7.5224047e-04   3.7998554e+00   3.5838130e+00  -6.0759659e+06
   7.0690230e-10  -7.4819933e-04   3.7993459e+00   3.5844595e+00  -6.0433913e+06
   7.0756919e-10  -7.4417985e-04   3.7988391e+00   3.5851025e+00  -6.0109906e+06
   7.0823608e-10  -7.4018193e-04   3.7983350e+00   3.5857421e+00  -5.9787628e+06
   7.0890297e-10  -7.3620544e-04   3.7978336e+00   3.5863784e+00  -5.9467072e+06
   7.0956986e-10  -7.3225027e-04   3.7973348e+00   3.5870112e+00  -5.9148227e+06
   7.1023675e-10  -7.2831630e-04   3.7968387e+00   3.5876406e+00  -5.8831084e+06
   7.1090363e-10  -7.2440343e-04   3.7963453e+00   3.5882667e+00  -5.8515635e+06
   7.1157052e-10  -7.2051154e-04   3.7958544e+00   3.5888895e+00  -5.8201871e+06
   7.1223741e-10  -7.1664052e-04   3.7953662e+00   3.5895090e+00  -5.7889782e+06
   7.1290430e-10  -7.1279026e-04   3.7948805e+00   3.5901251e+00  -5.7579360e+06
   7.1357119e-10  -7.0896064e-04   3.7943974e+00   3.5907380e+00  -5.7270597e+06
   7.1423808e-10  -7.0515156e-04   3.7939169e+00   3.5913476e+00  -5.6963482e+06
   7.1490497e-10  -7.0136291e-04   3.7934390e+00   3.5919540e+00  -5.6658007e+06
   7.1557186e-10  -6.9759458e-04   3.7929636e+00   3.5925572e+00  -5.6354165e+06
   7.1623875e-10  -6.9384645e-04   3.7924907e+00   3.5931571e+00  -5.6051945e+06
   7.1690564e-10  -6.9011842e-04   3.7920203e+00   3.5937538e+00  -5.5751340e+06
   7.1757252e-10  -6.8641039e-04   3.7915524e+00   3.5943474e+00  -5.5452341e+06
   7.1823941e-10  -6.8272225e-04   3.7910870e+00   3.5949378e+00  -5.5154940e+06
   7.1890630e-10  -6.7905388e-04   3.7906241e+00   3.5955250e+00  -5.4859127e+06
   7.1957319e-10  -6.7540519e-04   3.7901637e+00   3.5961091e+00  -5.4564895e+06
   7.2024008e-10  -6.7177607e-04   3.7897057e+00   3.5966901e+00  -5.4272235e+06
   7.2090697e-10  -6.6816641e-04   3.7892501e+00   3.5972681e+00  -5.3981139e+06
   7.2157386e-10  -6.6457612e-04   3.7887969e+00   3.5978429e+00  -5.3691598e+06
   7.2224075e-10  -6.6100508e-04   3.7883462e+00   3.5984147e+00  -5.3403605e+06
   7.2290764e-10  -6.5745320e-04   3.7878979e+00   3.5989834e+00  -5.3117151e+06
   7.2357452e-10  -6.5392037e-04   3.7874519e+00   3.5995491e+00  -5.2832228e+06
   7.2424141e-10  -6.5040649e-04   3.7870083e+00   3.6001117e+00  -5.2548828e+06
   7.2490830e-10  -6.4691146e-04   3.7865671e+00   3.6006714e+00  -5.2266942e+06
   7.2557519e-10  -6.4343518e-04   3.7861282e+00   3.6012281e+00  -5.1986563e+06
   7.2624208e-10  -6.3997755e-04   3.7856917e+00   3.6017818e+00  -5.1707683e+06
   7.2690897e-10  -6.3653847e-04   3.7852575e+00   3.6023326e+00  -5.1430293e+06
   7.2757586e-10  -6.3311783e-04   3.7848255e+00   3.6028804e+00  -5.1154387e+06
   7.2824275e-10  -6.2971555e-04   3.7843959e+00   3.6034254e+00  -5.0879955e+06
   7.2890964e-10  -6.2633152e-04   3.7839686e+00   3.6039674e+00  -5.0606990e+06
   7.2957653e-10  -6.2296564e-04   3.7835435e+00   3.6045065e+00  -5.0335485e+06
   7.3024341e-10  -6.1961782e-04   3.7831208e+00   3.6050427e+00  -5.0065432e+06
   7.3091030e-10  -6.1628797e-04   3.7827002e+00   3.6055761e+00  -4.9796822e+06
   7.3157719e-10  -6.1297598e-04   3.7822819e+00   3.6061067e+00  -4.9529649e+06
   7.3224408e-10  -6.0968175e-04   3.7818658e+00   3.6066344e+00  -4.9263904e+06
   7.3291097e-10  -6.0640521e-04   3.7814520e+00   3.6071593e+00  -4.8999580e+06
   7.3357786e-10  -6.0314624e-04   3.7810403e+00   3.6076814e+00  -4.8736670e+06
   7.3424475e-10  -5.9990476e-04   3.7806308e+00   3.6082007e+00  -4.8475166e+06
   7.3491164e-10  -5.9668068e-04   3.7802236e+00   3.6087172e+00  -4.8215060e+06
   7.3557853e-10  -5.9347389e-04   3.7798184e+00   3.6092310e+00  -4.7956346e+06
   7.3624542e-10  -5.9028431e-04   3.7794155e+00   3.6097420e+00  -4.7699015e+06
   7.3691230e-10  -5.8711185e-04   3.7790147e+00   3.6102504e+00  -4.7443060e+06
   7.3757919e-10  -5.8395641e-04   3.7786160e+00   3.6107560e+00  -4.7188475e+06
   7.3824608e-10  -5.8081790e-04   3.7782194e+00   3.6112589e+00  -4.6935251e+06
   7.3891297e-10  -5.7769624e-04   3.7778250e+00   3.6117591e+00  -4.6683382e+06
   7.3957986e-10  -5.7459132e-04   3.7774326e+00   3.6122566e+00  -4.6432860e+06
   7.4024675e-10  -5.7150307e-04   3.7770424e+00   3.6127515e+00  -4.6183679e+06
   7.4091364e-10  -5.6843139e-04   3.7766542e+00   3.6132438e+00  -4.5935830e+06
   7.4158053e-10  -5.6537620e-04   3.7762681e+00   3.6137334e+00  -4.5689307e+06
   7.4224742e-10  -5.6233740e-04   3.7758840e+00   3.6142204e+00  -4.5444104e+06
   7.4291430e-10  -5.5931492e-04   3.7755020e+00   3.6147049e+00  -4.5200212e+06
   7.4358119e-10  -5.5630865e-04   3.7751221e+00   3.6151867e+00  -4.4957625e+06
   7.4424808e-10  -5.5331852e-04   3.7747441e+00   3.6156659e+00  -4.4716336e+06
   7.4491497e-10  -5.5034443e-04   3.7743682e+00   3.6161426e+00  -4.4476338e+06
   7.4558186e-10  -5.4738631e-04   3.7739943e+00   3.6166168e+00  -4.4237625e+06
   7.4624875e-10  -5.4444407e-04   3.7736224e+00   3.6170884e+00  -4.4000189e+06
   7.4691564e-10  -5.4151762e-04   3.7732524e+00   3.6175575e+00  -4.3764023e+06
   7.4758253e-10  -5.3860687e-04   3.7728844e+00   3.6180241e+00  -4.3529121e+06
   7.4824942e-10  -5.3571175e-04   3.7725184e+00   3.6184882e+00  -4.3295477e+06
   7.4891631e-10  -5.3283217e-04   3.7721543e+00   3.6189498e+00  -4.3063083e+06
   7.4958319e-10  -5.2996805e-04   3.7717922e+00   3.6194090e+00  -4.2831932e+06
   7.5025008e-10  -5.2711930e-04   3.7714320e+00   3.6198657e+00  -4.2602019e+06
   7.5091697e-10  -5.2428584e-04   3.7710738e+00   3.6203200e+00  -4.2373337e+06
   7.5158386e-10  -5.2146759e-04   3.7707174e+00   3.6207718e+00  -4.2145878e+06
   7.5225075e-10  -5.1866447e-04   3.7703629e+00   3.6212212e+00  -4.1919637e+06
   7.5291764e-10  -5.1587640e-04   3.7700104e+00   3.6216683e+00  -4.1694608e+06
   7.5358453e-10  -5.1310329e-04   3.7696597e+00   3.6221129e+00  -4.1470782e+06
   7.5425142e-10  -5.1034507e-04   3.7693109e+00   3.6225552e+00  -4.1248155e+06
   7.5491831e-10  -5.0760166e-04   3.7689639e+00   3.6229951e+00  -4.1026720e+06
   7.5558520e-10  -5.0487297e-04   3.7686188e+00   3.6234326e+00  -4.0806470e+06
   7.5625208e-10  -5.0215894e-04   3.7682755e+00   3.6238678e+00  -4.0587400e+06
   7.5691897e-10  -4.9945947e-04   3.7679341e+00   3.6243007e+00  -4.0369502e+06
   7.5758586e-10  -4.9677450e-04   3.7675945e+00   3.6247313e+00  -4.0152771e+06
   7.5825275e-10  -4.9410394e-04   3.7672567e+00   3.6251596e+00  -3.9937200e+06
   7.5891964e-10  -4.9144772e-04   3.7669207e+00   3.6255855e+00  -3.9722784e+06
   7.5958653e-10  -4.8880576e-04   3.7665865e+00   3.6260092e+00  -3.9509516e+06
   7.6025342e-10  -4.8617799e-04   3.7662540e+00   3.6264307e+00  -3.9297389e+06
   7.6092031e-10  -4.8356432e-04   3.7659234e+00   3.6268499e+00  -3.9086399e+06
   7.6158720e-10  -4.8096469e-04   3.7655945e+00   3.6272668e+00  -3.8876539e+06
   7.6225408e-10  -4.7837902e-04   3.7652674e+00   3.6276815e+00  -3.8667802e+06
   7.6292097e-10  -4.7580723e-04   3.7649420e+00   3.6280940e+00  -3.8460183e+06
   7.6358786e-10  -4.7324924e-04   3.7646183e+00   3.6285043e+00  -3.8253676e+06
   7.6425475e-10  -4.7070500e-04   3.7642964e+00   3.6289125e+00  -3.8048275e+06
   7.6492164e-10  -4.6817441e-04   3.7639762e+00   3.6293184e+00  -3.7843975e+06
   7.6558853e-10  -4.6565741e-04   3.7636577e+00   3.6297221e+00  -3.7640768e+06
   7.6625542e-10  -4.6315393e-04   3.7633409e+00   3.6301237e+00  -3.7438650e+06
   7.6692231e-10  -4.6066389e-04   3.7630258e+00   3.6305232e+00  -3.7237614e+06
   7.6758920e-10  -4.5818722e-04   3.7627124e+00   3.6309205e+00  -3.7037656e+06
   7.6825609e-10  -4.5572385e-04   3.7624007e+00   3.6313157e+00  -3.6838768e+06
   7.6892297e-10  -4.5327371e-04   3.7620906e+00   3.6317087e+00  -3.6640946e+06
   7.6958986e-10  -4.5083672e-04   3.7617822e+00   3.6320997e+00  -3.6444183e+06
   7.7025675e-10  -4.4841283e-04   3.7614754e+00   3.6324886e+00  -3.6248475e+06
   7.7092364e-10  -4.4600195e-04   3.7611703e+00   3.6328754e+00  -3.6053815e+06
   7.7159053e-10  -4.4360401e-04   3.7608667e+00   3.6332601e+00  -3.5860198e+06
   7.7225742e-10  -4.4121896e-04   3.7605649e+00   3.6336428e+00  -3.5667618e+06
   7.7292431e-10  -4.3884671e-04   3.7602646e+00   3.6340234e+00  -3.5476070e+06
   7.7359120e-10  -4.3648720e-04   3.7599659e+00   3.6344020e+00  -3.5285548e+06
   7.7425809e-10  -4.3414036e-04   3.7596688e+00   3.6347786e+00  -3.5096047e+06
   7.7492497e-10  -4.3180613e-04   3.7593733e+00   3.6351531e+00  -3.4907561e+06
   7.7559186e-10  -4.2948444e-04   3.7590794e+00   3.6355257e+00  -3.4720086e+06
   7.7625875e-10  -4.2717521e-04   3.7587871e+00   3.6358962e+00  -3.4533614e+06
   7.7692564e-10  -4.2487839e-04   3.7584963e+00   3.6362648e+00  -3.4348142e+06
   7.7759253e-10  -4.2259390e-04   3.7582071e+00   3.6366314e+00  -3.4163664e+06
   7.7825942e-10  -4.2032168e-04   3.7579194e+00   3.6369960e+00  -3.3980175e+06
   7.7892631e-10  -4.1806166e-04   3.7576333e+00   3.6373587e+00  -3.3797668e+06
   7.7959320e-10  -4.1581379e-04   3.7573486e+00   3.6377195e+00  -3.3616140e+06
   7.8026009e-10  -4.1357798e-04   3.7570656e+00   3.6380783e+00  -3.3435585e+06
   7.8092698e-10  -4.1135419e-04   3.7567840e+00   3.6384352e+00  -3.3255997e+06
   7.8159386e-10  -4.0914234e-04   3.7565039e+00   3.6387901e+00  -3.3077372e+06
   7.8226075e-10  -4.0694237e-04   3.7562253e+00   3.6391432e+00  -3.2899704e+06
   7.8292764e-10  -4.0475422e-04   3.7559482e+00   3.6394944e+00  -3.2722988e+06
   7.8359453e-10  -4.0257782e-04   3.7556726e+00   3.6398437e+00  -3.2547220e+06
   7.8426142e-10  -4.0041311e-04   3.7553985e+00   3.6401912e+00  -3.2372393e+06
   7.8492831e-10  -3.9826003e-04   3.7551258e+00   3.6405368e+00  -3.2198504e+06
   7.8559520e-10  -3.9611851e-04   3.7548546e+00   3.6408805e+00  -3.2025546e+06
   7.8626209e-10  -3.9398850e-04   3.7545848e+00   3.6412224e+00  -3.1853516e+06
   7.8692898e-10  -3.9186993e-04   3.7543165e+00   3.6415625e+00  -3.1682408e+06
   7.8759587e-10  -3.8976274e-04   3.7540496e+00   3.6419007e+00  -3.1512217e+06
   7.8826275e-10  -3.8766687e-04   3.7537842e+00   3.6422372e+00  -3.1342939e+06
   7.8892964e-10  -3.8558226e-04   3.7535201e+00   3.6425718e+00  -3.1174568e+06
   7.8959653e-10  -3.8350884e-04   3.7532575e+00   3.6429046e+00  -3.1007099e+06
   7.9026342e-10  -3.8144657e-04   3.7529963e+00   3.6432357e+00  -3.0840529e+06
   7.9093031e-10  -3.7939537e-04   3.7527365e+00   3.6435650e+00  -3.0674851e+06
   7.9159720e-10  -3.7735520e-04   3.7524780e+00   3.6438925e+00  -3.0510062e+06
   7.9226409e-10  -3.7532598e-04   3.7522210e+00   3.6442183e+00  -3.0346156e+06
   7.9293098e-10  -3.7330766e-04   3.7519653e+00   3.6445423e+00  -3.0183129e+06
   7.9359787e-10  -3.7130019e-04   3.7517110e+00   3.6448646e+00  -3.0020976e+06
   7.9426475e-10  -3.6930351e-04   3.7514580e+00   3.6451852e+00  -2.9859692e+06
   7.9493164e-10  -3.6731754e-04   3.7512064e+00   3.6455040e+00  -2.9699273e+06
   7.9559853e-10  -3.6534225e-04   3.7509562e+00   3.6458212e+00  -2.9539715e+06
   7.9626542e-10  -3.6337757e-04   3.7507072e+00   3.6461366e+00  -2.9381012e+06
   7.9693231e-10  -3.6142345e-04   3.7504597e+00   3.6464504e+00  -2.9223159e+06
   7.9759920e-10  -3.5947983e-04   3.7502134e+00   3.6467625e+00  -2.9066154e+06
   7.9826609e-10  -3.5754664e-04   3.7499684e+00   3.6470729e+00  -2.8909990e+06
   7.9893298e-10  -3.5562385e-04   3.7497248e+00   3.6473816e+00  -2.8754664e+06
   7.9959987e-10  -3.5371138e-04   3.7494825e+00   3.6476887e+00  -2.8600171e+06
   8.0026676e-10  -3.5180920e-04   3.7492415e+00   3.6479941e+00  -2.8446506e+06
   8.0093364e-10  -3.4991723e-04   3.7490017e+00   3.6482979e+00  -2.8293665e+06
   8.0160053e-10  -3.4803542e-04   3.7487632e+00   3.6486001e+00  -2.8141644e+06
   8.0226742e-10  -3.4616373e-04   3.7485261e+00   3.6489007e+00  -2.7990438e+06
   8.0293431e-10  -3.4430209e-04   3.7482901e+00   3.6491996e+00  -2.7840043e+06
   8.0360120e-10  -3.4245046e-04   3.7480555e+00   3.6494970e+00  -2.7690455e+06
   8.0426809e-10  -3.4060878e-04   3.7478221e+00   3.6497927e+00  -2.7541669e+06
   8.0493498e-10  -3.3877699e-04   3.7475899e+00   3.6500869e+00  -2.7393682e+06
   8.0560187e-10  -3.3695504e-04   3.7473590e+00   3.6503795e+00  -2.7246487e+06
   8.0626876e-10  -3.3514289e-04   3.7471294e+00   3.6506705e+00  -2.7100083e+06
   8.0693565e-10  -3.3334047e-04   3.7469009e+00   3.6509600e+00  -2.6954464e+06
   8.0760253e-10  -3.3154773e-04   3.7466737e+00   3.6512479e+00  -2.6809625e+06
   8.0826942e-10  -3.2976464e-04   3.7464477e+00   3.6515343e+00  -2.6665564e+06
   8.0893631e-10  -3.2799112e-04   3.7462229e+00   3.6518191e+00  -2.6522276e+06
   8.0960320e-10  -3.2622713e-04   3.7459993e+00   3.6521025e+00  -2.6379756e+06
   8.1027009e-10  -3.2447262e-04   3.7457769e+00   3.6523843e+00  -2.6238000e+06
   8.1093698e-10  -3.2272754e-04   3.7455557e+00   3.6526645e+00  -2.6097005e+06
   8.1160387e-10  -3.2099183e-04   3.7453357e+00   3.6529433e+00  -2.5956767e+06
   8.1227076e-10  -3.1926546e-04   3.7451169e+00   3.6532206e+00  -2.5817281e+06
   8.1293765e-10  -3.1754836e-04   3.7448992e+00   3.6534964e+00  -2.5678543e+06
   8.1360453e-10  -3.1584049e-04   3.7446827e+00   3.6537707e+00  -2.5540549e+06
   8.1427142e-10  -3.1414179e-04   3.7444673e+00   3.6540436e+00  -2.5403296e+06
   8.1493831e-10  -3.1245223e-04   3.7442531e+00   3.6543150e+00  -2.5266779e+06
   8.1560520e-10  -3.1077174e-04   3.7440401e+00   3.6545849e+00  -2.5130995e+06
   8.1627209e-10  -3.0910029e-04   3.7438282e+00   3.6548534e+00  -2.4995939e+06
   8.1693898e-10  -3.0743782e-04   3.7436174e+00   3.6551205e+00  -2.4861608e+06
   8.1760587e-10  -3.0578428e-04   3.7434078e+00   3.6553861e+00  -2.4727997e+06
   8.1827276e-10  -3.0413963e-04   3.7431993e+00   3.6556503e+00  -2.4595103e+06
   8.1893965e-10  -3.0250382e-04   3.7429919e+00   3.6559131e+00  -2.4462923e+06
   8.1960654e-10  -3.0087680e-04   3.7427856e+00   3.6561745e+00  -2.4331451e+06
   8.2027342e-10  -2.9925852e-04   3.7425804e+00   3.6564344e+00  -2.4200685e+06
   8.2094031e-10  -2.9764894e-04   3.7423763e+00   3.6566930e+00  -2.4070621e+06
   8.2160720e-10  -2.9604801e-04   3.7421733e+00   3.6569502e+00  -2.3941255e+06
   8.2227409e-10  -2.9445569e-04   3.7419714e+00   3.6572060e+00  -2.3812583e+06
   8.2294098e-10  -2.9287192e-04   3.7417706e+00   3.6574605e+00  -2.3684601e+06
   8.2360787e-10  -2.9129667e-04   3.7415708e+00   3.6577136e+00  -2.3557306e+06
   8.2427476e-10  -2.8972988e-04   3.7413721e+00   3.6579653e+00  -2.3430695e+06
   8.2494165e-10  -2.8817151e-04   3.7411745e+00   3.6582156e+00  -2.3304762e+06
   8.2560854e-10  -2.8662152e-04   3.7409780e+00   3.6584647e+00  -2.3179506e+06
   8.2627543e-10  -2.8507986e-04   3.7407824e+00   3.6587124e+00  -2.3054922e+06
   8.2694231e-10  -2.8354649e-04   3.7405880e+00   3.6589587e+00  -2.2931006e+06
   8.2760920e-10  -2.8202136e-04   3.7403946e+00   3.6592038e+00  -2.2807756e+06
   8.2827609e-10  -2.8050442e-04   3.7402022e+00   3.6594475e+00  -2.2685166e+06
   8.2894298e-10  -2.7899564e-04   3.7400108e+00   3.6596899e+00  -2.2563235e+06
   8.2960987e-10  -2.7749497e-04   3.7398205e+00   3.6599311e+00  -2.2441959e+06
   8.3027676e-10  -2.7600236e-04   3.7396312e+00   3.6601709e+00  -2.2321333e+06
   8.3094365e-10  -2.7451778e-04   3.7394429e+00   3.6604095e+00  -2.2201354e+06
   8.3161054e-10  -2.7304117e-04   3.7392556e+00   3.6606467e+00  -2.2082020e+06
   8.3227743e-10  -2.7157251e-04   3.7390694e+00   3.6608827e+00  -2.1963326e+06
   8.3294431e-10  -2.7011173e-04   3.7388841e+00   3.6611174e+00  -2.1845269e+06
   8.3361120e-10  -2.6865881e-04   3.7386998e+00   3.6613509e+00  -2.1727846e+06
   8.3427809e-10  -2.6721370e-04   3.7385165e+00   3.6615831e+00  -2.1611053e+06
   8.3494498e-10  -2.6577636e-04   3.7383342e+00   3.6618141e+00  -2.1494887e+06
   8.3561187e-10  -2.6434674e-04   3.7381528e+00   3.6620438e+00  -2.1379345e+06
   8.3627876e-10  -2.6292481e-04   3.7379725e+00   3.6622723e+00  -2.1264423e+06
   8.3694565e-10  -2.6151052e-04   3.7377931e+00   3.6624996e+00  -2.1150117e+06
   8.3761254e-10  -2.6010384e-04   3.7376146e+00   3.6627257e+00  -2.1036426e+06
   8.3827943e-10  -2.5870471e-04   3.7374371e+00   3.6629505e+00  -2.0923344e+06
   8.3894632e-10  -2.5731311e-04   3.7372606e+00   3.6631742e+00  -2.0810870e+06
   8.3961320e-10  -2.5592899e-04   3.7370850e+00   3.6633966e+00  -2.0699000e+06
   8.4028009e-10  -2.5455231e-04   3.7369104e+00   3.6636178e+00  -2.0587730e+06
   8.4094698e-10  -2.5318303e-04   3.7367366e+00   3.6638379e+00  -2.0477057e+06
   8.4161387e-10  -2.5182110e-04   3.7365639e+00   3.6640568e+00  -2.0366979e+06
   8.4228076e-10  -2.5046651e-04   3.7363920e+00   3.6642745e+00  -2.0257491e+06
   8.4294765e-10  -2.4911919e-04   3.7362211e+00   3.6644910e+00  -2.0148592e+06
   8.4361454e-10  -2.4777911e-04   3.7360511e+00   3.6647064e+00  -2.0040277e+06
   8.4428143e-10  -2.4644624e-04   3.7358820e+00   3.6649206e+00  -1.9932543e+06
   8.4494832e-10  -2.4512054e-04   3.7357138e+00   3.6651337e+00  -1.9825388e+06
   8.4561521e-10  -2.4380196e-04   3.7355465e+00   3.6653456e+00  -1.9718809e+06
   8.4628209e-10  -2.4249047e-04   3.7353801e+00   3.6655564e+00  -1.9612801e+06
   8.4694898e-10  -2.4118603e-04   3.7352145e+00   3.6657661e+00  -1.9507363e+06
   8.4761587e-10  -2.3988861e-04   3.7350499e+00   3.6659746e+00  -1.9402491e+06
   8.4828276e-10  -2.3859815e-04   3.7348862e+00   3.6661820e+00  -1.9298182e+06
   8.4894965e-10  -2.3731464e-04   3.7347233e+00   3.6663883e+00  -1.9194433e+06
   8.4961654e-10  -2.3603803e-04   3.7345613e+00   3.6665935e+00  -1.9091241e+06
   8.5028343e-10  -2.3476828e-04   3.7344002e+00   3.6667976e+00  -1.8988603e+06
   8.5095032e-10  -2.3350535e-04   3.7342400e+00   3.6670006e+00  -1.8886516e+06
   8.5161721e-10  -2.3224922e-04   3.7340806e+00   3.6672025e+00  -1.8784978e+06
   8.5228409e-10  -2.3099984e-04   3.7339220e+00   3.6674034e+00  -1.8683984e+06
   8.5295098e-10  -2.2975718e-04   3.7337643e+00   3.6676031e+00  -1.8583533e+06
   8.5361787e-10  -2.2852119e-04   3.7336075e+00   3.6678018e+00  -1.8483622e+06
   8.5428476e-10  -2.2729186e-04   3.7334515e+00   3.6679994e+00  -1.8384247e+06
   8.5495165e-10  -2.2606913e-04   3.7332963e+00   3.6681960e+00  -1.8285405e+06
   8.5561854e-10  -2.2485297e-04   3.7331420e+00   3.6683915e+00  -1.8187095e+06
   8.5628543e-10  -2.2364336e-04   3.7329885e+00   3.6685859e+00  -1.8089312e+06
   8.5695232e-10  -2.2244025e-04   3.7328358e+00   3.6687793e+00  -1.7992055e+06
   8.5761921e-10  -2.2124360e-04   3.7326839e+00   3.6689717e+00  -1.7895319e+06
   8.5828610e-10  -2.2005339e-04   3.7325329e+00   3.6691630e+00  -1.7799104e+06
   8.5895298e-10  -2.1886958e-04   3.7323826e+00   3.6693533e+00  -1.7703405e+06
   8.5961987e-10  -2.1769214e-04   3.7322332e+00   3.6695426e+00  -1.7608220e+06
   8.6028676e-10  -2.1652102e-04   3.7320845e+00   3.6697309e+00  -1.7513546e+06
   8.6095365e-10  -2.1535620e-04   3.7319367e+00   3.6699181e+00  -1.7419380e+06
   8.6162054e-10  -2.1419765e-04   3.7317897e+00   3.6701044e+00  -1.7325721e+06
   8.6228743e-10  -2.1304532e-04   3.7316434e+00   3.6702896e+00  -1.7232564e+06
   8.6295432e-10  -2.1189919e-04   3.7314979e+00   3.6704739e+00  -1.7139908e+06
   8.6362121e-10  -2.1075923e-04   3.7313532e+00   3.6706572e+00  -1.7047749e+06
   8.6428810e-10  -2.0962539e-04   3.7312093e+00   3.6708395e+00  -1.6956086e+06
   8.6495498e-10  -2.0849765e-04   3.7310662e+00   3.6710208e+00  -1.6864914e+06
   8.6562187e-10  -2.0737597e-04   3.7309238e+00   3.6712011e+00  -1.6774233e+06
   8.6628876e-10  -2.0626032e-04   3.7307822e+00   3.6713805e+00  -1.6684038e+06
   8.6695565e-10  -2.0515068e-04   3.7306413e+00   3.6715589e+00  -1.6594328e+06
   8.6762254e-10  -2.0404700e-04   3.7305012e+00   3.6717363e+00  -1.6505100e+06
   8.6828943e-10  -2.0294925e-04   3.7303619e+00   3.6719128e+00  -1.6416351e+06
   8.6895632e-10  -2.0185741e-04   3.7302233e+00   3.6720884e+00  -1.6328078e+06
   8.6962321e-10  -2.0077143e-04   3.7300854e+00   3.6722630e+00  -1.6240280e+06
   8.7029010e-10  -1.9969130e-04   3.7299483e+00   3.6724366e+00  -1.6152954e+06
   8.7095699e-10  -1.9861698e-04   3.7298120e+00   3.6726094e+00  -1.6066096e+06
   8.7162387e-10  -1.9754843e-04   3.7296763e+00   3.6727812e+00  -1.5979706e+06
   8.7229076e-10  -1.9648562e-04   3.7295414e+00   3.6729521e+00  -1.5893779e+06
   8.7295765e-10  -1.9542854e-04   3.7294072e+00   3.6731220e+00  -1.5808314e+06
   8.7362454e-10  -1.9437713e-04   3.7292737e+00   3.6732911e+00  -1.5723308e+06
   8.7429143e-10  -1.9333138e-04   3.7291410e+00   3.6734593e+00  -1.5638758e+06
   8.7495832e-10  -1.9229126e-04   3.7290089e+00   3.6736265e+00  -1.5554663e+06
   8.7562521e-10  -1.9125673e-04   3.7288776e+00   3.6737928e+00  -1.5471019e+06
   8.7629210e-10  -1.9022776e-04   3.7287469e+00   3.6739583e+00  -1.5387825e+06
   8.7695899e-10  -1.8920432e-04   3.7286170e+00   3.6741229e+00  -1.5305078e+06
   8.7762588e-10  -1.8818639e-04   3.7284878e+00   3.6742866e+00  -1.5222775e+06
   8.7829276e-10  -1.8717393e-04   3.7283592e+00   3.6744494e+00  -1.5140915e+06
   8.7895965e-10  -1.8616691e-04   3.7282314e+00   3.6746113e+00  -1.5059494e+06
   8.7962654e-10  -1.8516531e-04   3.7281042e+00   3.6747723e+00  -1.4978511e+06
   8.8029343e-10  -1.8416910e-04   3.7279777e+00   3.6749325e+00  -1.4897963e+06
   8.8096032e-10  -1.8317824e-04   3.7278519e+00   3.6750919e+00  -1.4817847e+06
   8.8162721e-10  -1.8219272e-04   3.7277268e+00   3.6752504e+00  -1.4738162e+06
   8.8229410e-10  -1.8121249e-04   3.7276023e+00   3.6754080e+00  -1.4658905e+06
   8.8296099e-10  -1.8023753e-04   3.7274785e+00   3.6755648e+00  -1.4580074e+06
   8.8362788e-10  -1.7926782e-04   3.7273554e+00   3.6757207e+00  -1.4501666e+06
   8.8429476e-10  -1.7830332e-04   3.7272329e+00   3.6758758e+00  -1.4423680e+06
   8.8496165e-10  -1.7734401e-04   3.7271111e+00   3.6760301e+00  -1.4346113e+06
   8.8562854e-10  -1.7638986e-04   3.7269900e+00   3.6761835e+00  -1.4268962e+06
   8.8629543e-10  -1.7544083e-04   3.7268695e+00   3.6763361e+00  -1.4192226e+06
   8.8696232e-10  -1.7449692e-04   3.7267496e+00   3.6764879e+00  -1.4115902e+06
   8.8762921e-10  -1.7355808e-04   3.7266304e+00   3.6766389e+00  -1.4039989e+06
   8.8829610e-10  -1.7262428e-04   3.7265118e+00   3.6767891e+00  -1.3964483e+06
   8.8896299e-10  -1.7169551e-04   3.7263939e+00   3.6769385e+00  -1.3889383e+06
   8.8962988e-10  -1.7077174e-04   3.7262766e+00   3.6770870e+00  -1.3814686e+06
   8.9029677e-10  -1.6985293e-04   3.7261599e+00   3.6772348e+00  -1.3740391e+06
   8.9096365e-10  -1.6893906e-04   3.7260438e+00   3.6773818e+00  -1.3666495e+06
   8.9163054e-10  -1.6803011e-04   3.7259284e+00   3.6775280e+00  -1.3592996e+06
   8.9229743e-10  -1.6712605e-04   3.7258136e+00   3.6776734e+00  -1.3519892e+06
   8.9296432e-10  -1.6622685e-04   3.7256994e+00   3.6778180e+00  -1.3447181e+06
   8.9363121e-10  -1.6533248e-04   3.7255858e+00   3.6779618e+00  -1.3374861e+06
   8.9429810e-10  -1.6444293e-04   3.7254729e+00   3.6781049e+00  -1.3302929e+06
   8.9496499e-10  -1.6355816e-04   3.7253605e+00   3.6782472e+00  -1.3231384e+06
   8.9563188e-10  -1.6267815e-04   3.7252487e+00   3.6783887e+00  -1.3160223e+06
   8.9629877e-10  -1.6180287e-04   3.7251376e+00   3.6785295e+00  -1.3089444e+06
   8.9696566e-10  -1.6093229e-04   3.7250270e+00   3.6786695e+00  -1.3019046e+06
   8.9763254e-10  -1.6006640e-04   3.7249171e+00   3.6788088e+00  -1.2949027e+06
   8.9829943e-10  -1.5920517e-04   3.7248077e+00   3.6789473e+00  -1.2879383e+06
   8.9896632e-10  -1.5834857e-04   3.7246989e+00   3.6790851e+00  -1.2810114e+06
   8.9963321e-10  -1.5749658e-04   3.7245907e+00   3.6792221e+00  -1.2741217e+06
   9.0030010e-10  -1.5664917e-04   3.7244831e+00   3.6793584e+00  -1.2672690e+06
   9.0096699e-10  -1.5580631e-04   3.7243760e+00   3.6794940e+00  -1.2604532e+06
   9.0163388e-10  -1.5496799e-04   3.7242695e+00   3.6796288e+00  -1.2536739e+06
   9.0230077e-10  -1.5413418e-04   3.7241636e+00   3.6797629e+00  -1.2469312e+06
   9.0296766e-10  -1.5330485e-04   3.7240583e+00   3.6798963e+00  -1.2402246e+06
   9.0363454e-10  -1.5247999e-04   3.7239535e+00   3.6800290e+00  -1.2335541e+06
   9.0430143e-10  -1.5165956e-04   3.7238493e+00   3.6801610e+00  -1.2269194e+06
   9.0496832e-10  -1.5084354e-04   3.7237457e+00   3.6802922e+00  -1.2203204e+06
   9.0563521e-10  -1.5003191e-04   3.7236426e+00   3.6804228e+00  -1.2137569e+06
   9.0630210e-10  -1.4922465e-04   3.7235401e+00   3.6805526e+00  -1.2072286e+06
   9.0696899e-10  -1.4842173e-04   3.7234381e+00   3.6806818e+00  -1.2007355e+06
   9.0763588e-10  -1.4762312e-04   3.7233366e+00   3.6808102e+00  -1.1942772e+06
   9.0830277e-10  -1.4682882e-04   3.7232357e+00   3.6809380e+00  -1.1878536e+06
   9.0896966e-10  -1.4603878e-04   3.7231354e+00   3.6810651e+00  -1.1814646e+06
   9.0963655e-10  -1.4525300e-04   3.7230356e+00   3.6811915e+00  -1.1751099e+06
   9.1030343e-10  -1.4447144e-04   3.7229363e+00   3.6813172e+00  -1.1687893e+06
   9.1097032e-10  -1.4369408e-04   3.7228376e+00   3.6814422e+00  -1.1625028e+06
   9.1163721e-10  -1.4292091e-04   3.7227393e+00   3.6815666e+00  -1.1562500e+06
   9.1230410e-10  -1.4215189e-04   3.7226417e+00   3.6816903e+00  -1.1500308e+06
   9.1297099e-10  -1.4138701e-04   3.7225445e+00   3.6818134e+00  -1.1438450e+06
   9.1363788e-10  -1.4062625e-04   3.7224479e+00   3.6819357e+00  -1.1376925e+06
   9.1430477e-10  -1.3986957e-04   3.7223517e+00   3.6820575e+00  -1.1315731e+06
   9.1497166e-10  -1.3911697e-04   3.7222561e+00   3.6821785e+00  -1.1254865e+06
   9.1563855e-10  -1.3836842e-04   3.7221610e+00   3.6822989e+00  -1.1194327e+06
   9.1630544e-10  -1.3762389e-04   3.7220665e+00   3.6824187e+00  -1.1134114e+06
   9.1697232e-10  -1.3688337e-04   3.7219724e+00   3.6825378e+00  -1.1074225e+06
   9.1763921e-10  -1.3614682e-04   3.7218788e+00   3.6826563e+00  -1.1014658e+06
   9.1830610e-10  -1.3541425e-04   3.7217858e+00   3.6827742e+00  -1.0955410e+06
   9.1897299e-10  -1.3468561e-04   3.7216932e+00   3.6828914e+00  -1.0896482e+06
   9.1963988e-10  -1.3396089e-04   3.7216011e+00   3.6830080e+00  -1.0837870e+06
   9.2030677e-10  -1.3324007e-04   3.7215096e+00   3.6831239e+00  -1.0779573e+06
   9.2097366e-10  -1.3252313e-04   3.7214185e+00   3.6832393e+00  -1.0721589e+06
   9.2164055e-10  -1.3181004e-04   3.7213279e+00   3.6833540e+00  -1.0663917e+06
   9.2230744e-10  -1.3110079e-04   3.7212378e+00   3.6834681e+00  -1.0606556e+06
   9.2297432e-10  -1.3039535e-04   3.7211482e+00   3.6835816e+00  -1.0549502e+06
   9.2364121e-10  -1.2969371e-04   3.7210590e+00   3.6836945e+00  -1.0492755e+06
   9.2430810e-10  -1.2899584e-04   3.7209704e+00   3.6838067e+00  -1.0436314e+06
   9.2497499e-10  -1.2830173e-04   3.7208822e+00   3.6839184e+00  -1.0380175e+06
   9.2564188e-10  -1.2761135e-04   3.7207945e+00   3.6840295e+00  -1.0324339e+06
   9.2630877e-10  -1.2692469e-04   3.7207072e+00   3.6841399e+00  -1.0268802e+06
   9.2697566e-10  -1.2624171e-04   3.7206204e+00   3.6842498e+00  -1.0213565e+06
   9.2764255e-10  -1.2556241e-04   3.7205341e+00   3.6843591e+00  -1.0158624e+06
   9.2830944e-10  -1.2488677e-04   3.7204483e+00   3.6844678e+00  -1.0103978e+06
   9.2897633e-10  -1.2421476e-04   3.7203629e+00   3.6845759e+00  -1.0049626e+06
   9.2964321e-10  -1.2354637e-04   3.7202780e+00   3.6846834e+00  -9.9955666e+05
   9.3031010e-10  -1.2288157e-04   3.7201935e+00   3.6847904e+00  -9.9417976e+05
   9.3097699e-10  -1.2222034e-04   3.7201095e+00   3.6848968e+00  -9.8883177e+05
   9.3164388e-10  -1.2156268e-04   3.7200260e+00   3.6850026e+00  -9.8351253e+05
   9.3231077e-10  -1.2090855e-04   3.7199428e+00   3.6851078e+00  -9.7822188e+05
   9.3297766e-10  -1.2025794e-04   3.7198602e+00   3.6852125e+00  -9.7295968e+05
   9.3364455e-10  -1.1961083e-04   3.7197780e+00   3.6853166e+00  -9.6772576e+05
   9.3431144e-10  -1.1896720e-04   3.7196962e+00   3.6854202e+00  -9.6251999e+05
   9.3497833e-10  -1.1832703e-04   3.7196148e+00   3.6855232e+00  -9.5734220e+05
   9.3564522e-10  -1.1769031e-04   3.7195339e+00   3.6856256e+00  -9.5219225e+05
   9.3631210e-10  -1.1705701e-04   3.7194535e+00   3.6857275e+00  -9.4706998e+05
   9.3697899e-10  -1.1642712e-04   3.7193734e+00   3.6858289e+00  -9.4197525e+05
   9.3764588e-10  -1.1580062e-04   3.7192938e+00   3.6859297e+00  -9.3690792e+05
   9.3831277e-10  -1.1517749e-04   3.7192146e+00   3.6860299e+00  -9.3186783e+05
   9.3897966e-10  -1.1455771e-04   3.7191359e+00   3.6861296e+00  -9.2685483e+05
   9.3964655e-10  -1.1394126e-04   3.7190576e+00   3.6862288e+00  -9.2186879e+05
   9.4031344e-10  -1.1332814e-04   3.7189796e+00   3.6863275e+00  -9.1690955e+05
   9.4098033e-10  -1.1271830e-04   3.7189022e+00   3.6864256e+00  -9.1197698e+05
   9.4164722e-10  -1.1211175e-04   3.7188251e+00   3.6865232e+00  -9.0707092e+05
   9.4231410e-10  -1.1150847e-04   3.7187484e+00   3.6866203e+00  -9.0219125e+05
   9.4298099e-10  -1.1090842e-04   3.7186722e+00   3.6867168e+00  -8.9733780e+05
   9.4364788e-10  -1.1031161e-04   3.7185963e+00   3.6868128e+00  -8.9251046e+05
   9.4431477e-10  -1.0971801e-04   3.7185209e+00   3.6869084e+00  -8.8770907e+05
   9.4498166e-10  -1.0912760e-04   3.7184459e+00   3.6870034e+00  -8.8293349e+05
   9.4564855e-10  -1.0854036e-04   3.7183713e+00   3.6870978e+00  -8.7818360e+05
   9.4631544e-10  -1.0795629e-04   3.7182970e+00   3.6871918e+00  -8.7345924e+05
   9.4698233e-10  -1.0737536e-04   3.7182232e+00   3.6872853e+00  -8.6876028e+05
   9.4764922e-10  -1.0679755e-04   3.7181498e+00   3.6873783e+00  -8.6408659e+05
   9.4831611e-10  -1.0622285e-04   3.7180767e+00   3.6874707e+00  -8.5943802e+05
   9.4898299e-10  -1.0565124e-04   3.7180041e+00   3.6875627e+00  -8.5481445e+05
   9.4964988e-10  -1.0508271e-04   3.7179319e+00   3.6876542e+00  -8.5021574e+05
   9.5031677e-10  -1.0451724e-04   3.7178600e+00   3.6877452e+00  -8.4564176e+05
   9.5098366e-10  -1.0395481e-04   3.7177885e+00   3.6878357e+00  -8.4109238e+05
   9.5165055e-10  -1.0339540e-04   3.7177174e+00   3.6879257e+00  -8.3656745e+05
   9.5231744e-10  -1.0283901e-04   3.7176467e+00   3.6880152e+00  -8.3206685e+05
   9.5298433e-10  -1.0228560e-04   3.7175764e+00   3.6881043e+00  -8.2759046e+05
   9.5365122e-10  -1.0173518e-04   3.7175064e+00   3.6881929e+00  -8.2313813e+05
   9.5431811e-10  -1.0118771e-04   3.7174369e+00   3.6882810e+00  -8.1870975e+05
   9.5498499e-10  -1.0064319e-04   3.7173677e+00   3.6883686e+00  -8.1430518e+05
   9.5565188e-10  -1.0010161e-04   3.7172988e+00   3.6884557e+00  -8.0992429e+05
   9.5631877e-10  -9.9562930e-05   3.7172304e+00   3.6885424e+00  -8.0556695e+05
   9.5698566e-10  -9.9027152e-05   3.7171623e+00   3.6886286e+00  -8.0123305e+05
   9.5765255e-10  -9.8494257e-05   3.7170946e+00   3.6887144e+00  -7.9692245e+05
   9.5831944e-10  -9.7964229e-05   3.7170272e+00   3.6887997e+00  -7.9263504e+05
   9.5898633e-10  -9.7437052e-05   3.7169602e+00   3.6888845e+00  -7.8837067e+05
   9.5965322e-10  -9.6912712e-05   3.7168936e+00   3.6889689e+00  -7.8412924e+05
   9.6032011e-10  -9.6391192e-05   3.7168273e+00   3.6890528e+00  -7.7991061e+05
   9.6098700e-10  -9.5872479e-05   3.7167614e+00   3.6891363e+00  -7.7571468e+05
   9.6165388e-10  -9.5356556e-05   3.7166958e+00   3.6892193e+00  -7.7154130e+05
   9.6232077e-10  -9.4843408e-05   3.7166306e+00   3.6893019e+00  -7.6739036e+05
   9.6298766e-10  -9.4333022e-05   3.7165657e+00   3.6893840e+00  -7.6326175e+05
   9.6365455e-10  -9.3825381e-05   3.7165012e+00   3.6894657e+00  -7.5915534e+05
   9.6432144e-10  -9.3320472e-05   3.7164370e+00   3.6895469e+00  -7.5507101e+05
   9.6498833e-10  -9.2818279e-05   3.7163732e+00   3.6896278e+00  -7.5100865e+05
   9.6565522e-10  -9.2318788e-05   3.7163097e+00   3.6897081e+00  -7.4696813e+05
   9.6632211e-10  -9.1821984e-05   3.7162465e+00   3.6897881e+00  -7.4294933e+05
   9.6698900e-10  -9.1327853e-05   3.7161837e+00   3.6898676e+00  -7.3895215e+05
   9.6765589e-10  -9.0836380e-05   3.7161213e+00   3.6899467e+00  -7.3497647e+05
   9.6832277e-10  -9.0347552e-05   3.7160591e+00   3.6900254e+00  -7.3102217e+05
   9.6898966e-10  -8.9861354e-05   3.7159973e+00   3.6901036e+00  -7.2708913e+05
   9.6965655e-10  -8.9377771e-05   3.7159359e+00   3.6901814e+00  -7.2317724e+05
   9.7032344e-10  -8.8896791e-05   3.7158747e+00   3.6902588e+00  -7.1928639e+05
   9.7099033e-10  -8.8418398e-05   3.7158139e+00   3.6903358e+00  -7.1541646e+05
   9.7165722e-10  -8.7942579e-05   3.7157535e+00   3.6904124e+00  -7.1156734e+05
   9.7232411e-10  -8.7469320e-05   3.7156933e+00   3.6904886e+00  -7.0773893e+05
   9.7299100e-10  -8.6998607e-05   3.7156335e+00   3.6905643e+00  -7.0393110e+05
   9.7365789e-10  -8.6530427e-05   3.7155740e+00   3.6906397e+00  -7.0014375e+05
   9.7432477e-10  -8.6064766e-05   3.7155148e+00   3.6907146e+00  -6.9637677e+05
   9.7499166e-10  -8.5601610e-05   3.7154559e+00   3.6907891e+00  -6.9263005e+05
