   0.0000000e+00  -1.1882726e-01   6.3707136e+00   6.1441088e-04  -5.2187825e+08
   1.0003334e-12  -1.1830591e-01   6.3702338e+00   6.3980140e-04  -5.2048846e+08
   2.0006669e-12  -1.1778594e-01   6.3697451e+00   6.6616817e-04  -5.1909864e+08
   3.0010003e-12  -1.1726737e-01   6.3692474e+00   6.9354551e-04  -5.1770878e+08
   4.0013338e-12  -1.1675019e-01   6.3687406e+00   7.2196882e-04  -5.1631888e+08
   5.0016672e-12  -1.1623439e-01   6.3682245e+00   7.5147459e-04  -5.1492895e+08
   6.0020007e-12  -1.1571999e-01   6.3676990e+00   7.8210042e-04  -5.1353899e+08
   7.0023341e-12  -1.1520698e-01   6.3671639e+00   8.1388509e-04  -5.1214900e+08
   8.0026676e-12  -1.1469536e-01   6.3666191e+00   8.4686856e-04  -5.1075897e+08
   9.0030010e-12  -1.1418513e-01   6.3660644e+00   8.8109200e-04  -5.0936892e+08
   1.0003334e-11  -1.1367629e-01   6.3654997e+00   9.1659783e-04  -5.0797885e+08
   1.1003668e-11  -1.1316884e-01   6.3649248e+00   9.5342976e-04  -5.0658874e+08
   1.2004001e-11  -1.1266278e-01   6.3643396e+00   9.9163279e-04  -5.0519862e+08
   1.3004335e-11  -1.1215811e-01   6.3637439e+00   1.0312533e-03  -5.0380847e+08
   1.4004668e-11  -1.1165483e-01   6.3631376e+00   1.0723389e-03  -5.0241830e+08
   1.5005002e-11  -1.1115295e-01   6.3625205e+00   1.1149389e-03  -5.0102811e+08
   1.6005335e-11  -1.1065245e-01   6.3618924e+00   1.1591038e-03  -4.9963790e+08
   1.7005669e-11  -1.1015334e-01   6.3612531e+00   1.2048856e-03  -4.9824768e+08
   1.8006002e-11  -1.0965563e-01   6.3606026e+00   1.2523379e-03  -4.9685745e+08
   1.9006335e-11  -1.0915930e-01   6.3599406e+00   1.3015158e-03  -4.9546720e+08
   2.0006669e-11  -1.0866437e-01   6.3592670e+00   1.3524760e-03  -4.9407694e+08
   2.1007002e-11  -1.0817083e-01   6.3585816e+00   1.4052768e-03  -4.9268668e+08
   2.2007336e-11  -1.0767867e-01   6.3578842e+00   1.4599782e-03  -4.9129641e+08
   2.3007669e-11  -1.0718791e-01   6.3571747e+00   1.5166419e-03  -4.8990613e+08
   2.4008003e-11  -1.0669854e-01   6.3564528e+00   1.5753311e-03  -4.8851586e+08
   2.5008336e-11  -1.0621056e-01   6.3557184e+00   1.6361111e-03  -4.8712559e+08
   2.6008670e-11  -1.0572397e-01   6.3549714e+00   1.6990489e-03  -4.8573532e+08
   2.7009003e-11  -1.0523877e-01   6.3542114e+00   1.7642132e-03  -4.8434506e+08
   2.8009336e-11  -1.0475497e-01   6.3534384e+00   1.8316748e-03  -4.8295480e+08
   2.9009670e-11  -1.0427255e-01   6.3526522e+00   1.9015063e-03  -4.8156456e+08
   3.0010003e-11  -1.0379152e-01   6.3518525e+00   1.9737822e-03  -4.8017434e+08
   3.1010337e-11  -1.0331189e-01   6.3510392e+00   2.0485791e-03  -4.7878413e+08
   3.2010670e-11  -1.0283364e-01   6.3502121e+00   2.1259758e-03  -4.7739394e+08
   3.3011004e-11  -1.0235679e-01   6.3493710e+00   2.2060530e-03  -4.7600377e+08
   3.4011337e-11  -1.0188132e-01   6.3485156e+00   2.2888935e-03  -4.7461364e+08
   3.5011671e-11  -1.0140725e-01   6.3476459e+00   2.3745823e-03  -4.7322353e+08
   3.6012004e-11  -1.0093457e-01   6.3467615e+00   2.4632068e-03  -4.7183346e+08
   3.7012337e-11  -1.0046328e-01   6.3458624e+00   2.5548565e-03  -4.7044342e+08
   3.8012671e-11  -9.9993373e-02   6.3449482e+00   2.6496232e-03  -4.6905342e+08
   3.9013004e-11  -9.9524862e-02   6.3440188e+00   2.7476011e-03  -4.6766347e+08
   4.0013338e-11  -9.9057741e-02   6.3430739e+00   2.8488868e-03  -4.6627356e+08
   4.1013671e-11  -9.8592011e-02   6.3421134e+00   2.9535794e-03  -4.6488371e+08
   4.2014005e-11  -9.8127671e-02   6.3411371e+00   3.0617802e-03  -4.6349392e+08
   4.3014338e-11  -9.7664721e-02   6.3401446e+00   3.1735934e-03  -4.6210418e+08
   4.4014672e-11  -9.7203161e-02   6.3391359e+00   3.2891255e-03  -4.6071451e+08
   4.5015005e-11  -9.6742991e-02   6.3381107e+00   3.4084858e-03  -4.5932490e+08
   4.6015338e-11  -9.6284211e-02   6.3370687e+00   3.5317861e-03  -4.5793537e+08
   4.7015672e-11  -9.5826822e-02   6.3360097e+00   3.6591411e-03  -4.5654591e+08
   4.8016005e-11  -9.5370822e-02   6.3349336e+00   3.7906681e-03  -4.5515654e+08
   4.9016339e-11  -9.4916212e-02   6.3338401e+00   3.9264872e-03  -4.5376726e+08
   5.0016672e-11  -9.4462991e-02   6.3327289e+00   4.0667214e-03  -4.5237806e+08
   5.1017006e-11  -9.4011161e-02   6.3315998e+00   4.2114966e-03  -4.5098896e+08
   5.2017339e-11  -9.3560719e-02   6.3304527e+00   4.3609417e-03  -4.4959997e+08
   5.3017673e-11  -9.3111667e-02   6.3292871e+00   4.5151884e-03  -4.4821108e+08
   5.4018006e-11  -9.2664005e-02   6.3281030e+00   4.6743716e-03  -4.4682230e+08
   5.5018339e-11  -9.2217732e-02   6.3269001e+00   4.8386291e-03  -4.4543365e+08
   5.6018673e-11  -9.1772847e-02   6.3256781e+00   5.0081020e-03  -4.4404511e+08
   5.7019006e-11  -9.1329352e-02   6.3244368e+00   5.1829345e-03  -4.4265671e+08
   5.8019340e-11  -9.0887245e-02   6.3231759e+00   5.3632739e-03  -4.4126844e+08
   5.9019673e-11  -9.0446527e-02   6.3218952e+00   5.5492709e-03  -4.3988031e+08
   6.0020007e-11  -9.0007198e-02   6.3205944e+00   5.7410795e-03  -4.3849233e+08
   6.1020340e-11  -8.9569257e-02   6.3192734e+00   5.9388568e-03  -4.3710450e+08
   6.2020674e-11  -8.9132704e-02   6.3179317e+00   6.1427636e-03  -4.3571684e+08
   6.3021007e-11  -8.8697539e-02   6.3165692e+00   6.3529639e-03  -4.3432934e+08
   6.4021340e-11  -8.8263762e-02   6.3151857e+00   6.5696254e-03  -4.3294201e+08
   6.5021674e-11  -8.7831373e-02   6.3137808e+00   6.7929190e-03  -4.3155487e+08
   6.6022007e-11  -8.7400371e-02   6.3123543e+00   7.0230194e-03  -4.3016791e+08
   6.7022341e-11  -8.6970757e-02   6.3109059e+00   7.2601048e-03  -4.2878115e+08
   6.8022674e-11  -8.6542529e-02   6.3094353e+00   7.5043569e-03  -4.2739459e+08
   6.9023008e-11  -8.6115689e-02   6.3079424e+00   7.7559615e-03  -4.2600825e+08
   7.0023341e-11  -8.5690235e-02   6.3064267e+00   8.0151075e-03  -4.2462211e+08
   7.1023675e-11  -8.5266168e-02   6.3048881e+00   8.2819880e-03  -4.2323621e+08
   7.2024008e-11  -8.4843487e-02   6.3033263e+00   8.5567998e-03  -4.2185054e+08
   7.3024341e-11  -8.4422192e-02   6.3017410e+00   8.8397434e-03  -4.2046511e+08
   7.4024675e-11  -8.4002283e-02   6.3001318e+00   9.1310232e-03  -4.1907993e+08
   7.5025008e-11  -8.3583759e-02   6.2984987e+00   9.4308476e-03  -4.1769501e+08
   7.6025342e-11  -8.3166621e-02   6.2968411e+00   9.7394287e-03  -4.1631036e+08
   7.7025675e-11  -8.2750867e-02   6.2951589e+00   1.0056983e-02  -4.1492598e+08
   7.8026009e-11  -8.2336498e-02   6.2934518e+00   1.0383730e-02  -4.1354189e+08
   7.9026342e-11  -8.1923514e-02   6.2917195e+00   1.0719894e-02  -4.1215809e+08
   8.0026676e-11  -8.1511913e-02   6.2899617e+00   1.1065704e-02  -4.1077459e+08
   8.1027009e-11  -8.1101697e-02   6.2881782e+00   1.1421392e-02  -4.0939141e+08
   8.2027342e-11  -8.0692864e-02   6.2863685e+00   1.1787193e-02  -4.0800856e+08
   8.3027676e-11  -8.0285414e-02   6.2845325e+00   1.2163349e-02  -4.0662603e+08
   8.4028009e-11  -7.9879347e-02   6.2826698e+00   1.2550105e-02  -4.0524385e+08
   8.5028343e-11  -7.9474662e-02   6.2807801e+00   1.2947708e-02  -4.0386202e+08
   8.6028676e-11  -7.9071359e-02   6.2788631e+00   1.3356412e-02  -4.0248056e+08
   8.7029010e-11  -7.8669438e-02   6.2769186e+00   1.3776474e-02  -4.0109947e+08
   8.8029343e-11  -7.8268899e-02   6.2749463e+00   1.4208155e-02  -3.9971876e+08
   8.9029677e-11  -7.7869740e-02   6.2729457e+00   1.4651721e-02  -3.9833845e+08
   9.0030010e-11  -7.7471962e-02   6.2709167e+00   1.5107442e-02  -3.9695855e+08
   9.1030343e-11  -7.7075564e-02   6.2688590e+00   1.5575591e-02  -3.9557907e+08
   9.2030677e-11  -7.6680546e-02   6.2667721e+00   1.6056447e-02  -3.9420002e+08
   9.3031010e-11  -7.6286907e-02   6.2646558e+00   1.6550292e-02  -3.9282141e+08
   9.4031344e-11  -7.5894647e-02   6.2625099e+00   1.7057413e-02  -3.9144325e+08
   9.5031677e-11  -7.5503766e-02   6.2603339e+00   1.7578102e-02  -3.9006556e+08
   9.6032011e-11  -7.5114262e-02   6.2581276e+00   1.8112652e-02  -3.8868835e+08
   9.7032344e-11  -7.4726135e-02   6.2558907e+00   1.8661364e-02  -3.8731163e+08
   9.8032678e-11  -7.4339386e-02   6.2536228e+00   1.9224542e-02  -3.8593541e+08
   9.9033011e-11  -7.3954013e-02   6.2513237e+00   1.9802493e-02  -3.8455971e+08
   1.0003334e-10  -7.3570016e-02   6.2489930e+00   2.0395529e-02  -3.8318454e+08
   1.0103368e-10  -7.3187394e-02   6.2466305e+00   2.1003967e-02  -3.8180991e+08
   1.0203401e-10  -7.2806147e-02   6.2442357e+00   2.1628128e-02  -3.8043584e+08
   1.0303434e-10  -7.2426274e-02   6.2418084e+00   2.2268335e-02  -3.7906234e+08
   1.0403468e-10  -7.2047775e-02   6.2393482e+00   2.2924919e-02  -3.7768943e+08
   1.0503501e-10  -7.1670648e-02   6.2368550e+00   2.3598211e-02  -3.7631711e+08
   1.0603535e-10  -7.1294895e-02   6.2343282e+00   2.4288549e-02  -3.7494540e+08
   1.0703568e-10  -7.0920513e-02   6.2317677e+00   2.4996274e-02  -3.7357433e+08
   1.0803601e-10  -7.0547502e-02   6.2291730e+00   2.5721731e-02  -3.7220389e+08
   1.0903635e-10  -7.0175862e-02   6.2265440e+00   2.6465270e-02  -3.7083412e+08
   1.1003668e-10  -6.9805592e-02   6.2238802e+00   2.7227242e-02  -3.6946501e+08
   1.1103701e-10  -6.9436691e-02   6.2211814e+00   2.8008005e-02  -3.6809659e+08
   1.1203735e-10  -6.9069158e-02   6.2184471e+00   2.8807920e-02  -3.6672888e+08
   1.1303768e-10  -6.8702994e-02   6.2156772e+00   2.9627352e-02  -3.6536188e+08
   1.1403801e-10  -6.8338196e-02   6.2128713e+00   3.0466668e-02  -3.6399562e+08
   1.1503835e-10  -6.7974765e-02   6.2100291e+00   3.1326241e-02  -3.6263011e+08
   1.1603868e-10  -6.7612699e-02   6.2071502e+00   3.2206446e-02  -3.6126537e+08
   1.1703901e-10  -6.7251998e-02   6.2042344e+00   3.3107662e-02  -3.5990142e+08
   1.1803935e-10  -6.6892661e-02   6.2012813e+00   3.4030273e-02  -3.5853826e+08
   1.1903968e-10  -6.6534687e-02   6.1982907e+00   3.4974664e-02  -3.5717592e+08
   1.2004001e-10  -6.6178075e-02   6.1952621e+00   3.5941224e-02  -3.5581442e+08
   1.2104035e-10  -6.5822826e-02   6.1921954e+00   3.6930347e-02  -3.5445377e+08
   1.2204068e-10  -6.5468936e-02   6.1890901e+00   3.7942428e-02  -3.5309399e+08
   1.2304101e-10  -6.5116407e-02   6.1859460e+00   3.8977866e-02  -3.5173510e+08
   1.2404135e-10  -6.4765236e-02   6.1827628e+00   4.0037064e-02  -3.5037711e+08
   1.2504168e-10  -6.4415423e-02   6.1795402e+00   4.1120426e-02  -3.4902005e+08
   1.2604201e-10  -6.4066968e-02   6.1762778e+00   4.2228360e-02  -3.4766393e+08
   1.2704235e-10  -6.3719868e-02   6.1729753e+00   4.3361276e-02  -3.4630877e+08
   1.2804268e-10  -6.3374123e-02   6.1696326e+00   4.4519588e-02  -3.4495459e+08
   1.2904301e-10  -6.3029733e-02   6.1662492e+00   4.5703712e-02  -3.4360141e+08
   1.3004335e-10  -6.2686696e-02   6.1628248e+00   4.6914065e-02  -3.4224925e+08
   1.3104368e-10  -6.2345010e-02   6.1593593e+00   4.8151067e-02  -3.4089813e+08
   1.3204401e-10  -6.2004676e-02   6.1558522e+00   4.9415142e-02  -3.3954807e+08
   1.3304435e-10  -6.1665692e-02   6.1523033e+00   5.0706714e-02  -3.3819908e+08
   1.3404468e-10  -6.1328057e-02   6.1487123e+00   5.2026209e-02  -3.3685119e+08
   1.3504502e-10  -6.0991769e-02   6.1450789e+00   5.3374056e-02  -3.3550441e+08
   1.3604535e-10  -6.0656828e-02   6.1414029e+00   5.4750684e-02  -3.3415877e+08
   1.3704568e-10  -6.0323233e-02   6.1376839e+00   5.6156526e-02  -3.3281429e+08
   1.3804602e-10  -5.9990981e-02   6.1339217e+00   5.7592014e-02  -3.3147099e+08
   1.3904635e-10  -5.9660073e-02   6.1301160e+00   5.9057582e-02  -3.3012889e+08
   1.4004668e-10  -5.9330507e-02   6.1262665e+00   6.0553666e-02  -3.2878801e+08
   1.4104702e-10  -5.9002282e-02   6.1223731e+00   6.2080702e-02  -3.2744837e+08
   1.4204735e-10  -5.8675396e-02   6.1184353e+00   6.3639126e-02  -3.2611000e+08
   1.4304768e-10  -5.8349848e-02   6.1144530e+00   6.5229377e-02  -3.2477291e+08
   1.4404802e-10  -5.8025637e-02   6.1104259e+00   6.6851893e-02  -3.2343712e+08
   1.4504835e-10  -5.7702761e-02   6.1063538e+00   6.8507113e-02  -3.2210267e+08
   1.4604868e-10  -5.7381220e-02   6.1022364e+00   7.0195474e-02  -3.2076956e+08
   1.4704902e-10  -5.7061012e-02   6.0980734e+00   7.1917416e-02  -3.1943783e+08
   1.4804935e-10  -5.6742135e-02   6.0938647e+00   7.3673377e-02  -3.1810749e+08
   1.4904968e-10  -5.6424588e-02   6.0896100e+00   7.5463796e-02  -3.1677857e+08
   1.5005002e-10  -5.6108370e-02   6.0853091e+00   7.7289109e-02  -3.1545109e+08
   1.5105035e-10  -5.5793478e-02   6.0809617e+00   7.9149754e-02  -3.1412507e+08
   1.5205068e-10  -5.5479913e-02   6.0765677e+00   8.1046168e-02  -3.1280054e+08
   1.5305102e-10  -5.5167672e-02   6.0721268e+00   8.2978784e-02  -3.1147751e+08
   1.5405135e-10  -5.4856753e-02   6.0676388e+00   8.4948037e-02  -3.1015602e+08
   1.5505168e-10  -5.4547156e-02   6.0631036e+00   8.6954359e-02  -3.0883609e+08
   1.5605202e-10  -5.4238878e-02   6.0585208e+00   8.8998180e-02  -3.0751773e+08
   1.5705235e-10  -5.3931918e-02   6.0538904e+00   9.1079930e-02  -3.0620098e+08
   1.5805268e-10  -5.3626275e-02   6.0492122e+00   9.3200035e-02  -3.0488585e+08
   1.5905302e-10  -5.3321946e-02   6.0444859e+00   9.5358919e-02  -3.0357237e+08
   1.6005335e-10  -5.3018930e-02   6.0397115e+00   9.7557005e-02  -3.0226057e+08
   1.6105368e-10  -5.2717226e-02   6.0348887e+00   9.9794712e-02  -3.0095046e+08
   1.6205402e-10  -5.2416831e-02   6.0300173e+00   1.0207246e-01  -2.9964208e+08
   1.6305435e-10  -5.2117745e-02   6.0250974e+00   1.0439065e-01  -2.9833544e+08
   1.6405468e-10  -5.1819964e-02   6.0201286e+00   1.0674971e-01  -2.9703058e+08
   1.6505502e-10  -5.1523488e-02   6.0151108e+00   1.0915004e-01  -2.9572751e+08
   1.6605535e-10  -5.1228314e-02   6.0100440e+00   1.1159204e-01  -2.9442626e+08
   1.6705569e-10  -5.0934441e-02   6.0049279e+00   1.1407611e-01  -2.9312685e+08
   1.6805602e-10  -5.0641867e-02   5.9997626e+00   1.1660265e-01  -2.9182931e+08
   1.6905635e-10  -5.0350590e-02   5.9945478e+00   1.1917204e-01  -2.9053367e+08
   1.7005669e-10  -5.0060608e-02   5.9892835e+00   1.2178468e-01  -2.8923995e+08
   1.7105702e-10  -4.9771920e-02   5.9839696e+00   1.2444095e-01  -2.8794816e+08
   1.7205735e-10  -4.9484522e-02   5.9786060e+00   1.2714122e-01  -2.8665835e+08
   1.7305769e-10  -4.9198414e-02   5.9731925e+00   1.2988587e-01  -2.8537053e+08
   1.7405802e-10  -4.8913593e-02   5.9677293e+00   1.3267526e-01  -2.8408473e+08
   1.7505835e-10  -4.8630057e-02   5.9622161e+00   1.3550975e-01  -2.8280098e+08
   1.7605869e-10  -4.8347804e-02   5.9566529e+00   1.3838970e-01  -2.8151929e+08
   1.7705902e-10  -4.8066832e-02   5.9510398e+00   1.4131546e-01  -2.8023970e+08
   1.7805935e-10  -4.7787140e-02   5.9453766e+00   1.4428737e-01  -2.7896222e+08
   1.7905969e-10  -4.7508724e-02   5.9396633e+00   1.4730577e-01  -2.7768690e+08
   1.8006002e-10  -4.7231582e-02   5.9338999e+00   1.5037099e-01  -2.7641374e+08
   1.8106035e-10  -4.6955714e-02   5.9280864e+00   1.5348334e-01  -2.7514277e+08
   1.8206069e-10  -4.6681115e-02   5.9222228e+00   1.5664316e-01  -2.7387403e+08
   1.8306102e-10  -4.6407784e-02   5.9163091e+00   1.5985075e-01  -2.7260753e+08
   1.8406135e-10  -4.6135720e-02   5.9103454e+00   1.6310641e-01  -2.7134330e+08
   1.8506169e-10  -4.5864918e-02   5.9043315e+00   1.6641043e-01  -2.7008136e+08
   1.8606202e-10  -4.5595378e-02   5.8982677e+00   1.6976310e-01  -2.6882175e+08
   1.8706235e-10  -4.5327097e-02   5.8921539e+00   1.7316471e-01  -2.6756449e+08
   1.8806269e-10  -4.5060072e-02   5.8859901e+00   1.7661551e-01  -2.6630959e+08
   1.8906302e-10  -4.4794302e-02   5.8797765e+00   1.8011578e-01  -2.6505710e+08
   1.9006335e-10  -4.4529783e-02   5.8735131e+00   1.8366577e-01  -2.6380702e+08
   1.9106369e-10  -4.4266513e-02   5.8672000e+00   1.8726573e-01  -2.6255939e+08
   1.9206402e-10  -4.4004490e-02   5.8608373e+00   1.9091588e-01  -2.6131423e+08
   1.9306435e-10  -4.3743711e-02   5.8544251e+00   1.9461646e-01  -2.6007157e+08
   1.9406469e-10  -4.3484174e-02   5.8479635e+00   1.9836769e-01  -2.5883143e+08
   1.9506502e-10  -4.3225877e-02   5.8414526e+00   2.0216977e-01  -2.5759384e+08
   1.9606536e-10  -4.2968816e-02   5.8348926e+00   2.0602291e-01  -2.5635881e+08
   1.9706569e-10  -4.2712989e-02   5.8282836e+00   2.0992730e-01  -2.5512639e+08
   1.9806602e-10  -4.2458394e-02   5.8216257e+00   2.1388311e-01  -2.5389658e+08
   1.9906636e-10  -4.2205028e-02   5.8149191e+00   2.1789051e-01  -2.5266942e+08
   2.0006669e-10  -4.1952887e-02   5.8081640e+00   2.2194967e-01  -2.5144493e+08
   2.0106702e-10  -4.1701971e-02   5.8013605e+00   2.2606074e-01  -2.5022313e+08
   2.0206736e-10  -4.1452275e-02   5.7945089e+00   2.3022385e-01  -2.4900404e+08
   2.0306769e-10  -4.1203797e-02   5.7876094e+00   2.3443913e-01  -2.4778770e+08
   2.0406802e-10  -4.0956535e-02   5.7806621e+00   2.3870671e-01  -2.4657413e+08
   2.0506836e-10  -4.0710485e-02   5.7736673e+00   2.4302669e-01  -2.4536334e+08
   2.0606869e-10  -4.0465645e-02   5.7666251e+00   2.4739916e-01  -2.4415537e+08
   2.0706902e-10  -4.0222012e-02   5.7595360e+00   2.5182422e-01  -2.4295024e+08
   2.0806936e-10  -3.9979583e-02   5.7524000e+00   2.5630194e-01  -2.4174796e+08
   2.0906969e-10  -3.9738356e-02   5.7452175e+00   2.6083238e-01  -2.4054857e+08
   2.1007002e-10  -3.9498326e-02   5.7379888e+00   2.6541559e-01  -2.3935209e+08
   2.1107036e-10  -3.9259492e-02   5.7307140e+00   2.7005162e-01  -2.3815853e+08
   2.1207069e-10  -3.9021851e-02   5.7233935e+00   2.7474050e-01  -2.3696793e+08
   2.1307102e-10  -3.8785399e-02   5.7160277e+00   2.7948224e-01  -2.3578030e+08
   2.1407136e-10  -3.8550133e-02   5.7086167e+00   2.8427686e-01  -2.3459567e+08
   2.1507169e-10  -3.8316051e-02   5.7011610e+00   2.8912434e-01  -2.3341406e+08
   2.1607202e-10  -3.8083150e-02   5.6936608e+00   2.9402467e-01  -2.3223549e+08
   2.1707236e-10  -3.7851426e-02   5.6861165e+00   2.9897782e-01  -2.3105999e+08
   2.1807269e-10  -3.7620876e-02   5.6785284e+00   3.0398376e-01  -2.2988757e+08
   2.1907302e-10  -3.7391497e-02   5.6708969e+00   3.0904243e-01  -2.2871826e+08
   2.2007336e-10  -3.7163287e-02   5.6632224e+00   3.1415376e-01  -2.2755207e+08
   2.2107369e-10  -3.6936241e-02   5.6555052e+00   3.1931769e-01  -2.2638904e+08
   2.2207402e-10  -3.6710358e-02   5.6477458e+00   3.2453413e-01  -2.2522918e+08
   2.2307436e-10  -3.6485633e-02   5.6399444e+00   3.2980298e-01  -2.2407251e+08
   2.2407469e-10  -3.6262063e-02   5.6321016e+00   3.3512412e-01  -2.2291905e+08
   2.2507503e-10  -3.6039646e-02   5.6242176e+00   3.4049743e-01  -2.2176883e+08
   2.2607536e-10  -3.5818378e-02   5.6162930e+00   3.4592279e-01  -2.2062185e+08
   2.2707569e-10  -3.5598255e-02   5.6083282e+00   3.5140005e-01  -2.1947815e+08
   2.2807603e-10  -3.5379275e-02   5.6003236e+00   3.5692903e-01  -2.1833775e+08
   2.2907636e-10  -3.5161434e-02   5.5922796e+00   3.6250959e-01  -2.1720065e+08
   2.3007669e-10  -3.4944729e-02   5.5841967e+00   3.6814154e-01  -2.1606688e+08
   2.3107703e-10  -3.4729156e-02   5.5760754e+00   3.7382467e-01  -2.1493647e+08
   2.3207736e-10  -3.4514712e-02   5.5679161e+00   3.7955880e-01  -2.1380942e+08
   2.3307769e-10  -3.4301394e-02   5.5597193e+00   3.8534370e-01  -2.1268576e+08
   2.3407803e-10  -3.4089198e-02   5.5514855e+00   3.9117914e-01  -2.1156550e+08
   2.3507836e-10  -3.3878122e-02   5.5432152e+00   3.9706489e-01  -2.1044867e+08
   2.3607869e-10  -3.3668160e-02   5.5349088e+00   4.0300069e-01  -2.0933528e+08
   2.3707903e-10  -3.3459311e-02   5.5265669e+00   4.0898629e-01  -2.0822534e+08
   2.3807936e-10  -3.3251570e-02   5.5181901e+00   4.1502141e-01  -2.0711889e+08
   2.3907969e-10  -3.3044935e-02   5.5097787e+00   4.2110577e-01  -2.0601592e+08
   2.4008003e-10  -3.2839401e-02   5.5013334e+00   4.2723906e-01  -2.0491646e+08
   2.4108036e-10  -3.2634965e-02   5.4928546e+00   4.3342099e-01  -2.0382052e+08
   2.4208069e-10  -3.2431623e-02   5.4843430e+00   4.3965124e-01  -2.0272813e+08
   2.4308103e-10  -3.2229373e-02   5.4757990e+00   4.4592949e-01  -2.0163929e+08
   2.4408136e-10  -3.2028210e-02   5.4672233e+00   4.5225538e-01  -2.0055403e+08
   2.4508169e-10  -3.1828130e-02   5.4586163e+00   4.5862858e-01  -1.9947235e+08
   2.4608203e-10  -3.1629131e-02   5.4499787e+00   4.6504872e-01  -1.9839428e+08
   2.4708236e-10  -3.1431209e-02   5.4413109e+00   4.7151544e-01  -1.9731982e+08
   2.4808269e-10  -3.1234360e-02   5.4326136e+00   4.7802836e-01  -1.9624899e+08
   2.4908303e-10  -3.1038579e-02   5.4238874e+00   4.8458708e-01  -1.9518181e+08
   2.5008336e-10  -3.0843865e-02   5.4151328e+00   4.9119122e-01  -1.9411829e+08
   2.5108369e-10  -3.0650213e-02   5.4063505e+00   4.9784035e-01  -1.9305844e+08
   2.5208403e-10  -3.0457619e-02   5.3975410e+00   5.0453407e-01  -1.9200228e+08
   2.5308436e-10  -3.0266079e-02   5.3887049e+00   5.1127194e-01  -1.9094981e+08
   2.5408469e-10  -3.0075591e-02   5.3798428e+00   5.1805353e-01  -1.8990105e+08
   2.5508503e-10  -2.9886150e-02   5.3709553e+00   5.2487839e-01  -1.8885602e+08
   2.5608536e-10  -2.9697752e-02   5.3620431e+00   5.3174607e-01  -1.8781473e+08
   2.5708570e-10  -2.9510394e-02   5.3531067e+00   5.3865611e-01  -1.8677718e+08
   2.5808603e-10  -2.9324073e-02   5.3441469e+00   5.4560804e-01  -1.8574339e+08
   2.5908636e-10  -2.9138783e-02   5.3351640e+00   5.5260137e-01  -1.8471337e+08
   2.6008670e-10  -2.8954522e-02   5.3261590e+00   5.5963562e-01  -1.8368713e+08
   2.6108703e-10  -2.8771285e-02   5.3171322e+00   5.6671029e-01  -1.8266467e+08
   2.6208736e-10  -2.8589070e-02   5.3080844e+00   5.7382489e-01  -1.8164603e+08
   2.6308770e-10  -2.8407871e-02   5.2990162e+00   5.8097889e-01  -1.8063119e+08
   2.6408803e-10  -2.8227686e-02   5.2899282e+00   5.8817179e-01  -1.7962017e+08
   2.6508836e-10  -2.8048510e-02   5.2808211e+00   5.9540305e-01  -1.7861298e+08
   2.6608870e-10  -2.7870340e-02   5.2716956e+00   6.0267215e-01  -1.7760963e+08
   2.6708903e-10  -2.7693172e-02   5.2625521e+00   6.0997854e-01  -1.7661012e+08
   2.6808936e-10  -2.7517001e-02   5.2533914e+00   6.1732169e-01  -1.7561448e+08
   2.6908970e-10  -2.7341825e-02   5.2442142e+00   6.2470104e-01  -1.7462269e+08
   2.7009003e-10  -2.7167638e-02   5.2350210e+00   6.3211603e-01  -1.7363478e+08
   2.7109036e-10  -2.6994438e-02   5.2258125e+00   6.3956611e-01  -1.7265074e+08
   2.7209070e-10  -2.6822221e-02   5.2165894e+00   6.4705070e-01  -1.7167059e+08
   2.7309103e-10  -2.6650982e-02   5.2073522e+00   6.5456922e-01  -1.7069433e+08
   2.7409136e-10  -2.6480717e-02   5.1981017e+00   6.6212111e-01  -1.6972197e+08
   2.7509170e-10  -2.6311424e-02   5.1888385e+00   6.6970577e-01  -1.6875352e+08
   2.7609203e-10  -2.6143097e-02   5.1795632e+00   6.7732261e-01  -1.6778898e+08
   2.7709236e-10  -2.5975733e-02   5.1702765e+00   6.8497105e-01  -1.6682835e+08
   2.7809270e-10  -2.5809328e-02   5.1609789e+00   6.9265049e-01  -1.6587165e+08
   2.7909303e-10  -2.5643878e-02   5.1516713e+00   7.0036032e-01  -1.6491887e+08
   2.8009336e-10  -2.5479379e-02   5.1423541e+00   7.0809993e-01  -1.6397003e+08
   2.8109370e-10  -2.5315827e-02   5.1330281e+00   7.1586872e-01  -1.6302512e+08
   2.8209403e-10  -2.5153219e-02   5.1236938e+00   7.2366608e-01  -1.6208415e+08
   2.8309436e-10  -2.4991550e-02   5.1143520e+00   7.3149139e-01  -1.6114713e+08
   2.8409470e-10  -2.4830816e-02   5.1050032e+00   7.3934402e-01  -1.6021405e+08
   2.8509503e-10  -2.4671014e-02   5.0956481e+00   7.4722337e-01  -1.5928492e+08
   2.8609537e-10  -2.4512139e-02   5.0862874e+00   7.5512880e-01  -1.5835975e+08
   2.8709570e-10  -2.4354187e-02   5.0769215e+00   7.6305968e-01  -1.5743853e+08
   2.8809603e-10  -2.4197156e-02   5.0675513e+00   7.7101539e-01  -1.5652128e+08
   2.8909637e-10  -2.4041039e-02   5.0581772e+00   7.7899530e-01  -1.5560798e+08
   2.9009670e-10  -2.3885835e-02   5.0488000e+00   7.8699877e-01  -1.5469865e+08
   2.9109703e-10  -2.3731538e-02   5.0394202e+00   7.9502517e-01  -1.5379328e+08
   2.9209737e-10  -2.3578144e-02   5.0300385e+00   8.0307386e-01  -1.5289188e+08
   2.9309770e-10  -2.3425651e-02   5.0206555e+00   8.1114421e-01  -1.5199444e+08
   2.9409803e-10  -2.3274053e-02   5.0112717e+00   8.1923558e-01  -1.5110098e+08
   2.9509837e-10  -2.3123347e-02   5.0018879e+00   8.2734732e-01  -1.5021148e+08
   2.9609870e-10  -2.2973529e-02   4.9925045e+00   8.3547882e-01  -1.4932595e+08
   2.9709903e-10  -2.2824594e-02   4.9831223e+00   8.4362941e-01  -1.4844438e+08
   2.9809937e-10  -2.2676540e-02   4.9737417e+00   8.5179846e-01  -1.4756679e+08
   2.9909970e-10  -2.2529361e-02   4.9643635e+00   8.5998534e-01  -1.4669316e+08
   3.0010003e-10  -2.2383054e-02   4.9549881e+00   8.6818941e-01  -1.4582350e+08
   3.0110037e-10  -2.2237616e-02   4.9456162e+00   8.7641002e-01  -1.4495780e+08
   3.0210070e-10  -2.2093041e-02   4.9362484e+00   8.8464654e-01  -1.4409607e+08
   3.0310103e-10  -2.1949326e-02   4.9268852e+00   8.9289833e-01  -1.4323830e+08
   3.0410137e-10  -2.1806467e-02   4.9175272e+00   9.0116476e-01  -1.4238449e+08
   3.0510170e-10  -2.1664461e-02   4.9081749e+00   9.0944519e-01  -1.4153464e+08
   3.0610203e-10  -2.1523303e-02   4.8988290e+00   9.1773898e-01  -1.4068875e+08
   3.0710237e-10  -2.1382988e-02   4.8894900e+00   9.2604551e-01  -1.3984681e+08
   3.0810270e-10  -2.1243514e-02   4.8801584e+00   9.3436415e-01  -1.3900882e+08
   3.0910303e-10  -2.1104877e-02   4.8708348e+00   9.4269426e-01  -1.3817477e+08
   3.1010337e-10  -2.0967072e-02   4.8615197e+00   9.5103522e-01  -1.3734468e+08
   3.1110370e-10  -2.0830095e-02   4.8522137e+00   9.5938640e-01  -1.3651852e+08
   3.1210403e-10  -2.0693942e-02   4.8429173e+00   9.6774719e-01  -1.3569630e+08
   3.1310437e-10  -2.0558610e-02   4.8336311e+00   9.7611697e-01  -1.3487801e+08
   3.1410470e-10  -2.0424095e-02   4.8243555e+00   9.8449511e-01  -1.3406365e+08
   3.1510504e-10  -2.0290392e-02   4.8150910e+00   9.9288101e-01  -1.3325322e+08
   3.1610537e-10  -2.0157498e-02   4.8058383e+00   1.0012740e+00  -1.3244671e+08
   3.1710570e-10  -2.0025409e-02   4.7965977e+00   1.0096736e+00  -1.3164411e+08
   3.1810604e-10  -1.9894121e-02   4.7873698e+00   1.0180791e+00  -1.3084542e+08
   3.1910637e-10  -1.9763630e-02   4.7781551e+00   1.0264900e+00  -1.3005064e+08
   3.2010670e-10  -1.9633932e-02   4.7689540e+00   1.0349055e+00  -1.2925976e+08
   3.2110704e-10  -1.9505023e-02   4.7597671e+00   1.0433252e+00  -1.2847277e+08
   3.2210737e-10  -1.9376899e-02   4.7505949e+00   1.0517485e+00  -1.2768967e+08
   3.2310770e-10  -1.9249557e-02   4.7414377e+00   1.0601747e+00  -1.2691045e+08
   3.2410804e-10  -1.9122993e-02   4.7322960e+00   1.0686033e+00  -1.2613510e+08
   3.2510837e-10  -1.8997202e-02   4.7231704e+00   1.0770337e+00  -1.2536363e+08
   3.2610870e-10  -1.8872181e-02   4.7140613e+00   1.0854653e+00  -1.2459602e+08
   3.2710904e-10  -1.8747925e-02   4.7049691e+00   1.0938976e+00  -1.2383226e+08
   3.2810937e-10  -1.8624432e-02   4.6958942e+00   1.1023299e+00  -1.2307235e+08
   3.2910970e-10  -1.8501697e-02   4.6868371e+00   1.1107618e+00  -1.2231629e+08
   3.3011004e-10  -1.8379717e-02   4.6777982e+00   1.1191927e+00  -1.2156406e+08
   3.3111037e-10  -1.8258487e-02   4.6687780e+00   1.1276219e+00  -1.2081565e+08
   3.3211070e-10  -1.8138004e-02   4.6597768e+00   1.1360491e+00  -1.2007106e+08
   3.3311104e-10  -1.8018263e-02   4.6507950e+00   1.1444736e+00  -1.1933029e+08
   3.3411137e-10  -1.7899262e-02   4.6418331e+00   1.1528948e+00  -1.1859332e+08
   3.3511170e-10  -1.7780997e-02   4.6328914e+00   1.1613124e+00  -1.1786014e+08
   3.3611204e-10  -1.7663462e-02   4.6239704e+00   1.1697256e+00  -1.1713075e+08
   3.3711237e-10  -1.7546656e-02   4.6150704e+00   1.1781341e+00  -1.1640513e+08
   3.3811270e-10  -1.7430573e-02   4.6061918e+00   1.1865373e+00  -1.1568329e+08
   3.3911304e-10  -1.7315211e-02   4.5973350e+00   1.1949347e+00  -1.1496521e+08
   3.4011337e-10  -1.7200565e-02   4.5885003e+00   1.2033257e+00  -1.1425088e+08
   3.4111370e-10  -1.7086632e-02   4.5796881e+00   1.2117099e+00  -1.1354029e+08
   3.4211404e-10  -1.6973407e-02   4.5708987e+00   1.2200868e+00  -1.1283343e+08
   3.4311437e-10  -1.6860888e-02   4.5621325e+00   1.2284559e+00  -1.1213030e+08
   3.4411470e-10  -1.6749071e-02   4.5533898e+00   1.2368168e+00  -1.1143088e+08
   3.4511504e-10  -1.6637951e-02   4.5446709e+00   1.2451688e+00  -1.1073517e+08
   3.4611537e-10  -1.6527525e-02   4.5359762e+00   1.2535116e+00  -1.1004315e+08
   3.4711571e-10  -1.6417790e-02   4.5273060e+00   1.2618447e+00  -1.0935482e+08
   3.4811604e-10  -1.6308741e-02   4.5186606e+00   1.2701676e+00  -1.0867016e+08
   3.4911637e-10  -1.6200376e-02   4.5100403e+00   1.2784799e+00  -1.0798917e+08
   3.5011671e-10  -1.6092690e-02   4.5014454e+00   1.2867812e+00  -1.0731183e+08
   3.5111704e-10  -1.5985680e-02   4.4928762e+00   1.2950709e+00  -1.0663813e+08
   3.5211737e-10  -1.5879341e-02   4.4843330e+00   1.3033487e+00  -1.0596807e+08
   3.5311771e-10  -1.5773672e-02   4.4758160e+00   1.3116141e+00  -1.0530163e+08
   3.5411804e-10  -1.5668667e-02   4.4673256e+00   1.3198666e+00  -1.0463881e+08
   3.5511837e-10  -1.5564323e-02   4.4588620e+00   1.3281060e+00  -1.0397958e+08
   3.5611871e-10  -1.5460637e-02   4.4504254e+00   1.3363317e+00  -1.0332395e+08
   3.5711904e-10  -1.5357605e-02   4.4420162e+00   1.3445433e+00  -1.0267189e+08
   3.5811937e-10  -1.5255223e-02   4.4336345e+00   1.3527405e+00  -1.0202340e+08
   3.5911971e-10  -1.5153489e-02   4.4252806e+00   1.3609229e+00  -1.0137847e+08
   3.6012004e-10  -1.5052398e-02   4.4169547e+00   1.3690900e+00  -1.0073709e+08
   3.6112037e-10  -1.4951946e-02   4.4086572e+00   1.3772415e+00  -1.0009924e+08
   3.6212071e-10  -1.4852131e-02   4.4003881e+00   1.3853770e+00  -9.9464908e+07
   3.6312104e-10  -1.4752949e-02   4.3921478e+00   1.3934961e+00  -9.8834090e+07
   3.6412137e-10  -1.4654396e-02   4.3839364e+00   1.4015985e+00  -9.8206771e+07
   3.6512171e-10  -1.4556469e-02   4.3757541e+00   1.4096838e+00  -9.7582939e+07
   3.6612204e-10  -1.4459164e-02   4.3676012e+00   1.4177517e+00  -9.6962583e+07
   3.6712237e-10  -1.4362478e-02   4.3594778e+00   1.4258017e+00  -9.6345690e+07
   3.6812271e-10  -1.4266407e-02   4.3513841e+00   1.4338336e+00  -9.5732248e+07
   3.6912304e-10  -1.4170948e-02   4.3433203e+00   1.4418471e+00  -9.5122246e+07
   3.7012337e-10  -1.4076098e-02   4.3352867e+00   1.4498418e+00  -9.4515670e+07
   3.7112371e-10  -1.3981853e-02   4.3272833e+00   1.4578173e+00  -9.3912510e+07
   3.7212404e-10  -1.3888209e-02   4.3193103e+00   1.4657734e+00  -9.3312752e+07
   3.7312437e-10  -1.3795164e-02   4.3113679e+00   1.4737097e+00  -9.2716384e+07
   3.7412471e-10  -1.3702714e-02   4.3034562e+00   1.4816260e+00  -9.2123394e+07
   3.7512504e-10  -1.3610855e-02   4.2955755e+00   1.4895219e+00  -9.1533769e+07
   3.7612538e-10  -1.3519584e-02   4.2877258e+00   1.4973972e+00  -9.0947497e+07
   3.7712571e-10  -1.3428898e-02   4.2799073e+00   1.5052515e+00  -9.0364564e+07
   3.7812604e-10  -1.3338793e-02   4.2721201e+00   1.5130846e+00  -8.9784959e+07
   3.7912638e-10  -1.3249267e-02   4.2643643e+00   1.5208962e+00  -8.9208669e+07
   3.8012671e-10  -1.3160316e-02   4.2566401e+00   1.5286860e+00  -8.8635680e+07
   3.8112704e-10  -1.3071935e-02   4.2489476e+00   1.5364538e+00  -8.8065980e+07
   3.8212738e-10  -1.2984124e-02   4.2412870e+00   1.5441993e+00  -8.7499556e+07
   3.8312771e-10  -1.2896877e-02   4.2336582e+00   1.5519223e+00  -8.6936395e+07
   3.8412804e-10  -1.2810192e-02   4.2260615e+00   1.5596225e+00  -8.6376485e+07
   3.8512838e-10  -1.2724065e-02   4.2184968e+00   1.5672996e+00  -8.5819811e+07
   3.8612871e-10  -1.2638494e-02   4.2109644e+00   1.5749535e+00  -8.5266361e+07
   3.8712904e-10  -1.2553475e-02   4.2034644e+00   1.5825838e+00  -8.4716123e+07
   3.8812938e-10  -1.2469004e-02   4.1959967e+00   1.5901905e+00  -8.4169082e+07
   3.8912971e-10  -1.2385079e-02   4.1885615e+00   1.5977731e+00  -8.3625226e+07
   3.9013004e-10  -1.2301697e-02   4.1811588e+00   1.6053316e+00  -8.3084541e+07
   3.9113038e-10  -1.2218854e-02   4.1737888e+00   1.6128658e+00  -8.2547015e+07
   3.9213071e-10  -1.2136547e-02   4.1664515e+00   1.6203753e+00  -8.2012633e+07
   3.9313104e-10  -1.2054773e-02   4.1591469e+00   1.6278601e+00  -8.1481383e+07
   3.9413138e-10  -1.1973529e-02   4.1518752e+00   1.6353199e+00  -8.0953252e+07
   3.9513171e-10  -1.1892811e-02   4.1446363e+00   1.6427546e+00  -8.0428225e+07
   3.9613204e-10  -1.1812617e-02   4.1374303e+00   1.6501639e+00  -7.9906291e+07
   3.9713238e-10  -1.1732944e-02   4.1302574e+00   1.6575477e+00  -7.9387434e+07
   3.9813271e-10  -1.1653789e-02   4.1231174e+00   1.6649058e+00  -7.8871643e+07
   3.9913304e-10  -1.1575147e-02   4.1160105e+00   1.6722380e+00  -7.8358902e+07
   4.0013338e-10  -1.1497018e-02   4.1089367e+00   1.6795442e+00  -7.7849200e+07
   4.0113371e-10  -1.1419396e-02   4.1018960e+00   1.6868242e+00  -7.7342523e+07
   4.0213404e-10  -1.1342280e-02   4.0948885e+00   1.6940779e+00  -7.6838856e+07
   4.0313438e-10  -1.1265666e-02   4.0879141e+00   1.7013051e+00  -7.6338188e+07
   4.0413471e-10  -1.1189552e-02   4.0809729e+00   1.7085056e+00  -7.5840503e+07
   4.0513505e-10  -1.1113934e-02   4.0740650e+00   1.7156794e+00  -7.5345789e+07
   4.0613538e-10  -1.1038809e-02   4.0671902e+00   1.7228263e+00  -7.4854033e+07
   4.0713571e-10  -1.0964175e-02   4.0603487e+00   1.7299461e+00  -7.4365220e+07
   4.0813605e-10  -1.0890028e-02   4.0535404e+00   1.7370388e+00  -7.3879337e+07
   4.0913638e-10  -1.0816366e-02   4.0467654e+00   1.7441042e+00  -7.3396371e+07
   4.1013671e-10  -1.0743185e-02   4.0400236e+00   1.7511422e+00  -7.2916307e+07
   4.1113705e-10  -1.0670483e-02   4.0333150e+00   1.7581526e+00  -7.2439134e+07
   4.1213738e-10  -1.0598258e-02   4.0266396e+00   1.7651355e+00  -7.1964836e+07
   4.1313771e-10  -1.0526505e-02   4.0199975e+00   1.7720906e+00  -7.1493401e+07
   4.1413805e-10  -1.0455222e-02   4.0133886e+00   1.7790180e+00  -7.1024816e+07
   4.1513838e-10  -1.0384407e-02   4.0068128e+00   1.7859174e+00  -7.0559065e+07
   4.1613871e-10  -1.0314056e-02   4.0002702e+00   1.7927887e+00  -7.0096137e+07
   4.1713905e-10  -1.0244167e-02   3.9937608e+00   1.7996320e+00  -6.9636017e+07
   4.1813938e-10  -1.0174737e-02   3.9872844e+00   1.8064471e+00  -6.9178692e+07
   4.1913971e-10  -1.0105762e-02   3.9808412e+00   1.8132340e+00  -6.8724148e+07
   4.2014005e-10  -1.0037242e-02   3.9744310e+00   1.8199925e+00  -6.8272373e+07
   4.2114038e-10  -9.9691712e-03   3.9680538e+00   1.8267226e+00  -6.7823352e+07
   4.2214071e-10  -9.9015487e-03   3.9617096e+00   1.8334243e+00  -6.7377072e+07
   4.2314105e-10  -9.8343713e-03   3.9553984e+00   1.8400974e+00  -6.6933520e+07
   4.2414138e-10  -9.7676361e-03   3.9491200e+00   1.8467419e+00  -6.6492682e+07
   4.2514171e-10  -9.7013406e-03   3.9428745e+00   1.8533578e+00  -6.6054545e+07
   4.2614205e-10  -9.6354821e-03   3.9366618e+00   1.8599449e+00  -6.5619095e+07
   4.2714238e-10  -9.5700578e-03   3.9304819e+00   1.8665033e+00  -6.5186319e+07
   4.2814271e-10  -9.5050651e-03   3.9243346e+00   1.8730329e+00  -6.4756204e+07
   4.2914305e-10  -9.4405013e-03   3.9182201e+00   1.8795337e+00  -6.4328736e+07
   4.3014338e-10  -9.3763638e-03   3.9121381e+00   1.8860056e+00  -6.3903902e+07
   4.3114371e-10  -9.3126500e-03   3.9060886e+00   1.8924485e+00  -6.3481688e+07
   4.3214405e-10  -9.2493573e-03   3.9000717e+00   1.8988625e+00  -6.3062082e+07
   4.3314438e-10  -9.1864829e-03   3.8940871e+00   1.9052476e+00  -6.2645070e+07
   4.3414471e-10  -9.1240245e-03   3.8881349e+00   1.9116036e+00  -6.2230639e+07
   4.3514505e-10  -9.0619793e-03   3.8822150e+00   1.9179306e+00  -6.1818775e+07
   4.3614538e-10  -9.0003448e-03   3.8763273e+00   1.9242286e+00  -6.1409465e+07
   4.3714572e-10  -8.9391186e-03   3.8704717e+00   1.9304975e+00  -6.1002697e+07
   4.3814605e-10  -8.8782979e-03   3.8646482e+00   1.9367374e+00  -6.0598457e+07
   4.3914638e-10  -8.8178804e-03   3.8588566e+00   1.9429481e+00  -6.0196731e+07
   4.4014672e-10  -8.7578635e-03   3.8530970e+00   1.9491298e+00  -5.9797507e+07
   4.4114705e-10  -8.6982447e-03   3.8473692e+00   1.9552823e+00  -5.9400772e+07
   4.4214738e-10  -8.6390215e-03   3.8416732e+00   1.9614058e+00  -5.9006513e+07
   4.4314772e-10  -8.5801915e-03   3.8360088e+00   1.9675002e+00  -5.8614716e+07
   4.4414805e-10  -8.5217522e-03   3.8303761e+00   1.9735655e+00  -5.8225369e+07
   4.4514838e-10  -8.4637011e-03   3.8247748e+00   1.9796016e+00  -5.7838459e+07
   4.4614872e-10  -8.4060359e-03   3.8192049e+00   1.9856088e+00  -5.7453972e+07
   4.4714905e-10  -8.3487540e-03   3.8136664e+00   1.9915868e+00  -5.7071896e+07
   4.4814938e-10  -8.2918532e-03   3.8081591e+00   1.9975358e+00  -5.6692218e+07
   4.4914972e-10  -8.2353310e-03   3.8026830e+00   2.0034557e+00  -5.6314925e+07
   4.5015005e-10  -8.1791850e-03   3.7972379e+00   2.0093467e+00  -5.5940005e+07
   4.5115038e-10  -8.1234129e-03   3.7918237e+00   2.0152086e+00  -5.5567444e+07
   4.5215072e-10  -8.0680123e-03   3.7864405e+00   2.0210416e+00  -5.5197230e+07
   4.5315105e-10  -8.0129808e-03   3.7810880e+00   2.0268456e+00  -5.4829350e+07
   4.5415138e-10  -7.9583162e-03   3.7757661e+00   2.0326207e+00  -5.4463791e+07
   4.5515172e-10  -7.9040162e-03   3.7704749e+00   2.0383669e+00  -5.4100542e+07
   4.5615205e-10  -7.8500783e-03   3.7652140e+00   2.0440843e+00  -5.3739588e+07
   4.5715238e-10  -7.7965004e-03   3.7599836e+00   2.0497728e+00  -5.3380919e+07
   4.5815272e-10  -7.7432801e-03   3.7547834e+00   2.0554325e+00  -5.3024520e+07
   4.5915305e-10  -7.6904152e-03   3.7496134e+00   2.0610635e+00  -5.2670380e+07
   4.6015338e-10  -7.6379035e-03   3.7444735e+00   2.0666658e+00  -5.2318487e+07
   4.6115372e-10  -7.5857426e-03   3.7393634e+00   2.0722395e+00  -5.1968827e+07
   4.6215405e-10  -7.5339304e-03   3.7342833e+00   2.0777845e+00  -5.1621389e+07
   4.6315438e-10  -7.4824647e-03   3.7292328e+00   2.0833009e+00  -5.1276160e+07
   4.6415472e-10  -7.4313432e-03   3.7242120e+00   2.0887889e+00  -5.0933128e+07
   4.6515505e-10  -7.3805637e-03   3.7192207e+00   2.0942483e+00  -5.0592280e+07
   4.6615539e-10  -7.3301241e-03   3.7142588e+00   2.0996793e+00  -5.0253605e+07
   4.6715572e-10  -7.2800223e-03   3.7093262e+00   2.1050820e+00  -4.9917091e+07
   4.6815605e-10  -7.2302559e-03   3.7044228e+00   2.1104563e+00  -4.9582724e+07
   4.6915639e-10  -7.1808230e-03   3.6995485e+00   2.1158024e+00  -4.9250493e+07
   4.7015672e-10  -7.1317214e-03   3.6947031e+00   2.1211203e+00  -4.8920387e+07
   4.7115705e-10  -7.0829489e-03   3.6898865e+00   2.1264101e+00  -4.8592392e+07
   4.7215739e-10  -7.0345035e-03   3.6850987e+00   2.1316718e+00  -4.8266498e+07
   4.7315772e-10  -6.9863831e-03   3.6803395e+00   2.1369055e+00  -4.7942691e+07
   4.7415805e-10  -6.9385855e-03   3.6756088e+00   2.1421112e+00  -4.7620961e+07
   4.7515839e-10  -6.8911087e-03   3.6709064e+00   2.1472891e+00  -4.7301296e+07
   4.7615872e-10  -6.8439506e-03   3.6662324e+00   2.1524391e+00  -4.6983683e+07
   4.7715905e-10  -6.7971093e-03   3.6615864e+00   2.1575614e+00  -4.6668111e+07
   4.7815939e-10  -6.7505826e-03   3.6569685e+00   2.1626560e+00  -4.6354568e+07
   4.7915972e-10  -6.7043686e-03   3.6523785e+00   2.1677230e+00  -4.6043043e+07
   4.8016005e-10  -6.6584652e-03   3.6478163e+00   2.1727625e+00  -4.5733524e+07
   4.8116039e-10  -6.6128704e-03   3.6432817e+00   2.1777746e+00  -4.5425999e+07
   4.8216072e-10  -6.5675822e-03   3.6387747e+00   2.1827592e+00  -4.5120457e+07
   4.8316105e-10  -6.5225987e-03   3.6342951e+00   2.1877166e+00  -4.4816887e+07
   4.8416139e-10  -6.4779179e-03   3.6298428e+00   2.1926467e+00  -4.4515276e+07
   4.8516172e-10  -6.4335378e-03   3.6254177e+00   2.1975497e+00  -4.4215614e+07
   4.8616205e-10  -6.3894565e-03   3.6210196e+00   2.2024256e+00  -4.3917890e+07
   4.8716239e-10  -6.3456721e-03   3.6166485e+00   2.2072745e+00  -4.3622091e+07
   4.8816272e-10  -6.3021826e-03   3.6123042e+00   2.2120966e+00  -4.3328208e+07
   4.8916305e-10  -6.2589862e-03   3.6079866e+00   2.2168918e+00  -4.3036227e+07
   4.9016339e-10  -6.2160808e-03   3.6036956e+00   2.2216602e+00  -4.2746140e+07
   4.9116372e-10  -6.1734647e-03   3.5994310e+00   2.2264021e+00  -4.2457933e+07
   4.9216405e-10  -6.1311360e-03   3.5951927e+00   2.2311173e+00  -4.2171597e+07
   4.9316439e-10  -6.0890928e-03   3.5909807e+00   2.2358061e+00  -4.1887120e+07
   4.9416472e-10  -6.0473332e-03   3.5867947e+00   2.2404684e+00  -4.1604491e+07
   4.9516506e-10  -6.0058555e-03   3.5826346e+00   2.2451045e+00  -4.1323700e+07
   4.9616539e-10  -5.9646577e-03   3.5785004e+00   2.2497144e+00  -4.1044735e+07
   4.9716572e-10  -5.9237380e-03   3.5743919e+00   2.2542981e+00  -4.0767586e+07
   4.9816606e-10  -5.8830947e-03   3.5703090e+00   2.2588558e+00  -4.0492241e+07
   4.9916639e-10  -5.8427259e-03   3.5662515e+00   2.2633876e+00  -4.0218691e+07
   5.0016672e-10  -5.8026299e-03   3.5622194e+00   2.2678935e+00  -3.9946925e+07
   5.0116706e-10  -5.7628048e-03   3.5582124e+00   2.2723736e+00  -3.9676931e+07
   5.0216739e-10  -5.7232490e-03   3.5542306e+00   2.2768281e+00  -3.9408699e+07
   5.0316772e-10  -5.6839606e-03   3.5502737e+00   2.2812570e+00  -3.9142219e+07
   5.0416806e-10  -5.6449379e-03   3.5463416e+00   2.2856604e+00  -3.8877481e+07
   5.0516839e-10  -5.6061791e-03   3.5424343e+00   2.2900385e+00  -3.8614473e+07
   5.0616872e-10  -5.5676826e-03   3.5385515e+00   2.2943912e+00  -3.8353185e+07
   5.0716906e-10  -5.5294466e-03   3.5346932e+00   2.2987188e+00  -3.8093608e+07
   5.0816939e-10  -5.4914694e-03   3.5308592e+00   2.3030213e+00  -3.7835730e+07
   5.0916972e-10  -5.4537493e-03   3.5270494e+00   2.3072988e+00  -3.7579542e+07
   5.1017006e-10  -5.4162847e-03   3.5232637e+00   2.3115514e+00  -3.7325033e+07
   5.1117039e-10  -5.3790738e-03   3.5195020e+00   2.3157792e+00  -3.7072193e+07
   5.1217072e-10  -5.3421150e-03   3.5157641e+00   2.3199823e+00  -3.6821013e+07
   5.1317106e-10  -5.3054067e-03   3.5120499e+00   2.3241608e+00  -3.6571481e+07
   5.1417139e-10  -5.2689471e-03   3.5083593e+00   2.3283148e+00  -3.6323588e+07
   5.1517172e-10  -5.2327347e-03   3.5046922e+00   2.3324444e+00  -3.6077324e+07
   5.1617206e-10  -5.1967679e-03   3.5010484e+00   2.3365497e+00  -3.5832680e+07
   5.1717239e-10  -5.1610450e-03   3.4974279e+00   2.3406308e+00  -3.5589644e+07
   5.1817272e-10  -5.1255643e-03   3.4938304e+00   2.3446878e+00  -3.5348208e+07
   5.1917306e-10  -5.0903244e-03   3.4902559e+00   2.3487208e+00  -3.5108361e+07
   5.2017339e-10  -5.0553237e-03   3.4867042e+00   2.3527299e+00  -3.4870095e+07
   5.2117372e-10  -5.0205605e-03   3.4831753e+00   2.3567152e+00  -3.4633398e+07
   5.2217406e-10  -4.9860333e-03   3.4796690e+00   2.3606768e+00  -3.4398263e+07
   5.2317439e-10  -4.9517405e-03   3.4761852e+00   2.3646149e+00  -3.4164678e+07
   5.2417472e-10  -4.9176806e-03   3.4727237e+00   2.3685295e+00  -3.3932634e+07
   5.2517506e-10  -4.8838521e-03   3.4692844e+00   2.3724206e+00  -3.3702123e+07
   5.2617539e-10  -4.8502534e-03   3.4658673e+00   2.3762885e+00  -3.3473134e+07
   5.2717573e-10  -4.8168830e-03   3.4624722e+00   2.3801333e+00  -3.3245658e+07
   5.2817606e-10  -4.7837394e-03   3.4590989e+00   2.3839549e+00  -3.3019686e+07
   5.2917639e-10  -4.7508211e-03   3.4557474e+00   2.3877536e+00  -3.2795209e+07
   5.3017673e-10  -4.7181266e-03   3.4524175e+00   2.3915295e+00  -3.2572217e+07
   5.3117706e-10  -4.6856544e-03   3.4491091e+00   2.3952825e+00  -3.2350700e+07
   5.3217739e-10  -4.6534031e-03   3.4458222e+00   2.3990130e+00  -3.2130651e+07
   5.3317773e-10  -4.6213712e-03   3.4425565e+00   2.4027208e+00  -3.1912060e+07
   5.3417806e-10  -4.5895573e-03   3.4393119e+00   2.4064063e+00  -3.1694917e+07
   5.3517839e-10  -4.5579598e-03   3.4360884e+00   2.4100693e+00  -3.1479214e+07
   5.3617873e-10  -4.5265774e-03   3.4328858e+00   2.4137102e+00  -3.1264942e+07
   5.3717906e-10  -4.4954086e-03   3.4297040e+00   2.4173289e+00  -3.1052091e+07
   5.3817939e-10  -4.4644520e-03   3.4265428e+00   2.4209256e+00  -3.0840654e+07
   5.3917973e-10  -4.4337062e-03   3.4234023e+00   2.4245004e+00  -3.0630620e+07
   5.4018006e-10  -4.4031699e-03   3.4202821e+00   2.4280533e+00  -3.0421982e+07
   5.4118039e-10  -4.3728415e-03   3.4171823e+00   2.4315846e+00  -3.0214731e+07
   5.4218073e-10  -4.3427198e-03   3.4141027e+00   2.4350942e+00  -3.0008857e+07
   5.4318106e-10  -4.3128033e-03   3.4110432e+00   2.4385823e+00  -2.9804353e+07
   5.4418139e-10  -4.2830908e-03   3.4080037e+00   2.4420490e+00  -2.9601209e+07
   5.4518173e-10  -4.2535807e-03   3.4049841e+00   2.4454945e+00  -2.9399418e+07
   5.4618206e-10  -4.2242719e-03   3.4019841e+00   2.4489187e+00  -2.9198970e+07
   5.4718239e-10  -4.1951629e-03   3.3990039e+00   2.4523219e+00  -2.8999857e+07
   5.4818273e-10  -4.1662524e-03   3.3960431e+00   2.4557041e+00  -2.8802071e+07
   5.4918306e-10  -4.1375391e-03   3.3931017e+00   2.4590654e+00  -2.8605603e+07
   5.5018339e-10  -4.1090216e-03   3.3901797e+00   2.4624059e+00  -2.8410446e+07
   5.5118373e-10  -4.0806988e-03   3.3872768e+00   2.4657258e+00  -2.8216590e+07
   5.5218406e-10  -4.0525692e-03   3.3843929e+00   2.4690251e+00  -2.8024028e+07
   5.5318439e-10  -4.0246316e-03   3.3815280e+00   2.4723039e+00  -2.7832751e+07
   5.5418473e-10  -3.9968847e-03   3.3786820e+00   2.4755624e+00  -2.7642751e+07
   5.5518506e-10  -3.9693273e-03   3.3758547e+00   2.4788007e+00  -2.7454021e+07
   5.5618540e-10  -3.9419580e-03   3.3730460e+00   2.4820188e+00  -2.7266551e+07
   5.5718573e-10  -3.9147756e-03   3.3702558e+00   2.4852168e+00  -2.7080335e+07
   5.5818606e-10  -3.8877788e-03   3.3674840e+00   2.4883949e+00  -2.6895364e+07
   5.5918640e-10  -3.8609665e-03   3.3647305e+00   2.4915532e+00  -2.6711630e+07
   5.6018673e-10  -3.8343373e-03   3.3619952e+00   2.4946917e+00  -2.6529125e+07
   5.6118706e-10  -3.8078901e-03   3.3592779e+00   2.4978106e+00  -2.6347841e+07
   5.6218740e-10  -3.7816237e-03   3.3565786e+00   2.5009100e+00  -2.6167772e+07
   5.6318773e-10  -3.7555367e-03   3.3538972e+00   2.5039900e+00  -2.5988908e+07
   5.6418806e-10  -3.7296281e-03   3.3512335e+00   2.5070506e+00  -2.5811242e+07
   5.6518840e-10  -3.7038966e-03   3.3485874e+00   2.5100920e+00  -2.5634767e+07
   5.6618873e-10  -3.6783411e-03   3.3459589e+00   2.5131143e+00  -2.5459475e+07
   5.6718906e-10  -3.6529603e-03   3.3433478e+00   2.5161176e+00  -2.5285359e+07
   5.6818940e-10  -3.6277531e-03   3.3407540e+00   2.5191019e+00  -2.5112410e+07
   5.6918973e-10  -3.6027184e-03   3.3381774e+00   2.5220675e+00  -2.4940622e+07
   5.7019006e-10  -3.5778549e-03   3.3356179e+00   2.5250143e+00  -2.4769986e+07
   5.7119040e-10  -3.5531615e-03   3.3330754e+00   2.5279425e+00  -2.4600496e+07
   5.7219073e-10  -3.5286371e-03   3.3305498e+00   2.5308522e+00  -2.4432144e+07
   5.7319106e-10  -3.5042805e-03   3.3280411e+00   2.5337435e+00  -2.4264923e+07
   5.7419140e-10  -3.4800907e-03   3.3255490e+00   2.5366164e+00  -2.4098826e+07
   5.7519173e-10  -3.4560664e-03   3.3230735e+00   2.5394712e+00  -2.3933845e+07
   5.7619206e-10  -3.4322067e-03   3.3206145e+00   2.5423078e+00  -2.3769973e+07
   5.7719240e-10  -3.4085103e-03   3.3181719e+00   2.5451265e+00  -2.3607203e+07
   5.7819273e-10  -3.3849761e-03   3.3157455e+00   2.5479272e+00  -2.3445528e+07
   5.7919306e-10  -3.3616032e-03   3.3133354e+00   2.5507101e+00  -2.3284941e+07
   5.8019340e-10  -3.3383904e-03   3.3109413e+00   2.5534753e+00  -2.3125435e+07
   5.8119373e-10  -3.3153366e-03   3.3085633e+00   2.5562228e+00  -2.2967002e+07
   5.8219406e-10  -3.2924407e-03   3.3062011e+00   2.5589529e+00  -2.2809636e+07
   5.8319440e-10  -3.2697017e-03   3.3038547e+00   2.5616655e+00  -2.2653330e+07
   5.8419473e-10  -3.2471186e-03   3.3015239e+00   2.5643607e+00  -2.2498078e+07
   5.8519507e-10  -3.2246902e-03   3.2992088e+00   2.5670388e+00  -2.2343871e+07
   5.8619540e-10  -3.2024156e-03   3.2969092e+00   2.5696997e+00  -2.2190705e+07
   5.8719573e-10  -3.1802937e-03   3.2946249e+00   2.5723436e+00  -2.2038570e+07
   5.8819607e-10  -3.1583234e-03   3.2923560e+00   2.5749705e+00  -2.1887462e+07
   5.8919640e-10  -3.1365038e-03   3.2901023e+00   2.5775806e+00  -2.1737373e+07
   5.9019673e-10  -3.1148338e-03   3.2878637e+00   2.5801740e+00  -2.1588297e+07
   5.9119707e-10  -3.0933125e-03   3.2856400e+00   2.5827507e+00  -2.1440228e+07
   5.9219740e-10  -3.0719387e-03   3.2834314e+00   2.5853108e+00  -2.1293157e+07
   5.9319773e-10  -3.0507116e-03   3.2812375e+00   2.5878544e+00  -2.1147080e+07
   5.9419807e-10  -3.0296302e-03   3.2790584e+00   2.5903817e+00  -2.1001990e+07
   5.9519840e-10  -3.0086933e-03   3.2768939e+00   2.5928927e+00  -2.0857880e+07
   5.9619873e-10  -2.9879002e-03   3.2747439e+00   2.5953876e+00  -2.0714743e+07
   5.9719907e-10  -2.9672497e-03   3.2726084e+00   2.5978663e+00  -2.0572574e+07
   5.9819940e-10  -2.9467410e-03   3.2704873e+00   2.6003290e+00  -2.0431366e+07
   5.9919973e-10  -2.9263730e-03   3.2683804e+00   2.6027758e+00  -2.0291113e+07
   6.0020007e-10  -2.9061449e-03   3.2662878e+00   2.6052068e+00  -2.0151809e+07
   6.0120040e-10  -2.8860556e-03   3.2642092e+00   2.6076221e+00  -2.0013447e+07
   6.0220073e-10  -2.8661043e-03   3.2621446e+00   2.6100218e+00  -1.9876021e+07
   6.0320107e-10  -2.8462900e-03   3.2600939e+00   2.6124059e+00  -1.9739525e+07
   6.0420140e-10  -2.8266118e-03   3.2580570e+00   2.6147745e+00  -1.9603954e+07
   6.0520173e-10  -2.8070688e-03   3.2560339e+00   2.6171278e+00  -1.9469300e+07
   6.0620207e-10  -2.7876599e-03   3.2540244e+00   2.6194658e+00  -1.9335559e+07
   6.0720240e-10  -2.7683844e-03   3.2520285e+00   2.6217887e+00  -1.9202723e+07
   6.0820273e-10  -2.7492414e-03   3.2500461e+00   2.6240964e+00  -1.9070787e+07
   6.0920307e-10  -2.7302298e-03   3.2480770e+00   2.6263892e+00  -1.8939746e+07
   6.1020340e-10  -2.7113490e-03   3.2461213e+00   2.6286670e+00  -1.8809592e+07
   6.1120373e-10  -2.6925978e-03   3.2441787e+00   2.6309300e+00  -1.8680321e+07
   6.1220407e-10  -2.6739756e-03   3.2422493e+00   2.6331783e+00  -1.8551927e+07
   6.1320440e-10  -2.6554813e-03   3.2403329e+00   2.6354119e+00  -1.8424404e+07
   6.1420473e-10  -2.6371142e-03   3.2384295e+00   2.6376309e+00  -1.8297745e+07
   6.1520507e-10  -2.6188733e-03   3.2365390e+00   2.6398355e+00  -1.8171946e+07
   6.1620540e-10  -2.6007579e-03   3.2346613e+00   2.6420256e+00  -1.8047001e+07
   6.1720574e-10  -2.5827670e-03   3.2327962e+00   2.6442015e+00  -1.7922904e+07
   6.1820607e-10  -2.5648998e-03   3.2309438e+00   2.6463631e+00  -1.7799649e+07
   6.1920640e-10  -2.5471556e-03   3.2291040e+00   2.6485107e+00  -1.7677231e+07
   6.2020674e-10  -2.5295333e-03   3.2272766e+00   2.6506441e+00  -1.7555645e+07
   6.2120707e-10  -2.5120323e-03   3.2254616e+00   2.6527636e+00  -1.7434885e+07
   6.2220740e-10  -2.4946516e-03   3.2236589e+00   2.6548692e+00  -1.7314945e+07
   6.2320774e-10  -2.4773906e-03   3.2218684e+00   2.6569610e+00  -1.7195820e+07
   6.2420807e-10  -2.4602483e-03   3.2200901e+00   2.6590391e+00  -1.7077505e+07
   6.2520840e-10  -2.4432239e-03   3.2183238e+00   2.6611035e+00  -1.6959994e+07
   6.2620874e-10  -2.4263167e-03   3.2165695e+00   2.6631544e+00  -1.6843282e+07
   6.2720907e-10  -2.4095258e-03   3.2148272e+00   2.6651919e+00  -1.6727364e+07
   6.2820940e-10  -2.3928506e-03   3.2130966e+00   2.6672159e+00  -1.6612235e+07
   6.2920974e-10  -2.3762900e-03   3.2113779e+00   2.6692266e+00  -1.6497888e+07
   6.3021007e-10  -2.3598435e-03   3.2096708e+00   2.6712241e+00  -1.6384320e+07
   6.3121040e-10  -2.3435102e-03   3.2079753e+00   2.6732085e+00  -1.6271524e+07
   6.3221074e-10  -2.3272894e-03   3.2062913e+00   2.6751798e+00  -1.6159497e+07
   6.3321107e-10  -2.3111802e-03   3.2046188e+00   2.6771381e+00  -1.6048231e+07
   6.3421140e-10  -2.2951819e-03   3.2029576e+00   2.6790835e+00  -1.5937724e+07
   6.3521174e-10  -2.2792939e-03   3.2013078e+00   2.6810161e+00  -1.5827969e+07
   6.3621207e-10  -2.2635152e-03   3.1996691e+00   2.6829359e+00  -1.5718961e+07
   6.3721240e-10  -2.2478452e-03   3.1980417e+00   2.6848431e+00  -1.5610696e+07
   6.3821274e-10  -2.2322832e-03   3.1964253e+00   2.6867377e+00  -1.5503169e+07
   6.3921307e-10  -2.2168283e-03   3.1948199e+00   2.6886197e+00  -1.5396375e+07
   6.4021340e-10  -2.2014799e-03   3.1932254e+00   2.6904893e+00  -1.5290308e+07
   6.4121374e-10  -2.1862372e-03   3.1916418e+00   2.6923466e+00  -1.5184964e+07
   6.4221407e-10  -2.1710996e-03   3.1900690e+00   2.6941915e+00  -1.5080339e+07
   6.4321440e-10  -2.1560663e-03   3.1885070e+00   2.6960243e+00  -1.4976427e+07
   6.4421474e-10  -2.1411365e-03   3.1869555e+00   2.6978449e+00  -1.4873224e+07
   6.4521507e-10  -2.1263097e-03   3.1854147e+00   2.6996535e+00  -1.4770724e+07
   6.4621541e-10  -2.1115850e-03   3.1838843e+00   2.7014501e+00  -1.4668924e+07
   6.4721574e-10  -2.0969618e-03   3.1823644e+00   2.7032347e+00  -1.4567818e+07
   6.4821607e-10  -2.0824394e-03   3.1808549e+00   2.7050076e+00  -1.4467403e+07
   6.4921641e-10  -2.0680171e-03   3.1793556e+00   2.7067686e+00  -1.4367672e+07
   6.5021674e-10  -2.0536943e-03   3.1778666e+00   2.7085180e+00  -1.4268623e+07
   6.5121707e-10  -2.0394701e-03   3.1763878e+00   2.7102558e+00  -1.4170249e+07
   6.5221741e-10  -2.0253441e-03   3.1749191e+00   2.7119820e+00  -1.4072548e+07
   6.5321774e-10  -2.0113154e-03   3.1734603e+00   2.7136968e+00  -1.3975513e+07
   6.5421807e-10  -1.9973835e-03   3.1720116e+00   2.7154001e+00  -1.3879142e+07
   6.5521841e-10  -1.9835477e-03   3.1705728e+00   2.7170921e+00  -1.3783428e+07
   6.5621874e-10  -1.9698072e-03   3.1691437e+00   2.7187729e+00  -1.3688369e+07
   6.5721907e-10  -1.9561616e-03   3.1677245e+00   2.7204425e+00  -1.3593959e+07
   6.5821941e-10  -1.9426100e-03   3.1663149e+00   2.7221010e+00  -1.3500194e+07
   6.5921974e-10  -1.9291520e-03   3.1649150e+00   2.7237484e+00  -1.3407070e+07
   6.6022007e-10  -1.9157868e-03   3.1635247e+00   2.7253848e+00  -1.3314583e+07
   6.6122041e-10  -1.9025137e-03   3.1621439e+00   2.7270103e+00  -1.3222728e+07
   6.6222074e-10  -1.8893323e-03   3.1607725e+00   2.7286250e+00  -1.3131501e+07
   6.6322107e-10  -1.8762418e-03   3.1594105e+00   2.7302290e+00  -1.3040897e+07
   6.6422141e-10  -1.8632416e-03   3.1580578e+00   2.7318222e+00  -1.2950914e+07
   6.6522174e-10  -1.8503311e-03   3.1567144e+00   2.7334048e+00  -1.2861546e+07
   6.6622207e-10  -1.8375097e-03   3.1553802e+00   2.7349768e+00  -1.2772789e+07
   6.6722241e-10  -1.8247768e-03   3.1540551e+00   2.7365383e+00  -1.2684640e+07
   6.6822274e-10  -1.8121318e-03   3.1527391e+00   2.7380894e+00  -1.2597094e+07
   6.6922307e-10  -1.7995740e-03   3.1514321e+00   2.7396301e+00  -1.2510147e+07
   6.7022341e-10  -1.7871029e-03   3.1501341e+00   2.7411605e+00  -1.2423795e+07
   6.7122374e-10  -1.7747179e-03   3.1488449e+00   2.7426807e+00  -1.2338034e+07
   6.7222407e-10  -1.7624184e-03   3.1475646e+00   2.7441907e+00  -1.2252860e+07
   6.7322441e-10  -1.7502038e-03   3.1462931e+00   2.7456906e+00  -1.2168270e+07
   6.7422474e-10  -1.7380736e-03   3.1450302e+00   2.7471804e+00  -1.2084259e+07
   6.7522508e-10  -1.7260271e-03   3.1437761e+00   2.7486603e+00  -1.2000823e+07
   6.7622541e-10  -1.7140637e-03   3.1425305e+00   2.7501303e+00  -1.1917958e+07
   6.7722574e-10  -1.7021830e-03   3.1412935e+00   2.7515904e+00  -1.1835662e+07
   6.7822608e-10  -1.6903843e-03   3.1400649e+00   2.7530407e+00  -1.1753929e+07
   6.7922641e-10  -1.6786671e-03   3.1388448e+00   2.7544813e+00  -1.1672756e+07
   6.8022674e-10  -1.6670309e-03   3.1376331e+00   2.7559122e+00  -1.1592139e+07
   6.8122708e-10  -1.6554749e-03   3.1364297e+00   2.7573336e+00  -1.1512075e+07
   6.8222741e-10  -1.6439988e-03   3.1352345e+00   2.7587454e+00  -1.1432560e+07
   6.8322774e-10  -1.6326020e-03   3.1340475e+00   2.7601477e+00  -1.1353590e+07
   6.8422808e-10  -1.6212839e-03   3.1328687e+00   2.7615406e+00  -1.1275161e+07
   6.8522841e-10  -1.6100440e-03   3.1316980e+00   2.7629241e+00  -1.1197270e+07
   6.8622874e-10  -1.5988817e-03   3.1305353e+00   2.7642983e+00  -1.1119913e+07
   6.8722908e-10  -1.5877966e-03   3.1293806e+00   2.7656633e+00  -1.1043087e+07
   6.8822941e-10  -1.5767880e-03   3.1282338e+00   2.7670191e+00  -1.0966787e+07
   6.8922974e-10  -1.5658555e-03   3.1270949e+00   2.7683658e+00  -1.0891011e+07
   6.9023008e-10  -1.5549986e-03   3.1259639e+00   2.7697035e+00  -1.0815755e+07
   6.9123041e-10  -1.5442166e-03   3.1248406e+00   2.7710321e+00  -1.0741015e+07
   6.9223074e-10  -1.5335092e-03   3.1237250e+00   2.7723518e+00  -1.0666788e+07
   6.9323108e-10  -1.5228758e-03   3.1226171e+00   2.7736626e+00  -1.0593070e+07
   6.9423141e-10  -1.5123158e-03   3.1215168e+00   2.7749646e+00  -1.0519859e+07
   6.9523174e-10  -1.5018289e-03   3.1204241e+00   2.7762578e+00  -1.0447149e+07
   6.9623208e-10  -1.4914144e-03   3.1193388e+00   2.7775423e+00  -1.0374939e+07
   6.9723241e-10  -1.4810719e-03   3.1182611e+00   2.7788181e+00  -1.0303225e+07
   6.9823274e-10  -1.4708009e-03   3.1171907e+00   2.7800854e+00  -1.0232003e+07
   6.9923308e-10  -1.4606009e-03   3.1161278e+00   2.7813441e+00  -1.0161270e+07
   7.0023341e-10  -1.4504714e-03   3.1150721e+00   2.7825943e+00  -1.0091023e+07
   7.0123374e-10  -1.4404120e-03   3.1140237e+00   2.7838360e+00  -1.0021258e+07
   7.0223408e-10  -1.4304221e-03   3.1129825e+00   2.7850694e+00  -9.9519728e+06
   7.0323441e-10  -1.4205012e-03   3.1119485e+00   2.7862945e+00  -9.8831632e+06
   7.0423474e-10  -1.4106490e-03   3.1109215e+00   2.7875113e+00  -9.8148264e+06
   7.0523508e-10  -1.4008649e-03   3.1099017e+00   2.7887198e+00  -9.7469590e+06
   7.0623541e-10  -1.3911484e-03   3.1088889e+00   2.7899202e+00  -9.6795580e+06
   7.0723575e-10  -1.3814991e-03   3.1078830e+00   2.7911125e+00  -9.6126202e+06
   7.0823608e-10  -1.3719166e-03   3.1068841e+00   2.7922967e+00  -9.5461424e+06
   7.0923641e-10  -1.3624003e-03   3.1058920e+00   2.7934730e+00  -9.4801215e+06
   7.1023675e-10  -1.3529499e-03   3.1049068e+00   2.7946412e+00  -9.4145544e+06
   7.1123708e-10  -1.3435648e-03   3.1039284e+00   2.7958016e+00  -9.3494380e+06
   7.1223741e-10  -1.3342446e-03   3.1029567e+00   2.7969541e+00  -9.2847693e+06
   7.1323775e-10  -1.3249889e-03   3.1019917e+00   2.7980988e+00  -9.2205452e+06
   7.1423808e-10  -1.3157972e-03   3.1010333e+00   2.7992358e+00  -9.1567628e+06
   7.1523841e-10  -1.3066691e-03   3.1000816e+00   2.8003651e+00  -9.0934190e+06
   7.1623875e-10  -1.2976042e-03   3.0991364e+00   2.8014867e+00  -9.0305108e+06
   7.1723908e-10  -1.2886020e-03   3.0981977e+00   2.8026007e+00  -8.9680353e+06
   7.1823941e-10  -1.2796620e-03   3.0972655e+00   2.8037072e+00  -8.9059895e+06
   7.1923975e-10  -1.2707839e-03   3.0963397e+00   2.8048062e+00  -8.8443706e+06
   7.2024008e-10  -1.2619672e-03   3.0954202e+00   2.8058978e+00  -8.7831756e+06
   7.2124041e-10  -1.2532116e-03   3.0945072e+00   2.8069819e+00  -8.7224016e+06
   7.2224075e-10  -1.2445165e-03   3.0936004e+00   2.8080587e+00  -8.6620458e+06
   7.2324108e-10  -1.2358815e-03   3.0926999e+00   2.8091282e+00  -8.6021053e+06
   7.2424141e-10  -1.2273064e-03   3.0918056e+00   2.8101904e+00  -8.5425773e+06
   7.2524175e-10  -1.2187906e-03   3.0909174e+00   2.8112454e+00  -8.4834590e+06
   7.2624208e-10  -1.2103337e-03   3.0900354e+00   2.8122933e+00  -8.4247477e+06
   7.2724241e-10  -1.2019353e-03   3.0891594e+00   2.8133341e+00  -8.3664405e+06
   7.2824275e-10  -1.1935951e-03   3.0882895e+00   2.8143678e+00  -8.3085347e+06
   7.2924308e-10  -1.1853126e-03   3.0874256e+00   2.8153944e+00  -8.2510275e+06
   7.3024341e-10  -1.1770874e-03   3.0865677e+00   2.8164141e+00  -8.1939163e+06
   7.3124375e-10  -1.1689191e-03   3.0857157e+00   2.8174269e+00  -8.1371983e+06
   7.3224408e-10  -1.1608074e-03   3.0848695e+00   2.8184328e+00  -8.0808709e+06
   7.3324441e-10  -1.1527519e-03   3.0840292e+00   2.8194319e+00  -8.0249315e+06
   7.3424475e-10  -1.1447521e-03   3.0831947e+00   2.8204241e+00  -7.9693773e+06
   7.3524508e-10  -1.1368077e-03   3.0823660e+00   2.8214097e+00  -7.9142057e+06
   7.3624542e-10  -1.1289183e-03   3.0815429e+00   2.8223885e+00  -7.8594142e+06
   7.3724575e-10  -1.1210835e-03   3.0807256e+00   2.8233607e+00  -7.8050001e+06
   7.3824608e-10  -1.1133029e-03   3.0799139e+00   2.8243262e+00  -7.7509610e+06
   7.3924642e-10  -1.1055763e-03   3.0791078e+00   2.8252852e+00  -7.6972941e+06
   7.4024675e-10  -1.0979031e-03   3.0783073e+00   2.8262377e+00  -7.6439970e+06
   7.4124708e-10  -1.0902831e-03   3.0775123e+00   2.8271837e+00  -7.5910671e+06
   7.4224742e-10  -1.0827158e-03   3.0767227e+00   2.8281232e+00  -7.5385021e+06
   7.4324775e-10  -1.0752009e-03   3.0759387e+00   2.8290564e+00  -7.4862992e+06
   7.4424808e-10  -1.0677381e-03   3.0751600e+00   2.8299832e+00  -7.4344562e+06
   7.4524842e-10  -1.0603269e-03   3.0743867e+00   2.8309037e+00  -7.3829705e+06
   7.4624875e-10  -1.0529671e-03   3.0736188e+00   2.8318179e+00  -7.3318397e+06
   7.4724908e-10  -1.0456582e-03   3.0728562e+00   2.8327259e+00  -7.2810614e+06
   7.4824942e-10  -1.0384000e-03   3.0720988e+00   2.8336277e+00  -7.2306332e+06
   7.4924975e-10  -1.0311920e-03   3.0713467e+00   2.8345233e+00  -7.1805526e+06
   7.5025008e-10  -1.0240340e-03   3.0705998e+00   2.8354129e+00  -7.1308174e+06
   7.5125042e-10  -1.0169255e-03   3.0698580e+00   2.8362964e+00  -7.0814251e+06
   7.5225075e-10  -1.0098663e-03   3.0691213e+00   2.8371739e+00  -7.0323734e+06
   7.5325108e-10  -1.0028560e-03   3.0683898e+00   2.8380454e+00  -6.9836599e+06
   7.5425142e-10  -9.9589420e-04   3.0676633e+00   2.8389109e+00  -6.9352825e+06
   7.5525175e-10  -9.8898067e-04   3.0669418e+00   2.8397705e+00  -6.8872387e+06
   7.5625208e-10  -9.8211502e-04   3.0662253e+00   2.8406243e+00  -6.8395263e+06
   7.5725242e-10  -9.7529694e-04   3.0655138e+00   2.8414723e+00  -6.7921430e+06
   7.5825275e-10  -9.6852610e-04   3.0648071e+00   2.8423144e+00  -6.7450866e+06
   7.5925308e-10  -9.6180216e-04   3.0641054e+00   2.8431509e+00  -6.6983548e+06
   7.6025342e-10  -9.5512481e-04   3.0634085e+00   2.8439816e+00  -6.6519454e+06
   7.6125375e-10  -9.4849373e-04   3.0627164e+00   2.8448066e+00  -6.6058563e+06
   7.6225408e-10  -9.4190859e-04   3.0620292e+00   2.8456260e+00  -6.5600852e+06
   7.6325442e-10  -9.3536908e-04   3.0613466e+00   2.8464398e+00  -6.5146299e+06
   7.6425475e-10  -9.2887488e-04   3.0606688e+00   2.8472481e+00  -6.4694883e+06
   7.6525509e-10  -9.2242568e-04   3.0599957e+00   2.8480508e+00  -6.4246583e+06
   7.6625542e-10  -9.1602118e-04   3.0593272e+00   2.8488481e+00  -6.3801377e+06
   7.6725575e-10  -9.0966105e-04   3.0586634e+00   2.8496399e+00  -6.3359243e+06
   7.6825609e-10  -9.0334500e-04   3.0580041e+00   2.8504263e+00  -6.2920162e+06
   7.6925642e-10  -8.9707272e-04   3.0573494e+00   2.8512073e+00  -6.2484111e+06
   7.7025675e-10  -8.9084391e-04   3.0566992e+00   2.8519830e+00  -6.2051071e+06
   7.7125709e-10  -8.8465827e-04   3.0560536e+00   2.8527533e+00  -6.1621020e+06
   7.7225742e-10  -8.7851550e-04   3.0554124e+00   2.8535184e+00  -6.1193939e+06
   7.7325775e-10  -8.7241530e-04   3.0547756e+00   2.8542783e+00  -6.0769806e+06
   7.7425809e-10  -8.6635739e-04   3.0541432e+00   2.8550330e+00  -6.0348602e+06
   7.7525842e-10  -8.6034146e-04   3.0535152e+00   2.8557825e+00  -5.9930306e+06
   7.7625875e-10  -8.5436723e-04   3.0528916e+00   2.8565269e+00  -5.9514899e+06
   7.7725909e-10  -8.4843442e-04   3.0522723e+00   2.8572662e+00  -5.9102361e+06
   7.7825942e-10  -8.4254273e-04   3.0516572e+00   2.8580004e+00  -5.8692672e+06
   7.7925975e-10  -8.3669187e-04   3.0510464e+00   2.8587296e+00  -5.8285812e+06
   7.8026009e-10  -8.3088158e-04   3.0504399e+00   2.8594539e+00  -5.7881763e+06
   7.8126042e-10  -8.2511157e-04   3.0498375e+00   2.8601731e+00  -5.7480505e+06
   7.8226075e-10  -8.1938156e-04   3.0492393e+00   2.8608875e+00  -5.7082019e+06
   7.8326109e-10  -8.1369127e-04   3.0486453e+00   2.8615969e+00  -5.6686285e+06
   7.8426142e-10  -8.0804043e-04   3.0480553e+00   2.8623015e+00  -5.6293285e+06
   7.8526175e-10  -8.0242876e-04   3.0474695e+00   2.8630013e+00  -5.5903001e+06
   7.8626209e-10  -7.9685601e-04   3.0468877e+00   2.8636962e+00  -5.5515413e+06
   7.8726242e-10  -7.9132189e-04   3.0463099e+00   2.8643865e+00  -5.5130503e+06
   7.8826275e-10  -7.8582614e-04   3.0457361e+00   2.8650719e+00  -5.4748253e+06
   7.8926309e-10  -7.8036850e-04   3.0451663e+00   2.8657527e+00  -5.4368644e+06
   7.9026342e-10  -7.7494870e-04   3.0446005e+00   2.8664288e+00  -5.3991659e+06
   7.9126375e-10  -7.6956648e-04   3.0440385e+00   2.8671003e+00  -5.3617279e+06
   7.9226409e-10  -7.6422158e-04   3.0434805e+00   2.8677672e+00  -5.3245486e+06
   7.9326442e-10  -7.5891375e-04   3.0429263e+00   2.8684295e+00  -5.2876263e+06
   7.9426475e-10  -7.5364272e-04   3.0423759e+00   2.8690873e+00  -5.2509592e+06
   7.9526509e-10  -7.4840824e-04   3.0418294e+00   2.8697406e+00  -5.2145456e+06
   7.9626542e-10  -7.4321007e-04   3.0412866e+00   2.8703893e+00  -5.1783837e+06
   7.9726576e-10  -7.3804794e-04   3.0407477e+00   2.8710337e+00  -5.1424717e+06
   7.9826609e-10  -7.3292161e-04   3.0402124e+00   2.8716736e+00  -5.1068080e+06
   7.9926642e-10  -7.2783083e-04   3.0396808e+00   2.8723091e+00  -5.0713909e+06
   8.0026676e-10  -7.2277536e-04   3.0391530e+00   2.8729403e+00  -5.0362187e+06
   8.0126709e-10  -7.1775496e-04   3.0386288e+00   2.8735671e+00  -5.0012896e+06
   8.0226742e-10  -7.1276937e-04   3.0381082e+00   2.8741897e+00  -4.9666020e+06
   8.0326776e-10  -7.0781836e-04   3.0375912e+00   2.8748079e+00  -4.9321543e+06
   8.0426809e-10  -7.0290169e-04   3.0370778e+00   2.8754219e+00  -4.8979448e+06
   8.0526842e-10  -6.9801913e-04   3.0365680e+00   2.8760317e+00  -4.8639719e+06
   8.0626876e-10  -6.9317043e-04   3.0360617e+00   2.8766374e+00  -4.8302339e+06
   8.0726909e-10  -6.8835536e-04   3.0355589e+00   2.8772388e+00  -4.7967293e+06
   8.0826942e-10  -6.8357369e-04   3.0350595e+00   2.8778361e+00  -4.7634563e+06
   8.0926976e-10  -6.7882519e-04   3.0345637e+00   2.8784294e+00  -4.7304135e+06
   8.1027009e-10  -6.7410963e-04   3.0340713e+00   2.8790185e+00  -4.6975993e+06
   8.1127042e-10  -6.6942679e-04   3.0335823e+00   2.8796036e+00  -4.6650120e+06
   8.1227076e-10  -6.6477642e-04   3.0330966e+00   2.8801847e+00  -4.6326502e+06
   8.1327109e-10  -6.6015832e-04   3.0326144e+00   2.8807618e+00  -4.6005122e+06
   8.1427142e-10  -6.5557226e-04   3.0321355e+00   2.8813350e+00  -4.5685965e+06
   8.1527176e-10  -6.5101801e-04   3.0316599e+00   2.8819042e+00  -4.5369017e+06
   8.1627209e-10  -6.4649535e-04   3.0311876e+00   2.8824694e+00  -4.5054261e+06
   8.1727242e-10  -6.4200408e-04   3.0307186e+00   2.8830308e+00  -4.4741683e+06
   8.1827276e-10  -6.3754396e-04   3.0302528e+00   2.8835884e+00  -4.4431267e+06
   8.1927309e-10  -6.3311479e-04   3.0297903e+00   2.8841421e+00  -4.4123000e+06
   8.2027342e-10  -6.2871635e-04   3.0293309e+00   2.8846920e+00  -4.3816866e+06
   8.2127376e-10  -6.2434842e-04   3.0288748e+00   2.8852381e+00  -4.3512849e+06
   8.2227409e-10  -6.2001081e-04   3.0284218e+00   2.8857805e+00  -4.3210937e+06
   8.2327442e-10  -6.1570329e-04   3.0279719e+00   2.8863191e+00  -4.2911114e+06
   8.2427476e-10  -6.1142565e-04   3.0275252e+00   2.8868541e+00  -4.2613366e+06
   8.2527509e-10  -6.0717770e-04   3.0270815e+00   2.8873853e+00  -4.2317679e+06
   8.2627543e-10  -6.0295923e-04   3.0266410e+00   2.8879129e+00  -4.2024038e+06
   8.2727576e-10  -5.9877002e-04   3.0262035e+00   2.8884369e+00  -4.1732430e+06
   8.2827609e-10  -5.9460989e-04   3.0257690e+00   2.8889573e+00  -4.1442840e+06
   8.2927643e-10  -5.9047863e-04   3.0253375e+00   2.8894741e+00  -4.1155254e+06
   8.3027676e-10  -5.8637603e-04   3.0249091e+00   2.8899873e+00  -4.0869659e+06
   8.3127709e-10  -5.8230190e-04   3.0244836e+00   2.8904970e+00  -4.0586042e+06
   8.3227743e-10  -5.7825605e-04   3.0240610e+00   2.8910032e+00  -4.0304387e+06
   8.3327776e-10  -5.7423827e-04   3.0236414e+00   2.8915059e+00  -4.0024682e+06
   8.3427809e-10  -5.7024838e-04   3.0232247e+00   2.8920052e+00  -3.9746914e+06
   8.3527843e-10  -5.6628617e-04   3.0228109e+00   2.8925010e+00  -3.9471069e+06
   8.3627876e-10  -5.6235147e-04   3.0223999e+00   2.8929934e+00  -3.9197134e+06
   8.3727909e-10  -5.5844407e-04   3.0219918e+00   2.8934824e+00  -3.8925095e+06
   8.3827943e-10  -5.5456379e-04   3.0215865e+00   2.8939681e+00  -3.8654940e+06
   8.3927976e-10  -5.5071044e-04   3.0211841e+00   2.8944504e+00  -3.8386656e+06
   8.4028009e-10  -5.4688384e-04   3.0207844e+00   2.8949293e+00  -3.8120229e+06
   8.4128043e-10  -5.4308379e-04   3.0203875e+00   2.8954050e+00  -3.7855647e+06
   8.4228076e-10  -5.3931012e-04   3.0199934e+00   2.8958774e+00  -3.7592898e+06
   8.4328109e-10  -5.3556265e-04   3.0196020e+00   2.8963466e+00  -3.7331968e+06
   8.4428143e-10  -5.3184118e-04   3.0192133e+00   2.8968125e+00  -3.7072845e+06
   8.4528176e-10  -5.2814554e-04   3.0188273e+00   2.8972752e+00  -3.6815516e+06
   8.4628209e-10  -5.2447556e-04   3.0184439e+00   2.8977348e+00  -3.6559970e+06
   8.4728243e-10  -5.2083105e-04   3.0180633e+00   2.8981911e+00  -3.6306194e+06
   8.4828276e-10  -5.1721184e-04   3.0176853e+00   2.8986444e+00  -3.6054175e+06
   8.4928309e-10  -5.1361776e-04   3.0173099e+00   2.8990944e+00  -3.5803903e+06
   8.5028343e-10  -5.1004862e-04   3.0169371e+00   2.8995414e+00  -3.5555363e+06
   8.5128376e-10  -5.0650425e-04   3.0165668e+00   2.8999854e+00  -3.5308545e+06
   8.5228409e-10  -5.0298450e-04   3.0161992e+00   2.9004262e+00  -3.5063437e+06
   8.5328443e-10  -4.9948917e-04   3.0158341e+00   2.9008640e+00  -3.4820027e+06
   8.5428476e-10  -4.9601811e-04   3.0154716e+00   2.9012988e+00  -3.4578304e+06
   8.5528510e-10  -4.9257115e-04   3.0151115e+00   2.9017306e+00  -3.4338254e+06
   8.5628543e-10  -4.8914812e-04   3.0147540e+00   2.9021595e+00  -3.4099868e+06
   8.5728576e-10  -4.8574885e-04   3.0143989e+00   2.9025853e+00  -3.3863133e+06
   8.5828610e-10  -4.8237318e-04   3.0140463e+00   2.9030083e+00  -3.3628039e+06
   8.5928643e-10  -4.7902094e-04   3.0136961e+00   2.9034283e+00  -3.3394573e+06
   8.6028676e-10  -4.7569198e-04   3.0133484e+00   2.9038454e+00  -3.3162725e+06
   8.6128710e-10  -4.7238613e-04   3.0130031e+00   2.9042597e+00  -3.2932484e+06
   8.6228743e-10  -4.6910323e-04   3.0126602e+00   2.9046710e+00  -3.2703838e+06
   8.6328776e-10  -4.6584313e-04   3.0123197e+00   2.9050796e+00  -3.2476776e+06
   8.6428810e-10  -4.6260566e-04   3.0119815e+00   2.9054853e+00  -3.2251288e+06
   8.6528843e-10  -4.5939067e-04   3.0116457e+00   2.9058883e+00  -3.2027362e+06
   8.6628876e-10  -4.5619800e-04   3.0113122e+00   2.9062884e+00  -3.1804988e+06
   8.6728910e-10  -4.5302750e-04   3.0109810e+00   2.9066858e+00  -3.1584155e+06
   8.6828943e-10  -4.4987901e-04   3.0106521e+00   2.9070805e+00  -3.1364853e+06
   8.6928976e-10  -4.4675239e-04   3.0103255e+00   2.9074724e+00  -3.1147070e+06
   8.7029010e-10  -4.4364747e-04   3.0100012e+00   2.9078616e+00  -3.0930797e+06
   8.7129043e-10  -4.4056411e-04   3.0096791e+00   2.9082482e+00  -3.0716022e+06
   8.7229076e-10  -4.3750217e-04   3.0093592e+00   2.9086321e+00  -3.0502737e+06
   8.7329110e-10  -4.3446148e-04   3.0090416e+00   2.9090133e+00  -3.0290929e+06
   8.7429143e-10  -4.3144191e-04   3.0087262e+00   2.9093919e+00  -3.0080590e+06
   8.7529176e-10  -4.2844331e-04   3.0084129e+00   2.9097679e+00  -2.9871709e+06
   8.7629210e-10  -4.2546553e-04   3.0081019e+00   2.9101413e+00  -2.9664276e+06
   8.7729243e-10  -4.2250843e-04   3.0077930e+00   2.9105121e+00  -2.9458280e+06
   8.7829276e-10  -4.1957186e-04   3.0074862e+00   2.9108803e+00  -2.9253713e+06
   8.7929310e-10  -4.1665569e-04   3.0071816e+00   2.9112460e+00  -2.9050563e+06
   8.8029343e-10  -4.1375977e-04   3.0068791e+00   2.9116092e+00  -2.8848822e+06
   8.8129376e-10  -4.1088395e-04   3.0065787e+00   2.9119699e+00  -2.8648480e+06
   8.8229410e-10  -4.0802811e-04   3.0062803e+00   2.9123281e+00  -2.8449526e+06
   8.8329443e-10  -4.0519211e-04   3.0059841e+00   2.9126838e+00  -2.8251952e+06
   8.8429476e-10  -4.0237579e-04   3.0056899e+00   2.9130370e+00  -2.8055747e+06
   8.8529510e-10  -3.9957904e-04   3.0053977e+00   2.9133879e+00  -2.7860903e+06
   8.8629543e-10  -3.9680171e-04   3.0051076e+00   2.9137363e+00  -2.7667410e+06
   8.8729577e-10  -3.9404367e-04   3.0048195e+00   2.9140822e+00  -2.7475259e+06
   8.8829610e-10  -3.9130478e-04   3.0045334e+00   2.9144258e+00  -2.7284439e+06
   8.8929643e-10  -3.8858492e-04   3.0042492e+00   2.9147671e+00  -2.7094943e+06
   8.9029677e-10  -3.8588394e-04   3.0039671e+00   2.9151059e+00  -2.6906761e+06
   8.9129710e-10  -3.8320173e-04   3.0036869e+00   2.9154425e+00  -2.6719884e+06
   8.9229743e-10  -3.8053814e-04   3.0034086e+00   2.9157767e+00  -2.6534303e+06
   8.9329777e-10  -3.7789305e-04   3.0031323e+00   2.9161086e+00  -2.6350008e+06
   8.9429810e-10  -3.7526634e-04   3.0028579e+00   2.9164382e+00  -2.6166992e+06
   8.9529843e-10  -3.7265787e-04   3.0025854e+00   2.9167655e+00  -2.5985245e+06
   8.9629877e-10  -3.7006751e-04   3.0023148e+00   2.9170906e+00  -2.5804758e+06
   8.9729910e-10  -3.6749515e-04   3.0020461e+00   2.9174134e+00  -2.5625523e+06
   8.9829943e-10  -3.6494066e-04   3.0017792e+00   2.9177340e+00  -2.5447531e+06
   8.9929977e-10  -3.6240391e-04   3.0015142e+00   2.9180523e+00  -2.5270773e+06
   9.0030010e-10  -3.5988478e-04   3.0012510e+00   2.9183685e+00  -2.5095241e+06
   9.0130043e-10  -3.5738315e-04   3.0009897e+00   2.9186825e+00  -2.4920927e+06
   9.0230077e-10  -3.5489889e-04   3.0007302e+00   2.9189943e+00  -2.4747822e+06
   9.0330110e-10  -3.5243189e-04   3.0004724e+00   2.9193040e+00  -2.4575917e+06
   9.0430143e-10  -3.4998203e-04   3.0002165e+00   2.9196115e+00  -2.4405205e+06
   9.0530177e-10  -3.4754918e-04   2.9999623e+00   2.9199169e+00  -2.4235677e+06
   9.0630210e-10  -3.4513324e-04   2.9997100e+00   2.9202202e+00  -2.4067325e+06
   9.0730243e-10  -3.4273407e-04   2.9994593e+00   2.9205214e+00  -2.3900140e+06
   9.0830277e-10  -3.4035158e-04   2.9992104e+00   2.9208205e+00  -2.3734116e+06
   9.0930310e-10  -3.3798563e-04   2.9989632e+00   2.9211175e+00  -2.3569243e+06
   9.1030343e-10  -3.3563612e-04   2.9987178e+00   2.9214125e+00  -2.3405513e+06
   9.1130377e-10  -3.3330293e-04   2.9984740e+00   2.9217054e+00  -2.3242920e+06
   9.1230410e-10  -3.3098595e-04   2.9982320e+00   2.9219963e+00  -2.3081455e+06
   9.1330443e-10  -3.2868506e-04   2.9979916e+00   2.9222853e+00  -2.2921109e+06
   9.1430477e-10  -3.2640016e-04   2.9977529e+00   2.9225722e+00  -2.2761876e+06
   9.1530510e-10  -3.2413113e-04   2.9975159e+00   2.9228571e+00  -2.2603748e+06
   9.1630544e-10  -3.2187787e-04   2.9972805e+00   2.9231400e+00  -2.2446717e+06
   9.1730577e-10  -3.1964025e-04   2.9970467e+00   2.9234210e+00  -2.2290775e+06
   9.1830610e-10  -3.1741819e-04   2.9968145e+00   2.9237001e+00  -2.2135916e+06
   9.1930644e-10  -3.1521156e-04   2.9965840e+00   2.9239772e+00  -2.1982130e+06
   9.2030677e-10  -3.1302026e-04   2.9963551e+00   2.9242524e+00  -2.1829412e+06
   9.2130710e-10  -3.1084419e-04   2.9961277e+00   2.9245257e+00  -2.1677753e+06
   9.2230744e-10  -3.0868323e-04   2.9959020e+00   2.9247971e+00  -2.1527147e+06
   9.2330777e-10  -3.0653729e-04   2.9956778e+00   2.9250667e+00  -2.1377586e+06
   9.2430810e-10  -3.0440625e-04   2.9954552e+00   2.9253343e+00  -2.1229062e+06
   9.2530844e-10  -3.0229002e-04   2.9952341e+00   2.9256002e+00  -2.1081569e+06
   9.2630877e-10  -3.0018850e-04   2.9950145e+00   2.9258641e+00  -2.0935100e+06
   9.2730910e-10  -2.9810157e-04   2.9947965e+00   2.9261263e+00  -2.0789646e+06
   9.2830944e-10  -2.9602915e-04   2.9945800e+00   2.9263866e+00  -2.0645203e+06
   9.2930977e-10  -2.9397112e-04   2.9943650e+00   2.9266452e+00  -2.0501761e+06
   9.3031010e-10  -2.9192740e-04   2.9941514e+00   2.9269019e+00  -2.0359315e+06
   9.3131044e-10  -2.8989787e-04   2.9939394e+00   2.9271569e+00  -2.0217858e+06
   9.3231077e-10  -2.8788244e-04   2.9937288e+00   2.9274101e+00  -2.0077382e+06
   9.3331110e-10  -2.8588102e-04   2.9935198e+00   2.9276616e+00  -1.9937881e+06
   9.3431144e-10  -2.8389351e-04   2.9933121e+00   2.9279113e+00  -1.9799348e+06
   9.3531177e-10  -2.8191980e-04   2.9931059e+00   2.9281593e+00  -1.9661777e+06
   9.3631210e-10  -2.7995981e-04   2.9929011e+00   2.9284055e+00  -1.9525161e+06
   9.3731244e-10  -2.7801343e-04   2.9926978e+00   2.9286501e+00  -1.9389492e+06
   9.3831277e-10  -2.7608058e-04   2.9924959e+00   2.9288930e+00  -1.9254766e+06
   9.3931310e-10  -2.7416116e-04   2.9922953e+00   2.9291342e+00  -1.9120974e+06
   9.4031344e-10  -2.7225508e-04   2.9920962e+00   2.9293737e+00  -1.8988111e+06
   9.4131377e-10  -2.7036225e-04   2.9918984e+00   2.9296116e+00  -1.8856170e+06
   9.4231410e-10  -2.6848256e-04   2.9917020e+00   2.9298478e+00  -1.8725145e+06
   9.4331444e-10  -2.6661594e-04   2.9915070e+00   2.9300824e+00  -1.8595029e+06
   9.4431477e-10  -2.6476228e-04   2.9913134e+00   2.9303153e+00  -1.8465817e+06
   9.4531511e-10  -2.6292151e-04   2.9911210e+00   2.9305467e+00  -1.8337501e+06
   9.4631544e-10  -2.6109353e-04   2.9909301e+00   2.9307764e+00  -1.8210076e+06
   9.4731577e-10  -2.5927825e-04   2.9907404e+00   2.9310046e+00  -1.8083536e+06
   9.4831611e-10  -2.5747559e-04   2.9905521e+00   2.9312311e+00  -1.7957874e+06
   9.4931644e-10  -2.5568545e-04   2.9903650e+00   2.9314561e+00  -1.7833084e+06
   9.5031677e-10  -2.5390775e-04   2.9901793e+00   2.9316796e+00  -1.7709161e+06
   9.5131711e-10  -2.5214241e-04   2.9899949e+00   2.9319015e+00  -1.7586097e+06
   9.5231744e-10  -2.5038933e-04   2.9898117e+00   2.9321218e+00  -1.7463889e+06
   9.5331777e-10  -2.4864844e-04   2.9896298e+00   2.9323407e+00  -1.7342528e+06
   9.5431811e-10  -2.4691964e-04   2.9894492e+00   2.9325580e+00  -1.7222010e+06
   9.5531844e-10  -2.4520286e-04   2.9892699e+00   2.9327738e+00  -1.7102329e+06
   9.5631877e-10  -2.4349801e-04   2.9890917e+00   2.9329881e+00  -1.6983478e+06
   9.5731911e-10  -2.4180501e-04   2.9889149e+00   2.9332010e+00  -1.6865453e+06
   9.5831944e-10  -2.4012377e-04   2.9887392e+00   2.9334123e+00  -1.6748247e+06
   9.5931977e-10  -2.3845421e-04   2.9885648e+00   2.9336222e+00  -1.6631855e+06
   9.6032011e-10  -2.3679626e-04   2.9883915e+00   2.9338307e+00  -1.6516271e+06
   9.6132044e-10  -2.3514983e-04   2.9882195e+00   2.9340377e+00  -1.6401489e+06
   9.6232077e-10  -2.3351484e-04   2.9880487e+00   2.9342432e+00  -1.6287504e+06
   9.6332111e-10  -2.3189122e-04   2.9878791e+00   2.9344474e+00  -1.6174311e+06
   9.6432144e-10  -2.3027887e-04   2.9877106e+00   2.9346501e+00  -1.6061904e+06
   9.6532177e-10  -2.2867774e-04   2.9875433e+00   2.9348514e+00  -1.5950277e+06
   9.6632211e-10  -2.2708773e-04   2.9873772e+00   2.9350514e+00  -1.5839425e+06
   9.6732244e-10  -2.2550877e-04   2.9872122e+00   2.9352499e+00  -1.5729343e+06
   9.6832277e-10  -2.2394079e-04   2.9870484e+00   2.9354471e+00  -1.5620025e+06
   9.6932311e-10  -2.2238370e-04   2.9868857e+00   2.9356429e+00  -1.5511466e+06
   9.7032344e-10  -2.2083743e-04   2.9867242e+00   2.9358373e+00  -1.5403661e+06
   9.7132377e-10  -2.1930192e-04   2.9865638e+00   2.9360304e+00  -1.5296605e+06
   9.7232411e-10  -2.1777707e-04   2.9864044e+00   2.9362222e+00  -1.5190292e+06
   9.7332444e-10  -2.1626282e-04   2.9862462e+00   2.9364126e+00  -1.5084717e+06
   9.7432477e-10  -2.1475909e-04   2.9860891e+00   2.9366017e+00  -1.4979875e+06
   9.7532511e-10  -2.1326582e-04   2.9859331e+00   2.9367895e+00  -1.4875762e+06
   9.7632544e-10  -2.1178293e-04   2.9857782e+00   2.9369760e+00  -1.4772371e+06
   9.7732578e-10  -2.1031034e-04   2.9856243e+00   2.9371612e+00  -1.4669698e+06
   9.7832611e-10  -2.0884798e-04   2.9854715e+00   2.9373452e+00  -1.4567739e+06
   9.7932644e-10  -2.0739579e-04   2.9853198e+00   2.9375278e+00  -1.4466487e+06
   9.8032678e-10  -2.0595370e-04   2.9851691e+00   2.9377092e+00  -1.4365939e+06
   9.8132711e-10  -2.0452163e-04   2.9850195e+00   2.9378893e+00  -1.4266088e+06
   9.8232744e-10  -2.0309951e-04   2.9848709e+00   2.9380682e+00  -1.4166932e+06
   9.8332778e-10  -2.0168727e-04   2.9847234e+00   2.9382458e+00  -1.4068463e+06
   9.8432811e-10  -2.0028485e-04   2.9845768e+00   2.9384222e+00  -1.3970679e+06
   9.8532844e-10  -1.9889218e-04   2.9844313e+00   2.9385974e+00  -1.3873574e+06
   9.8632878e-10  -1.9750919e-04   2.9842868e+00   2.9387714e+00  -1.3777143e+06
   9.8732911e-10  -1.9613581e-04   2.9841434e+00   2.9389442e+00  -1.3681382e+06
   9.8832944e-10  -1.9477198e-04   2.9840009e+00   2.9391157e+00  -1.3586286e+06
   9.8932978e-10  -1.9341763e-04   2.9838594e+00   2.9392861e+00  -1.3491851e+06
   9.9033011e-10  -1.9207269e-04   2.9837188e+00   2.9394553e+00  -1.3398071e+06
   9.9133044e-10  -1.9073710e-04   2.9835793e+00   2.9396233e+00  -1.3304943e+06
   9.9233078e-10  -1.8941079e-04   2.9834407e+00   2.9397902e+00  -1.3212461e+06
   9.9333111e-10  -1.8809370e-04   2.9833031e+00   2.9399559e+00  -1.3120622e+06
   9.9433144e-10  -1.8678577e-04   2.9831664e+00   2.9401204e+00  -1.3029421e+06
   9.9533178e-10  -1.8548693e-04   2.9830307e+00   2.9402838e+00  -1.2938853e+06
   9.9633211e-10  -1.8419711e-04   2.9828960e+00   2.9404461e+00  -1.2848914e+06
   9.9733244e-10  -1.8291627e-04   2.9827622e+00   2.9406073e+00  -1.2759600e+06
   9.9833278e-10  -1.8164432e-04   2.9826293e+00   2.9407673e+00  -1.2670906e+06
   9.9933311e-10  -1.8038122e-04   2.9824973e+00   2.9409262e+00  -1.2582829e+06
   1.0003334e-09  -1.7912690e-04   2.9823662e+00   2.9410841e+00  -1.2495363e+06
   1.0013338e-09  -1.7788129e-04   2.9822361e+00   2.9412408e+00  -1.2408505e+06
   1.0023341e-09  -1.7664435e-04   2.9821069e+00   2.9413964e+00  -1.2322250e+06
   1.0033344e-09  -1.7541600e-04   2.9819785e+00   2.9415510e+00  -1.2236594e+06
   1.0043348e-09  -1.7419619e-04   2.9818511e+00   2.9417045e+00  -1.2151533e+06
   1.0053351e-09  -1.7298487e-04   2.9817245e+00   2.9418569e+00  -1.2067063e+06
   1.0063354e-09  -1.7178196e-04   2.9815988e+00   2.9420083e+00  -1.1983180e+06
   1.0073358e-09  -1.7058741e-04   2.9814740e+00   2.9421586e+00  -1.1899880e+06
   1.0083361e-09  -1.6940117e-04   2.9813501e+00   2.9423079e+00  -1.1817158e+06
   1.0093364e-09  -1.6822317e-04   2.9812270e+00   2.9424561e+00  -1.1735011e+06
   1.0103368e-09  -1.6705336e-04   2.9811048e+00   2.9426033e+00  -1.1653435e+06
   1.0113371e-09  -1.6589169e-04   2.9809834e+00   2.9427495e+00  -1.1572425e+06
   1.0123374e-09  -1.6473809e-04   2.9808629e+00   2.9428947e+00  -1.1491978e+06
   1.0133378e-09  -1.6359251e-04   2.9807432e+00   2.9430389e+00  -1.1412090e+06
   1.0143381e-09  -1.6245489e-04   2.9806243e+00   2.9431821e+00  -1.1332756e+06
   1.0153384e-09  -1.6132518e-04   2.9805063e+00   2.9433242e+00  -1.1253974e+06
   1.0163388e-09  -1.6020333e-04   2.9803891e+00   2.9434654e+00  -1.1175740e+06
   1.0173391e-09  -1.5908927e-04   2.9802727e+00   2.9436056e+00  -1.1098049e+06
   1.0183394e-09  -1.5798296e-04   2.9801571e+00   2.9437449e+00  -1.1020897e+06
   1.0193398e-09  -1.5688434e-04   2.9800423e+00   2.9438832e+00  -1.0944282e+06
   1.0203401e-09  -1.5579336e-04   2.9799283e+00   2.9440205e+00  -1.0868199e+06
   1.0213404e-09  -1.5470996e-04   2.9798151e+00   2.9441568e+00  -1.0792644e+06
   1.0223408e-09  -1.5363409e-04   2.9797027e+00   2.9442923e+00  -1.0717614e+06
   1.0233411e-09  -1.5256570e-04   2.9795910e+00   2.9444267e+00  -1.0643106e+06
   1.0243414e-09  -1.5150474e-04   2.9794802e+00   2.9445603e+00  -1.0569115e+06
   1.0253418e-09  -1.5045116e-04   2.9793701e+00   2.9446929e+00  -1.0495639e+06
   1.0263421e-09  -1.4940490e-04   2.9792608e+00   2.9448246e+00  -1.0422672e+06
   1.0273424e-09  -1.4836591e-04   2.9791522e+00   2.9449554e+00  -1.0350213e+06
   1.0283428e-09  -1.4733415e-04   2.9790444e+00   2.9450853e+00  -1.0278257e+06
   1.0293431e-09  -1.4630956e-04   2.9789374e+00   2.9452142e+00  -1.0206802e+06
   1.0303434e-09  -1.4529209e-04   2.9788311e+00   2.9453423e+00  -1.0135842e+06
   1.0313438e-09  -1.4428170e-04   2.9787255e+00   2.9454695e+00  -1.0065376e+06
   1.0323441e-09  -1.4327833e-04   2.9786207e+00   2.9455958e+00  -9.9953992e+05
   1.0333444e-09  -1.4228193e-04   2.9785166e+00   2.9457212e+00  -9.9259087e+05
   1.0343448e-09  -1.4129247e-04   2.9784132e+00   2.9458458e+00  -9.8569011e+05
   1.0353451e-09  -1.4030988e-04   2.9783105e+00   2.9459695e+00  -9.7883729e+05
   1.0363454e-09  -1.3933412e-04   2.9782086e+00   2.9460923e+00  -9.7203209e+05
   1.0373458e-09  -1.3836515e-04   2.9781073e+00   2.9462143e+00  -9.6527418e+05
   1.0383461e-09  -1.3740292e-04   2.9780068e+00   2.9463355e+00  -9.5856322e+05
   1.0393464e-09  -1.3644737e-04   2.9779069e+00   2.9464558e+00  -9.5189889e+05
   1.0403468e-09  -1.3549847e-04   2.9778078e+00   2.9465752e+00  -9.4528087e+05
   1.0413471e-09  -1.3455616e-04   2.9777093e+00   2.9466939e+00  -9.3870884e+05
   1.0423474e-09  -1.3362041e-04   2.9776116e+00   2.9468117e+00  -9.3218247e+05
   1.0433478e-09  -1.3269116e-04   2.9775145e+00   2.9469287e+00  -9.2570146e+05
   1.0443481e-09  -1.3176837e-04   2.9774181e+00   2.9470449e+00  -9.1926548e+05
   1.0453484e-09  -1.3085200e-04   2.9773223e+00   2.9471602e+00  -9.1287422e+05
   1.0463488e-09  -1.2994200e-04   2.9772272e+00   2.9472748e+00  -9.0652737e+05
   1.0473491e-09  -1.2903833e-04   2.9771328e+00   2.9473886e+00  -9.0022463e+05
   1.0483494e-09  -1.2814094e-04   2.9770390e+00   2.9475016e+00  -8.9396569e+05
   1.0493498e-09  -1.2724979e-04   2.9769459e+00   2.9476138e+00  -8.8775024e+05
   1.0503501e-09  -1.2636483e-04   2.9768535e+00   2.9477252e+00  -8.8157798e+05
   1.0513505e-09  -1.2548603e-04   2.9767617e+00   2.9478359e+00  -8.7544861e+05
   1.0523508e-09  -1.2461334e-04   2.9766705e+00   2.9479458e+00  -8.6936184e+05
   1.0533511e-09  -1.2374671e-04   2.9765799e+00   2.9480549e+00  -8.6331737e+05
   1.0543515e-09  -1.2288611e-04   2.9764900e+00   2.9481633e+00  -8.5731490e+05
   1.0553518e-09  -1.2203150e-04   2.9764007e+00   2.9482709e+00  -8.5135414e+05
   1.0563521e-09  -1.2118282e-04   2.9763120e+00   2.9483778e+00  -8.4543481e+05
   1.0573525e-09  -1.2034005e-04   2.9762240e+00   2.9484839e+00  -8.3955661e+05
   1.0583528e-09  -1.1950314e-04   2.9761365e+00   2.9485893e+00  -8.3371927e+05
   1.0593531e-09  -1.1867204e-04   2.9760497e+00   2.9486939e+00  -8.2792249e+05
   1.0603535e-09  -1.1784672e-04   2.9759635e+00   2.9487979e+00  -8.2216599e+05
   1.0613538e-09  -1.1702715e-04   2.9758778e+00   2.9489011e+00  -8.1644951e+05
   1.0623541e-09  -1.1621327e-04   2.9757928e+00   2.9490036e+00  -8.1077275e+05
   1.0633545e-09  -1.1540505e-04   2.9757083e+00   2.9491053e+00  -8.0513544e+05
   1.0643548e-09  -1.1460245e-04   2.9756245e+00   2.9492064e+00  -7.9953731e+05
   1.0653551e-09  -1.1380543e-04   2.9755412e+00   2.9493068e+00  -7.9397808e+05
   1.0663555e-09  -1.1301395e-04   2.9754585e+00   2.9494065e+00  -7.8845750e+05
   1.0673558e-09  -1.1222797e-04   2.9753764e+00   2.9495055e+00  -7.8297527e+05
   1.0683561e-09  -1.1144746e-04   2.9752948e+00   2.9496037e+00  -7.7753115e+05
   1.0693565e-09  -1.1067238e-04   2.9752138e+00   2.9497014e+00  -7.7212487e+05
   1.0703568e-09  -1.0990269e-04   2.9751334e+00   2.9497983e+00  -7.6675616e+05
   1.0713571e-09  -1.0913834e-04   2.9750536e+00   2.9498946e+00  -7.6142477e+05
   1.0723575e-09  -1.0837932e-04   2.9749743e+00   2.9499902e+00  -7.5613042e+05
   1.0733578e-09  -1.0762557e-04   2.9748955e+00   2.9500851e+00  -7.5087288e+05
   1.0743581e-09  -1.0687706e-04   2.9748173e+00   2.9501794e+00  -7.4565187e+05
   1.0753585e-09  -1.0613375e-04   2.9747396e+00   2.9502730e+00  -7.4046716e+05
   1.0763588e-09  -1.0539562e-04   2.9746625e+00   2.9503660e+00  -7.3531847e+05
   1.0773591e-09  -1.0466261e-04   2.9745859e+00   2.9504583e+00  -7.3020558e+05
   1.0783595e-09  -1.0393471e-04   2.9745099e+00   2.9505500e+00  -7.2512822e+05
   1.0793598e-09  -1.0321186e-04   2.9744343e+00   2.9506410e+00  -7.2008615e+05
   1.0803601e-09  -1.0249404e-04   2.9743593e+00   2.9507314e+00  -7.1507912e+05
   1.0813605e-09  -1.0178122e-04   2.9742848e+00   2.9508212e+00  -7.1010690e+05
   1.0823608e-09  -1.0107334e-04   2.9742109e+00   2.9509104e+00  -7.0516923e+05
   1.0833611e-09  -1.0037040e-04   2.9741374e+00   2.9509989e+00  -7.0026589e+05
   1.0843615e-09  -9.9672334e-05   2.9740645e+00   2.9510868e+00  -6.9539662e+05
   1.0853618e-09  -9.8979127e-05   2.9739921e+00   2.9511741e+00  -6.9056120e+05
   1.0863621e-09  -9.8290740e-05   2.9739201e+00   2.9512609e+00  -6.8575939e+05
   1.0873625e-09  -9.7607140e-05   2.9738487e+00   2.9513470e+00  -6.8099096e+05
   1.0883628e-09  -9.6928293e-05   2.9737778e+00   2.9514325e+00  -6.7625567e+05
   1.0893631e-09  -9.6254166e-05   2.9737073e+00   2.9515174e+00  -6.7155329e+05
   1.0903635e-09  -9.5584728e-05   2.9736374e+00   2.9516017e+00  -6.6688360e+05
   1.0913638e-09  -9.4919944e-05   2.9735679e+00   2.9516855e+00  -6.6224637e+05
   1.0923641e-09  -9.4259782e-05   2.9734990e+00   2.9517686e+00  -6.5764137e+05
   1.0933645e-09  -9.3604212e-05   2.9734305e+00   2.9518512e+00  -6.5306839e+05
   1.0943648e-09  -9.2953200e-05   2.9733624e+00   2.9519332e+00  -6.4852718e+05
   1.0953651e-09  -9.2306714e-05   2.9732949e+00   2.9520147e+00  -6.4401755e+05
   1.0963655e-09  -9.1664724e-05   2.9732278e+00   2.9520955e+00  -6.3953926e+05
   1.0973658e-09  -9.1027199e-05   2.9731612e+00   2.9521758e+00  -6.3509210e+05
   1.0983661e-09  -9.0394106e-05   2.9730951e+00   2.9522556e+00  -6.3067585e+05
   1.0993665e-09  -8.9765416e-05   2.9730294e+00   2.9523348e+00  -6.2629030e+05
   1.1003668e-09  -8.9141098e-05   2.9729641e+00   2.9524134e+00  -6.2193524e+05
   1.1013671e-09  -8.8521121e-05   2.9728994e+00   2.9524916e+00  -6.1761045e+05
   1.1023675e-09  -8.7905455e-05   2.9728350e+00   2.9525691e+00  -6.1331572e+05
   1.1033678e-09  -8.7294071e-05   2.9727711e+00   2.9526461e+00  -6.0905084e+05
   1.1043681e-09  -8.6686937e-05   2.9727077e+00   2.9527226e+00  -6.0481562e+05
   1.1053685e-09  -8.6084026e-05   2.9726447e+00   2.9527986e+00  -6.0060983e+05
   1.1063688e-09  -8.5485308e-05   2.9725822e+00   2.9528740e+00  -5.9643328e+05
   1.1073691e-09  -8.4890752e-05   2.9725200e+00   2.9529489e+00  -5.9228576e+05
   1.1083695e-09  -8.4300331e-05   2.9724583e+00   2.9530233e+00  -5.8816708e+05
   1.1093698e-09  -8.3714016e-05   2.9723971e+00   2.9530972e+00  -5.8407702e+05
   1.1103701e-09  -8.3131778e-05   2.9723362e+00   2.9531705e+00  -5.8001540e+05
   1.1113705e-09  -8.2553589e-05   2.9722758e+00   2.9532434e+00  -5.7598201e+05
   1.1123708e-09  -8.1979421e-05   2.9722158e+00   2.9533157e+00  -5.7197666e+05
   1.1133711e-09  -8.1409245e-05   2.9721563e+00   2.9533875e+00  -5.6799916e+05
   1.1143715e-09  -8.0843035e-05   2.9720971e+00   2.9534589e+00  -5.6404930e+05
   1.1153718e-09  -8.0280761e-05   2.9720383e+00   2.9535297e+00  -5.6012690e+05
   1.1163721e-09  -7.9722398e-05   2.9719800e+00   2.9536001e+00  -5.5623177e+05
   1.1173725e-09  -7.9167918e-05   2.9719221e+00   2.9536699e+00  -5.5236372e+05
   1.1183728e-09  -7.8617293e-05   2.9718645e+00   2.9537393e+00  -5.4852256e+05
   1.1193731e-09  -7.8070498e-05   2.9718074e+00   2.9538082e+00  -5.4470810e+05
   1.1203735e-09  -7.7527505e-05   2.9717507e+00   2.9538766e+00  -5.4092016e+05
   1.1213738e-09  -7.6988288e-05   2.9716943e+00   2.9539446e+00  -5.3715856e+05
   1.1223741e-09  -7.6452821e-05   2.9716384e+00   2.9540120e+00  -5.3342310e+05
   1.1233745e-09  -7.5921078e-05   2.9715828e+00   2.9540790e+00  -5.2971361e+05
   1.1243748e-09  -7.5393032e-05   2.9715276e+00   2.9541456e+00  -5.2602991e+05
   1.1253751e-09  -7.4868658e-05   2.9714729e+00   2.9542116e+00  -5.2237182e+05
   1.1263755e-09  -7.4347931e-05   2.9714184e+00   2.9542773e+00  -5.1873916e+05
   1.1273758e-09  -7.3830826e-05   2.9713644e+00   2.9543424e+00  -5.1513176e+05
   1.1283761e-09  -7.3317316e-05   2.9713108e+00   2.9544071e+00  -5.1154943e+05
   1.1293765e-09  -7.2807377e-05   2.9712575e+00   2.9544714e+00  -5.0799201e+05
   1.1303768e-09  -7.2300985e-05   2.9712046e+00   2.9545352e+00  -5.0445933e+05
   1.1313771e-09  -7.1798114e-05   2.9711520e+00   2.9545985e+00  -5.0095120e+05
   1.1323775e-09  -7.1298740e-05   2.9710998e+00   2.9546615e+00  -4.9746746e+05
   1.1333778e-09  -7.0802839e-05   2.9710480e+00   2.9547240e+00  -4.9400794e+05
   1.1343781e-09  -7.0310387e-05   2.9709966e+00   2.9547860e+00  -4.9057247e+05
   1.1353785e-09  -6.9821359e-05   2.9709455e+00   2.9548476e+00  -4.8716089e+05
   1.1363788e-09  -6.9335732e-05   2.9708947e+00   2.9549088e+00  -4.8377302e+05
   1.1373791e-09  -6.8853483e-05   2.9708443e+00   2.9549696e+00  -4.8040871e+05
   1.1383795e-09  -6.8374587e-05   2.9707943e+00   2.9550299e+00  -4.7706779e+05
   1.1393798e-09  -6.7899021e-05   2.9707446e+00   2.9550899e+00  -4.7375010e+05
   1.1403801e-09  -6.7426763e-05   2.9706953e+00   2.9551494e+00  -4.7045547e+05
   1.1413805e-09  -6.6957789e-05   2.9706463e+00   2.9552085e+00  -4.6718375e+05
   1.1423808e-09  -6.6492076e-05   2.9705976e+00   2.9552672e+00  -4.6393477e+05
   1.1433811e-09  -6.6029603e-05   2.9705493e+00   2.9553254e+00  -4.6070838e+05
   1.1443815e-09  -6.5570345e-05   2.9705013e+00   2.9553833e+00  -4.5750443e+05
   1.1453818e-09  -6.5114281e-05   2.9704537e+00   2.9554408e+00  -4.5432275e+05
   1.1463821e-09  -6.4661389e-05   2.9704063e+00   2.9554979e+00  -4.5116319e+05
   1.1473825e-09  -6.4211647e-05   2.9703593e+00   2.9555545e+00  -4.4802560e+05
   1.1483828e-09  -6.3765032e-05   2.9703127e+00   2.9556108e+00  -4.4490983e+05
   1.1493831e-09  -6.3321523e-05   2.9702663e+00   2.9556667e+00  -4.4181571e+05
   1.1503835e-09  -6.2881099e-05   2.9702203e+00   2.9557222e+00  -4.3874311e+05
   1.1513838e-09  -6.2443737e-05   2.9701746e+00   2.9557773e+00  -4.3569187e+05
   1.1523841e-09  -6.2009417e-05   2.9701292e+00   2.9558321e+00  -4.3266185e+05
   1.1533845e-09  -6.1578118e-05   2.9700842e+00   2.9558864e+00  -4.2965289e+05
   1.1543848e-09  -6.1149818e-05   2.9700394e+00   2.9559404e+00  -4.2666486e+05
   1.1553851e-09  -6.0724497e-05   2.9699950e+00   2.9559940e+00  -4.2369760e+05
   1.1563855e-09  -6.0302133e-05   2.9699508e+00   2.9560472e+00  -4.2075097e+05
   1.1573858e-09  -5.9882707e-05   2.9699070e+00   2.9561001e+00  -4.1782483e+05
   1.1583861e-09  -5.9466198e-05   2.9698635e+00   2.9561526e+00  -4.1491903e+05
   1.1593865e-09  -5.9052586e-05   2.9698203e+00   2.9562047e+00  -4.1203344e+05
   1.1603868e-09  -5.8641850e-05   2.9697774e+00   2.9562565e+00  -4.0916791e+05
   1.1613871e-09  -5.8233970e-05   2.9697347e+00   2.9563079e+00  -4.0632230e+05
   1.1623875e-09  -5.7828928e-05   2.9696924e+00   2.9563589e+00  -4.0349648e+05
   1.1633878e-09  -5.7426702e-05   2.9696504e+00   2.9564096e+00  -4.0069031e+05
   1.1643881e-09  -5.7027273e-05   2.9696087e+00   2.9564600e+00  -3.9790365e+05
   1.1653885e-09  -5.6630623e-05   2.9695672e+00   2.9565100e+00  -3.9513636e+05
   1.1663888e-09  -5.6236731e-05   2.9695261e+00   2.9565596e+00  -3.9238832e+05
   1.1673891e-09  -5.5845578e-05   2.9694852e+00   2.9566089e+00  -3.8965938e+05
   1.1683895e-09  -5.5457146e-05   2.9694446e+00   2.9566579e+00  -3.8694942e+05
   1.1693898e-09  -5.5071415e-05   2.9694043e+00   2.9567065e+00  -3.8425830e+05
   1.1703901e-09  -5.4688367e-05   2.9693643e+00   2.9567548e+00  -3.8158589e+05
   1.1713905e-09  -5.4307982e-05   2.9693245e+00   2.9568027e+00  -3.7893207e+05
   1.1723908e-09  -5.3930244e-05   2.9692851e+00   2.9568503e+00  -3.7629670e+05
   1.1733911e-09  -5.3555132e-05   2.9692459e+00   2.9568976e+00  -3.7367965e+05
   1.1743915e-09  -5.3182629e-05   2.9692069e+00   2.9569445e+00  -3.7108080e+05
   1.1753918e-09  -5.2812717e-05   2.9691683e+00   2.9569912e+00  -3.6850002e+05
   1.1763921e-09  -5.2445377e-05   2.9691299e+00   2.9570375e+00  -3.6593718e+05
   1.1773925e-09  -5.2080592e-05   2.9690918e+00   2.9570834e+00  -3.6339216e+05
   1.1783928e-09  -5.1718345e-05   2.9690539e+00   2.9571291e+00  -3.6086484e+05
   1.1793931e-09  -5.1358616e-05   2.9690164e+00   2.9571744e+00  -3.5835510e+05
   1.1803935e-09  -5.1001390e-05   2.9689790e+00   2.9572195e+00  -3.5586280e+05
   1.1813938e-09  -5.0646648e-05   2.9689420e+00   2.9572642e+00  -3.5338784e+05
   1.1823941e-09  -5.0294373e-05   2.9689052e+00   2.9573086e+00  -3.5093008e+05
   1.1833945e-09  -4.9944548e-05   2.9688686e+00   2.9573527e+00  -3.4848942e+05
   1.1843948e-09  -4.9597156e-05   2.9688323e+00   2.9573965e+00  -3.4606572e+05
   1.1853951e-09  -4.9252180e-05   2.9687963e+00   2.9574399e+00  -3.4365888e+05
   1.1863955e-09  -4.8909603e-05   2.9687605e+00   2.9574831e+00  -3.4126878e+05
   1.1873958e-09  -4.8569409e-05   2.9687249e+00   2.9575260e+00  -3.3889529e+05
   1.1883961e-09  -4.8231581e-05   2.9686896e+00   2.9575686e+00  -3.3653831e+05
   1.1893965e-09  -4.7896103e-05   2.9686546e+00   2.9576109e+00  -3.3419772e+05
   1.1903968e-09  -4.7562957e-05   2.9686198e+00   2.9576529e+00  -3.3187340e+05
   1.1913971e-09  -4.7232129e-05   2.9685852e+00   2.9576946e+00  -3.2956524e+05
   1.1923975e-09  -4.6903602e-05   2.9685509e+00   2.9577360e+00  -3.2727314e+05
   1.1933978e-09  -4.6577359e-05   2.9685168e+00   2.9577771e+00  -3.2499697e+05
   1.1943981e-09  -4.6253386e-05   2.9684829e+00   2.9578179e+00  -3.2273664e+05
   1.1953985e-09  -4.5931665e-05   2.9684493e+00   2.9578585e+00  -3.2049202e+05
   1.1963988e-09  -4.5612183e-05   2.9684159e+00   2.9578988e+00  -3.1826300e+05
   1.1973991e-09  -4.5294922e-05   2.9683828e+00   2.9579387e+00  -3.1604949e+05
   1.1983995e-09  -4.4979868e-05   2.9683499e+00   2.9579785e+00  -3.1385137e+05
   1.1993998e-09  -4.4667005e-05   2.9683172e+00   2.9580179e+00  -3.1166853e+05
   1.2004001e-09  -4.4356318e-05   2.9682847e+00   2.9580571e+00  -3.0950088e+05
   1.2014005e-09  -4.4047792e-05   2.9682525e+00   2.9580959e+00  -3.0734830e+05
   1.2024008e-09  -4.3741411e-05   2.9682205e+00   2.9581346e+00  -3.0521068e+05
   1.2034011e-09  -4.3437162e-05   2.9681887e+00   2.9581729e+00  -3.0308793e+05
   1.2044015e-09  -4.3135028e-05   2.9681571e+00   2.9582110e+00  -3.0097994e+05
   1.2054018e-09  -4.2834996e-05   2.9681257e+00   2.9582488e+00  -2.9888661e+05
   1.2064021e-09  -4.2537051e-05   2.9680946e+00   2.9582864e+00  -2.9680784e+05
   1.2074025e-09  -4.2241178e-05   2.9680637e+00   2.9583237e+00  -2.9474352e+05
   1.2084028e-09  -4.1947363e-05   2.9680330e+00   2.9583607e+00  -2.9269356e+05
   1.2094031e-09  -4.1655591e-05   2.9680025e+00   2.9583975e+00  -2.9065785e+05
   1.2104035e-09  -4.1365848e-05   2.9679722e+00   2.9584340e+00  -2.8863630e+05
   1.2114038e-09  -4.1078121e-05   2.9679422e+00   2.9584703e+00  -2.8662881e+05
   1.2124041e-09  -4.0792395e-05   2.9679123e+00   2.9585063e+00  -2.8463527e+05
   1.2134045e-09  -4.0508656e-05   2.9678827e+00   2.9585421e+00  -2.8265560e+05
   1.2144048e-09  -4.0226891e-05   2.9678532e+00   2.9585776e+00  -2.8068970e+05
   1.2154051e-09  -3.9947085e-05   2.9678240e+00   2.9586129e+00  -2.7873747e+05
   1.2164055e-09  -3.9669225e-05   2.9677950e+00   2.9586479e+00  -2.7679881e+05
   1.2174058e-09  -3.9393298e-05   2.9677661e+00   2.9586827e+00  -2.7487363e+05
   1.2184061e-09  -3.9119290e-05   2.9677375e+00   2.9587172e+00  -2.7296184e+05
   1.2194065e-09  -3.8847188e-05   2.9677091e+00   2.9587515e+00  -2.7106335e+05
   1.2204068e-09  -3.8576978e-05   2.9676808e+00   2.9587856e+00  -2.6917806e+05
   1.2214071e-09  -3.8308648e-05   2.9676528e+00   2.9588194e+00  -2.6730588e+05
   1.2224075e-09  -3.8042184e-05   2.9676250e+00   2.9588530e+00  -2.6544672e+05
   1.2234078e-09  -3.7777573e-05   2.9675973e+00   2.9588864e+00  -2.6360049e+05
   1.2244081e-09  -3.7514803e-05   2.9675699e+00   2.9589195e+00  -2.6176709e+05
   1.2254085e-09  -3.7253860e-05   2.9675426e+00   2.9589524e+00  -2.5994645e+05
   1.2264088e-09  -3.6994733e-05   2.9675155e+00   2.9589851e+00  -2.5813847e+05
   1.2274091e-09  -3.6737407e-05   2.9674886e+00   2.9590175e+00  -2.5634306e+05
   1.2284095e-09  -3.6481871e-05   2.9674619e+00   2.9590497e+00  -2.5456013e+05
   1.2294098e-09  -3.6228113e-05   2.9674354e+00   2.9590817e+00  -2.5278961e+05
   1.2304101e-09  -3.5976119e-05   2.9674091e+00   2.9591135e+00  -2.5103140e+05
   1.2314105e-09  -3.5725879e-05   2.9673829e+00   2.9591450e+00  -2.4928541e+05
   1.2324108e-09  -3.5477378e-05   2.9673570e+00   2.9591764e+00  -2.4755157e+05
   1.2334111e-09  -3.5230606e-05   2.9673312e+00   2.9592075e+00  -2.4582978e+05
   1.2344115e-09  -3.4985551e-05   2.9673056e+00   2.9592384e+00  -2.4411997e+05
   1.2354118e-09  -3.4742200e-05   2.9672801e+00   2.9592690e+00  -2.4242205e+05
   1.2364121e-09  -3.4500541e-05   2.9672549e+00   2.9592995e+00  -2.4073593e+05
   1.2374125e-09  -3.4260563e-05   2.9672298e+00   2.9593298e+00  -2.3906155e+05
   1.2384128e-09  -3.4022255e-05   2.9672049e+00   2.9593598e+00  -2.3739880e+05
   1.2394131e-09  -3.3785604e-05   2.9671802e+00   2.9593896e+00  -2.3574762e+05
   1.2404135e-09  -3.3550598e-05   2.9671556e+00   2.9594193e+00  -2.3410792e+05
   1.2414138e-09  -3.3317228e-05   2.9671313e+00   2.9594487e+00  -2.3247963e+05
   1.2424141e-09  -3.3085480e-05   2.9671070e+00   2.9594779e+00  -2.3086266e+05
   1.2434145e-09  -3.2855345e-05   2.9670830e+00   2.9595069e+00  -2.2925693e+05
   1.2444148e-09  -3.2626810e-05   2.9670591e+00   2.9595357e+00  -2.2766238e+05
   1.2454151e-09  -3.2399864e-05   2.9670354e+00   2.9595643e+00  -2.2607891e+05
   1.2464155e-09  -3.2174498e-05   2.9670119e+00   2.9595928e+00  -2.2450645e+05
   1.2474158e-09  -3.1950698e-05   2.9669885e+00   2.9596210e+00  -2.2294493e+05
   1.2484161e-09  -3.1728455e-05   2.9669652e+00   2.9596490e+00  -2.2139427e+05
   1.2494165e-09  -3.1507758e-05   2.9669422e+00   2.9596768e+00  -2.1985439e+05
   1.2504168e-09  -3.1288596e-05   2.9669193e+00   2.9597044e+00  -2.1832522e+05
   1.2514171e-09  -3.1070959e-05   2.9668965e+00   2.9597319e+00  -2.1680668e+05
   1.2524175e-09  -3.0854835e-05   2.9668740e+00   2.9597591e+00  -2.1529871e+05
   1.2534178e-09  -3.0640214e-05   2.9668515e+00   2.9597862e+00  -2.1380122e+05
   1.2544181e-09  -3.0427087e-05   2.9668293e+00   2.9598131e+00  -2.1231415e+05
   1.2554185e-09  -3.0215441e-05   2.9668072e+00   2.9598397e+00  -2.1083742e+05
   1.2564188e-09  -3.0005268e-05   2.9667852e+00   2.9598662e+00  -2.0937096e+05
   1.2574191e-09  -2.9796556e-05   2.9667634e+00   2.9598926e+00  -2.0791470e+05
   1.2584195e-09  -2.9589296e-05   2.9667417e+00   2.9599187e+00  -2.0646857e+05
   1.2594198e-09  -2.9383478e-05   2.9667202e+00   2.9599446e+00  -2.0503249e+05
   1.2604201e-09  -2.9179091e-05   2.9666989e+00   2.9599704e+00  -2.0360640e+05
   1.2614205e-09  -2.8976126e-05   2.9666777e+00   2.9599960e+00  -2.0219023e+05
   1.2624208e-09  -2.8774573e-05   2.9666566e+00   2.9600214e+00  -2.0078391e+05
   1.2634211e-09  -2.8574421e-05   2.9666357e+00   2.9600466e+00  -1.9938736e+05
   1.2644215e-09  -2.8375662e-05   2.9666149e+00   2.9600717e+00  -1.9800053e+05
   1.2654218e-09  -2.8178285e-05   2.9665943e+00   2.9600966e+00  -1.9662335e+05
   1.2664221e-09  -2.7982281e-05   2.9665738e+00   2.9601213e+00  -1.9525574e+05
   1.2674225e-09  -2.7787640e-05   2.9665535e+00   2.9601458e+00  -1.9389765e+05
   1.2684228e-09  -2.7594353e-05   2.9665333e+00   2.9601702e+00  -1.9254900e+05
   1.2694231e-09  -2.7402410e-05   2.9665132e+00   2.9601944e+00  -1.9120973e+05
   1.2704235e-09  -2.7211803e-05   2.9664933e+00   2.9602184e+00  -1.8987977e+05
   1.2714238e-09  -2.7022521e-05   2.9664735e+00   2.9602423e+00  -1.8855906e+05
   1.2724241e-09  -2.6834556e-05   2.9664539e+00   2.9602660e+00  -1.8724754e+05
   1.2734245e-09  -2.6647898e-05   2.9664344e+00   2.9602895e+00  -1.8594514e+05
   1.2744248e-09  -2.6462539e-05   2.9664150e+00   2.9603129e+00  -1.8465180e+05
   1.2754251e-09  -2.6278468e-05   2.9663958e+00   2.9603361e+00  -1.8336745e+05
   1.2764255e-09  -2.6095678e-05   2.9663767e+00   2.9603592e+00  -1.8209203e+05
   1.2774258e-09  -2.5914160e-05   2.9663577e+00   2.9603821e+00  -1.8082549e+05
   1.2784261e-09  -2.5733904e-05   2.9663389e+00   2.9604048e+00  -1.7956775e+05
   1.2794265e-09  -2.5554902e-05   2.9663202e+00   2.9604273e+00  -1.7831876e+05
   1.2804268e-09  -2.5377145e-05   2.9663016e+00   2.9604498e+00  -1.7707846e+05
   1.2814271e-09  -2.5200624e-05   2.9662832e+00   2.9604720e+00  -1.7584678e+05
   1.2824275e-09  -2.5025331e-05   2.9662649e+00   2.9604941e+00  -1.7462367e+05
   1.2834278e-09  -2.4851257e-05   2.9662467e+00   2.9605161e+00  -1.7340907e+05
   1.2844281e-09  -2.4678394e-05   2.9662286e+00   2.9605379e+00  -1.7220291e+05
   1.2854285e-09  -2.4506734e-05   2.9662107e+00   2.9605595e+00  -1.7100514e+05
   1.2864288e-09  -2.4336267e-05   2.9661929e+00   2.9605810e+00  -1.6981571e+05
   1.2874291e-09  -2.4166986e-05   2.9661752e+00   2.9606023e+00  -1.6863454e+05
   1.2884295e-09  -2.3998883e-05   2.9661576e+00   2.9606235e+00  -1.6746159e+05
   1.2894298e-09  -2.3831949e-05   2.9661402e+00   2.9606446e+00  -1.6629680e+05
   1.2904301e-09  -2.3666176e-05   2.9661228e+00   2.9606655e+00  -1.6514011e+05
   1.2914305e-09  -2.3501556e-05   2.9661056e+00   2.9606863e+00  -1.6399146e+05
   1.2924308e-09  -2.3338081e-05   2.9660886e+00   2.9607069e+00  -1.6285080e+05
   1.2934311e-09  -2.3175743e-05   2.9660716e+00   2.9607273e+00  -1.6171808e+05
   1.2944315e-09  -2.3014534e-05   2.9660547e+00   2.9607477e+00  -1.6059323e+05
   1.2954318e-09  -2.2854447e-05   2.9660380e+00   2.9607678e+00  -1.5947621e+05
   1.2964321e-09  -2.2695473e-05   2.9660214e+00   2.9607879e+00  -1.5836695e+05
   1.2974325e-09  -2.2537605e-05   2.9660049e+00   2.9608078e+00  -1.5726541e+05
   1.2984328e-09  -2.2380834e-05   2.9659885e+00   2.9608276e+00  -1.5617153e+05
   1.2994331e-09  -2.2225155e-05   2.9659723e+00   2.9608472e+00  -1.5508526e+05
   1.3004335e-09  -2.2070558e-05   2.9659561e+00   2.9608667e+00  -1.5400655e+05
   1.3014338e-09  -2.1917036e-05   2.9659401e+00   2.9608860e+00  -1.5293533e+05
   1.3024341e-09  -2.1764583e-05   2.9659241e+00   2.9609053e+00  -1.5187157e+05
   1.3034345e-09  -2.1613190e-05   2.9659083e+00   2.9609244e+00  -1.5081521e+05
   1.3044348e-09  -2.1462849e-05   2.9658926e+00   2.9609433e+00  -1.4976619e+05
   1.3054351e-09  -2.1313555e-05   2.9658770e+00   2.9609621e+00  -1.4872447e+05
   1.3064355e-09  -2.1165299e-05   2.9658615e+00   2.9609808e+00  -1.4768999e+05
   1.3074358e-09  -2.1018074e-05   2.9658461e+00   2.9609994e+00  -1.4666271e+05
   1.3084361e-09  -2.0871873e-05   2.9658309e+00   2.9610178e+00  -1.4564257e+05
   1.3094365e-09  -2.0726689e-05   2.9658157e+00   2.9610361e+00  -1.4462953e+05
   1.3104368e-09  -2.0582515e-05   2.9658006e+00   2.9610543e+00  -1.4362354e+05
   1.3114371e-09  -2.0439344e-05   2.9657857e+00   2.9610724e+00  -1.4262454e+05
   1.3124375e-09  -2.0297169e-05   2.9657708e+00   2.9610903e+00  -1.4163249e+05
   1.3134378e-09  -2.0155982e-05   2.9657561e+00   2.9611081e+00  -1.4064734e+05
   1.3144381e-09  -2.0015778e-05   2.9657414e+00   2.9611258e+00  -1.3966904e+05
   1.3154385e-09  -1.9876549e-05   2.9657269e+00   2.9611433e+00  -1.3869754e+05
   1.3164388e-09  -1.9738288e-05   2.9657124e+00   2.9611608e+00  -1.3773281e+05
   1.3174391e-09  -1.9600989e-05   2.9656981e+00   2.9611781e+00  -1.3677478e+05
   1.3184395e-09  -1.9464645e-05   2.9656838e+00   2.9611953e+00  -1.3582341e+05
   1.3194398e-09  -1.9329250e-05   2.9656697e+00   2.9612123e+00  -1.3487867e+05
   1.3204401e-09  -1.9194796e-05   2.9656556e+00   2.9612293e+00  -1.3394049e+05
   1.3214405e-09  -1.9061277e-05   2.9656417e+00   2.9612461e+00  -1.3300884e+05
   1.3224408e-09  -1.8928687e-05   2.9656278e+00   2.9612629e+00  -1.3208367e+05
   1.3234411e-09  -1.8797020e-05   2.9656141e+00   2.9612795e+00  -1.3116493e+05
   1.3244415e-09  -1.8666268e-05   2.9656004e+00   2.9612959e+00  -1.3025258e+05
   1.3254418e-09  -1.8536425e-05   2.9655868e+00   2.9613123e+00  -1.2934658e+05
   1.3264421e-09  -1.8407486e-05   2.9655734e+00   2.9613286e+00  -1.2844688e+05
   1.3274425e-09  -1.8279444e-05   2.9655600e+00   2.9613447e+00  -1.2755344e+05
   1.3284428e-09  -1.8152292e-05   2.9655467e+00   2.9613608e+00  -1.2666621e+05
   1.3294431e-09  -1.8026025e-05   2.9655335e+00   2.9613767e+00  -1.2578515e+05
   1.3304435e-09  -1.7900636e-05   2.9655204e+00   2.9613925e+00  -1.2491022e+05
   1.3314438e-09  -1.7776119e-05   2.9655074e+00   2.9614082e+00  -1.2404138e+05
   1.3324441e-09  -1.7652469e-05   2.9654945e+00   2.9614238e+00  -1.2317858e+05
   1.3334445e-09  -1.7529678e-05   2.9654816e+00   2.9614393e+00  -1.2232178e+05
   1.3344448e-09  -1.7407741e-05   2.9654689e+00   2.9614546e+00  -1.2147093e+05
   1.3354451e-09  -1.7286653e-05   2.9654563e+00   2.9614699e+00  -1.2062601e+05
   1.3364455e-09  -1.7166407e-05   2.9654437e+00   2.9614851e+00  -1.1978696e+05
   1.3374458e-09  -1.7046997e-05   2.9654312e+00   2.9615001e+00  -1.1895375e+05
   1.3384461e-09  -1.6928418e-05   2.9654188e+00   2.9615151e+00  -1.1812634e+05
   1.3394465e-09  -1.6810664e-05   2.9654065e+00   2.9615299e+00  -1.1730468e+05
   1.3404468e-09  -1.6693729e-05   2.9653943e+00   2.9615447e+00  -1.1648873e+05
   1.3414471e-09  -1.6577607e-05   2.9653822e+00   2.9615593e+00  -1.1567846e+05
   1.3424475e-09  -1.6462293e-05   2.9653701e+00   2.9615739e+00  -1.1487383e+05
   1.3434478e-09  -1.6347781e-05   2.9653582e+00   2.9615883e+00  -1.1407479e+05
   1.3444481e-09  -1.6234065e-05   2.9653463e+00   2.9616026e+00  -1.1328131e+05
   1.3454485e-09  -1.6121141e-05   2.9653345e+00   2.9616169e+00  -1.1249335e+05
   1.3464488e-09  -1.6009002e-05   2.9653228e+00   2.9616310e+00  -1.1171087e+05
   1.3474491e-09  -1.5897643e-05   2.9653111e+00   2.9616451e+00  -1.1093383e+05
   1.3484495e-09  -1.5787058e-05   2.9652996e+00   2.9616590e+00  -1.1016219e+05
   1.3494498e-09  -1.5677243e-05   2.9652881e+00   2.9616729e+00  -1.0939593e+05
   1.3504502e-09  -1.5568192e-05   2.9652767e+00   2.9616866e+00  -1.0863499e+05
   1.3514505e-09  -1.5459899e-05   2.9652654e+00   2.9617003e+00  -1.0787934e+05
   1.3524508e-09  -1.5352359e-05   2.9652541e+00   2.9617138e+00  -1.0712895e+05
   1.3534512e-09  -1.5245568e-05   2.9652430e+00   2.9617273e+00  -1.0638378e+05
   1.3544515e-09  -1.5139519e-05   2.9652319e+00   2.9617407e+00  -1.0564380e+05
   1.3554518e-09  -1.5034208e-05   2.9652209e+00   2.9617539e+00  -1.0490896e+05
   1.3564522e-09  -1.4929630e-05   2.9652100e+00   2.9617671e+00  -1.0417923e+05
   1.3574525e-09  -1.4825778e-05   2.9651991e+00   2.9617802e+00  -1.0345458e+05
   1.3584528e-09  -1.4722650e-05   2.9651883e+00   2.9617932e+00  -1.0273496e+05
   1.3594532e-09  -1.4620238e-05   2.9651776e+00   2.9618062e+00  -1.0202035e+05
   1.3604535e-09  -1.4518539e-05   2.9651670e+00   2.9618190e+00  -1.0131072e+05
   1.3614538e-09  -1.4417548e-05   2.9651565e+00   2.9618317e+00  -1.0060602e+05
   1.3624542e-09  -1.4317259e-05   2.9651460e+00   2.9618444e+00  -9.9906216e+04
   1.3634545e-09  -1.4217667e-05   2.9651356e+00   2.9618569e+00  -9.9211283e+04
   1.3644548e-09  -1.4118768e-05   2.9651252e+00   2.9618694e+00  -9.8521184e+04
   1.3654552e-09  -1.4020557e-05   2.9651150e+00   2.9618818e+00  -9.7835885e+04
   1.3664555e-09  -1.3923030e-05   2.9651048e+00   2.9618941e+00  -9.7155353e+04
   1.3674558e-09  -1.3826180e-05   2.9650947e+00   2.9619063e+00  -9.6479554e+04
   1.3684562e-09  -1.3730005e-05   2.9650846e+00   2.9619184e+00  -9.5808455e+04
   1.3694565e-09  -1.3634498e-05   2.9650746e+00   2.9619305e+00  -9.5142024e+04
   1.3704568e-09  -1.3539656e-05   2.9650647e+00   2.9619424e+00  -9.4480229e+04
   1.3714572e-09  -1.3445473e-05   2.9650549e+00   2.9619543e+00  -9.3823037e+04
   1.3724575e-09  -1.3351945e-05   2.9650451e+00   2.9619661e+00  -9.3170415e+04
   1.3734578e-09  -1.3259068e-05   2.9650354e+00   2.9619778e+00  -9.2522334e+04
   1.3744582e-09  -1.3166838e-05   2.9650258e+00   2.9619894e+00  -9.1878759e+04
   1.3754585e-09  -1.3075248e-05   2.9650162e+00   2.9620010e+00  -9.1239662e+04
   1.3764588e-09  -1.2984296e-05   2.9650067e+00   2.9620125e+00  -9.0605009e+04
   1.3774592e-09  -1.2893976e-05   2.9649973e+00   2.9620238e+00  -8.9974771e+04
   1.3784595e-09  -1.2804285e-05   2.9649879e+00   2.9620352e+00  -8.9348916e+04
   1.3794598e-09  -1.2715217e-05   2.9649786e+00   2.9620464e+00  -8.8727415e+04
   1.3804602e-09  -1.2626769e-05   2.9649694e+00   2.9620575e+00  -8.8110237e+04
   1.3814605e-09  -1.2538937e-05   2.9649602e+00   2.9620686e+00  -8.7497351e+04
   1.3824608e-09  -1.2451715e-05   2.9649511e+00   2.9620796e+00  -8.6888728e+04
   1.3834612e-09  -1.2365100e-05   2.9649420e+00   2.9620905e+00  -8.6284339e+04
   1.3844615e-09  -1.2279087e-05   2.9649330e+00   2.9621014e+00  -8.5684153e+04
   1.3854618e-09  -1.2193673e-05   2.9649241e+00   2.9621122e+00  -8.5088142e+04
   1.3864622e-09  -1.2108853e-05   2.9649152e+00   2.9621229e+00  -8.4496277e+04
   1.3874625e-09  -1.2024623e-05   2.9649064e+00   2.9621335e+00  -8.3908528e+04
   1.3884628e-09  -1.1940979e-05   2.9648977e+00   2.9621440e+00  -8.3324868e+04
   1.3894632e-09  -1.1857916e-05   2.9648890e+00   2.9621545e+00  -8.2745267e+04
   1.3904635e-09  -1.1775431e-05   2.9648804e+00   2.9621649e+00  -8.2169698e+04
   1.3914638e-09  -1.1693521e-05   2.9648718e+00   2.9621752e+00  -8.1598132e+04
   1.3924642e-09  -1.1612179e-05   2.9648633e+00   2.9621855e+00  -8.1030542e+04
   1.3934645e-09  -1.1531404e-05   2.9648549e+00   2.9621957e+00  -8.0466899e+04
   1.3944648e-09  -1.1451191e-05   2.9648465e+00   2.9622058e+00  -7.9907177e+04
   1.3954652e-09  -1.1371535e-05   2.9648382e+00   2.9622158e+00  -7.9351349e+04
   1.3964655e-09  -1.1292434e-05   2.9648299e+00   2.9622258e+00  -7.8799386e+04
   1.3974658e-09  -1.1213883e-05   2.9648217e+00   2.9622357e+00  -7.8251263e+04
   1.3984662e-09  -1.1135878e-05   2.9648136e+00   2.9622456e+00  -7.7706952e+04
   1.3994665e-09  -1.1058416e-05   2.9648055e+00   2.9622553e+00  -7.7166427e+04
   1.4004668e-09  -1.0981492e-05   2.9647974e+00   2.9622650e+00  -7.6629662e+04
   1.4014672e-09  -1.0905104e-05   2.9647895e+00   2.9622747e+00  -7.6096631e+04
   1.4024675e-09  -1.0829247e-05   2.9647815e+00   2.9622842e+00  -7.5567307e+04
   1.4034678e-09  -1.0753918e-05   2.9647737e+00   2.9622937e+00  -7.5041665e+04
   1.4044682e-09  -1.0679112e-05   2.9647658e+00   2.9623032e+00  -7.4519679e+04
   1.4054685e-09  -1.0604827e-05   2.9647581e+00   2.9623125e+00  -7.4001324e+04
   1.4064688e-09  -1.0531059e-05   2.9647504e+00   2.9623218e+00  -7.3486574e+04
   1.4074692e-09  -1.0457804e-05   2.9647427e+00   2.9623311e+00  -7.2975405e+04
   1.4084695e-09  -1.0385059e-05   2.9647351e+00   2.9623402e+00  -7.2467791e+04
   1.4094698e-09  -1.0312819e-05   2.9647276e+00   2.9623494e+00  -7.1963708e+04
   1.4104702e-09  -1.0241082e-05   2.9647201e+00   2.9623584e+00  -7.1463131e+04
   1.4114705e-09  -1.0169844e-05   2.9647126e+00   2.9623674e+00  -7.0966036e+04
   1.4124708e-09  -1.0099101e-05   2.9647052e+00   2.9623763e+00  -7.0472399e+04
   1.4134712e-09  -1.0028851e-05   2.9646979e+00   2.9623852e+00  -6.9982195e+04
   1.4144715e-09  -9.9590892e-06   2.9646906e+00   2.9623940e+00  -6.9495401e+04
   1.4154718e-09  -9.8898127e-06   2.9646834e+00   2.9624027e+00  -6.9011994e+04
   1.4164722e-09  -9.8210181e-06   2.9646762e+00   2.9624114e+00  -6.8531948e+04
   1.4174725e-09  -9.7527020e-06   2.9646690e+00   2.9624200e+00  -6.8055241e+04
   1.4184728e-09  -9.6848611e-06   2.9646620e+00   2.9624285e+00  -6.7581851e+04
   1.4194732e-09  -9.6174921e-06   2.9646549e+00   2.9624370e+00  -6.7111753e+04
   1.4204735e-09  -9.5505917e-06   2.9646479e+00   2.9624455e+00  -6.6644925e+04
   1.4214738e-09  -9.4841567e-06   2.9646410e+00   2.9624539e+00  -6.6181344e+04
   1.4224742e-09  -9.4181838e-06   2.9646341e+00   2.9624622e+00  -6.5720988e+04
   1.4234745e-09  -9.3526699e-06   2.9646272e+00   2.9624704e+00  -6.5263833e+04
   1.4244748e-09  -9.2876116e-06   2.9646204e+00   2.9624786e+00  -6.4809859e+04
   1.4254752e-09  -9.2230059e-06   2.9646137e+00   2.9624868e+00  -6.4359042e+04
   1.4264755e-09  -9.1588495e-06   2.9646070e+00   2.9624949e+00  -6.3911361e+04
   1.4274758e-09  -9.0951395e-06   2.9646003e+00   2.9625029e+00  -6.3466794e+04
   1.4284762e-09  -9.0318726e-06   2.9645937e+00   2.9625109e+00  -6.3025320e+04
   1.4294765e-09  -8.9690458e-06   2.9645872e+00   2.9625188e+00  -6.2586916e+04
   1.4304768e-09  -8.9066560e-06   2.9645806e+00   2.9625267e+00  -6.2151561e+04
   1.4314772e-09  -8.8447002e-06   2.9645742e+00   2.9625345e+00  -6.1719235e+04
   1.4324775e-09  -8.7831754e-06   2.9645677e+00   2.9625423e+00  -6.1289916e+04
   1.4334778e-09  -8.7220785e-06   2.9645614e+00   2.9625500e+00  -6.0863583e+04
   1.4344782e-09  -8.6614066e-06   2.9645550e+00   2.9625576e+00  -6.0440216e+04
   1.4354785e-09  -8.6011568e-06   2.9645487e+00   2.9625652e+00  -6.0019793e+04
   1.4364788e-09  -8.5413260e-06   2.9645425e+00   2.9625728e+00  -5.9602295e+04
   1.4374792e-09  -8.4819115e-06   2.9645363e+00   2.9625803e+00  -5.9187701e+04
   1.4384795e-09  -8.4229102e-06   2.9645301e+00   2.9625877e+00  -5.8775991e+04
   1.4394798e-09  -8.3643193e-06   2.9645240e+00   2.9625951e+00  -5.8367144e+04
   1.4404802e-09  -8.3061360e-06   2.9645179e+00   2.9626024e+00  -5.7961141e+04
   1.4414805e-09  -8.2483575e-06   2.9645119e+00   2.9626097e+00  -5.7557963e+04
   1.4424808e-09  -8.1909808e-06   2.9645059e+00   2.9626169e+00  -5.7157588e+04
   1.4434812e-09  -8.1340032e-06   2.9644999e+00   2.9626241e+00  -5.6759999e+04
   1.4444815e-09  -8.0774220e-06   2.9644940e+00   2.9626313e+00  -5.6365175e+04
   1.4454818e-09  -8.0212344e-06   2.9644881e+00   2.9626383e+00  -5.5973098e+04
   1.4464822e-09  -7.9654376e-06   2.9644823e+00   2.9626454e+00  -5.5583748e+04
   1.4474825e-09  -7.9100289e-06   2.9644765e+00   2.9626524e+00  -5.5197106e+04
   1.4484828e-09  -7.8550057e-06   2.9644708e+00   2.9626593e+00  -5.4813153e+04
   1.4494832e-09  -7.8003652e-06   2.9644650e+00   2.9626662e+00  -5.4431871e+04
   1.4504835e-09  -7.7461047e-06   2.9644594e+00   2.9626730e+00  -5.4053241e+04
   1.4514838e-09  -7.6922218e-06   2.9644537e+00   2.9626798e+00  -5.3677245e+04
   1.4524842e-09  -7.6387136e-06   2.9644482e+00   2.9626866e+00  -5.3303865e+04
   1.4534845e-09  -7.5855776e-06   2.9644426e+00   2.9626933e+00  -5.2933081e+04
   1.4544848e-09  -7.5328113e-06   2.9644371e+00   2.9626999e+00  -5.2564877e+04
   1.4554852e-09  -7.4804120e-06   2.9644316e+00   2.9627066e+00  -5.2199233e+04
   1.4564855e-09  -7.4283771e-06   2.9644262e+00   2.9627131e+00  -5.1836133e+04
   1.4574858e-09  -7.3767043e-06   2.9644208e+00   2.9627196e+00  -5.1475559e+04
   1.4584862e-09  -7.3253909e-06   2.9644154e+00   2.9627261e+00  -5.1117493e+04
   1.4594865e-09  -7.2744344e-06   2.9644101e+00   2.9627325e+00  -5.0761918e+04
   1.4604868e-09  -7.2238323e-06   2.9644048e+00   2.9627389e+00  -5.0408815e+04
   1.4614872e-09  -7.1735823e-06   2.9643996e+00   2.9627453e+00  -5.0058169e+04
   1.4624875e-09  -7.1236818e-06   2.9643943e+00   2.9627515e+00  -4.9709962e+04
