   0.0000000e+00  -1.2188642e-01   6.3495255e+00   4.8264608e-04  -5.2130412e+08
   1.0003334e-12  -1.2136564e-01   6.3486194e+00   5.0253495e-04  -5.1990881e+08
   2.0006669e-12  -1.2084626e-01   6.3476972e+00   5.2318523e-04  -5.1851341e+08
   3.0010003e-12  -1.2032828e-01   6.3467586e+00   5.4462350e-04  -5.1711793e+08
   4.0013338e-12  -1.1981169e-01   6.3458035e+00   5.6687716e-04  -5.1572237e+08
   5.0016672e-12  -1.1929650e-01   6.3448315e+00   5.8997445e-04  -5.1432672e+08
   6.0020007e-12  -1.1878270e-01   6.3438426e+00   6.1394447e-04  -5.1293100e+08
   7.0023341e-12  -1.1827030e-01   6.3428364e+00   6.3881720e-04  -5.1153519e+08
   8.0026676e-12  -1.1775930e-01   6.3418126e+00   6.6462353e-04  -5.1013931e+08
   9.0030010e-12  -1.1724969e-01   6.3407711e+00   6.9139528e-04  -5.0874336e+08
   1.0003334e-11  -1.1674148e-01   6.3397116e+00   7.1916520e-04  -5.0734733e+08
   1.1003668e-11  -1.1623466e-01   6.3386339e+00   7.4796705e-04  -5.0595123e+08
   1.2004001e-11  -1.1572925e-01   6.3375376e+00   7.7783556e-04  -5.0455507e+08
   1.3004335e-11  -1.1522523e-01   6.3364227e+00   8.0880648e-04  -5.0315884e+08
   1.4004668e-11  -1.1472260e-01   6.3352887e+00   8.4091662e-04  -5.0176254e+08
   1.5005002e-11  -1.1422137e-01   6.3341355e+00   8.7420384e-04  -5.0036618e+08
   1.6005335e-11  -1.1372154e-01   6.3329628e+00   9.0870712e-04  -4.9896977e+08
   1.7005669e-11  -1.1322311e-01   6.3317703e+00   9.4446653e-04  -4.9757329e+08
   1.8006002e-11  -1.1272607e-01   6.3305578e+00   9.8152331e-04  -4.9617677e+08
   1.9006335e-11  -1.1223043e-01   6.3293251e+00   1.0199199e-03  -4.9478019e+08
   2.0006669e-11  -1.1173619e-01   6.3280718e+00   1.0596998e-03  -4.9338357e+08
   2.1007002e-11  -1.1124334e-01   6.3267977e+00   1.1009078e-03  -4.9198690e+08
   2.2007336e-11  -1.1075189e-01   6.3255025e+00   1.1435902e-03  -4.9059018e+08
   2.3007669e-11  -1.1026184e-01   6.3241861e+00   1.1877941e-03  -4.8919344e+08
   2.4008003e-11  -1.0977318e-01   6.3228480e+00   1.2335683e-03  -4.8779665e+08
   2.5008336e-11  -1.0928593e-01   6.3214880e+00   1.2809627e-03  -4.8639983e+08
   2.6008670e-11  -1.0880007e-01   6.3201059e+00   1.3300287e-03  -4.8500299e+08
   2.7009003e-11  -1.0831560e-01   6.3187013e+00   1.3808190e-03  -4.8360612e+08
   2.8009336e-11  -1.0783254e-01   6.3172741e+00   1.4333878e-03  -4.8220923e+08
   2.9009670e-11  -1.0735087e-01   6.3158239e+00   1.4877907e-03  -4.8081233e+08
   3.0010003e-11  -1.0687060e-01   6.3143505e+00   1.5440847e-03  -4.7941541e+08
   3.1010337e-11  -1.0639172e-01   6.3128535e+00   1.6023284e-03  -4.7801849e+08
   3.2010670e-11  -1.0591425e-01   6.3113327e+00   1.6625819e-03  -4.7662156e+08
   3.3011004e-11  -1.0543817e-01   6.3097878e+00   1.7249069e-03  -4.7522463e+08
   3.4011337e-11  -1.0496349e-01   6.3082185e+00   1.7893667e-03  -4.7382771e+08
   3.5011671e-11  -1.0449020e-01   6.3066245e+00   1.8560262e-03  -4.7243079e+08
   3.6012004e-11  -1.0401832e-01   6.3050056e+00   1.9249518e-03  -4.7103390e+08
   3.7012337e-11  -1.0354783e-01   6.3033615e+00   1.9962120e-03  -4.6963702e+08
   3.8012671e-11  -1.0307873e-01   6.3016918e+00   2.0698765e-03  -4.6824017e+08
   3.9013004e-11  -1.0261104e-01   6.2999963e+00   2.1460171e-03  -4.6684335e+08
   4.0013338e-11  -1.0214474e-01   6.2982746e+00   2.2247073e-03  -4.6544656e+08
   4.1013671e-11  -1.0167984e-01   6.2965266e+00   2.3060223e-03  -4.6404982e+08
   4.2014005e-11  -1.0121634e-01   6.2947518e+00   2.3900392e-03  -4.6265312e+08
   4.3014338e-11  -1.0075423e-01   6.2929501e+00   2.4768371e-03  -4.6125648e+08
   4.4014672e-11  -1.0029352e-01   6.2911210e+00   2.5664968e-03  -4.5985990e+08
   4.5015005e-11  -9.9834207e-02   6.2892644e+00   2.6591012e-03  -4.5846338e+08
   4.6015338e-11  -9.9376291e-02   6.2873798e+00   2.7547351e-03  -4.5706693e+08
   4.7015672e-11  -9.8919772e-02   6.2854671e+00   2.8534851e-03  -4.5567057e+08
   4.8016005e-11  -9.8464650e-02   6.2835258e+00   2.9554402e-03  -4.5427429e+08
   4.9016339e-11  -9.8010924e-02   6.2815558e+00   3.0606911e-03  -4.5287810e+08
   5.0016672e-11  -9.7558595e-02   6.2795567e+00   3.1693309e-03  -4.5148201e+08
   5.1017006e-11  -9.7107662e-02   6.2775281e+00   3.2814545e-03  -4.5008602e+08
   5.2017339e-11  -9.6658126e-02   6.2754699e+00   3.3971593e-03  -4.4869015e+08
   5.3017673e-11  -9.6209986e-02   6.2733816e+00   3.5165445e-03  -4.4729441e+08
   5.4018006e-11  -9.5763241e-02   6.2712631e+00   3.6397119e-03  -4.4589879e+08
   5.5018339e-11  -9.5317893e-02   6.2691139e+00   3.7667652e-03  -4.4450330e+08
   5.6018673e-11  -9.4873941e-02   6.2669338e+00   3.8978105e-03  -4.4310797e+08
   5.7019006e-11  -9.4431384e-02   6.2647225e+00   4.0329563e-03  -4.4171278e+08
   5.8019340e-11  -9.3990223e-02   6.2624796e+00   4.1723132e-03  -4.4031776e+08
   5.9019673e-11  -9.3550457e-02   6.2602049e+00   4.3159944e-03  -4.3892291e+08
   6.0020007e-11  -9.3112086e-02   6.2578981e+00   4.4641154e-03  -4.3752824e+08
   6.1020340e-11  -9.2675111e-02   6.2555588e+00   4.6167940e-03  -4.3613375e+08
   6.2020674e-11  -9.2239530e-02   6.2531868e+00   4.7741505e-03  -4.3473947e+08
   6.3021007e-11  -9.1805343e-02   6.2507817e+00   4.9363077e-03  -4.3334539e+08
   6.4021340e-11  -9.1372551e-02   6.2483432e+00   5.1033910e-03  -4.3195152e+08
   6.5021674e-11  -9.0941153e-02   6.2458710e+00   5.2755280e-03  -4.3055788e+08
   6.6022007e-11  -9.0511149e-02   6.2433649e+00   5.4528492e-03  -4.2916448e+08
   6.7022341e-11  -9.0082538e-02   6.2408245e+00   5.6354875e-03  -4.2777133e+08
   6.8022674e-11  -8.9655321e-02   6.2382495e+00   5.8235784e-03  -4.2637843e+08
   6.9023008e-11  -8.9229498e-02   6.2356396e+00   6.0172599e-03  -4.2498579e+08
   7.0023341e-11  -8.8805067e-02   6.2329945e+00   6.2166729e-03  -4.2359344e+08
   7.1023675e-11  -8.8382028e-02   6.2303139e+00   6.4219608e-03  -4.2220137e+08
   7.2024008e-11  -8.7960382e-02   6.2275975e+00   6.6332696e-03  -4.2080961e+08
   7.3024341e-11  -8.7540128e-02   6.2248450e+00   6.8507483e-03  -4.1941815e+08
   7.4024675e-11  -8.7121265e-02   6.2220561e+00   7.0745482e-03  -4.1802702e+08
   7.5025008e-11  -8.6703794e-02   6.2192304e+00   7.3048238e-03  -4.1663622e+08
   7.6025342e-11  -8.6287714e-02   6.2163678e+00   7.5417319e-03  -4.1524577e+08
   7.7025675e-11  -8.5873025e-02   6.2134679e+00   7.7854325e-03  -4.1385567e+08
   7.8026009e-11  -8.5459726e-02   6.2105303e+00   8.0360881e-03  -4.1246595e+08
   7.9026342e-11  -8.5047816e-02   6.2075549e+00   8.2938641e-03  -4.1107661e+08
   8.0026676e-11  -8.4637297e-02   6.2045413e+00   8.5589287e-03  -4.0968766e+08
   8.1027009e-11  -8.4228166e-02   6.2014892e+00   8.8314529e-03  -4.0829913e+08
   8.2027342e-11  -8.3820424e-02   6.1983983e+00   9.1116107e-03  -4.0691102e+08
   8.3027676e-11  -8.3414070e-02   6.1952684e+00   9.3995788e-03  -4.0552334e+08
   8.4028009e-11  -8.3009104e-02   6.1920991e+00   9.6955368e-03  -4.0413611e+08
   8.5028343e-11  -8.2605526e-02   6.1888902e+00   9.9996671e-03  -4.0274935e+08
   8.6028676e-11  -8.2203334e-02   6.1856413e+00   1.0312155e-02  -4.0136306e+08
   8.7029010e-11  -8.1802529e-02   6.1823523e+00   1.0633189e-02  -3.9997727e+08
   8.8029343e-11  -8.1403110e-02   6.1790227e+00   1.0962960e-02  -3.9859198e+08
   8.9029677e-11  -8.1005076e-02   6.1756524e+00   1.1301662e-02  -3.9720721e+08
   9.0030010e-11  -8.0608427e-02   6.1722411e+00   1.1649492e-02  -3.9582298e+08
   9.1030343e-11  -8.0213162e-02   6.1687884e+00   1.2006649e-02  -3.9443930e+08
   9.2030677e-11  -7.9819281e-02   6.1652942e+00   1.2373336e-02  -3.9305618e+08
   9.3031010e-11  -7.9426783e-02   6.1617581e+00   1.2749759e-02  -3.9167365e+08
   9.4031344e-11  -7.9035668e-02   6.1581798e+00   1.3136127e-02  -3.9029171e+08
   9.5031677e-11  -7.8645935e-02   6.1545592e+00   1.3532649e-02  -3.8891039e+08
   9.6032011e-11  -7.8257583e-02   6.1508960e+00   1.3939541e-02  -3.8752970e+08
   9.7032344e-11  -7.7870612e-02   6.1471898e+00   1.4357019e-02  -3.8614965e+08
   9.8032678e-11  -7.7485021e-02   6.1434405e+00   1.4785303e-02  -3.8477027e+08
   9.9033011e-11  -7.7100810e-02   6.1396478e+00   1.5224616e-02  -3.8339157e+08
   1.0003334e-10  -7.6717977e-02   6.1358114e+00   1.5675182e-02  -3.8201356e+08
   1.0103368e-10  -7.6336522e-02   6.1319311e+00   1.6137231e-02  -3.8063627e+08
   1.0203401e-10  -7.5956445e-02   6.1280067e+00   1.6610992e-02  -3.7925971e+08
   1.0303434e-10  -7.5577744e-02   6.1240379e+00   1.7096699e-02  -3.7788390e+08
   1.0403468e-10  -7.5200419e-02   6.1200245e+00   1.7594590e-02  -3.7650886e+08
   1.0503501e-10  -7.4824468e-02   6.1159662e+00   1.8104902e-02  -3.7513460e+08
   1.0603535e-10  -7.4449893e-02   6.1118628e+00   1.8627877e-02  -3.7376115e+08
   1.0703568e-10  -7.4076690e-02   6.1077141e+00   1.9163760e-02  -3.7238852e+08
   1.0803601e-10  -7.3704860e-02   6.1035199e+00   1.9712798e-02  -3.7101673e+08
   1.0903635e-10  -7.3334402e-02   6.0992800e+00   2.0275239e-02  -3.6964580e+08
   1.1003668e-10  -7.2965315e-02   6.0949941e+00   2.0851336e-02  -3.6827575e+08
   1.1103701e-10  -7.2597598e-02   6.0906620e+00   2.1441343e-02  -3.6690660e+08
   1.1203735e-10  -7.2231249e-02   6.0862836e+00   2.2045517e-02  -3.6553837e+08
   1.1303768e-10  -7.1866269e-02   6.0818586e+00   2.2664118e-02  -3.6417107e+08
   1.1403801e-10  -7.1502656e-02   6.0773869e+00   2.3297406e-02  -3.6280474e+08
   1.1503835e-10  -7.1140410e-02   6.0728682e+00   2.3945645e-02  -3.6143938e+08
   1.1603868e-10  -7.0779528e-02   6.0683024e+00   2.4609102e-02  -3.6007502e+08
   1.1703901e-10  -7.0420011e-02   6.0636892e+00   2.5288045e-02  -3.5871168e+08
   1.1803935e-10  -7.0061857e-02   6.0590286e+00   2.5982745e-02  -3.5734938e+08
   1.1903968e-10  -6.9705065e-02   6.0543203e+00   2.6693473e-02  -3.5598815e+08
   1.2004001e-10  -6.9349635e-02   6.0495642e+00   2.7420505e-02  -3.5462799e+08
   1.2104035e-10  -6.8995564e-02   6.0447602e+00   2.8164117e-02  -3.5326894e+08
   1.2204068e-10  -6.8642852e-02   6.0399080e+00   2.8924587e-02  -3.5191101e+08
   1.2304101e-10  -6.8291498e-02   6.0350075e+00   2.9702196e-02  -3.5055423e+08
   1.2404135e-10  -6.7941500e-02   6.0300585e+00   3.0497225e-02  -3.4919862e+08
   1.2504168e-10  -6.7592858e-02   6.0250610e+00   3.1309959e-02  -3.4784420e+08
   1.2604201e-10  -6.7245570e-02   6.0200149e+00   3.2140683e-02  -3.4649099e+08
   1.2704235e-10  -6.6899635e-02   6.0149198e+00   3.2989683e-02  -3.4513902e+08
   1.2804268e-10  -6.6555052e-02   6.0097759e+00   3.3857247e-02  -3.4378830e+08
   1.2904301e-10  -6.6211820e-02   6.0045829e+00   3.4743667e-02  -3.4243887e+08
   1.3004335e-10  -6.5869936e-02   5.9993407e+00   3.5649232e-02  -3.4109074e+08
   1.3104368e-10  -6.5529400e-02   5.9940492e+00   3.6574235e-02  -3.3974393e+08
   1.3204401e-10  -6.5190211e-02   5.9887084e+00   3.7518969e-02  -3.3839848e+08
   1.3304435e-10  -6.4852367e-02   5.9833181e+00   3.8483729e-02  -3.3705440e+08
   1.3404468e-10  -6.4515867e-02   5.9778783e+00   3.9468811e-02  -3.3571171e+08
   1.3504502e-10  -6.4180710e-02   5.9723889e+00   4.0474509e-02  -3.3437044e+08
   1.3604535e-10  -6.3846893e-02   5.9668497e+00   4.1501123e-02  -3.3303062e+08
   1.3704568e-10  -6.3514416e-02   5.9612609e+00   4.2548949e-02  -3.3169226e+08
   1.3804602e-10  -6.3183276e-02   5.9556222e+00   4.3618285e-02  -3.3035540e+08
   1.3904635e-10  -6.2853474e-02   5.9499336e+00   4.4709432e-02  -3.2902005e+08
   1.4004668e-10  -6.2525006e-02   5.9441952e+00   4.5822687e-02  -3.2768624e+08
   1.4104702e-10  -6.2197872e-02   5.9384068e+00   4.6958350e-02  -3.2635400e+08
   1.4204735e-10  -6.1872070e-02   5.9325685e+00   4.8116721e-02  -3.2502334e+08
   1.4304768e-10  -6.1547597e-02   5.9266801e+00   4.9298100e-02  -3.2369429e+08
   1.4404802e-10  -6.1224454e-02   5.9207418e+00   5.0502787e-02  -3.2236689e+08
   1.4504835e-10  -6.0902638e-02   5.9147534e+00   5.1731080e-02  -3.2104114e+08
   1.4604868e-10  -6.0582147e-02   5.9087151e+00   5.2983280e-02  -3.1971709e+08
   1.4704902e-10  -6.0262979e-02   5.9026267e+00   5.4259685e-02  -3.1839474e+08
   1.4804935e-10  -5.9945134e-02   5.8964883e+00   5.5560594e-02  -3.1707413e+08
   1.4904968e-10  -5.9628609e-02   5.8903000e+00   5.6886305e-02  -3.1575529e+08
   1.5005002e-10  -5.9313402e-02   5.8840617e+00   5.8237114e-02  -3.1443823e+08
   1.5105035e-10  -5.8999511e-02   5.8777735e+00   5.9613318e-02  -3.1312298e+08
   1.5205068e-10  -5.8686936e-02   5.8714355e+00   6.1015212e-02  -3.1180957e+08
   1.5305102e-10  -5.8375673e-02   5.8650476e+00   6.2443091e-02  -3.1049803e+08
   1.5405135e-10  -5.8065722e-02   5.8586100e+00   6.3897248e-02  -3.0918837e+08
   1.5505168e-10  -5.7757080e-02   5.8521227e+00   6.5377974e-02  -3.0788063e+08
   1.5605202e-10  -5.7449745e-02   5.8455858e+00   6.6885559e-02  -3.0657483e+08
   1.5705235e-10  -5.7143715e-02   5.8389994e+00   6.8420293e-02  -3.0527099e+08
   1.5805268e-10  -5.6838988e-02   5.8323635e+00   6.9982463e-02  -3.0396915e+08
   1.5905302e-10  -5.6535563e-02   5.8256784e+00   7.1572353e-02  -3.0266931e+08
   1.6005335e-10  -5.6233437e-02   5.8189439e+00   7.3190246e-02  -3.0137153e+08
   1.6105368e-10  -5.5932609e-02   5.8121604e+00   7.4836425e-02  -3.0007581e+08
   1.6205402e-10  -5.5633075e-02   5.8053279e+00   7.6511169e-02  -2.9878218e+08
   1.6305435e-10  -5.5334835e-02   5.7984465e+00   7.8214752e-02  -2.9749067e+08
   1.6405468e-10  -5.5037885e-02   5.7915164e+00   7.9947451e-02  -2.9620130e+08
   1.6505502e-10  -5.4742224e-02   5.7845377e+00   8.1709537e-02  -2.9491411e+08
   1.6605535e-10  -5.4447850e-02   5.7775106e+00   8.3501278e-02  -2.9362911e+08
   1.6705569e-10  -5.4154761e-02   5.7704352e+00   8.5322941e-02  -2.9234633e+08
   1.6805602e-10  -5.3862953e-02   5.7633118e+00   8.7174789e-02  -2.9106580e+08
   1.6905635e-10  -5.3572425e-02   5.7561404e+00   8.9057082e-02  -2.8978754e+08
   1.7005669e-10  -5.3283175e-02   5.7489213e+00   9.0970076e-02  -2.8851158e+08
   1.7105702e-10  -5.2995200e-02   5.7416547e+00   9.2914026e-02  -2.8723795e+08
   1.7205735e-10  -5.2708499e-02   5.7343408e+00   9.4889182e-02  -2.8596666e+08
   1.7305769e-10  -5.2423068e-02   5.7269797e+00   9.6895789e-02  -2.8469774e+08
   1.7405802e-10  -5.2138905e-02   5.7195718e+00   9.8934091e-02  -2.8343123e+08
   1.7505835e-10  -5.1856007e-02   5.7121171e+00   1.0100433e-01  -2.8216714e+08
   1.7605869e-10  -5.1574374e-02   5.7046161e+00   1.0310673e-01  -2.8090550e+08
   1.7705902e-10  -5.1294001e-02   5.6970688e+00   1.0524153e-01  -2.7964633e+08
   1.7805935e-10  -5.1014887e-02   5.6894756e+00   1.0740896e-01  -2.7838967e+08
   1.7905969e-10  -5.0737028e-02   5.6818368e+00   1.0960924e-01  -2.7713553e+08
   1.8006002e-10  -5.0460423e-02   5.6741525e+00   1.1184259e-01  -2.7588394e+08
   1.8106035e-10  -5.0185069e-02   5.6664231e+00   1.1410921e-01  -2.7463492e+08
   1.8206069e-10  -4.9910963e-02   5.6586488e+00   1.1640932e-01  -2.7338851e+08
   1.8306102e-10  -4.9638103e-02   5.6508299e+00   1.1874313e-01  -2.7214471e+08
   1.8406135e-10  -4.9366485e-02   5.6429668e+00   1.2111083e-01  -2.7090357e+08
   1.8506169e-10  -4.9096108e-02   5.6350597e+00   1.2351261e-01  -2.6966509e+08
   1.8606202e-10  -4.8826969e-02   5.6271089e+00   1.2594867e-01  -2.6842932e+08
   1.8706235e-10  -4.8559065e-02   5.6191148e+00   1.2841918e-01  -2.6719626e+08
   1.8806269e-10  -4.8292393e-02   5.6110778e+00   1.3092433e-01  -2.6596595e+08
   1.8906302e-10  -4.8026950e-02   5.6029980e+00   1.3346430e-01  -2.6473841e+08
   1.9006335e-10  -4.7762734e-02   5.5948759e+00   1.3603924e-01  -2.6351365e+08
   1.9106369e-10  -4.7499742e-02   5.5867118e+00   1.3864932e-01  -2.6229172e+08
   1.9206402e-10  -4.7237971e-02   5.5785061e+00   1.4129469e-01  -2.6107262e+08
   1.9306435e-10  -4.6977418e-02   5.5702592e+00   1.4397551e-01  -2.5985638e+08
   1.9406469e-10  -4.6718081e-02   5.5619713e+00   1.4669192e-01  -2.5864303e+08
   1.9506502e-10  -4.6459956e-02   5.5536430e+00   1.4944406e-01  -2.5743259e+08
   1.9606536e-10  -4.6203041e-02   5.5452745e+00   1.5223206e-01  -2.5622507e+08
   1.9706569e-10  -4.5947332e-02   5.5368663e+00   1.5505604e-01  -2.5502051e+08
   1.9806602e-10  -4.5692827e-02   5.5284188e+00   1.5791614e-01  -2.5381892e+08
   1.9906636e-10  -4.5439522e-02   5.5199324e+00   1.6081245e-01  -2.5262033e+08
   2.0006669e-10  -4.5187416e-02   5.5114074e+00   1.6374510e-01  -2.5142475e+08
   2.0106702e-10  -4.4936503e-02   5.5028443e+00   1.6671417e-01  -2.5023222e+08
   2.0206736e-10  -4.4686783e-02   5.4942436e+00   1.6971977e-01  -2.4904274e+08
   2.0306769e-10  -4.4438251e-02   5.4856056e+00   1.7276198e-01  -2.4785635e+08
   2.0406802e-10  -4.4190904e-02   5.4769309e+00   1.7584088e-01  -2.4667306e+08
   2.0506836e-10  -4.3944739e-02   5.4682197e+00   1.7895655e-01  -2.4549290e+08
   2.0606869e-10  -4.3699754e-02   5.4594727e+00   1.8210905e-01  -2.4431588e+08
   2.0706902e-10  -4.3455945e-02   5.4506902e+00   1.8529845e-01  -2.4314203e+08
   2.0806936e-10  -4.3213308e-02   5.4418727e+00   1.8852480e-01  -2.4197136e+08
   2.0906969e-10  -4.2971841e-02   5.4330207e+00   1.9178815e-01  -2.4080389e+08
   2.1007002e-10  -4.2731541e-02   5.4241347e+00   1.9508854e-01  -2.3963965e+08
   2.1107036e-10  -4.2492404e-02   5.4152150e+00   1.9842599e-01  -2.3847866e+08
   2.1207069e-10  -4.2254426e-02   5.4062623e+00   2.0180055e-01  -2.3732092e+08
   2.1307102e-10  -4.2017606e-02   5.3972770e+00   2.0521221e-01  -2.3616647e+08
   2.1407136e-10  -4.1781938e-02   5.3882595e+00   2.0866101e-01  -2.3501532e+08
   2.1507169e-10  -4.1547421e-02   5.3792105e+00   2.1214694e-01  -2.3386748e+08
   2.1607202e-10  -4.1314051e-02   5.3701303e+00   2.1567000e-01  -2.3272298e+08
   2.1707236e-10  -4.1081824e-02   5.3610195e+00   2.1923018e-01  -2.3158184e+08
   2.1807269e-10  -4.0850736e-02   5.3518786e+00   2.2282747e-01  -2.3044407e+08
   2.1907302e-10  -4.0620786e-02   5.3427082e+00   2.2646184e-01  -2.2930968e+08
   2.2007336e-10  -4.0391969e-02   5.3335087e+00   2.3013326e-01  -2.2817871e+08
   2.2107369e-10  -4.0164281e-02   5.3242806e+00   2.3384169e-01  -2.2705115e+08
   2.2207402e-10  -3.9937720e-02   5.3150246e+00   2.3758709e-01  -2.2592703e+08
   2.2307436e-10  -3.9712282e-02   5.3057411e+00   2.4136940e-01  -2.2480637e+08
   2.2407469e-10  -3.9487964e-02   5.2964306e+00   2.4518857e-01  -2.2368918e+08
   2.2507503e-10  -3.9264761e-02   5.2870938e+00   2.4904453e-01  -2.2257547e+08
   2.2607536e-10  -3.9042671e-02   5.2777310e+00   2.5293721e-01  -2.2146527e+08
   2.2707569e-10  -3.8821690e-02   5.2683430e+00   2.5686652e-01  -2.2035858e+08
   2.2807603e-10  -3.8601814e-02   5.2589302e+00   2.6083237e-01  -2.1925542e+08
   2.2907636e-10  -3.8383040e-02   5.2494932e+00   2.6483467e-01  -2.1815581e+08
   2.3007669e-10  -3.8165365e-02   5.2400326e+00   2.6887333e-01  -2.1705976e+08
   2.3107703e-10  -3.7948785e-02   5.2305488e+00   2.7294822e-01  -2.1596728e+08
   2.3207736e-10  -3.7733295e-02   5.2210425e+00   2.7705923e-01  -2.1487839e+08
   2.3307769e-10  -3.7518894e-02   5.2115143e+00   2.8120625e-01  -2.1379309e+08
   2.3407803e-10  -3.7305576e-02   5.2019646e+00   2.8538913e-01  -2.1271141e+08
   2.3507836e-10  -3.7093339e-02   5.1923940e+00   2.8960774e-01  -2.1163335e+08
   2.3607869e-10  -3.6882178e-02   5.1828032e+00   2.9386195e-01  -2.1055894e+08
   2.3707903e-10  -3.6672091e-02   5.1731927e+00   2.9815158e-01  -2.0948817e+08
   2.3807936e-10  -3.6463073e-02   5.1635631e+00   3.0247650e-01  -2.0842106e+08
   2.3907969e-10  -3.6255121e-02   5.1539148e+00   3.0683654e-01  -2.0735762e+08
   2.4008003e-10  -3.6048230e-02   5.1442486e+00   3.1123152e-01  -2.0629786e+08
   2.4108036e-10  -3.5842399e-02   5.1345650e+00   3.1566126e-01  -2.0524180e+08
   2.4208069e-10  -3.5637622e-02   5.1248645e+00   3.2012559e-01  -2.0418944e+08
   2.4308103e-10  -3.5433896e-02   5.1151478e+00   3.2462432e-01  -2.0314080e+08
   2.4408136e-10  -3.5231217e-02   5.1054154e+00   3.2915723e-01  -2.0209588e+08
   2.4508169e-10  -3.5029582e-02   5.0956679e+00   3.3372414e-01  -2.0105470e+08
   2.4608203e-10  -3.4828987e-02   5.0859059e+00   3.3832484e-01  -2.0001725e+08
   2.4708236e-10  -3.4629428e-02   5.0761299e+00   3.4295910e-01  -1.9898356e+08
   2.4808269e-10  -3.4430901e-02   5.0663405e+00   3.4762671e-01  -1.9795362e+08
   2.4908303e-10  -3.4233402e-02   5.0565384e+00   3.5232744e-01  -1.9692746e+08
   2.5008336e-10  -3.4036929e-02   5.0467241e+00   3.5706106e-01  -1.9590507e+08
   2.5108369e-10  -3.3841476e-02   5.0368981e+00   3.6182732e-01  -1.9488646e+08
   2.5208403e-10  -3.3647040e-02   5.0270611e+00   3.6662598e-01  -1.9387165e+08
   2.5308436e-10  -3.3453618e-02   5.0172136e+00   3.7145679e-01  -1.9286063e+08
   2.5408469e-10  -3.3261206e-02   5.0073563e+00   3.7631950e-01  -1.9185341e+08
   2.5508503e-10  -3.3069799e-02   4.9974896e+00   3.8121384e-01  -1.9085001e+08
   2.5608536e-10  -3.2879394e-02   4.9876141e+00   3.8613955e-01  -1.8985042e+08
   2.5708570e-10  -3.2689987e-02   4.9777306e+00   3.9109635e-01  -1.8885465e+08
   2.5808603e-10  -3.2501575e-02   4.9678394e+00   3.9608397e-01  -1.8786271e+08
   2.5908636e-10  -3.2314153e-02   4.9579412e+00   4.0110212e-01  -1.8687461e+08
   2.6008670e-10  -3.2127717e-02   4.9480365e+00   4.0615051e-01  -1.8589034e+08
   2.6108703e-10  -3.1942265e-02   4.9381260e+00   4.1122886e-01  -1.8490991e+08
   2.6208736e-10  -3.1757791e-02   4.9282102e+00   4.1633687e-01  -1.8393333e+08
   2.6308770e-10  -3.1574292e-02   4.9182896e+00   4.2147423e-01  -1.8296060e+08
   2.6408803e-10  -3.1391765e-02   4.9083649e+00   4.2664064e-01  -1.8199172e+08
   2.6508836e-10  -3.1210205e-02   4.8984365e+00   4.3183578e-01  -1.8102670e+08
   2.6608870e-10  -3.1029608e-02   4.8885051e+00   4.3705935e-01  -1.8006555e+08
   2.6708903e-10  -3.0849971e-02   4.8785712e+00   4.4231102e-01  -1.7910825e+08
   2.6808936e-10  -3.0671290e-02   4.8686353e+00   4.4759047e-01  -1.7815482e+08
   2.6908970e-10  -3.0493561e-02   4.8586980e+00   4.5289737e-01  -1.7720526e+08
   2.7009003e-10  -3.0316780e-02   4.8487599e+00   4.5823139e-01  -1.7625956e+08
   2.7109036e-10  -3.0140943e-02   4.8388215e+00   4.6359219e-01  -1.7531774e+08
   2.7209070e-10  -2.9966046e-02   4.8288833e+00   4.6897945e-01  -1.7437979e+08
   2.7309103e-10  -2.9792085e-02   4.8189459e+00   4.7439280e-01  -1.7344572e+08
   2.7409136e-10  -2.9619057e-02   4.8090099e+00   4.7983191e-01  -1.7251552e+08
   2.7509170e-10  -2.9446958e-02   4.7990757e+00   4.8529643e-01  -1.7158919e+08
   2.7609203e-10  -2.9275784e-02   4.7891439e+00   4.9078601e-01  -1.7066674e+08
   2.7709236e-10  -2.9105530e-02   4.7792150e+00   4.9630029e-01  -1.6974816e+08
   2.7809270e-10  -2.8936193e-02   4.7692896e+00   5.0183891e-01  -1.6883346e+08
   2.7909303e-10  -2.8767770e-02   4.7593681e+00   5.0740151e-01  -1.6792264e+08
   2.8009336e-10  -2.8600255e-02   4.7494511e+00   5.1298773e-01  -1.6701569e+08
   2.8109370e-10  -2.8433646e-02   4.7395392e+00   5.1859720e-01  -1.6611261e+08
   2.8209403e-10  -2.8267939e-02   4.7296327e+00   5.2422955e-01  -1.6521340e+08
   2.8309436e-10  -2.8103129e-02   4.7197322e+00   5.2988441e-01  -1.6431807e+08
   2.8409470e-10  -2.7939212e-02   4.7098383e+00   5.3556141e-01  -1.6342660e+08
   2.8509503e-10  -2.7776186e-02   4.6999514e+00   5.4126017e-01  -1.6253900e+08
   2.8609537e-10  -2.7614046e-02   4.6900719e+00   5.4698031e-01  -1.6165526e+08
   2.8709570e-10  -2.7452788e-02   4.6802005e+00   5.5272145e-01  -1.6077538e+08
   2.8809603e-10  -2.7292408e-02   4.6703376e+00   5.5848321e-01  -1.5989936e+08
   2.8909637e-10  -2.7132902e-02   4.6604836e+00   5.6426521e-01  -1.5902720e+08
   2.9009670e-10  -2.6974267e-02   4.6506391e+00   5.7006706e-01  -1.5815889e+08
   2.9109703e-10  -2.6816498e-02   4.6408045e+00   5.7588838e-01  -1.5729443e+08
   2.9209737e-10  -2.6659593e-02   4.6309803e+00   5.8172877e-01  -1.5643382e+08
   2.9309770e-10  -2.6503546e-02   4.6211669e+00   5.8758786e-01  -1.5557704e+08
   2.9409803e-10  -2.6348355e-02   4.6113648e+00   5.9346524e-01  -1.5472411e+08
   2.9509837e-10  -2.6194015e-02   4.6015745e+00   5.9936053e-01  -1.5387501e+08
   2.9609870e-10  -2.6040522e-02   4.5917965e+00   6.0527333e-01  -1.5302974e+08
   2.9709903e-10  -2.5887873e-02   4.5820310e+00   6.1120326e-01  -1.5218829e+08
   2.9809937e-10  -2.5736064e-02   4.5722787e+00   6.1714992e-01  -1.5135066e+08
   2.9909970e-10  -2.5585091e-02   4.5625399e+00   6.2311291e-01  -1.5051684e+08
   3.0010003e-10  -2.5434950e-02   4.5528150e+00   6.2909184e-01  -1.4968684e+08
   3.0110037e-10  -2.5285637e-02   4.5431046e+00   6.3508631e-01  -1.4886064e+08
   3.0210070e-10  -2.5137149e-02   4.5334089e+00   6.4109594e-01  -1.4803823e+08
   3.0310103e-10  -2.4989481e-02   4.5237285e+00   6.4712031e-01  -1.4721962e+08
   3.0410137e-10  -2.4842631e-02   4.5140637e+00   6.5315905e-01  -1.4640479e+08
   3.0510170e-10  -2.4696594e-02   4.5044150e+00   6.5921175e-01  -1.4559374e+08
   3.0610203e-10  -2.4551366e-02   4.4947826e+00   6.6527801e-01  -1.4478647e+08
   3.0710237e-10  -2.4406944e-02   4.4851672e+00   6.7135744e-01  -1.4398296e+08
   3.0810270e-10  -2.4263323e-02   4.4755689e+00   6.7744966e-01  -1.4318321e+08
   3.0910303e-10  -2.4120501e-02   4.4659882e+00   6.8355425e-01  -1.4238721e+08
   3.1010337e-10  -2.3978473e-02   4.4564256e+00   6.8967083e-01  -1.4159496e+08
   3.1110370e-10  -2.3837236e-02   4.4468813e+00   6.9579900e-01  -1.4080645e+08
   3.1210403e-10  -2.3696785e-02   4.4373557e+00   7.0193837e-01  -1.4002167e+08
   3.1310437e-10  -2.3557118e-02   4.4278492e+00   7.0808856e-01  -1.3924061e+08
   3.1410470e-10  -2.3418230e-02   4.4183622e+00   7.1424916e-01  -1.3846326e+08
   3.1510504e-10  -2.3280118e-02   4.4088949e+00   7.2041978e-01  -1.3768963e+08
   3.1610537e-10  -2.3142778e-02   4.3994478e+00   7.2660005e-01  -1.3691969e+08
   3.1710570e-10  -2.3006206e-02   4.3900213e+00   7.3278956e-01  -1.3615345e+08
   3.1810604e-10  -2.2870399e-02   4.3806155e+00   7.3898794e-01  -1.3539088e+08
   3.1910637e-10  -2.2735352e-02   4.3712309e+00   7.4519479e-01  -1.3463199e+08
   3.2010670e-10  -2.2601063e-02   4.3618678e+00   7.5140973e-01  -1.3387677e+08
   3.2110704e-10  -2.2467528e-02   4.3525265e+00   7.5763239e-01  -1.3312521e+08
   3.2210737e-10  -2.2334742e-02   4.3432073e+00   7.6386237e-01  -1.3237729e+08
   3.2310770e-10  -2.2202703e-02   4.3339106e+00   7.7009929e-01  -1.3163301e+08
   3.2410804e-10  -2.2071406e-02   4.3246366e+00   7.7634279e-01  -1.3089236e+08
   3.2510837e-10  -2.1940849e-02   4.3153856e+00   7.8259248e-01  -1.3015533e+08
   3.2610870e-10  -2.1811027e-02   4.3061580e+00   7.8884798e-01  -1.2942191e+08
   3.2710904e-10  -2.1681936e-02   4.2969540e+00   7.9510893e-01  -1.2869209e+08
   3.2810937e-10  -2.1553574e-02   4.2877739e+00   8.0137495e-01  -1.2796587e+08
   3.2910970e-10  -2.1425937e-02   4.2786180e+00   8.0764567e-01  -1.2724323e+08
   3.3011004e-10  -2.1299020e-02   4.2694866e+00   8.1392073e-01  -1.2652416e+08
   3.3111037e-10  -2.1172821e-02   4.2603799e+00   8.2019976e-01  -1.2580865e+08
   3.3211070e-10  -2.1047336e-02   4.2512982e+00   8.2648240e-01  -1.2509669e+08
   3.3311104e-10  -2.0922561e-02   4.2422417e+00   8.3276828e-01  -1.2438828e+08
   3.3411137e-10  -2.0798493e-02   4.2332107e+00   8.3905706e-01  -1.2368340e+08
   3.3511170e-10  -2.0675128e-02   4.2242055e+00   8.4534836e-01  -1.2298204e+08
   3.3611204e-10  -2.0552463e-02   4.2152263e+00   8.5164185e-01  -1.2228419e+08
   3.3711237e-10  -2.0430495e-02   4.2062733e+00   8.5793715e-01  -1.2158984e+08
   3.3811270e-10  -2.0309219e-02   4.1973467e+00   8.6423394e-01  -1.2089898e+08
   3.3911304e-10  -2.0188632e-02   4.1884468e+00   8.7053186e-01  -1.2021160e+08
   3.4011337e-10  -2.0068731e-02   4.1795739e+00   8.7683056e-01  -1.1952768e+08
   3.4111370e-10  -1.9949513e-02   4.1707281e+00   8.8312971e-01  -1.1884723e+08
   3.4211404e-10  -1.9830973e-02   4.1619096e+00   8.8942897e-01  -1.1817022e+08
   3.4311437e-10  -1.9713109e-02   4.1531186e+00   8.9572799e-01  -1.1749665e+08
   3.4411470e-10  -1.9595917e-02   4.1443554e+00   9.0202646e-01  -1.1682650e+08
   3.4511504e-10  -1.9479393e-02   4.1356201e+00   9.0832403e-01  -1.1615976e+08
   3.4611537e-10  -1.9363535e-02   4.1269130e+00   9.1462037e-01  -1.1549643e+08
   3.4711571e-10  -1.9248338e-02   4.1182342e+00   9.2091517e-01  -1.1483648e+08
   3.4811604e-10  -1.9133800e-02   4.1095838e+00   9.2720810e-01  -1.1417992e+08
   3.4911637e-10  -1.9019917e-02   4.1009622e+00   9.3349885e-01  -1.1352672e+08
   3.5011671e-10  -1.8906685e-02   4.0923694e+00   9.3978709e-01  -1.1287688e+08
   3.5111704e-10  -1.8794102e-02   4.0838056e+00   9.4607251e-01  -1.1223038e+08
   3.5211737e-10  -1.8682164e-02   4.0752710e+00   9.5235480e-01  -1.1158721e+08
   3.5311771e-10  -1.8570867e-02   4.0667658e+00   9.5863365e-01  -1.1094737e+08
   3.5411804e-10  -1.8460209e-02   4.0582900e+00   9.6490877e-01  -1.1031083e+08
   3.5511837e-10  -1.8350186e-02   4.0498439e+00   9.7117984e-01  -1.0967760e+08
   3.5611871e-10  -1.8240794e-02   4.0414276e+00   9.7744657e-01  -1.0904765e+08
   3.5711904e-10  -1.8132031e-02   4.0330412e+00   9.8370866e-01  -1.0842097e+08
   3.5811937e-10  -1.8023893e-02   4.0246849e+00   9.8996583e-01  -1.0779755e+08
   3.5911971e-10  -1.7916377e-02   4.0163588e+00   9.9621778e-01  -1.0717739e+08
   3.6012004e-10  -1.7809480e-02   4.0080630e+00   1.0024642e+00  -1.0656046e+08
   3.6112037e-10  -1.7703198e-02   3.9997976e+00   1.0087049e+00  -1.0594676e+08
   3.6212071e-10  -1.7597528e-02   3.9915628e+00   1.0149395e+00  -1.0533627e+08
   3.6312104e-10  -1.7492468e-02   3.9833587e+00   1.0211677e+00  -1.0472898e+08
   3.6412137e-10  -1.7388013e-02   3.9751854e+00   1.0273894e+00  -1.0412489e+08
   3.6512171e-10  -1.7284160e-02   3.9670429e+00   1.0336041e+00  -1.0352397e+08
   3.6612204e-10  -1.7180908e-02   3.9589315e+00   1.0398118e+00  -1.0292621e+08
   3.6712237e-10  -1.7078251e-02   3.9508511e+00   1.0460119e+00  -1.0233161e+08
   3.6812271e-10  -1.6976188e-02   3.9428020e+00   1.0522045e+00  -1.0174015e+08
   3.6912304e-10  -1.6874715e-02   3.9347841e+00   1.0583890e+00  -1.0115182e+08
   3.7012337e-10  -1.6773828e-02   3.9267976e+00   1.0645654e+00  -1.0056660e+08
   3.7112371e-10  -1.6673526e-02   3.9188425e+00   1.0707334e+00  -9.9984486e+07
   3.7212404e-10  -1.6573804e-02   3.9109190e+00   1.0768927e+00  -9.9405463e+07
   3.7312437e-10  -1.6474660e-02   3.9030270e+00   1.0830430e+00  -9.8829520e+07
   3.7412471e-10  -1.6376090e-02   3.8951667e+00   1.0891842e+00  -9.8256643e+07
   3.7512504e-10  -1.6278092e-02   3.8873381e+00   1.0953160e+00  -9.7686820e+07
   3.7612538e-10  -1.6180662e-02   3.8795414e+00   1.1014382e+00  -9.7120039e+07
   3.7712571e-10  -1.6083797e-02   3.8717765e+00   1.1075504e+00  -9.6556287e+07
   3.7812604e-10  -1.5987495e-02   3.8640435e+00   1.1136526e+00  -9.5995552e+07
   3.7912638e-10  -1.5891752e-02   3.8563424e+00   1.1197445e+00  -9.5437821e+07
   3.8012671e-10  -1.5796566e-02   3.8486734e+00   1.1258258e+00  -9.4883082e+07
   3.8112704e-10  -1.5701933e-02   3.8410364e+00   1.1318963e+00  -9.4331322e+07
   3.8212738e-10  -1.5607850e-02   3.8334315e+00   1.1379559e+00  -9.3782529e+07
   3.8312771e-10  -1.5514315e-02   3.8258588e+00   1.1440043e+00  -9.3236690e+07
   3.8412804e-10  -1.5421324e-02   3.8183182e+00   1.1500413e+00  -9.2693794e+07
   3.8512838e-10  -1.5328875e-02   3.8108098e+00   1.1560667e+00  -9.2153826e+07
   3.8612871e-10  -1.5236964e-02   3.8033337e+00   1.1620803e+00  -9.1616776e+07
   3.8712904e-10  -1.5145589e-02   3.7958898e+00   1.1680819e+00  -9.1082630e+07
   3.8812938e-10  -1.5054747e-02   3.7884782e+00   1.1740713e+00  -9.0551375e+07
   3.8912971e-10  -1.4964435e-02   3.7810989e+00   1.1800483e+00  -9.0023000e+07
   3.9013004e-10  -1.4874649e-02   3.7737519e+00   1.1860127e+00  -8.9497492e+07
   3.9113038e-10  -1.4785388e-02   3.7664372e+00   1.1919644e+00  -8.8974839e+07
   3.9213071e-10  -1.4696649e-02   3.7591548e+00   1.1979031e+00  -8.8455027e+07
   3.9313104e-10  -1.4608428e-02   3.7519048e+00   1.2038287e+00  -8.7938045e+07
   3.9413138e-10  -1.4520722e-02   3.7446872e+00   1.2097410e+00  -8.7423880e+07
   3.9513171e-10  -1.4433530e-02   3.7375019e+00   1.2156398e+00  -8.6912519e+07
   3.9613204e-10  -1.4346847e-02   3.7303489e+00   1.2215250e+00  -8.6403951e+07
   3.9713238e-10  -1.4260672e-02   3.7232283e+00   1.2273964e+00  -8.5898162e+07
   3.9813271e-10  -1.4175001e-02   3.7161400e+00   1.2332538e+00  -8.5395140e+07
   3.9913304e-10  -1.4089832e-02   3.7090840e+00   1.2390971e+00  -8.4894873e+07
   4.0013338e-10  -1.4005162e-02   3.7020604e+00   1.2449260e+00  -8.4397348e+07
   4.0113371e-10  -1.3920988e-02   3.6950690e+00   1.2507406e+00  -8.3902554e+07
   4.0213404e-10  -1.3837308e-02   3.6881100e+00   1.2565405e+00  -8.3410477e+07
   4.0313438e-10  -1.3754118e-02   3.6811832e+00   1.2623257e+00  -8.2921105e+07
   4.0413471e-10  -1.3671417e-02   3.6742886e+00   1.2680959e+00  -8.2434426e+07
   4.0513505e-10  -1.3589201e-02   3.6674262e+00   1.2738512e+00  -8.1950428e+07
   4.0613538e-10  -1.3507468e-02   3.6605961e+00   1.2795912e+00  -8.1469098e+07
   4.0713571e-10  -1.3426215e-02   3.6537981e+00   1.2853160e+00  -8.0990424e+07
   4.0813605e-10  -1.3345440e-02   3.6470322e+00   1.2910253e+00  -8.0514394e+07
   4.0913638e-10  -1.3265139e-02   3.6402984e+00   1.2967190e+00  -8.0040995e+07
   4.1013671e-10  -1.3185310e-02   3.6335967e+00   1.3023970e+00  -7.9570215e+07
   4.1113705e-10  -1.3105951e-02   3.6269270e+00   1.3080592e+00  -7.9102043e+07
   4.1213738e-10  -1.3027059e-02   3.6202892e+00   1.3137054e+00  -7.8636465e+07
   4.1313771e-10  -1.2948632e-02   3.6136834e+00   1.3193355e+00  -7.8173470e+07
   4.1413805e-10  -1.2870666e-02   3.6071095e+00   1.3249495e+00  -7.7713046e+07
   4.1513838e-10  -1.2793159e-02   3.6005675e+00   1.3305471e+00  -7.7255180e+07
   4.1613871e-10  -1.2716109e-02   3.5940572e+00   1.3361283e+00  -7.6799860e+07
   4.1713905e-10  -1.2639513e-02   3.5875787e+00   1.3416930e+00  -7.6347074e+07
   4.1813938e-10  -1.2563369e-02   3.5811319e+00   1.3472410e+00  -7.5896811e+07
   4.1913971e-10  -1.2487674e-02   3.5747167e+00   1.3527723e+00  -7.5449058e+07
   4.2014005e-10  -1.2412426e-02   3.5683331e+00   1.3582867e+00  -7.5003803e+07
   4.2114038e-10  -1.2337621e-02   3.5619810e+00   1.3637842e+00  -7.4561034e+07
   4.2214071e-10  -1.2263258e-02   3.5556604e+00   1.3692647e+00  -7.4120740e+07
   4.2314105e-10  -1.2189335e-02   3.5493713e+00   1.3747280e+00  -7.3682908e+07
   4.2414138e-10  -1.2115848e-02   3.5431134e+00   1.3801741e+00  -7.3247526e+07
   4.2514171e-10  -1.2042795e-02   3.5368869e+00   1.3856029e+00  -7.2814583e+07
   4.2614205e-10  -1.1970174e-02   3.5306915e+00   1.3910142e+00  -7.2384067e+07
   4.2714238e-10  -1.1897983e-02   3.5245273e+00   1.3964081e+00  -7.1955966e+07
   4.2814271e-10  -1.1826218e-02   3.5183942e+00   1.4017845e+00  -7.1530268e+07
   4.2914305e-10  -1.1754878e-02   3.5122921e+00   1.4071432e+00  -7.1106962e+07
   4.3014338e-10  -1.1683961e-02   3.5062209e+00   1.4124841e+00  -7.0686036e+07
   4.3114371e-10  -1.1613463e-02   3.5001806e+00   1.4178073e+00  -7.0267477e+07
   4.3214405e-10  -1.1543382e-02   3.4941711e+00   1.4231126e+00  -6.9851276e+07
   4.3314438e-10  -1.1473717e-02   3.4881923e+00   1.4284000e+00  -6.9437419e+07
   4.3414471e-10  -1.1404464e-02   3.4822441e+00   1.4336693e+00  -6.9025896e+07
   4.3514505e-10  -1.1335622e-02   3.4763265e+00   1.4389206e+00  -6.8616694e+07
   4.3614538e-10  -1.1267188e-02   3.4704393e+00   1.4441538e+00  -6.8209803e+07
   4.3714572e-10  -1.1199160e-02   3.4645826e+00   1.4493688e+00  -6.7805211e+07
   4.3814605e-10  -1.1131535e-02   3.4587561e+00   1.4545655e+00  -6.7402906e+07
   4.3914638e-10  -1.1064312e-02   3.4529599e+00   1.4597439e+00  -6.7002877e+07
   4.4014672e-10  -1.0997488e-02   3.4471939e+00   1.4649039e+00  -6.6605113e+07
   4.4114705e-10  -1.0931060e-02   3.4414578e+00   1.4700456e+00  -6.6209602e+07
   4.4214738e-10  -1.0865027e-02   3.4357518e+00   1.4751687e+00  -6.5816334e+07
   4.4314772e-10  -1.0799386e-02   3.4300757e+00   1.4802734e+00  -6.5425296e+07
   4.4414805e-10  -1.0734135e-02   3.4244293e+00   1.4853595e+00  -6.5036477e+07
   4.4514838e-10  -1.0669271e-02   3.4188127e+00   1.4904270e+00  -6.4649867e+07
   4.4614872e-10  -1.0604794e-02   3.4132256e+00   1.4954758e+00  -6.4265455e+07
   4.4714905e-10  -1.0540699e-02   3.4076681e+00   1.5005060e+00  -6.3883228e+07
   4.4814938e-10  -1.0476986e-02   3.4021400e+00   1.5055174e+00  -6.3503176e+07
   4.4914972e-10  -1.0413652e-02   3.3966413e+00   1.5105101e+00  -6.3125289e+07
   4.5015005e-10  -1.0350695e-02   3.3911718e+00   1.5154840e+00  -6.2749554e+07
   4.5115038e-10  -1.0288113e-02   3.3857314e+00   1.5204391e+00  -6.2375962e+07
   4.5215072e-10  -1.0225903e-02   3.3803201e+00   1.5253753e+00  -6.2004500e+07
   4.5315105e-10  -1.0164064e-02   3.3749377e+00   1.5302927e+00  -6.1635159e+07
   4.5415138e-10  -1.0102593e-02   3.3695842e+00   1.5351911e+00  -6.1267927e+07
   4.5515172e-10  -1.0041488e-02   3.3642595e+00   1.5400706e+00  -6.0902793e+07
   4.5615205e-10  -9.9807475e-03   3.3589634e+00   1.5449311e+00  -6.0539748e+07
   4.5715238e-10  -9.9203690e-03   3.3536959e+00   1.5497726e+00  -6.0178779e+07
   4.5815272e-10  -9.8603505e-03   3.3484568e+00   1.5545952e+00  -5.9819877e+07
   4.5915305e-10  -9.8006899e-03   3.3432461e+00   1.5593987e+00  -5.9463030e+07
   4.6015338e-10  -9.7413853e-03   3.3380636e+00   1.5641832e+00  -5.9108229e+07
   4.6115372e-10  -9.6824345e-03   3.3329093e+00   1.5689486e+00  -5.8755462e+07
   4.6215405e-10  -9.6238355e-03   3.3277830e+00   1.5736950e+00  -5.8404718e+07
   4.6315438e-10  -9.5655863e-03   3.3226847e+00   1.5784223e+00  -5.8055989e+07
   4.6415472e-10  -9.5076849e-03   3.3176142e+00   1.5831305e+00  -5.7709262e+07
   4.6515505e-10  -9.4501293e-03   3.3125714e+00   1.5878196e+00  -5.7364527e+07
   4.6615539e-10  -9.3929175e-03   3.3075563e+00   1.5924896e+00  -5.7021775e+07
   4.6715572e-10  -9.3360476e-03   3.3025687e+00   1.5971405e+00  -5.6680995e+07
   4.6815605e-10  -9.2795174e-03   3.2976085e+00   1.6017723e+00  -5.6342176e+07
   4.6915639e-10  -9.2233252e-03   3.2926757e+00   1.6063850e+00  -5.6005308e+07
   4.7015672e-10  -9.1674690e-03   3.2877700e+00   1.6109785e+00  -5.5670381e+07
   4.7115705e-10  -9.1119468e-03   3.2828914e+00   1.6155530e+00  -5.5337386e+07
   4.7215739e-10  -9.0567567e-03   3.2780399e+00   1.6201083e+00  -5.5006310e+07
   4.7315772e-10  -9.0018967e-03   3.2732152e+00   1.6246445e+00  -5.4677146e+07
   4.7415805e-10  -8.9473650e-03   3.2684173e+00   1.6291616e+00  -5.4349881e+07
   4.7515839e-10  -8.8931597e-03   3.2636460e+00   1.6336596e+00  -5.4024508e+07
   4.7615872e-10  -8.8392789e-03   3.2589013e+00   1.6381385e+00  -5.3701014e+07
   4.7715905e-10  -8.7857207e-03   3.2541831e+00   1.6425983e+00  -5.3379392e+07
   4.7815939e-10  -8.7324833e-03   3.2494911e+00   1.6470390e+00  -5.3059630e+07
   4.7915972e-10  -8.6795647e-03   3.2448255e+00   1.6514607e+00  -5.2741718e+07
   4.8016005e-10  -8.6269632e-03   3.2401859e+00   1.6558633e+00  -5.2425648e+07
   4.8116039e-10  -8.5746769e-03   3.2355723e+00   1.6602468e+00  -5.2111408e+07
   4.8216072e-10  -8.5227040e-03   3.2309847e+00   1.6646113e+00  -5.1798991e+07
   4.8316105e-10  -8.4710427e-03   3.2264228e+00   1.6689568e+00  -5.1488384e+07
   4.8416139e-10  -8.4196911e-03   3.2218866e+00   1.6732833e+00  -5.1179580e+07
   4.8516172e-10  -8.3686475e-03   3.2173759e+00   1.6775909e+00  -5.0872569e+07
   4.8616205e-10  -8.3179100e-03   3.2128907e+00   1.6818794e+00  -5.0567340e+07
   4.8716239e-10  -8.2674770e-03   3.2084309e+00   1.6861490e+00  -5.0263884e+07
   4.8816272e-10  -8.2173466e-03   3.2039963e+00   1.6903997e+00  -4.9962192e+07
   4.8916305e-10  -8.1675170e-03   3.1995868e+00   1.6946315e+00  -4.9662255e+07
   4.9016339e-10  -8.1179866e-03   3.1952023e+00   1.6988444e+00  -4.9364062e+07
   4.9116372e-10  -8.0687535e-03   3.1908426e+00   1.7030385e+00  -4.9067605e+07
   4.9216405e-10  -8.0198161e-03   3.1865078e+00   1.7072137e+00  -4.8772874e+07
   4.9316439e-10  -7.9711726e-03   3.1821977e+00   1.7113701e+00  -4.8479860e+07
   4.9416472e-10  -7.9228213e-03   3.1779121e+00   1.7155077e+00  -4.8188554e+07
   4.9516506e-10  -7.8747605e-03   3.1736509e+00   1.7196266e+00  -4.7898946e+07
   4.9616539e-10  -7.8269885e-03   3.1694141e+00   1.7237268e+00  -4.7611027e+07
   4.9716572e-10  -7.7795037e-03   3.1652015e+00   1.7278082e+00  -4.7324789e+07
   4.9816606e-10  -7.7323043e-03   3.1610130e+00   1.7318710e+00  -4.7040221e+07
   4.9916639e-10  -7.6853886e-03   3.1568485e+00   1.7359152e+00  -4.6757316e+07
   5.0016672e-10  -7.6387552e-03   3.1527079e+00   1.7399408e+00  -4.6476063e+07
   5.0116706e-10  -7.5924021e-03   3.1485911e+00   1.7439478e+00  -4.6196454e+07
   5.0216739e-10  -7.5463280e-03   3.1444980e+00   1.7479362e+00  -4.5918480e+07
   5.0316772e-10  -7.5005310e-03   3.1404283e+00   1.7519062e+00  -4.5642133e+07
   5.0416806e-10  -7.4550096e-03   3.1363822e+00   1.7558577e+00  -4.5367402e+07
   5.0516839e-10  -7.4097622e-03   3.1323593e+00   1.7597908e+00  -4.5094280e+07
   5.0616872e-10  -7.3647872e-03   3.1283597e+00   1.7637055e+00  -4.4822758e+07
   5.0716906e-10  -7.3200829e-03   3.1243832e+00   1.7676018e+00  -4.4552827e+07
   5.0816939e-10  -7.2756478e-03   3.1204296e+00   1.7714798e+00  -4.4284478e+07
   5.0916972e-10  -7.2314804e-03   3.1164990e+00   1.7753396e+00  -4.4017702e+07
   5.1017006e-10  -7.1875789e-03   3.1125911e+00   1.7791811e+00  -4.3752491e+07
   5.1117039e-10  -7.1439420e-03   3.1087058e+00   1.7830044e+00  -4.3488837e+07
   5.1217072e-10  -7.1005679e-03   3.1048432e+00   1.7868095e+00  -4.3226730e+07
   5.1317106e-10  -7.0574553e-03   3.1010029e+00   1.7905965e+00  -4.2966163e+07
   5.1417139e-10  -7.0146024e-03   3.0971850e+00   1.7943655e+00  -4.2707127e+07
   5.1517172e-10  -6.9720080e-03   3.0933893e+00   1.7981164e+00  -4.2449613e+07
   5.1617206e-10  -6.9296703e-03   3.0896157e+00   1.8018494e+00  -4.2193613e+07
   5.1717239e-10  -6.8875878e-03   3.0858641e+00   1.8055644e+00  -4.1939119e+07
   5.1817272e-10  -6.8457592e-03   3.0821344e+00   1.8092615e+00  -4.1686123e+07
   5.1917306e-10  -6.8041829e-03   3.0784265e+00   1.8129407e+00  -4.1434615e+07
   5.2017339e-10  -6.7628574e-03   3.0747402e+00   1.8166022e+00  -4.1184588e+07
   5.2117372e-10  -6.7217812e-03   3.0710755e+00   1.8202459e+00  -4.0936034e+07
   5.2217406e-10  -6.6809528e-03   3.0674322e+00   1.8238718e+00  -4.0688945e+07
   5.2317439e-10  -6.6403709e-03   3.0638103e+00   1.8274801e+00  -4.0443312e+07
   5.2417472e-10  -6.6000339e-03   3.0602096e+00   1.8310708e+00  -4.0199128e+07
   5.2517506e-10  -6.5599404e-03   3.0566300e+00   1.8346439e+00  -3.9956384e+07
   5.2617539e-10  -6.5200890e-03   3.0530714e+00   1.8381995e+00  -3.9715072e+07
   5.2717573e-10  -6.4804783e-03   3.0495338e+00   1.8417376e+00  -3.9475184e+07
   5.2817606e-10  -6.4411067e-03   3.0460169e+00   1.8452583e+00  -3.9236713e+07
   5.2917639e-10  -6.4019730e-03   3.0425207e+00   1.8487617e+00  -3.8999651e+07
   5.3017673e-10  -6.3630756e-03   3.0390452e+00   1.8522477e+00  -3.8763989e+07
   5.3117706e-10  -6.3244133e-03   3.0355901e+00   1.8557164e+00  -3.8529721e+07
   5.3217739e-10  -6.2859845e-03   3.0321553e+00   1.8591679e+00  -3.8296837e+07
   5.3317773e-10  -6.2477880e-03   3.0287408e+00   1.8626023e+00  -3.8065331e+07
   5.3417806e-10  -6.2098224e-03   3.0253465e+00   1.8660195e+00  -3.7835195e+07
   5.3517839e-10  -6.1720862e-03   3.0219723e+00   1.8694196e+00  -3.7606421e+07
   5.3617873e-10  -6.1345782e-03   3.0186180e+00   1.8728028e+00  -3.7379001e+07
   5.3717906e-10  -6.0972970e-03   3.0152835e+00   1.8761690e+00  -3.7152928e+07
   5.3817939e-10  -6.0602412e-03   3.0119687e+00   1.8795183e+00  -3.6928195e+07
   5.3917973e-10  -6.0234095e-03   3.0086736e+00   1.8828507e+00  -3.6704793e+07
   5.4018006e-10  -5.9868006e-03   3.0053981e+00   1.8861664e+00  -3.6482716e+07
   5.4118039e-10  -5.9504131e-03   3.0021419e+00   1.8894653e+00  -3.6261955e+07
   5.4218073e-10  -5.9142458e-03   2.9989051e+00   1.8927475e+00  -3.6042504e+07
   5.4318106e-10  -5.8782973e-03   2.9956875e+00   1.8960131e+00  -3.5824355e+07
   5.4418139e-10  -5.8425664e-03   2.9924890e+00   1.8992621e+00  -3.5607502e+07
   5.4518173e-10  -5.8070517e-03   2.9893095e+00   1.9024946e+00  -3.5391935e+07
   5.4618206e-10  -5.7717520e-03   2.9861489e+00   1.9057106e+00  -3.5177649e+07
   5.4718239e-10  -5.7366659e-03   2.9830071e+00   1.9089102e+00  -3.4964636e+07
   5.4818273e-10  -5.7017923e-03   2.9798841e+00   1.9120935e+00  -3.4752889e+07
   5.4918306e-10  -5.6671298e-03   2.9767796e+00   1.9152605e+00  -3.4542401e+07
   5.5018339e-10  -5.6326772e-03   2.9736936e+00   1.9184112e+00  -3.4333164e+07
   5.5118373e-10  -5.5984333e-03   2.9706261e+00   1.9215458e+00  -3.4125172e+07
   5.5218406e-10  -5.5643967e-03   2.9675768e+00   1.9246642e+00  -3.3918417e+07
   5.5318439e-10  -5.5305664e-03   2.9645458e+00   1.9277666e+00  -3.3712893e+07
   5.5418473e-10  -5.4969410e-03   2.9615328e+00   1.9308529e+00  -3.3508592e+07
   5.5518506e-10  -5.4635193e-03   2.9585379e+00   1.9339233e+00  -3.3305508e+07
   5.5618540e-10  -5.4303001e-03   2.9555608e+00   1.9369778e+00  -3.3103634e+07
   5.5718573e-10  -5.3972822e-03   2.9526016e+00   1.9400165e+00  -3.2902963e+07
   5.5818606e-10  -5.3644645e-03   2.9496601e+00   1.9430394e+00  -3.2703487e+07
   5.5918640e-10  -5.3318456e-03   2.9467362e+00   1.9460466e+00  -3.2505201e+07
   5.6018673e-10  -5.2994245e-03   2.9438298e+00   1.9490382e+00  -3.2308098e+07
   5.6118706e-10  -5.2671999e-03   2.9409408e+00   1.9520141e+00  -3.2112170e+07
   5.6218740e-10  -5.2351707e-03   2.9380691e+00   1.9549745e+00  -3.1917411e+07
   5.6318773e-10  -5.2033358e-03   2.9352147e+00   1.9579194e+00  -3.1723814e+07
   5.6418806e-10  -5.1716938e-03   2.9323774e+00   1.9608489e+00  -3.1531374e+07
   5.6518840e-10  -5.1402438e-03   2.9295571e+00   1.9637630e+00  -3.1340082e+07
   5.6618873e-10  -5.1089845e-03   2.9267538e+00   1.9666619e+00  -3.1149933e+07
   5.6718906e-10  -5.0779149e-03   2.9239673e+00   1.9695454e+00  -3.0960920e+07
   5.6818940e-10  -5.0470337e-03   2.9211975e+00   1.9724138e+00  -3.0773037e+07
   5.6918973e-10  -5.0163398e-03   2.9184444e+00   1.9752671e+00  -3.0586277e+07
   5.7019006e-10  -4.9858323e-03   2.9157079e+00   1.9781053e+00  -3.0400634e+07
   5.7119040e-10  -4.9555098e-03   2.9129878e+00   1.9809285e+00  -3.0216101e+07
   5.7219073e-10  -4.9253713e-03   2.9102841e+00   1.9837368e+00  -3.0032672e+07
   5.7319106e-10  -4.8954158e-03   2.9075967e+00   1.9865302e+00  -2.9850340e+07
   5.7419140e-10  -4.8656420e-03   2.9049255e+00   1.9893087e+00  -2.9669100e+07
   5.7519173e-10  -4.8360490e-03   2.9022704e+00   1.9920725e+00  -2.9488946e+07
   5.7619206e-10  -4.8066357e-03   2.8996313e+00   1.9948216e+00  -2.9309870e+07
   5.7719240e-10  -4.7774009e-03   2.8970081e+00   1.9975561e+00  -2.9131866e+07
   5.7819273e-10  -4.7483436e-03   2.8944008e+00   2.0002759e+00  -2.8954930e+07
   5.7919306e-10  -4.7194628e-03   2.8918091e+00   2.0029813e+00  -2.8779053e+07
   5.8019340e-10  -4.6907573e-03   2.8892331e+00   2.0056722e+00  -2.8604231e+07
   5.8119373e-10  -4.6622262e-03   2.8866727e+00   2.0083487e+00  -2.8430458e+07
   5.8219406e-10  -4.6338684e-03   2.8841278e+00   2.0110108e+00  -2.8257726e+07
   5.8319440e-10  -4.6056828e-03   2.8815982e+00   2.0136587e+00  -2.8086031e+07
   5.8419473e-10  -4.5776684e-03   2.8790839e+00   2.0162923e+00  -2.7915366e+07
   5.8519507e-10  -4.5498242e-03   2.8765849e+00   2.0189118e+00  -2.7745725e+07
   5.8619540e-10  -4.5221492e-03   2.8741009e+00   2.0215172e+00  -2.7577102e+07
   5.8719573e-10  -4.4946423e-03   2.8716320e+00   2.0241085e+00  -2.7409492e+07
   5.8819607e-10  -4.4673025e-03   2.8691780e+00   2.0266859e+00  -2.7242889e+07
   5.8919640e-10  -4.4401289e-03   2.8667389e+00   2.0292493e+00  -2.7077286e+07
   5.9019673e-10  -4.4131204e-03   2.8643145e+00   2.0317989e+00  -2.6912679e+07
   5.9119707e-10  -4.3862761e-03   2.8619049e+00   2.0343347e+00  -2.6749061e+07
   5.9219740e-10  -4.3595949e-03   2.8595098e+00   2.0368567e+00  -2.6586427e+07
   5.9319773e-10  -4.3330759e-03   2.8571293e+00   2.0393651e+00  -2.6424770e+07
   5.9419807e-10  -4.3067181e-03   2.8547632e+00   2.0418598e+00  -2.6264085e+07
   5.9519840e-10  -4.2805206e-03   2.8524114e+00   2.0443410e+00  -2.6104368e+07
   5.9619873e-10  -4.2544823e-03   2.8500739e+00   2.0468087e+00  -2.5945611e+07
   5.9719907e-10  -4.2286023e-03   2.8477506e+00   2.0492630e+00  -2.5787809e+07
   5.9819940e-10  -4.2028797e-03   2.8454414e+00   2.0517039e+00  -2.5630958e+07
   5.9919973e-10  -4.1773135e-03   2.8431462e+00   2.0541314e+00  -2.5475051e+07
   6.0020007e-10  -4.1519028e-03   2.8408650e+00   2.0565457e+00  -2.5320082e+07
   6.0120040e-10  -4.1266466e-03   2.8385976e+00   2.0589468e+00  -2.5166047e+07
   6.0220073e-10  -4.1015440e-03   2.8363440e+00   2.0613348e+00  -2.5012941e+07
   6.0320107e-10  -4.0765940e-03   2.8341041e+00   2.0637097e+00  -2.4860756e+07
   6.0420140e-10  -4.0517959e-03   2.8318778e+00   2.0660716e+00  -2.4709489e+07
   6.0520173e-10  -4.0271486e-03   2.8296650e+00   2.0684205e+00  -2.4559134e+07
   6.0620207e-10  -4.0026512e-03   2.8274657e+00   2.0707565e+00  -2.4409685e+07
   6.0720240e-10  -3.9783028e-03   2.8252798e+00   2.0730797e+00  -2.4261138e+07
   6.0820273e-10  -3.9541026e-03   2.8231071e+00   2.0753901e+00  -2.4113486e+07
   6.0920307e-10  -3.9300496e-03   2.8209477e+00   2.0776877e+00  -2.3966726e+07
   6.1020340e-10  -3.9061430e-03   2.8188015e+00   2.0799727e+00  -2.3820851e+07
   6.1120373e-10  -3.8823818e-03   2.8166683e+00   2.0822451e+00  -2.3675856e+07
   6.1220407e-10  -3.8587653e-03   2.8145481e+00   2.0845050e+00  -2.3531737e+07
   6.1320440e-10  -3.8352924e-03   2.8124408e+00   2.0867523e+00  -2.3388488e+07
   6.1420473e-10  -3.8119624e-03   2.8103463e+00   2.0889873e+00  -2.3246104e+07
   6.1520507e-10  -3.7887744e-03   2.8082646e+00   2.0912098e+00  -2.3104580e+07
   6.1620540e-10  -3.7657275e-03   2.8061956e+00   2.0934201e+00  -2.2963911e+07
   6.1720574e-10  -3.7428209e-03   2.8041392e+00   2.0956181e+00  -2.2824092e+07
   6.1820607e-10  -3.7200537e-03   2.8020953e+00   2.0978039e+00  -2.2685118e+07
   6.1920640e-10  -3.6974251e-03   2.8000639e+00   2.0999775e+00  -2.2546984e+07
   6.2020674e-10  -3.6749343e-03   2.7980449e+00   2.1021391e+00  -2.2409685e+07
   6.2120707e-10  -3.6525804e-03   2.7960382e+00   2.1042887e+00  -2.2273216e+07
   6.2220740e-10  -3.6303625e-03   2.7940437e+00   2.1064263e+00  -2.2137573e+07
   6.2320774e-10  -3.6082800e-03   2.7920614e+00   2.1085520e+00  -2.2002750e+07
   6.2420807e-10  -3.5863318e-03   2.7900912e+00   2.1106658e+00  -2.1868743e+07
   6.2520840e-10  -3.5645174e-03   2.7881331e+00   2.1127678e+00  -2.1735547e+07
   6.2620874e-10  -3.5428357e-03   2.7861868e+00   2.1148581e+00  -2.1603157e+07
   6.2720907e-10  -3.5212861e-03   2.7842525e+00   2.1169368e+00  -2.1471568e+07
   6.2820940e-10  -3.4998677e-03   2.7823300e+00   2.1190038e+00  -2.1340777e+07
   6.2920974e-10  -3.4785797e-03   2.7804192e+00   2.1210592e+00  -2.1210777e+07
   6.3021007e-10  -3.4574213e-03   2.7785201e+00   2.1231031e+00  -2.1081564e+07
   6.3121040e-10  -3.4363919e-03   2.7766326e+00   2.1251356e+00  -2.0953134e+07
   6.3221074e-10  -3.4154905e-03   2.7747566e+00   2.1271567e+00  -2.0825483e+07
   6.3321107e-10  -3.3947164e-03   2.7728920e+00   2.1291664e+00  -2.0698604e+07
   6.3421140e-10  -3.3740688e-03   2.7710389e+00   2.1311649e+00  -2.0572495e+07
   6.3521174e-10  -3.3535470e-03   2.7691971e+00   2.1331521e+00  -2.0447150e+07
   6.3621207e-10  -3.3331501e-03   2.7673666e+00   2.1351282e+00  -2.0322565e+07
   6.3721240e-10  -3.3128776e-03   2.7655472e+00   2.1370931e+00  -2.0198736e+07
   6.3821274e-10  -3.2927285e-03   2.7637390e+00   2.1390470e+00  -2.0075657e+07
   6.3921307e-10  -3.2727022e-03   2.7619418e+00   2.1409898e+00  -1.9953325e+07
   6.4021340e-10  -3.2527978e-03   2.7601556e+00   2.1429217e+00  -1.9831735e+07
   6.4121374e-10  -3.2330147e-03   2.7583804e+00   2.1448428e+00  -1.9710883e+07
   6.4221407e-10  -3.2133522e-03   2.7566160e+00   2.1467529e+00  -1.9590764e+07
   6.4321440e-10  -3.1938094e-03   2.7548624e+00   2.1486523e+00  -1.9471374e+07
   6.4421474e-10  -3.1743857e-03   2.7531195e+00   2.1505409e+00  -1.9352709e+07
   6.4521507e-10  -3.1550803e-03   2.7513873e+00   2.1524189e+00  -1.9234764e+07
   6.4621541e-10  -3.1358925e-03   2.7496656e+00   2.1542862e+00  -1.9117536e+07
   6.4721574e-10  -3.1168217e-03   2.7479546e+00   2.1561430e+00  -1.9001019e+07
   6.4821607e-10  -3.0978671e-03   2.7462540e+00   2.1579892e+00  -1.8885210e+07
   6.4921641e-10  -3.0790279e-03   2.7445638e+00   2.1598250e+00  -1.8770104e+07
   6.5021674e-10  -3.0603036e-03   2.7428839e+00   2.1616504e+00  -1.8655698e+07
   6.5121707e-10  -3.0416933e-03   2.7412144e+00   2.1634654e+00  -1.8541987e+07
   6.5221741e-10  -3.0231964e-03   2.7395550e+00   2.1652701e+00  -1.8428967e+07
   6.5321774e-10  -3.0048123e-03   2.7379058e+00   2.1670645e+00  -1.8316634e+07
   6.5421807e-10  -2.9865402e-03   2.7362667e+00   2.1688487e+00  -1.8204984e+07
   6.5521841e-10  -2.9683794e-03   2.7346377e+00   2.1706228e+00  -1.8094012e+07
   6.5621874e-10  -2.9503293e-03   2.7330186e+00   2.1723868e+00  -1.7983715e+07
   6.5721907e-10  -2.9323892e-03   2.7314095e+00   2.1741408e+00  -1.7874089e+07
   6.5821941e-10  -2.9145585e-03   2.7298102e+00   2.1758847e+00  -1.7765130e+07
   6.5921974e-10  -2.8968364e-03   2.7282207e+00   2.1776187e+00  -1.7656834e+07
   6.6022007e-10  -2.8792223e-03   2.7266409e+00   2.1793428e+00  -1.7549196e+07
   6.6122041e-10  -2.8617155e-03   2.7250708e+00   2.1810571e+00  -1.7442213e+07
   6.6222074e-10  -2.8443155e-03   2.7235104e+00   2.1827616e+00  -1.7335882e+07
   6.6322107e-10  -2.8270214e-03   2.7219595e+00   2.1844564e+00  -1.7230197e+07
   6.6422141e-10  -2.8098328e-03   2.7204181e+00   2.1861414e+00  -1.7125156e+07
   6.6522174e-10  -2.7927490e-03   2.7188861e+00   2.1878169e+00  -1.7020754e+07
   6.6622207e-10  -2.7757693e-03   2.7173636e+00   2.1894827e+00  -1.6916988e+07
   6.6722241e-10  -2.7588930e-03   2.7158504e+00   2.1911390e+00  -1.6813853e+07
   6.6822274e-10  -2.7421197e-03   2.7143464e+00   2.1927858e+00  -1.6711347e+07
   6.6922307e-10  -2.7254485e-03   2.7128517e+00   2.1944232e+00  -1.6609465e+07
   6.7022341e-10  -2.7088790e-03   2.7113661e+00   2.1960512e+00  -1.6508203e+07
   6.7122374e-10  -2.6924105e-03   2.7098896e+00   2.1976699e+00  -1.6407558e+07
   6.7222407e-10  -2.6760423e-03   2.7084222e+00   2.1992793e+00  -1.6307527e+07
   6.7322441e-10  -2.6597739e-03   2.7069638e+00   2.2008794e+00  -1.6208105e+07
   6.7422474e-10  -2.6436047e-03   2.7055143e+00   2.2024703e+00  -1.6109289e+07
   6.7522508e-10  -2.6275340e-03   2.7040737e+00   2.2040521e+00  -1.6011075e+07
   6.7622541e-10  -2.6115612e-03   2.7026420e+00   2.2056248e+00  -1.5913460e+07
   6.7722574e-10  -2.5956859e-03   2.7012190e+00   2.2071885e+00  -1.5816439e+07
   6.7822608e-10  -2.5799073e-03   2.6998048e+00   2.2087432e+00  -1.5720011e+07
   6.7922641e-10  -2.5642248e-03   2.6983992e+00   2.2102889e+00  -1.5624170e+07
   6.8022674e-10  -2.5486380e-03   2.6970022e+00   2.2118257e+00  -1.5528914e+07
   6.8122708e-10  -2.5331462e-03   2.6956138e+00   2.2133537e+00  -1.5434238e+07
   6.8222741e-10  -2.5177487e-03   2.6942340e+00   2.2148728e+00  -1.5340140e+07
   6.8322774e-10  -2.5024452e-03   2.6928625e+00   2.2163832e+00  -1.5246616e+07
   6.8422808e-10  -2.4872349e-03   2.6914995e+00   2.2178849e+00  -1.5153662e+07
   6.8522841e-10  -2.4721173e-03   2.6901449e+00   2.2193779e+00  -1.5061276e+07
   6.8622874e-10  -2.4570919e-03   2.6887986e+00   2.2208623e+00  -1.4969453e+07
   6.8722908e-10  -2.4421581e-03   2.6874605e+00   2.2223381e+00  -1.4878191e+07
   6.8822941e-10  -2.4273152e-03   2.6861306e+00   2.2238054e+00  -1.4787485e+07
   6.8922974e-10  -2.4125629e-03   2.6848089e+00   2.2252642e+00  -1.4697333e+07
   6.9023008e-10  -2.3979005e-03   2.6834953e+00   2.2267146e+00  -1.4607731e+07
   6.9123041e-10  -2.3833274e-03   2.6821897e+00   2.2281566e+00  -1.4518677e+07
   6.9223074e-10  -2.3688432e-03   2.6808922e+00   2.2295903e+00  -1.4430165e+07
   6.9323108e-10  -2.3544472e-03   2.6796026e+00   2.2310156e+00  -1.4342195e+07
   6.9423141e-10  -2.3401390e-03   2.6783210e+00   2.2324327e+00  -1.4254761e+07
   6.9523174e-10  -2.3259180e-03   2.6770472e+00   2.2338416e+00  -1.4167861e+07
   6.9623208e-10  -2.3117837e-03   2.6757812e+00   2.2352423e+00  -1.4081492e+07
   6.9723241e-10  -2.2977355e-03   2.6745229e+00   2.2366349e+00  -1.3995651e+07
   6.9823274e-10  -2.2837730e-03   2.6732724e+00   2.2380194e+00  -1.3910334e+07
   6.9923308e-10  -2.2698955e-03   2.6720296e+00   2.2393959e+00  -1.3825537e+07
   7.0023341e-10  -2.2561026e-03   2.6707944e+00   2.2407644e+00  -1.3741259e+07
   7.0123374e-10  -2.2423938e-03   2.6695667e+00   2.2421249e+00  -1.3657496e+07
   7.0223408e-10  -2.2287686e-03   2.6683466e+00   2.2434775e+00  -1.3574245e+07
   7.0323441e-10  -2.2152263e-03   2.6671340e+00   2.2448223e+00  -1.3491502e+07
   7.0423474e-10  -2.2017666e-03   2.6659288e+00   2.2461593e+00  -1.3409265e+07
   7.0523508e-10  -2.1883890e-03   2.6647310e+00   2.2474885e+00  -1.3327530e+07
   7.0623541e-10  -2.1750928e-03   2.6635406e+00   2.2488100e+00  -1.3246295e+07
   7.0723575e-10  -2.1618777e-03   2.6623575e+00   2.2501237e+00  -1.3165556e+07
   7.0823608e-10  -2.1487432e-03   2.6611816e+00   2.2514299e+00  -1.3085311e+07
   7.0923641e-10  -2.1356886e-03   2.6600129e+00   2.2527284e+00  -1.3005557e+07
   7.1023675e-10  -2.1227137e-03   2.6588514e+00   2.2540194e+00  -1.2926289e+07
   7.1123708e-10  -2.1098177e-03   2.6576970e+00   2.2553028e+00  -1.2847507e+07
   7.1223741e-10  -2.0970004e-03   2.6565498e+00   2.2565788e+00  -1.2769206e+07
   7.1323775e-10  -2.0842612e-03   2.6554095e+00   2.2578473e+00  -1.2691384e+07
   7.1423808e-10  -2.0715996e-03   2.6542762e+00   2.2591084e+00  -1.2614038e+07
   7.1523841e-10  -2.0590152e-03   2.6531499e+00   2.2603622e+00  -1.2537165e+07
   7.1623875e-10  -2.0465074e-03   2.6520305e+00   2.2616087e+00  -1.2460762e+07
   7.1723908e-10  -2.0340759e-03   2.6509180e+00   2.2628478e+00  -1.2384826e+07
   7.1823941e-10  -2.0217201e-03   2.6498123e+00   2.2640798e+00  -1.2309355e+07
   7.1923975e-10  -2.0094396e-03   2.6487134e+00   2.2653045e+00  -1.2234345e+07
   7.2024008e-10  -1.9972339e-03   2.6476212e+00   2.2665221e+00  -1.2159794e+07
   7.2124041e-10  -1.9851026e-03   2.6465357e+00   2.2677326e+00  -1.2085699e+07
   7.2224075e-10  -1.9730452e-03   2.6454569e+00   2.2689360e+00  -1.2012057e+07
   7.2324108e-10  -1.9610612e-03   2.6443846e+00   2.2701324e+00  -1.1938866e+07
   7.2424141e-10  -1.9491503e-03   2.6433190e+00   2.2713218e+00  -1.1866123e+07
   7.2524175e-10  -1.9373119e-03   2.6422599e+00   2.2725042e+00  -1.1793824e+07
   7.2624208e-10  -1.9255457e-03   2.6412073e+00   2.2736797e+00  -1.1721968e+07
   7.2724241e-10  -1.9138511e-03   2.6401611e+00   2.2748484e+00  -1.1650552e+07
   7.2824275e-10  -1.9022278e-03   2.6391214e+00   2.2760101e+00  -1.1579573e+07
   7.2924308e-10  -1.8906753e-03   2.6380880e+00   2.2771651e+00  -1.1509028e+07
   7.3024341e-10  -1.8791931e-03   2.6370610e+00   2.2783133e+00  -1.1438915e+07
   7.3124375e-10  -1.8677809e-03   2.6360403e+00   2.2794548e+00  -1.1369230e+07
   7.3224408e-10  -1.8564382e-03   2.6350258e+00   2.2805896e+00  -1.1299973e+07
   7.3324441e-10  -1.8451647e-03   2.6340176e+00   2.2817178e+00  -1.1231139e+07
   7.3424475e-10  -1.8339597e-03   2.6330155e+00   2.2828393e+00  -1.1162726e+07
   7.3524508e-10  -1.8228231e-03   2.6320196e+00   2.2839542e+00  -1.1094733e+07
   7.3624542e-10  -1.8117542e-03   2.6310298e+00   2.2850627e+00  -1.1027155e+07
   7.3724575e-10  -1.8007528e-03   2.6300460e+00   2.2861646e+00  -1.0959991e+07
   7.3824608e-10  -1.7898184e-03   2.6290683e+00   2.2872600e+00  -1.0893238e+07
   7.3924642e-10  -1.7789505e-03   2.6280966e+00   2.2883490e+00  -1.0826894e+07
   7.4024675e-10  -1.7681489e-03   2.6271308e+00   2.2894316e+00  -1.0760956e+07
   7.4124708e-10  -1.7574130e-03   2.6261710e+00   2.2905079e+00  -1.0695422e+07
   7.4224742e-10  -1.7467425e-03   2.6252170e+00   2.2915778e+00  -1.0630289e+07
   7.4324775e-10  -1.7361370e-03   2.6242689e+00   2.2926415e+00  -1.0565554e+07
   7.4424808e-10  -1.7255961e-03   2.6233266e+00   2.2936989e+00  -1.0501216e+07
   7.4524842e-10  -1.7151194e-03   2.6223901e+00   2.2947500e+00  -1.0437272e+07
   7.4624875e-10  -1.7047064e-03   2.6214593e+00   2.2957950e+00  -1.0373720e+07
   7.4724908e-10  -1.6943569e-03   2.6205342e+00   2.2968339e+00  -1.0310556e+07
   7.4824942e-10  -1.6840703e-03   2.6196148e+00   2.2978666e+00  -1.0247779e+07
   7.4924975e-10  -1.6738464e-03   2.6187010e+00   2.2988933e+00  -1.0185387e+07
   7.5025008e-10  -1.6636848e-03   2.6177929e+00   2.2999139e+00  -1.0123377e+07
   7.5125042e-10  -1.6535850e-03   2.6168902e+00   2.3009286e+00  -1.0061746e+07
   7.5225075e-10  -1.6435467e-03   2.6159932e+00   2.3019372e+00  -1.0000493e+07
   7.5325108e-10  -1.6335695e-03   2.6151016e+00   2.3029399e+00  -9.9396148e+06
   7.5425142e-10  -1.6236531e-03   2.6142155e+00   2.3039367e+00  -9.8791095e+06
   7.5525175e-10  -1.6137970e-03   2.6133348e+00   2.3049276e+00  -9.8189746e+06
   7.5625208e-10  -1.6040009e-03   2.6124595e+00   2.3059127e+00  -9.7592080e+06
   7.5725242e-10  -1.5942645e-03   2.6115895e+00   2.3068920e+00  -9.6998074e+06
   7.5825275e-10  -1.5845873e-03   2.6107249e+00   2.3078655e+00  -9.6407706e+06
   7.5925308e-10  -1.5749690e-03   2.6098656e+00   2.3088333e+00  -9.5820953e+06
   7.6025342e-10  -1.5654093e-03   2.6090116e+00   2.3097953e+00  -9.5237793e+06
   7.6125375e-10  -1.5559077e-03   2.6081627e+00   2.3107517e+00  -9.4658205e+06
   7.6225408e-10  -1.5464640e-03   2.6073191e+00   2.3117025e+00  -9.4082166e+06
   7.6325442e-10  -1.5370777e-03   2.6064807e+00   2.3126476e+00  -9.3509655e+06
   7.6425475e-10  -1.5277486e-03   2.6056474e+00   2.3135872e+00  -9.2940649e+06
   7.6525509e-10  -1.5184762e-03   2.6048192e+00   2.3145212e+00  -9.2375129e+06
   7.6625542e-10  -1.5092603e-03   2.6039960e+00   2.3154497e+00  -9.1813071e+06
   7.6725575e-10  -1.5001004e-03   2.6031779e+00   2.3163727e+00  -9.1254456e+06
   7.6825609e-10  -1.4909963e-03   2.6023648e+00   2.3172903e+00  -9.0699262e+06
   7.6925642e-10  -1.4819476e-03   2.6015567e+00   2.3182024e+00  -9.0147467e+06
   7.7025675e-10  -1.4729539e-03   2.6007535e+00   2.3191092e+00  -8.9599052e+06
   7.7125709e-10  -1.4640149e-03   2.5999553e+00   2.3200106e+00  -8.9053996e+06
   7.7225742e-10  -1.4551304e-03   2.5991619e+00   2.3209067e+00  -8.8512277e+06
   7.7325775e-10  -1.4462999e-03   2.5983734e+00   2.3217974e+00  -8.7973876e+06
   7.7425809e-10  -1.4375231e-03   2.5975898e+00   2.3226830e+00  -8.7438772e+06
   7.7525842e-10  -1.4287997e-03   2.5968109e+00   2.3235632e+00  -8.6906945e+06
   7.7625875e-10  -1.4201293e-03   2.5960368e+00   2.3244383e+00  -8.6378374e+06
   7.7725909e-10  -1.4115118e-03   2.5952674e+00   2.3253082e+00  -8.5853041e+06
   7.7825942e-10  -1.4029466e-03   2.5945027e+00   2.3261730e+00  -8.5330924e+06
   7.7925975e-10  -1.3944335e-03   2.5937427e+00   2.3270326e+00  -8.4812005e+06
   7.8026009e-10  -1.3859722e-03   2.5929874e+00   2.3278871e+00  -8.4296263e+06
   7.8126042e-10  -1.3775624e-03   2.5922367e+00   2.3287366e+00  -8.3783679e+06
   7.8226075e-10  -1.3692037e-03   2.5914906e+00   2.3295811e+00  -8.3274234e+06
   7.8326109e-10  -1.3608958e-03   2.5907490e+00   2.3304206e+00  -8.2767908e+06
   7.8426142e-10  -1.3526385e-03   2.5900120e+00   2.3312551e+00  -8.2264683e+06
   7.8526175e-10  -1.3444314e-03   2.5892795e+00   2.3320846e+00  -8.1764539e+06
   7.8626209e-10  -1.3362742e-03   2.5885515e+00   2.3329092e+00  -8.1267457e+06
   7.8726242e-10  -1.3281666e-03   2.5878279e+00   2.3337290e+00  -8.0773419e+06
   7.8826275e-10  -1.3201083e-03   2.5871087e+00   2.3345439e+00  -8.0282406e+06
   7.8926309e-10  -1.3120990e-03   2.5863940e+00   2.3353540e+00  -7.9794398e+06
   7.9026342e-10  -1.3041384e-03   2.5856836e+00   2.3361592e+00  -7.9309379e+06
   7.9126375e-10  -1.2962261e-03   2.5849776e+00   2.3369597e+00  -7.8827329e+06
   7.9226409e-10  -1.2883620e-03   2.5842758e+00   2.3377555e+00  -7.8348230e+06
   7.9326442e-10  -1.2805457e-03   2.5835784e+00   2.3385465e+00  -7.7872064e+06
   7.9426475e-10  -1.2727770e-03   2.5828853e+00   2.3393329e+00  -7.7398813e+06
   7.9526509e-10  -1.2650554e-03   2.5821963e+00   2.3401146e+00  -7.6928459e+06
   7.9626542e-10  -1.2573808e-03   2.5815116e+00   2.3408916e+00  -7.6460984e+06
   7.9726576e-10  -1.2497528e-03   2.5808311e+00   2.3416640e+00  -7.5996371e+06
   7.9826609e-10  -1.2421712e-03   2.5801547e+00   2.3424319e+00  -7.5534601e+06
   7.9926642e-10  -1.2346357e-03   2.5794825e+00   2.3431952e+00  -7.5075658e+06
   8.0026676e-10  -1.2271459e-03   2.5788144e+00   2.3439540e+00  -7.4619524e+06
   8.0126709e-10  -1.2197017e-03   2.5781503e+00   2.3447082e+00  -7.4166182e+06
   8.0226742e-10  -1.2123028e-03   2.5774904e+00   2.3454580e+00  -7.3715614e+06
   8.0326776e-10  -1.2049488e-03   2.5768344e+00   2.3462034e+00  -7.3267804e+06
   8.0426809e-10  -1.1976395e-03   2.5761825e+00   2.3469443e+00  -7.2822734e+06
   8.0526842e-10  -1.1903746e-03   2.5755345e+00   2.3476808e+00  -7.2380388e+06
   8.0626876e-10  -1.1831538e-03   2.5748905e+00   2.3484130e+00  -7.1940749e+06
   8.0726909e-10  -1.1759769e-03   2.5742505e+00   2.3491407e+00  -7.1503800e+06
   8.0826942e-10  -1.1688437e-03   2.5736143e+00   2.3498642e+00  -7.1069525e+06
   8.0926976e-10  -1.1617537e-03   2.5729821e+00   2.3505834e+00  -7.0637907e+06
   8.1027009e-10  -1.1547069e-03   2.5723537e+00   2.3512983e+00  -7.0208929e+06
   8.1127042e-10  -1.1477028e-03   2.5717291e+00   2.3520090e+00  -6.9782576e+06
   8.1227076e-10  -1.1407413e-03   2.5711084e+00   2.3527154e+00  -6.9358832e+06
   8.1327109e-10  -1.1338221e-03   2.5704914e+00   2.3534176e+00  -6.8937680e+06
   8.1427142e-10  -1.1269450e-03   2.5698782e+00   2.3541157e+00  -6.8519104e+06
   8.1527176e-10  -1.1201096e-03   2.5692688e+00   2.3548096e+00  -6.8103088e+06
   8.1627209e-10  -1.1133157e-03   2.5686631e+00   2.3554994e+00  -6.7689618e+06
   8.1727242e-10  -1.1065631e-03   2.5680610e+00   2.3561851e+00  -6.7278676e+06
   8.1827276e-10  -1.0998515e-03   2.5674627e+00   2.3568667e+00  -6.6870248e+06
   8.1927309e-10  -1.0931806e-03   2.5668680e+00   2.3575442e+00  -6.6464317e+06
   8.2027342e-10  -1.0865503e-03   2.5662770e+00   2.3582178e+00  -6.6060870e+06
   8.2127376e-10  -1.0799602e-03   2.5656895e+00   2.3588873e+00  -6.5659889e+06
   8.2227409e-10  -1.0734102e-03   2.5651056e+00   2.3595528e+00  -6.5261360e+06
   8.2327442e-10  -1.0668999e-03   2.5645253e+00   2.3602144e+00  -6.4865269e+06
   8.2427476e-10  -1.0604292e-03   2.5639486e+00   2.3608720e+00  -6.4471599e+06
   8.2527509e-10  -1.0539977e-03   2.5633753e+00   2.3615258e+00  -6.4080336e+06
   8.2627543e-10  -1.0476053e-03   2.5628056e+00   2.3621756e+00  -6.3691465e+06
   8.2727576e-10  -1.0412517e-03   2.5622393e+00   2.3628216e+00  -6.3304972e+06
   8.2827609e-10  -1.0349367e-03   2.5616765e+00   2.3634637e+00  -6.2920841e+06
   8.2927643e-10  -1.0286601e-03   2.5611172e+00   2.3641020e+00  -6.2539058e+06
   8.3027676e-10  -1.0224215e-03   2.5605612e+00   2.3647365e+00  -6.2159609e+06
   8.3127709e-10  -1.0162208e-03   2.5600087e+00   2.3653672e+00  -6.1782479e+06
   8.3227743e-10  -1.0100577e-03   2.5594595e+00   2.3659942e+00  -6.1407655e+06
   8.3327776e-10  -1.0039321e-03   2.5589136e+00   2.3666174e+00  -6.1035121e+06
   8.3427809e-10  -9.9784364e-04   2.5583711e+00   2.3672370e+00  -6.0664863e+06
   8.3527843e-10  -9.9179213e-04   2.5578319e+00   2.3678528e+00  -6.0296868e+06
   8.3627876e-10  -9.8577735e-04   2.5572960e+00   2.3684650e+00  -5.9931122e+06
   8.3727909e-10  -9.7979908e-04   2.5567633e+00   2.3690735e+00  -5.9567610e+06
   8.3827943e-10  -9.7385709e-04   2.5562339e+00   2.3696784e+00  -5.9206319e+06
   8.3927976e-10  -9.6795116e-04   2.5557078e+00   2.3702797e+00  -5.8847236e+06
   8.4028009e-10  -9.6208108e-04   2.5551848e+00   2.3708774e+00  -5.8490346e+06
   8.4128043e-10  -9.5624661e-04   2.5546650e+00   2.3714715e+00  -5.8135636e+06
   8.4228076e-10  -9.5044755e-04   2.5541484e+00   2.3720622e+00  -5.7783093e+06
   8.4328109e-10  -9.4468368e-04   2.5536350e+00   2.3726492e+00  -5.7432703e+06
   8.4428143e-10  -9.3895478e-04   2.5531247e+00   2.3732328e+00  -5.7084453e+06
   8.4528176e-10  -9.3326064e-04   2.5526175e+00   2.3738129e+00  -5.6738329e+06
   8.4628209e-10  -9.2760104e-04   2.5521134e+00   2.3743896e+00  -5.6394320e+06
   8.4728243e-10  -9.2197579e-04   2.5516123e+00   2.3749628e+00  -5.6052411e+06
   8.4828276e-10  -9.1638466e-04   2.5511143e+00   2.3755326e+00  -5.5712589e+06
   8.4928309e-10  -9.1082745e-04   2.5506194e+00   2.3760990e+00  -5.5374842e+06
   8.5028343e-10  -9.0530396e-04   2.5501274e+00   2.3766620e+00  -5.5039158e+06
   8.5128376e-10  -8.9981397e-04   2.5496385e+00   2.3772217e+00  -5.4705522e+06
   8.5228409e-10  -8.9435728e-04   2.5491525e+00   2.3777780e+00  -5.4373923e+06
   8.5328443e-10  -8.8893369e-04   2.5486695e+00   2.3783310e+00  -5.4044348e+06
   8.5428476e-10  -8.8354300e-04   2.5481895e+00   2.3788807e+00  -5.3716785e+06
   8.5528510e-10  -8.7818501e-04   2.5477124e+00   2.3794272e+00  -5.3391220e+06
   8.5628543e-10  -8.7285951e-04   2.5472381e+00   2.3799703e+00  -5.3067642e+06
   8.5728576e-10  -8.6756631e-04   2.5467668e+00   2.3805102e+00  -5.2746039e+06
   8.5828610e-10  -8.6230522e-04   2.5462983e+00   2.3810470e+00  -5.2426398e+06
   8.5928643e-10  -8.5707603e-04   2.5458327e+00   2.3815805e+00  -5.2108708e+06
   8.6028676e-10  -8.5187855e-04   2.5453700e+00   2.3821108e+00  -5.1792955e+06
   8.6128710e-10  -8.4671258e-04   2.5449100e+00   2.3826379e+00  -5.1479129e+06
   8.6228743e-10  -8.4157795e-04   2.5444529e+00   2.3831619e+00  -5.1167217e+06
   8.6328776e-10  -8.3647445e-04   2.5439985e+00   2.3836828e+00  -5.0857207e+06
   8.6428810e-10  -8.3140189e-04   2.5435469e+00   2.3842006e+00  -5.0549088e+06
   8.6528843e-10  -8.2636009e-04   2.5430981e+00   2.3847153e+00  -5.0242848e+06
   8.6628876e-10  -8.2134886e-04   2.5426520e+00   2.3852269e+00  -4.9938476e+06
   8.6728910e-10  -8.1636802e-04   2.5422086e+00   2.3857354e+00  -4.9635960e+06
   8.6828943e-10  -8.1141737e-04   2.5417679e+00   2.3862410e+00  -4.9335288e+06
   8.6928976e-10  -8.0649673e-04   2.5413298e+00   2.3867434e+00  -4.9036449e+06
   8.7029010e-10  -8.0160592e-04   2.5408945e+00   2.3872429e+00  -4.8739432e+06
   8.7129043e-10  -7.9674477e-04   2.5404618e+00   2.3877395e+00  -4.8444226e+06
   8.7229076e-10  -7.9191308e-04   2.5400317e+00   2.3882330e+00  -4.8150819e+06
   8.7329110e-10  -7.8711068e-04   2.5396043e+00   2.3887236e+00  -4.7859200e+06
   8.7429143e-10  -7.8233738e-04   2.5391795e+00   2.3892113e+00  -4.7569359e+06
   8.7529176e-10  -7.7759303e-04   2.5387572e+00   2.3896960e+00  -4.7281284e+06
   8.7629210e-10  -7.7287742e-04   2.5383375e+00   2.3901779e+00  -4.6994964e+06
   8.7729243e-10  -7.6819040e-04   2.5379204e+00   2.3906569e+00  -4.6710389e+06
   8.7829276e-10  -7.6353179e-04   2.5375058e+00   2.3911330e+00  -4.6427548e+06
   8.7929310e-10  -7.5890141e-04   2.5370937e+00   2.3916063e+00  -4.6146429e+06
   8.8029343e-10  -7.5429909e-04   2.5366842e+00   2.3920767e+00  -4.5867023e+06
   8.8129376e-10  -7.4972467e-04   2.5362771e+00   2.3925443e+00  -4.5589319e+06
   8.8229410e-10  -7.4517796e-04   2.5358725e+00   2.3930092e+00  -4.5313307e+06
   8.8329443e-10  -7.4065881e-04   2.5354704e+00   2.3934712e+00  -4.5038975e+06
   8.8429476e-10  -7.3616705e-04   2.5350707e+00   2.3939305e+00  -4.4766314e+06
   8.8529510e-10  -7.3170250e-04   2.5346734e+00   2.3943871e+00  -4.4495314e+06
   8.8629543e-10  -7.2726500e-04   2.5342786e+00   2.3948409e+00  -4.4225963e+06
   8.8729577e-10  -7.2285439e-04   2.5338862e+00   2.3952920e+00  -4.3958252e+06
   8.8829610e-10  -7.1847051e-04   2.5334961e+00   2.3957405e+00  -4.3692171e+06
   8.8929643e-10  -7.1411319e-04   2.5331085e+00   2.3961862e+00  -4.3427710e+06
   8.9029677e-10  -7.0978226e-04   2.5327232e+00   2.3966293e+00  -4.3164858e+06
   8.9129710e-10  -7.0547758e-04   2.5323402e+00   2.3970697e+00  -4.2903607e+06
   8.9229743e-10  -7.0119898e-04   2.5319595e+00   2.3975075e+00  -4.2643945e+06
   8.9329777e-10  -6.9694629e-04   2.5315812e+00   2.3979426e+00  -4.2385863e+06
   8.9429810e-10  -6.9271937e-04   2.5312052e+00   2.3983752e+00  -4.2129352e+06
   8.9529843e-10  -6.8851806e-04   2.5308315e+00   2.3988052e+00  -4.1874401e+06
   8.9629877e-10  -6.8434220e-04   2.5304600e+00   2.3992326e+00  -4.1621002e+06
   8.9729910e-10  -6.8019163e-04   2.5300908e+00   2.3996574e+00  -4.1369144e+06
   8.9829943e-10  -6.7606620e-04   2.5297238e+00   2.4000797e+00  -4.1118818e+06
   8.9929977e-10  -6.7196577e-04   2.5293591e+00   2.4004995e+00  -4.0870014e+06
   9.0030010e-10  -6.6789017e-04   2.5289966e+00   2.4009168e+00  -4.0622724e+06
   9.0130043e-10  -6.6383925e-04   2.5286363e+00   2.4013316e+00  -4.0376938e+06
   9.0230077e-10  -6.5981287e-04   2.5282781e+00   2.4017438e+00  -4.0132646e+06
   9.0330110e-10  -6.5581088e-04   2.5279222e+00   2.4021537e+00  -3.9889840e+06
   9.0430143e-10  -6.5183313e-04   2.5275684e+00   2.4025610e+00  -3.9648510e+06
   9.0530177e-10  -6.4787947e-04   2.5272168e+00   2.4029660e+00  -3.9408647e+06
   9.0630210e-10  -6.4394975e-04   2.5268673e+00   2.4033685e+00  -3.9170242e+06
   9.0730243e-10  -6.4004383e-04   2.5265199e+00   2.4037686e+00  -3.8933286e+06
   9.0830277e-10  -6.3616157e-04   2.5261747e+00   2.4041663e+00  -3.8697771e+06
   9.0930310e-10  -6.3230281e-04   2.5258315e+00   2.4045616e+00  -3.8463687e+06
   9.1030343e-10  -6.2846743e-04   2.5254905e+00   2.4049546e+00  -3.8231025e+06
   9.1130377e-10  -6.2465526e-04   2.5251515e+00   2.4053452e+00  -3.7999777e+06
   9.1230410e-10  -6.2086619e-04   2.5248145e+00   2.4057335e+00  -3.7769934e+06
   9.1330443e-10  -6.1710006e-04   2.5244796e+00   2.4061194e+00  -3.7541488e+06
   9.1430477e-10  -6.1335673e-04   2.5241468e+00   2.4065030e+00  -3.7314429e+06
   9.1530510e-10  -6.0963607e-04   2.5238160e+00   2.4068844e+00  -3.7088750e+06
   9.1630544e-10  -6.0593793e-04   2.5234871e+00   2.4072634e+00  -3.6864441e+06
   9.1730577e-10  -6.0226219e-04   2.5231603e+00   2.4076402e+00  -3.6641495e+06
   9.1830610e-10  -5.9860871e-04   2.5228355e+00   2.4080147e+00  -3.6419903e+06
   9.1930644e-10  -5.9497734e-04   2.5225126e+00   2.4083870e+00  -3.6199656e+06
   9.2030677e-10  -5.9136796e-04   2.5221917e+00   2.4087571e+00  -3.5980747e+06
   9.2130710e-10  -5.8778044e-04   2.5218728e+00   2.4091249e+00  -3.5763167e+06
   9.2230744e-10  -5.8421463e-04   2.5215557e+00   2.4094905e+00  -3.5546907e+06
   9.2330777e-10  -5.8067041e-04   2.5212406e+00   2.4098540e+00  -3.5331961e+06
   9.2430810e-10  -5.7714765e-04   2.5209275e+00   2.4102153e+00  -3.5118319e+06
   9.2530844e-10  -5.7364621e-04   2.5206162e+00   2.4105744e+00  -3.4905974e+06
   9.2630877e-10  -5.7016598e-04   2.5203068e+00   2.4109313e+00  -3.4694918e+06
   9.2730910e-10  -5.6670681e-04   2.5199993e+00   2.4112861e+00  -3.4485142e+06
   9.2830944e-10  -5.6326858e-04   2.5196937e+00   2.4116388e+00  -3.4276640e+06
   9.2930977e-10  -5.5985116e-04   2.5193899e+00   2.4119894e+00  -3.4069402e+06
   9.3031010e-10  -5.5645443e-04   2.5190880e+00   2.4123379e+00  -3.3863422e+06
   9.3131044e-10  -5.5307827e-04   2.5187879e+00   2.4126842e+00  -3.3658692e+06
   9.3231077e-10  -5.4972253e-04   2.5184896e+00   2.4130286e+00  -3.3455203e+06
   9.3331110e-10  -5.4638712e-04   2.5181931e+00   2.4133708e+00  -3.3252949e+06
   9.3431144e-10  -5.4307189e-04   2.5178984e+00   2.4137110e+00  -3.3051921e+06
   9.3531177e-10  -5.3977673e-04   2.5176056e+00   2.4140491e+00  -3.2852113e+06
   9.3631210e-10  -5.3650151e-04   2.5173145e+00   2.4143853e+00  -3.2653516e+06
   9.3731244e-10  -5.3324612e-04   2.5170251e+00   2.4147194e+00  -3.2456124e+06
   9.3831277e-10  -5.3001043e-04   2.5167376e+00   2.4150515e+00  -3.2259928e+06
   9.3931310e-10  -5.2679433e-04   2.5164517e+00   2.4153816e+00  -3.2064922e+06
   9.4031344e-10  -5.2359769e-04   2.5161676e+00   2.4157098e+00  -3.1871098e+06
   9.4131377e-10  -5.2042040e-04   2.5158853e+00   2.4160359e+00  -3.1678449e+06
   9.4231410e-10  -5.1726234e-04   2.5156046e+00   2.4163602e+00  -3.1486968e+06
   9.4331444e-10  -5.1412339e-04   2.5153257e+00   2.4166824e+00  -3.1296647e+06
   9.4431477e-10  -5.1100344e-04   2.5150484e+00   2.4170028e+00  -3.1107480e+06
   9.4531511e-10  -5.0790238e-04   2.5147728e+00   2.4173212e+00  -3.0919459e+06
   9.4631544e-10  -5.0482008e-04   2.5144989e+00   2.4176377e+00  -3.0732577e+06
   9.4731577e-10  -5.0175643e-04   2.5142267e+00   2.4179523e+00  -3.0546828e+06
   9.4831611e-10  -4.9871133e-04   2.5139561e+00   2.4182650e+00  -3.0362204e+06
   9.4931644e-10  -4.9568465e-04   2.5136871e+00   2.4185759e+00  -3.0178698e+06
   9.5031677e-10  -4.9267630e-04   2.5134198e+00   2.4188849e+00  -2.9996305e+06
   9.5131711e-10  -4.8968614e-04   2.5131541e+00   2.4191920e+00  -2.9815016e+06
   9.5231744e-10  -4.8671409e-04   2.5128901e+00   2.4194973e+00  -2.9634825e+06
   9.5331777e-10  -4.8376002e-04   2.5126276e+00   2.4198008e+00  -2.9455725e+06
   9.5431811e-10  -4.8082382e-04   2.5123667e+00   2.4201024e+00  -2.9277710e+06
   9.5531844e-10  -4.7790540e-04   2.5121074e+00   2.4204022e+00  -2.9100772e+06
   9.5631877e-10  -4.7500463e-04   2.5118497e+00   2.4207003e+00  -2.8924907e+06
   9.5731911e-10  -4.7212142e-04   2.5115935e+00   2.4209965e+00  -2.8750106e+06
   9.5831944e-10  -4.6925566e-04   2.5113389e+00   2.4212910e+00  -2.8576363e+06
   9.5931977e-10  -4.6640724e-04   2.5110859e+00   2.4215837e+00  -2.8403672e+06
   9.6032011e-10  -4.6357606e-04   2.5108343e+00   2.4218746e+00  -2.8232026e+06
   9.6132044e-10  -4.6076200e-04   2.5105843e+00   2.4221638e+00  -2.8061419e+06
   9.6232077e-10  -4.5796498e-04   2.5103359e+00   2.4224513e+00  -2.7891845e+06
   9.6332111e-10  -4.5518488e-04   2.5100889e+00   2.4227370e+00  -2.7723297e+06
   9.6432144e-10  -4.5242161e-04   2.5098434e+00   2.4230210e+00  -2.7555769e+06
   9.6532177e-10  -4.4967505e-04   2.5095994e+00   2.4233033e+00  -2.7389255e+06
   9.6632211e-10  -4.4694512e-04   2.5093569e+00   2.4235840e+00  -2.7223748e+06
   9.6732244e-10  -4.4423170e-04   2.5091159e+00   2.4238629e+00  -2.7059243e+06
   9.6832277e-10  -4.4153471e-04   2.5088763e+00   2.4241402e+00  -2.6895732e+06
   9.6932311e-10  -4.3885403e-04   2.5086382e+00   2.4244158e+00  -2.6733211e+06
   9.7032344e-10  -4.3618957e-04   2.5084015e+00   2.4246897e+00  -2.6571673e+06
   9.7132377e-10  -4.3354124e-04   2.5081663e+00   2.4249620e+00  -2.6411112e+06
   9.7232411e-10  -4.3090893e-04   2.5079325e+00   2.4252327e+00  -2.6251523e+06
   9.7332444e-10  -4.2829255e-04   2.5077001e+00   2.4255017e+00  -2.6092898e+06
   9.7432477e-10  -4.2569200e-04   2.5074691e+00   2.4257691e+00  -2.5935232e+06
   9.7532511e-10  -4.2310719e-04   2.5072395e+00   2.4260349e+00  -2.5778520e+06
   9.7632544e-10  -4.2053802e-04   2.5070113e+00   2.4262992e+00  -2.5622756e+06
   9.7732578e-10  -4.1798439e-04   2.5067845e+00   2.4265618e+00  -2.5467933e+06
   9.7832611e-10  -4.1544622e-04   2.5065591e+00   2.4268229e+00  -2.5314046e+06
   9.7932644e-10  -4.1292340e-04   2.5063350e+00   2.4270823e+00  -2.5161090e+06
   9.8032678e-10  -4.1041585e-04   2.5061123e+00   2.4273403e+00  -2.5009058e+06
   9.8132711e-10  -4.0792347e-04   2.5058910e+00   2.4275967e+00  -2.4857945e+06
   9.8232744e-10  -4.0544617e-04   2.5056710e+00   2.4278515e+00  -2.4707745e+06
   9.8332778e-10  -4.0298386e-04   2.5054523e+00   2.4281048e+00  -2.4558453e+06
   9.8432811e-10  -4.0053645e-04   2.5052350e+00   2.4283566e+00  -2.4410064e+06
   9.8532844e-10  -3.9810385e-04   2.5050189e+00   2.4286069e+00  -2.4262571e+06
   9.8632878e-10  -3.9568597e-04   2.5048042e+00   2.4288556e+00  -2.4115969e+06
   9.8732911e-10  -3.9328272e-04   2.5045908e+00   2.4291029e+00  -2.3970254e+06
   9.8832944e-10  -3.9089401e-04   2.5043787e+00   2.4293487e+00  -2.3825418e+06
   9.8932978e-10  -3.8851976e-04   2.5041678e+00   2.4295930e+00  -2.3681458e+06
   9.9033011e-10  -3.8615987e-04   2.5039583e+00   2.4298359e+00  -2.3538367e+06
   9.9133044e-10  -3.8381426e-04   2.5037500e+00   2.4300773e+00  -2.3396140e+06
   9.9233078e-10  -3.8148284e-04   2.5035430e+00   2.4303172e+00  -2.3254773e+06
   9.9333111e-10  -3.7916553e-04   2.5033372e+00   2.4305557e+00  -2.3114260e+06
   9.9433144e-10  -3.7686225e-04   2.5031327e+00   2.4307928e+00  -2.2974595e+06
   9.9533178e-10  -3.7457290e-04   2.5029294e+00   2.4310284e+00  -2.2835774e+06
   9.9633211e-10  -3.7229740e-04   2.5027274e+00   2.4312626e+00  -2.2697791e+06
   9.9733244e-10  -3.7003567e-04   2.5025265e+00   2.4314954e+00  -2.2560641e+06
   9.9833278e-10  -3.6778763e-04   2.5023269e+00   2.4317268e+00  -2.2424320e+06
   9.9933311e-10  -3.6555319e-04   2.5021286e+00   2.4319569e+00  -2.2288821e+06
   1.0003334e-09  -3.6333227e-04   2.5019314e+00   2.4321855e+00  -2.2154141e+06
   1.0013338e-09  -3.6112480e-04   2.5017354e+00   2.4324128e+00  -2.2020274e+06
   1.0023341e-09  -3.5893068e-04   2.5015406e+00   2.4326387e+00  -2.1887214e+06
   1.0033344e-09  -3.5674983e-04   2.5013469e+00   2.4328632e+00  -2.1754959e+06
   1.0043348e-09  -3.5458219e-04   2.5011545e+00   2.4330864e+00  -2.1623501e+06
   1.0053351e-09  -3.5242766e-04   2.5009632e+00   2.4333082e+00  -2.1492837e+06
   1.0063354e-09  -3.5028616e-04   2.5007731e+00   2.4335287e+00  -2.1362962e+06
   1.0073358e-09  -3.4815763e-04   2.5005841e+00   2.4337479e+00  -2.1233870e+06
   1.0083361e-09  -3.4604198e-04   2.5003963e+00   2.4339658e+00  -2.1105558e+06
   1.0093364e-09  -3.4393913e-04   2.5002096e+00   2.4341824e+00  -2.0978019e+06
   1.0103368e-09  -3.4184901e-04   2.5000241e+00   2.4343976e+00  -2.0851251e+06
   1.0113371e-09  -3.3977153e-04   2.4998397e+00   2.4346116e+00  -2.0725247e+06
   1.0123374e-09  -3.3770663e-04   2.4996563e+00   2.4348243e+00  -2.0600004e+06
   1.0133378e-09  -3.3565422e-04   2.4994742e+00   2.4350356e+00  -2.0475517e+06
   1.0143381e-09  -3.3361423e-04   2.4992931e+00   2.4352458e+00  -2.0351780e+06
   1.0153384e-09  -3.3158659e-04   2.4991131e+00   2.4354546e+00  -2.0228790e+06
   1.0163388e-09  -3.2957122e-04   2.4989342e+00   2.4356622e+00  -2.0106542e+06
   1.0173391e-09  -3.2756805e-04   2.4987564e+00   2.4358686e+00  -1.9985031e+06
   1.0183394e-09  -3.2557700e-04   2.4985796e+00   2.4360737e+00  -1.9864254e+06
   1.0193398e-09  -3.2359800e-04   2.4984040e+00   2.4362776e+00  -1.9744205e+06
   1.0203401e-09  -3.2163097e-04   2.4982294e+00   2.4364802e+00  -1.9624880e+06
   1.0213404e-09  -3.1967586e-04   2.4980558e+00   2.4366817e+00  -1.9506274e+06
   1.0223408e-09  -3.1773257e-04   2.4978833e+00   2.4368819e+00  -1.9388384e+06
   1.0233411e-09  -3.1580105e-04   2.4977119e+00   2.4370809e+00  -1.9271205e+06
   1.0243414e-09  -3.1388121e-04   2.4975415e+00   2.4372787e+00  -1.9154733e+06
   1.0253418e-09  -3.1197300e-04   2.4973721e+00   2.4374753e+00  -1.9038963e+06
   1.0263421e-09  -3.1007633e-04   2.4972038e+00   2.4376708e+00  -1.8923891e+06
   1.0273424e-09  -3.0819115e-04   2.4970364e+00   2.4378650e+00  -1.8809513e+06
   1.0283428e-09  -3.0631737e-04   2.4968701e+00   2.4380581e+00  -1.8695825e+06
   1.0293431e-09  -3.0445494e-04   2.4967048e+00   2.4382501e+00  -1.8582822e+06
   1.0303434e-09  -3.0260378e-04   2.4965405e+00   2.4384409e+00  -1.8470500e+06
   1.0313438e-09  -3.0076382e-04   2.4963772e+00   2.4386305e+00  -1.8358856e+06
   1.0323441e-09  -2.9893500e-04   2.4962149e+00   2.4388190e+00  -1.8247884e+06
   1.0333444e-09  -2.9711725e-04   2.4960536e+00   2.4390063e+00  -1.8137582e+06
   1.0343448e-09  -2.9531051e-04   2.4958933e+00   2.4391926e+00  -1.8027944e+06
   1.0353451e-09  -2.9351470e-04   2.4957339e+00   2.4393777e+00  -1.7918968e+06
   1.0363454e-09  -2.9172976e-04   2.4955755e+00   2.4395616e+00  -1.7810648e+06
   1.0373458e-09  -2.8995563e-04   2.4954180e+00   2.4397445e+00  -1.7702981e+06
   1.0383461e-09  -2.8819223e-04   2.4952615e+00   2.4399263e+00  -1.7595964e+06
   1.0393464e-09  -2.8643951e-04   2.4951060e+00   2.4401070e+00  -1.7489591e+06
   1.0403468e-09  -2.8469741e-04   2.4949514e+00   2.4402866e+00  -1.7383859e+06
   1.0413471e-09  -2.8296584e-04   2.4947977e+00   2.4404651e+00  -1.7278765e+06
   1.0423474e-09  -2.8124476e-04   2.4946450e+00   2.4406425e+00  -1.7174304e+06
   1.0433478e-09  -2.7953410e-04   2.4944932e+00   2.4408189e+00  -1.7070472e+06
   1.0443481e-09  -2.7783380e-04   2.4943423e+00   2.4409942e+00  -1.6967266e+06
   1.0453484e-09  -2.7614379e-04   2.4941924e+00   2.4411685e+00  -1.6864682e+06
   1.0463488e-09  -2.7446401e-04   2.4940433e+00   2.4413417e+00  -1.6762717e+06
   1.0473491e-09  -2.7279440e-04   2.4938951e+00   2.4415138e+00  -1.6661365e+06
   1.0483494e-09  -2.7113490e-04   2.4937479e+00   2.4416850e+00  -1.6560625e+06
   1.0493498e-09  -2.6948545e-04   2.4936015e+00   2.4418551e+00  -1.6460491e+06
   1.0503501e-09  -2.6784599e-04   2.4934560e+00   2.4420241e+00  -1.6360961e+06
   1.0513505e-09  -2.6621645e-04   2.4933115e+00   2.4421922e+00  -1.6262030e+06
   1.0523508e-09  -2.6459678e-04   2.4931677e+00   2.4423592e+00  -1.6163695e+06
   1.0533511e-09  -2.6298691e-04   2.4930249e+00   2.4425252e+00  -1.6065953e+06
   1.0543515e-09  -2.6138679e-04   2.4928829e+00   2.4426903e+00  -1.5968800e+06
   1.0553518e-09  -2.5979637e-04   2.4927418e+00   2.4428543e+00  -1.5872232e+06
   1.0563521e-09  -2.5821557e-04   2.4926015e+00   2.4430173e+00  -1.5776245e+06
   1.0573525e-09  -2.5664434e-04   2.4924621e+00   2.4431794e+00  -1.5680837e+06
   1.0583528e-09  -2.5508264e-04   2.4923236e+00   2.4433405e+00  -1.5586004e+06
   1.0593531e-09  -2.5353038e-04   2.4921858e+00   2.4435006e+00  -1.5491742e+06
   1.0603535e-09  -2.5198753e-04   2.4920490e+00   2.4436597e+00  -1.5398048e+06
   1.0613538e-09  -2.5045402e-04   2.4919129e+00   2.4438179e+00  -1.5304918e+06
   1.0623541e-09  -2.4892980e-04   2.4917777e+00   2.4439751e+00  -1.5212349e+06
   1.0633545e-09  -2.4741481e-04   2.4916433e+00   2.4441314e+00  -1.5120338e+06
   1.0643548e-09  -2.4590899e-04   2.4915097e+00   2.4442868e+00  -1.5028880e+06
   1.0653551e-09  -2.4441230e-04   2.4913769e+00   2.4444412e+00  -1.4937974e+06
   1.0663555e-09  -2.4292467e-04   2.4912449e+00   2.4445947e+00  -1.4847615e+06
   1.0673558e-09  -2.4144605e-04   2.4911137e+00   2.4447472e+00  -1.4757801e+06
   1.0683561e-09  -2.3997638e-04   2.4909833e+00   2.4448988e+00  -1.4668527e+06
   1.0693565e-09  -2.3851562e-04   2.4908537e+00   2.4450496e+00  -1.4579791e+06
   1.0703568e-09  -2.3706370e-04   2.4907249e+00   2.4451994e+00  -1.4491590e+06
   1.0713571e-09  -2.3562058e-04   2.4905969e+00   2.4453483e+00  -1.4403920e+06
   1.0723575e-09  -2.3418621e-04   2.4904696e+00   2.4454963e+00  -1.4316777e+06
   1.0733578e-09  -2.3276052e-04   2.4903432e+00   2.4456434e+00  -1.4230160e+06
   1.0743581e-09  -2.3134346e-04   2.4902175e+00   2.4457896e+00  -1.4144064e+06
   1.0753585e-09  -2.2993499e-04   2.4900925e+00   2.4459349e+00  -1.4058487e+06
   1.0763588e-09  -2.2853506e-04   2.4899683e+00   2.4460794e+00  -1.3973425e+06
   1.0773591e-09  -2.2714360e-04   2.4898449e+00   2.4462230e+00  -1.3888875e+06
   1.0783595e-09  -2.2576057e-04   2.4897222e+00   2.4463657e+00  -1.3804834e+06
   1.0793598e-09  -2.2438593e-04   2.4896002e+00   2.4465076e+00  -1.3721300e+06
   1.0803601e-09  -2.2301961e-04   2.4894790e+00   2.4466486e+00  -1.3638268e+06
   1.0813605e-09  -2.2166157e-04   2.4893586e+00   2.4467888e+00  -1.3555737e+06
   1.0823608e-09  -2.2031175e-04   2.4892388e+00   2.4469281e+00  -1.3473702e+06
   1.0833611e-09  -2.1897012e-04   2.4891198e+00   2.4470665e+00  -1.3392162e+06
   1.0843615e-09  -2.1763661e-04   2.4890015e+00   2.4472042e+00  -1.3311112e+06
   1.0853618e-09  -2.1631119e-04   2.4888840e+00   2.4473410e+00  -1.3230551e+06
   1.0863621e-09  -2.1499380e-04   2.4887671e+00   2.4474770e+00  -1.3150475e+06
   1.0873625e-09  -2.1368438e-04   2.4886510e+00   2.4476121e+00  -1.3070880e+06
   1.0883628e-09  -2.1238291e-04   2.4885355e+00   2.4477465e+00  -1.2991766e+06
   1.0893631e-09  -2.1108932e-04   2.4884208e+00   2.4478800e+00  -1.2913127e+06
   1.0903635e-09  -2.0980357e-04   2.4883067e+00   2.4480127e+00  -1.2834962e+06
   1.0913638e-09  -2.0852561e-04   2.4881934e+00   2.4481446e+00  -1.2757268e+06
   1.0923641e-09  -2.0725540e-04   2.4880807e+00   2.4482758e+00  -1.2680041e+06
   1.0933645e-09  -2.0599288e-04   2.4879687e+00   2.4484061e+00  -1.2603280e+06
   1.0943648e-09  -2.0473802e-04   2.4878574e+00   2.4485357e+00  -1.2526981e+06
   1.0953651e-09  -2.0349076e-04   2.4877468e+00   2.4486644e+00  -1.2451141e+06
   1.0963655e-09  -2.0225106e-04   2.4876368e+00   2.4487924e+00  -1.2375758e+06
   1.0973658e-09  -2.0101888e-04   2.4875276e+00   2.4489196e+00  -1.2300828e+06
   1.0983661e-09  -1.9979416e-04   2.4874189e+00   2.4490461e+00  -1.2226350e+06
   1.0993665e-09  -1.9857687e-04   2.4873110e+00   2.4491718e+00  -1.2152321e+06
   1.1003668e-09  -1.9736696e-04   2.4872037e+00   2.4492967e+00  -1.2078737e+06
   1.1013671e-09  -1.9616438e-04   2.4870970e+00   2.4494208e+00  -1.2005596e+06
   1.1023675e-09  -1.9496909e-04   2.4869910e+00   2.4495443e+00  -1.1932896e+06
   1.1033678e-09  -1.9378104e-04   2.4868856e+00   2.4496669e+00  -1.1860633e+06
   1.1043681e-09  -1.9260020e-04   2.4867809e+00   2.4497889e+00  -1.1788806e+06
   1.1053685e-09  -1.9142652e-04   2.4866768e+00   2.4499101e+00  -1.1717411e+06
   1.1063688e-09  -1.9025995e-04   2.4865733e+00   2.4500305e+00  -1.1646446e+06
   1.1073691e-09  -1.8910046e-04   2.4864705e+00   2.4501503e+00  -1.1575908e+06
   1.1083695e-09  -1.8794800e-04   2.4863683e+00   2.4502693e+00  -1.1505795e+06
   1.1093698e-09  -1.8680252e-04   2.4862667e+00   2.4503876e+00  -1.1436104e+06
   1.1103701e-09  -1.8566399e-04   2.4861657e+00   2.4505051e+00  -1.1366833e+06
   1.1113705e-09  -1.8453236e-04   2.4860654e+00   2.4506220e+00  -1.1297979e+06
   1.1123708e-09  -1.8340760e-04   2.4859656e+00   2.4507382e+00  -1.1229539e+06
   1.1133711e-09  -1.8228965e-04   2.4858665e+00   2.4508536e+00  -1.1161512e+06
   1.1143715e-09  -1.8117849e-04   2.4857679e+00   2.4509684e+00  -1.1093895e+06
   1.1153718e-09  -1.8007406e-04   2.4856700e+00   2.4510825e+00  -1.1026684e+06
   1.1163721e-09  -1.7897633e-04   2.4855726e+00   2.4511958e+00  -1.0959878e+06
   1.1173725e-09  -1.7788526e-04   2.4854759e+00   2.4513085e+00  -1.0893475e+06
   1.1183728e-09  -1.7680080e-04   2.4853797e+00   2.4514205e+00  -1.0827471e+06
   1.1193731e-09  -1.7572293e-04   2.4852841e+00   2.4515319e+00  -1.0761865e+06
   1.1203735e-09  -1.7465159e-04   2.4851891e+00   2.4516425e+00  -1.0696654e+06
   1.1213738e-09  -1.7358674e-04   2.4850947e+00   2.4517525e+00  -1.0631836e+06
   1.1223741e-09  -1.7252836e-04   2.4850008e+00   2.4518619e+00  -1.0567408e+06
   1.1233745e-09  -1.7147640e-04   2.4849075e+00   2.4519705e+00  -1.0503368e+06
   1.1243748e-09  -1.7043082e-04   2.4848148e+00   2.4520785e+00  -1.0439714e+06
   1.1253751e-09  -1.6939158e-04   2.4847227e+00   2.4521859e+00  -1.0376443e+06
   1.1263755e-09  -1.6835864e-04   2.4846311e+00   2.4522926e+00  -1.0313554e+06
   1.1273758e-09  -1.6733197e-04   2.4845400e+00   2.4523986e+00  -1.0251043e+06
   1.1283761e-09  -1.6631153e-04   2.4844495e+00   2.4525041e+00  -1.0188908e+06
   1.1293765e-09  -1.6529728e-04   2.4843596e+00   2.4526088e+00  -1.0127148e+06
   1.1303768e-09  -1.6428918e-04   2.4842702e+00   2.4527130e+00  -1.0065759e+06
   1.1313771e-09  -1.6328720e-04   2.4841814e+00   2.4528165e+00  -1.0004741e+06
   1.1323775e-09  -1.6229130e-04   2.4840930e+00   2.4529194e+00  -9.9440899e+05
   1.1333778e-09  -1.6130144e-04   2.4840053e+00   2.4530217e+00  -9.8838041e+05
   1.1343781e-09  -1.6031759e-04   2.4839180e+00   2.4531233e+00  -9.8238816e+05
   1.1353785e-09  -1.5933971e-04   2.4838313e+00   2.4532243e+00  -9.7643199e+05
   1.1363788e-09  -1.5836776e-04   2.4837451e+00   2.4533248e+00  -9.7051170e+05
   1.1373791e-09  -1.5740171e-04   2.4836595e+00   2.4534246e+00  -9.6462708e+05
   1.1383795e-09  -1.5644152e-04   2.4835743e+00   2.4535238e+00  -9.5877790e+05
   1.1393798e-09  -1.5548716e-04   2.4834897e+00   2.4536224e+00  -9.5296396e+05
   1.1403801e-09  -1.5453860e-04   2.4834056e+00   2.4537204e+00  -9.4718505e+05
   1.1413805e-09  -1.5359578e-04   2.4833220e+00   2.4538178e+00  -9.4144094e+05
   1.1423808e-09  -1.5265870e-04   2.4832389e+00   2.4539147e+00  -9.3573144e+05
   1.1433811e-09  -1.5172729e-04   2.4831563e+00   2.4540109e+00  -9.3005634e+05
   1.1443815e-09  -1.5080155e-04   2.4830743e+00   2.4541066e+00  -9.2441543e+05
   1.1453818e-09  -1.4988142e-04   2.4829927e+00   2.4542017e+00  -9.1880850e+05
   1.1463821e-09  -1.4896687e-04   2.4829116e+00   2.4542962e+00  -9.1323536e+05
   1.1473825e-09  -1.4805788e-04   2.4828310e+00   2.4543901e+00  -9.0769579e+05
   1.1483828e-09  -1.4715441e-04   2.4827509e+00   2.4544835e+00  -9.0218960e+05
   1.1493831e-09  -1.4625642e-04   2.4826713e+00   2.4545763e+00  -8.9671659e+05
   1.1503835e-09  -1.4536388e-04   2.4825921e+00   2.4546685e+00  -8.9127655e+05
   1.1513838e-09  -1.4447676e-04   2.4825135e+00   2.4547602e+00  -8.8586929e+05
   1.1523841e-09  -1.4359503e-04   2.4824353e+00   2.4548513e+00  -8.8049462e+05
   1.1533845e-09  -1.4271865e-04   2.4823576e+00   2.4549419e+00  -8.7515234e+05
   1.1543848e-09  -1.4184759e-04   2.4822804e+00   2.4550319e+00  -8.6984224e+05
   1.1553851e-09  -1.4098182e-04   2.4822036e+00   2.4551214e+00  -8.6456415e+05
   1.1563855e-09  -1.4012131e-04   2.4821273e+00   2.4552103e+00  -8.5931787e+05
   1.1573858e-09  -1.3926603e-04   2.4820515e+00   2.4552987e+00  -8.5410320e+05
   1.1583861e-09  -1.3841593e-04   2.4819761e+00   2.4553866e+00  -8.4891996e+05
   1.1593865e-09  -1.3757100e-04   2.4819012e+00   2.4554739e+00  -8.4376796e+05
   1.1603868e-09  -1.3673120e-04   2.4818268e+00   2.4555607e+00  -8.3864701e+05
   1.1613871e-09  -1.3589651e-04   2.4817528e+00   2.4556470e+00  -8.3355693e+05
   1.1623875e-09  -1.3506688e-04   2.4816792e+00   2.4557327e+00  -8.2849752e+05
   1.1633878e-09  -1.3424229e-04   2.4816061e+00   2.4558180e+00  -8.2346861e+05
   1.1643881e-09  -1.3342270e-04   2.4815334e+00   2.4559027e+00  -8.1847002e+05
   1.1653885e-09  -1.3260810e-04   2.4814612e+00   2.4559869e+00  -8.1350156e+05
   1.1663888e-09  -1.3179844e-04   2.4813894e+00   2.4560706e+00  -8.0856304e+05
   1.1673891e-09  -1.3099371e-04   2.4813181e+00   2.4561538e+00  -8.0365430e+05
   1.1683895e-09  -1.3019386e-04   2.4812472e+00   2.4562364e+00  -7.9877516e+05
   1.1693898e-09  -1.2939887e-04   2.4811767e+00   2.4563186e+00  -7.9392542e+05
   1.1703901e-09  -1.2860871e-04   2.4811067e+00   2.4564003e+00  -7.8910493e+05
   1.1713905e-09  -1.2782335e-04   2.4810370e+00   2.4564815e+00  -7.8431350e+05
   1.1723908e-09  -1.2704276e-04   2.4809678e+00   2.4565622e+00  -7.7955095e+05
   1.1733911e-09  -1.2626691e-04   2.4808991e+00   2.4566424e+00  -7.7481713e+05
   1.1743915e-09  -1.2549578e-04   2.4808307e+00   2.4567221e+00  -7.7011184e+05
   1.1753918e-09  -1.2472933e-04   2.4807627e+00   2.4568014e+00  -7.6543493e+05
   1.1763921e-09  -1.2396755e-04   2.4806952e+00   2.4568801e+00  -7.6078623e+05
   1.1773925e-09  -1.2321038e-04   2.4806281e+00   2.4569584e+00  -7.5616555e+05
   1.1783928e-09  -1.2245783e-04   2.4805614e+00   2.4570362e+00  -7.5157274e+05
   1.1793931e-09  -1.2170984e-04   2.4804951e+00   2.4571135e+00  -7.4700763e+05
   1.1803935e-09  -1.2096640e-04   2.4804292e+00   2.4571904e+00  -7.4247005e+05
   1.1813938e-09  -1.2022748e-04   2.4803637e+00   2.4572668e+00  -7.3795984e+05
   1.1823941e-09  -1.1949305e-04   2.4802986e+00   2.4573427e+00  -7.3347683e+05
   1.1833945e-09  -1.1876308e-04   2.4802338e+00   2.4574182e+00  -7.2902086e+05
   1.1843948e-09  -1.1803755e-04   2.4801695e+00   2.4574932e+00  -7.2459177e+05
   1.1853951e-09  -1.1731643e-04   2.4801056e+00   2.4575678e+00  -7.2018940e+05
   1.1863955e-09  -1.1659969e-04   2.4800421e+00   2.4576419e+00  -7.1581358e+05
   1.1873958e-09  -1.1588731e-04   2.4799789e+00   2.4577155e+00  -7.1146416e+05
   1.1883961e-09  -1.1517926e-04   2.4799161e+00   2.4577887e+00  -7.0714097e+05
   1.1893965e-09  -1.1447552e-04   2.4798538e+00   2.4578615e+00  -7.0284387e+05
   1.1903968e-09  -1.1377605e-04   2.4797918e+00   2.4579338e+00  -6.9857270e+05
   1.1913971e-09  -1.1308083e-04   2.4797301e+00   2.4580057e+00  -6.9432729e+05
   1.1923975e-09  -1.1238985e-04   2.4796689e+00   2.4580772e+00  -6.9010750e+05
   1.1933978e-09  -1.1170306e-04   2.4796080e+00   2.4581482e+00  -6.8591318e+05
   1.1943981e-09  -1.1102045e-04   2.4795475e+00   2.4582188e+00  -6.8174416e+05
   1.1953985e-09  -1.1034199e-04   2.4794874e+00   2.4582889e+00  -6.7760029e+05
   1.1963988e-09  -1.0966765e-04   2.4794276e+00   2.4583587e+00  -6.7348144e+05
   1.1973991e-09  -1.0899742e-04   2.4793682e+00   2.4584280e+00  -6.6938744e+05
   1.1983995e-09  -1.0833126e-04   2.4793091e+00   2.4584969e+00  -6.6531815e+05
   1.1993998e-09  -1.0766915e-04   2.4792504e+00   2.4585653e+00  -6.6127342e+05
   1.2004001e-09  -1.0701107e-04   2.4791921e+00   2.4586334e+00  -6.5725310e+05
   1.2014005e-09  -1.0635699e-04   2.4791341e+00   2.4587010e+00  -6.5325705e+05
   1.2024008e-09  -1.0570689e-04   2.4790765e+00   2.4587683e+00  -6.4928512e+05
   1.2034011e-09  -1.0506075e-04   2.4790192e+00   2.4588351e+00  -6.4533716e+05
   1.2044015e-09  -1.0441853e-04   2.4789623e+00   2.4589015e+00  -6.4141304e+05
   1.2054018e-09  -1.0378022e-04   2.4789057e+00   2.4589675e+00  -6.3751260e+05
   1.2064021e-09  -1.0314580e-04   2.4788495e+00   2.4590331e+00  -6.3363572e+05
   1.2074025e-09  -1.0251523e-04   2.4787936e+00   2.4590983e+00  -6.2978224e+05
   1.2084028e-09  -1.0188850e-04   2.4787380e+00   2.4591632e+00  -6.2595202e+05
   1.2094031e-09  -1.0126558e-04   2.4786828e+00   2.4592276e+00  -6.2214494e+05
   1.2104035e-09  -1.0064645e-04   2.4786279e+00   2.4592916e+00  -6.1836084e+05
   1.2114038e-09  -1.0003109e-04   2.4785734e+00   2.4593553e+00  -6.1459959e+05
   1.2124041e-09  -9.9419467e-05   2.4785192e+00   2.4594185e+00  -6.1086105e+05
   1.2134045e-09  -9.8811570e-05   2.4784653e+00   2.4594814e+00  -6.0714509e+05
   1.2144048e-09  -9.8207371e-05   2.4784118e+00   2.4595439e+00  -6.0345157e+05
   1.2154051e-09  -9.7606849e-05   2.4783585e+00   2.4596060e+00  -5.9978036e+05
   1.2164055e-09  -9.7009982e-05   2.4783056e+00   2.4596677e+00  -5.9613132e+05
   1.2174058e-09  -9.6416746e-05   2.4782530e+00   2.4597291e+00  -5.9250432e+05
   1.2184061e-09  -9.5827121e-05   2.4782008e+00   2.4597901e+00  -5.8889923e+05
   1.2194065e-09  -9.5241083e-05   2.4781488e+00   2.4598507e+00  -5.8531592e+05
   1.2204068e-09  -9.4658613e-05   2.4780972e+00   2.4599109e+00  -5.8175425e+05
   1.2214071e-09  -9.4079687e-05   2.4780459e+00   2.4599708e+00  -5.7821410e+05
   1.2224075e-09  -9.3504286e-05   2.4779949e+00   2.4600303e+00  -5.7469534e+05
   1.2234078e-09  -9.2932386e-05   2.4779442e+00   2.4600895e+00  -5.7119783e+05
   1.2244081e-09  -9.2363967e-05   2.4778938e+00   2.4601483e+00  -5.6772146e+05
   1.2254085e-09  -9.1799009e-05   2.4778438e+00   2.4602067e+00  -5.6426609e+05
   1.2264088e-09  -9.1237489e-05   2.4777940e+00   2.4602648e+00  -5.6083161e+05
   1.2274091e-09  -9.0679388e-05   2.4777445e+00   2.4603225e+00  -5.5741787e+05
   1.2284095e-09  -9.0124684e-05   2.4776954e+00   2.4603799e+00  -5.5402477e+05
   1.2294098e-09  -8.9573358e-05   2.4776465e+00   2.4604370e+00  -5.5065217e+05
   1.2304101e-09  -8.9025388e-05   2.4775979e+00   2.4604936e+00  -5.4729995e+05
   1.2314105e-09  -8.8480754e-05   2.4775497e+00   2.4605500e+00  -5.4396800e+05
   1.2324108e-09  -8.7939436e-05   2.4775017e+00   2.4606060e+00  -5.4065618e+05
   1.2334111e-09  -8.7401415e-05   2.4774540e+00   2.4606616e+00  -5.3736439e+05
   1.2344115e-09  -8.6866669e-05   2.4774066e+00   2.4607170e+00  -5.3409249e+05
   1.2354118e-09  -8.6335180e-05   2.4773595e+00   2.4607719e+00  -5.3084037e+05
   1.2364121e-09  -8.5806927e-05   2.4773127e+00   2.4608266e+00  -5.2760791e+05
   1.2374125e-09  -8.5281891e-05   2.4772662e+00   2.4608809e+00  -5.2439499e+05
   1.2384128e-09  -8.4760052e-05   2.4772199e+00   2.4609349e+00  -5.2120150e+05
   1.2394131e-09  -8.4241392e-05   2.4771739e+00   2.4609885e+00  -5.1802731e+05
   1.2404135e-09  -8.3725890e-05   2.4771283e+00   2.4610419e+00  -5.1487232e+05
   1.2414138e-09  -8.3213529e-05   2.4770828e+00   2.4610949e+00  -5.1173641e+05
   1.2424141e-09  -8.2704287e-05   2.4770377e+00   2.4611476e+00  -5.0861946e+05
   1.2434145e-09  -8.2198148e-05   2.4769929e+00   2.4611999e+00  -5.0552136e+05
   1.2444148e-09  -8.1695092e-05   2.4769483e+00   2.4612520e+00  -5.0244200e+05
   1.2454151e-09  -8.1195100e-05   2.4769040e+00   2.4613037e+00  -4.9938126e+05
   1.2464155e-09  -8.0698154e-05   2.4768599e+00   2.4613551e+00  -4.9633903e+05
   1.2474158e-09  -8.0204236e-05   2.4768161e+00   2.4614062e+00  -4.9331521e+05
   1.2484161e-09  -7.9713326e-05   2.4767726e+00   2.4614570e+00  -4.9030967e+05
   1.2494165e-09  -7.9225407e-05   2.4767294e+00   2.4615075e+00  -4.8732232e+05
   1.2504168e-09  -7.8740461e-05   2.4766864e+00   2.4615577e+00  -4.8435304e+05
   1.2514171e-09  -7.8258470e-05   2.4766437e+00   2.4616075e+00  -4.8140172e+05
   1.2524175e-09  -7.7779416e-05   2.4766012e+00   2.4616571e+00  -4.7846826e+05
   1.2534178e-09  -7.7303280e-05   2.4765591e+00   2.4617064e+00  -4.7555255e+05
   1.2544181e-09  -7.6830046e-05   2.4765171e+00   2.4617553e+00  -4.7265448e+05
   1.2554185e-09  -7.6359696e-05   2.4764754e+00   2.4618040e+00  -4.6977394e+05
   1.2564188e-09  -7.5892212e-05   2.4764340e+00   2.4618524e+00  -4.6691084e+05
   1.2574191e-09  -7.5427577e-05   2.4763928e+00   2.4619004e+00  -4.6406507e+05
   1.2584195e-09  -7.4965773e-05   2.4763519e+00   2.4619482e+00  -4.6123651e+05
   1.2594198e-09  -7.4506784e-05   2.4763112e+00   2.4619957e+00  -4.5842508e+05
   1.2604201e-09  -7.4050593e-05   2.4762708e+00   2.4620429e+00  -4.5563066e+05
   1.2614205e-09  -7.3597182e-05   2.4762306e+00   2.4620898e+00  -4.5285316e+05
   1.2624208e-09  -7.3146535e-05   2.4761907e+00   2.4621365e+00  -4.5009247e+05
   1.2634211e-09  -7.2698635e-05   2.4761510e+00   2.4621828e+00  -4.4734849e+05
   1.2644215e-09  -7.2253465e-05   2.4761115e+00   2.4622289e+00  -4.4462113e+05
   1.2654218e-09  -7.1811008e-05   2.4760723e+00   2.4622747e+00  -4.4191027e+05
   1.2664221e-09  -7.1371249e-05   2.4760333e+00   2.4623202e+00  -4.3921583e+05
   1.2674225e-09  -7.0934171e-05   2.4759946e+00   2.4623654e+00  -4.3653771e+05
   1.2684228e-09  -7.0499758e-05   2.4759561e+00   2.4624103e+00  -4.3387580e+05
   1.2694231e-09  -7.0067993e-05   2.4759179e+00   2.4624550e+00  -4.3123001e+05
   1.2704235e-09  -6.9638861e-05   2.4758798e+00   2.4624994e+00  -4.2860024e+05
   1.2714238e-09  -6.9212346e-05   2.4758420e+00   2.4625436e+00  -4.2598639e+05
   1.2724241e-09  -6.8788431e-05   2.4758045e+00   2.4625874e+00  -4.2338838e+05
   1.2734245e-09  -6.8367100e-05   2.4757671e+00   2.4626310e+00  -4.2080610e+05
   1.2744248e-09  -6.7948340e-05   2.4757300e+00   2.4626744e+00  -4.1823947e+05
   1.2754251e-09  -6.7532132e-05   2.4756931e+00   2.4627174e+00  -4.1568838e+05
   1.2764255e-09  -6.7118464e-05   2.4756565e+00   2.4627602e+00  -4.1315274e+05
   1.2774258e-09  -6.6707317e-05   2.4756200e+00   2.4628028e+00  -4.1063247e+05
   1.2784261e-09  -6.6298679e-05   2.4755838e+00   2.4628451e+00  -4.0812746e+05
   1.2794265e-09  -6.5892532e-05   2.4755478e+00   2.4628871e+00  -4.0563763e+05
   1.2804268e-09  -6.5488863e-05   2.4755121e+00   2.4629289e+00  -4.0316289e+05
   1.2814271e-09  -6.5087656e-05   2.4754765e+00   2.4629704e+00  -4.0070314e+05
   1.2824275e-09  -6.4688897e-05   2.4754412e+00   2.4630117e+00  -3.9825830e+05
   1.2834278e-09  -6.4292569e-05   2.4754061e+00   2.4630527e+00  -3.9582827e+05
   1.2844281e-09  -6.3898660e-05   2.4753711e+00   2.4630935e+00  -3.9341297e+05
   1.2854285e-09  -6.3507153e-05   2.4753365e+00   2.4631340e+00  -3.9101230e+05
   1.2864288e-09  -6.3118035e-05   2.4753020e+00   2.4631742e+00  -3.8862619e+05
   1.2874291e-09  -6.2731290e-05   2.4752677e+00   2.4632143e+00  -3.8625454e+05
   1.2884295e-09  -6.2346906e-05   2.4752336e+00   2.4632540e+00  -3.8389726e+05
   1.2894298e-09  -6.1964866e-05   2.4751998e+00   2.4632936e+00  -3.8155428e+05
   1.2904301e-09  -6.1585157e-05   2.4751661e+00   2.4633329e+00  -3.7922549e+05
   1.2914305e-09  -6.1207766e-05   2.4751327e+00   2.4633719e+00  -3.7691083e+05
   1.2924308e-09  -6.0832677e-05   2.4750995e+00   2.4634108e+00  -3.7461020e+05
   1.2934311e-09  -6.0459877e-05   2.4750664e+00   2.4634493e+00  -3.7232352e+05
   1.2944315e-09  -6.0089352e-05   2.4750336e+00   2.4634877e+00  -3.7005070e+05
   1.2954318e-09  -5.9721088e-05   2.4750010e+00   2.4635258e+00  -3.6779166e+05
   1.2964321e-09  -5.9355071e-05   2.4749685e+00   2.4635637e+00  -3.6554633e+05
   1.2974325e-09  -5.8991288e-05   2.4749363e+00   2.4636013e+00  -3.6331461e+05
   1.2984328e-09  -5.8629726e-05   2.4749043e+00   2.4636388e+00  -3.6109642e+05
   1.2994331e-09  -5.8270370e-05   2.4748724e+00   2.4636760e+00  -3.5889169e+05
   1.3004335e-09  -5.7913207e-05   2.4748408e+00   2.4637129e+00  -3.5670033e+05
   1.3014338e-09  -5.7558225e-05   2.4748093e+00   2.4637497e+00  -3.5452226e+05
   1.3024341e-09  -5.7205410e-05   2.4747780e+00   2.4637862e+00  -3.5235741e+05
   1.3034345e-09  -5.6854748e-05   2.4747470e+00   2.4638225e+00  -3.5020568e+05
   1.3044348e-09  -5.6506226e-05   2.4747161e+00   2.4638586e+00  -3.4806701e+05
   1.3054351e-09  -5.6159833e-05   2.4746854e+00   2.4638944e+00  -3.4594132e+05
   1.3064355e-09  -5.5815554e-05   2.4746549e+00   2.4639300e+00  -3.4382852e+05
   1.3074358e-09  -5.5473377e-05   2.4746246e+00   2.4639655e+00  -3.4172855e+05
   1.3084361e-09  -5.5133289e-05   2.4745944e+00   2.4640007e+00  -3.3964131e+05
   1.3094365e-09  -5.4795277e-05   2.4745645e+00   2.4640356e+00  -3.3756674e+05
   1.3104368e-09  -5.4459329e-05   2.4745347e+00   2.4640704e+00  -3.3550476e+05
   1.3114371e-09  -5.4125433e-05   2.4745051e+00   2.4641050e+00  -3.3345530e+05
   1.3124375e-09  -5.3793575e-05   2.4744757e+00   2.4641393e+00  -3.3141827e+05
   1.3134378e-09  -5.3463744e-05   2.4744465e+00   2.4641735e+00  -3.2939361e+05
   1.3144381e-09  -5.3135927e-05   2.4744174e+00   2.4642074e+00  -3.2738123e+05
   1.3154385e-09  -5.2810112e-05   2.4743886e+00   2.4642411e+00  -3.2538108e+05
   1.3164388e-09  -5.2486286e-05   2.4743599e+00   2.4642746e+00  -3.2339306e+05
   1.3174391e-09  -5.2164438e-05   2.4743314e+00   2.4643080e+00  -3.2141711e+05
   1.3184395e-09  -5.1844556e-05   2.4743030e+00   2.4643411e+00  -3.1945316e+05
   1.3194398e-09  -5.1526628e-05   2.4742748e+00   2.4643740e+00  -3.1750114e+05
   1.3204401e-09  -5.1210641e-05   2.4742469e+00   2.4644067e+00  -3.1556096e+05
   1.3214405e-09  -5.0896585e-05   2.4742190e+00   2.4644392e+00  -3.1363257e+05
   1.3224408e-09  -5.0584447e-05   2.4741914e+00   2.4644715e+00  -3.1171588e+05
   1.3234411e-09  -5.0274216e-05   2.4741639e+00   2.4645036e+00  -3.0981084e+05
   1.3244415e-09  -4.9965879e-05   2.4741366e+00   2.4645355e+00  -3.0791737e+05
   1.3254418e-09  -4.9659427e-05   2.4741094e+00   2.4645673e+00  -3.0603539e+05
   1.3264421e-09  -4.9354846e-05   2.4740824e+00   2.4645988e+00  -3.0416485e+05
   1.3274425e-09  -4.9052126e-05   2.4740556e+00   2.4646301e+00  -3.0230566e+05
   1.3284428e-09  -4.8751256e-05   2.4740289e+00   2.4646613e+00  -3.0045778e+05
   1.3294431e-09  -4.8452224e-05   2.4740024e+00   2.4646922e+00  -2.9862111e+05
   1.3304435e-09  -4.8155019e-05   2.4739761e+00   2.4647230e+00  -2.9679561e+05
   1.3314438e-09  -4.7859630e-05   2.4739499e+00   2.4647536e+00  -2.9498119e+05
   1.3324441e-09  -4.7566046e-05   2.4739239e+00   2.4647840e+00  -2.9317780e+05
   1.3334445e-09  -4.7274256e-05   2.4738981e+00   2.4648142e+00  -2.9138536e+05
   1.3344448e-09  -4.6984249e-05   2.4738724e+00   2.4648442e+00  -2.8960382e+05
   1.3354451e-09  -4.6696014e-05   2.4738468e+00   2.4648740e+00  -2.8783310e+05
   1.3364455e-09  -4.6409540e-05   2.4738214e+00   2.4649037e+00  -2.8607315e+05
   1.3374458e-09  -4.6124818e-05   2.4737962e+00   2.4649332e+00  -2.8432389e+05
   1.3384461e-09  -4.5841835e-05   2.4737711e+00   2.4649625e+00  -2.8258526e+05
   1.3394465e-09  -4.5560582e-05   2.4737462e+00   2.4649916e+00  -2.8085719e+05
   1.3404468e-09  -4.5281048e-05   2.4737215e+00   2.4650205e+00  -2.7913963e+05
   1.3414471e-09  -4.5003223e-05   2.4736968e+00   2.4650493e+00  -2.7743251e+05
   1.3424475e-09  -4.4727096e-05   2.4736724e+00   2.4650779e+00  -2.7573577e+05
   1.3434478e-09  -4.4452656e-05   2.4736481e+00   2.4651063e+00  -2.7404935e+05
   1.3444481e-09  -4.4179894e-05   2.4736239e+00   2.4651345e+00  -2.7237317e+05
   1.3454485e-09  -4.3908800e-05   2.4735999e+00   2.4651626e+00  -2.7070719e+05
   1.3464488e-09  -4.3639363e-05   2.4735760e+00   2.4651905e+00  -2.6905133e+05
   1.3474491e-09  -4.3371573e-05   2.4735523e+00   2.4652182e+00  -2.6740555e+05
   1.3484495e-09  -4.3105420e-05   2.4735287e+00   2.4652457e+00  -2.6576977e+05
   1.3494498e-09  -4.2840894e-05   2.4735053e+00   2.4652731e+00  -2.6414394e+05
   1.3504502e-09  -4.2577986e-05   2.4734820e+00   2.4653003e+00  -2.6252799e+05
   1.3514505e-09  -4.2316685e-05   2.4734588e+00   2.4653274e+00  -2.6092188e+05
   1.3524508e-09  -4.2056982e-05   2.4734358e+00   2.4653543e+00  -2.5932553e+05
   1.3534512e-09  -4.1798867e-05   2.4734129e+00   2.4653810e+00  -2.5773889e+05
   1.3544515e-09  -4.1542330e-05   2.4733902e+00   2.4654076e+00  -2.5616190e+05
   1.3554518e-09  -4.1287362e-05   2.4733676e+00   2.4654340e+00  -2.5459451e+05
   1.3564522e-09  -4.1033953e-05   2.4733452e+00   2.4654602e+00  -2.5303665e+05
   1.3574525e-09  -4.0782094e-05   2.4733228e+00   2.4654863e+00  -2.5148826e+05
   1.3584528e-09  -4.0531775e-05   2.4733007e+00   2.4655122e+00  -2.4994930e+05
   1.3594532e-09  -4.0282987e-05   2.4732786e+00   2.4655380e+00  -2.4841970e+05
   1.3604535e-09  -4.0035720e-05   2.4732567e+00   2.4655636e+00  -2.4689941e+05
   1.3614538e-09  -3.9789966e-05   2.4732349e+00   2.4655890e+00  -2.4538837e+05
   1.3624542e-09  -3.9545715e-05   2.4732133e+00   2.4656143e+00  -2.4388652e+05
   1.3634545e-09  -3.9302958e-05   2.4731918e+00   2.4656394e+00  -2.4239381e+05
   1.3644548e-09  -3.9061686e-05   2.4731704e+00   2.4656644e+00  -2.4091019e+05
   1.3654552e-09  -3.8821890e-05   2.4731492e+00   2.4656892e+00  -2.3943559e+05
   1.3664555e-09  -3.8583561e-05   2.4731280e+00   2.4657139e+00  -2.3796998e+05
   1.3674558e-09  -3.8346689e-05   2.4731071e+00   2.4657384e+00  -2.3651328e+05
   1.3684562e-09  -3.8111267e-05   2.4730862e+00   2.4657628e+00  -2.3506545e+05
   1.3694565e-09  -3.7877285e-05   2.4730655e+00   2.4657870e+00  -2.3362643e+05
   1.3704568e-09  -3.7644734e-05   2.4730449e+00   2.4658111e+00  -2.3219617e+05
   1.3714572e-09  -3.7413606e-05   2.4730244e+00   2.4658350e+00  -2.3077462e+05
   1.3724575e-09  -3.7183892e-05   2.4730040e+00   2.4658588e+00  -2.2936172e+05
   1.3734578e-09  -3.6955584e-05   2.4729838e+00   2.4658825e+00  -2.2795743e+05
   1.3744582e-09  -3.6728673e-05   2.4729637e+00   2.4659060e+00  -2.2656168e+05
   1.3754585e-09  -3.6503150e-05   2.4729437e+00   2.4659293e+00  -2.2517444e+05
   1.3764588e-09  -3.6279007e-05   2.4729239e+00   2.4659525e+00  -2.2379564e+05
   1.3774592e-09  -3.6056236e-05   2.4729041e+00   2.4659756e+00  -2.2242524e+05
   1.3784595e-09  -3.5834828e-05   2.4728845e+00   2.4659985e+00  -2.2106319e+05
   1.3794598e-09  -3.5614775e-05   2.4728650e+00   2.4660213e+00  -2.1970943e+05
   1.3804602e-09  -3.5396069e-05   2.4728456e+00   2.4660439e+00  -2.1836391e+05
   1.3814605e-09  -3.5178701e-05   2.4728264e+00   2.4660664e+00  -2.1702659e+05
   1.3824608e-09  -3.4962663e-05   2.4728072e+00   2.4660888e+00  -2.1569742e+05
   1.3834612e-09  -3.4747948e-05   2.4727882e+00   2.4661110e+00  -2.1437635e+05
   1.3844615e-09  -3.4534547e-05   2.4727693e+00   2.4661331e+00  -2.1306332e+05
   1.3854618e-09  -3.4322452e-05   2.4727505e+00   2.4661551e+00  -2.1175829e+05
   1.3864622e-09  -3.4111655e-05   2.4727318e+00   2.4661769e+00  -2.1046121e+05
   1.3874625e-09  -3.3902149e-05   2.4727133e+00   2.4661986e+00  -2.0917203e+05
   1.3884628e-09  -3.3693925e-05   2.4726948e+00   2.4662202e+00  -2.0789071e+05
   1.3894632e-09  -3.3486976e-05   2.4726765e+00   2.4662416e+00  -2.0661720e+05
   1.3904635e-09  -3.3281293e-05   2.4726583e+00   2.4662629e+00  -2.0535145e+05
   1.3914638e-09  -3.3076870e-05   2.4726402e+00   2.4662841e+00  -2.0409341e+05
   1.3924642e-09  -3.2873699e-05   2.4726222e+00   2.4663051e+00  -2.0284303e+05
   1.3934645e-09  -3.2671771e-05   2.4726043e+00   2.4663260e+00  -2.0160028e+05
   1.3944648e-09  -3.2471079e-05   2.4725865e+00   2.4663468e+00  -2.0036510e+05
   1.3954652e-09  -3.2271617e-05   2.4725688e+00   2.4663674e+00  -1.9913745e+05
   1.3964655e-09  -3.2073375e-05   2.4725513e+00   2.4663880e+00  -1.9791729e+05
   1.3974658e-09  -3.1876348e-05   2.4725338e+00   2.4664084e+00  -1.9670456e+05
   1.3984662e-09  -3.1680526e-05   2.4725165e+00   2.4664287e+00  -1.9549922e+05
   1.3994665e-09  -3.1485904e-05   2.4724992e+00   2.4664488e+00  -1.9430123e+05
   1.4004668e-09  -3.1292474e-05   2.4724821e+00   2.4664688e+00  -1.9311055e+05
   1.4014672e-09  -3.1100228e-05   2.4724650e+00   2.4664887e+00  -1.9192712e+05
   1.4024675e-09  -3.0909160e-05   2.4724481e+00   2.4665085e+00  -1.9075091e+05
   1.4034678e-09  -3.0719261e-05   2.4724313e+00   2.4665282e+00  -1.8958188e+05
   1.4044682e-09  -3.0530526e-05   2.4724146e+00   2.4665477e+00  -1.8841997e+05
   1.4054685e-09  -3.0342947e-05   2.4723980e+00   2.4665672e+00  -1.8726514e+05
   1.4064688e-09  -3.0156516e-05   2.4723814e+00   2.4665865e+00  -1.8611736e+05
   1.4074692e-09  -2.9971227e-05   2.4723650e+00   2.4666057e+00  -1.8497658e+05
   1.4084695e-09  -2.9787073e-05   2.4723487e+00   2.4666247e+00  -1.8384276e+05
   1.4094698e-09  -2.9604047e-05   2.4723325e+00   2.4666437e+00  -1.8271585e+05
   1.4104702e-09  -2.9422143e-05   2.4723164e+00   2.4666625e+00  -1.8159581e+05
   1.4114705e-09  -2.9241352e-05   2.4723004e+00   2.4666812e+00  -1.8048261e+05
   1.4124708e-09  -2.9061669e-05   2.4722844e+00   2.4666998e+00  -1.7937620e+05
   1.4134712e-09  -2.8883087e-05   2.4722686e+00   2.4667183e+00  -1.7827653e+05
   1.4144715e-09  -2.8705599e-05   2.4722529e+00   2.4667367e+00  -1.7718358e+05
   1.4154718e-09  -2.8529198e-05   2.4722373e+00   2.4667550e+00  -1.7609729e+05
   1.4164722e-09  -2.8353877e-05   2.4722217e+00   2.4667731e+00  -1.7501763e+05
   1.4174725e-09  -2.8179631e-05   2.4722063e+00   2.4667912e+00  -1.7394456e+05
   1.4184728e-09  -2.8006453e-05   2.4721910e+00   2.4668091e+00  -1.7287803e+05
   1.4194732e-09  -2.7834335e-05   2.4721757e+00   2.4668269e+00  -1.7181802e+05
   1.4204735e-09  -2.7663272e-05   2.4721605e+00   2.4668446e+00  -1.7076447e+05
   1.4214738e-09  -2.7493257e-05   2.4721455e+00   2.4668623e+00  -1.6971735e+05
   1.4224742e-09  -2.7324284e-05   2.4721305e+00   2.4668798e+00  -1.6867662e+05
   1.4234745e-09  -2.7156347e-05   2.4721156e+00   2.4668971e+00  -1.6764225e+05
   1.4244748e-09  -2.6989438e-05   2.4721009e+00   2.4669144e+00  -1.6661418e+05
   1.4254752e-09  -2.6823553e-05   2.4720862e+00   2.4669316e+00  -1.6559239e+05
   1.4264755e-09  -2.6658683e-05   2.4720715e+00   2.4669487e+00  -1.6457684e+05
   1.4274758e-09  -2.6494825e-05   2.4720570e+00   2.4669656e+00  -1.6356749e+05
   1.4284762e-09  -2.6331970e-05   2.4720426e+00   2.4669825e+00  -1.6256430e+05
   1.4294765e-09  -2.6170114e-05   2.4720283e+00   2.4669993e+00  -1.6156723e+05
   1.4304768e-09  -2.6009249e-05   2.4720140e+00   2.4670159e+00  -1.6057625e+05
   1.4314772e-09  -2.5849371e-05   2.4719998e+00   2.4670325e+00  -1.5959132e+05
   1.4324775e-09  -2.5690472e-05   2.4719858e+00   2.4670489e+00  -1.5861241e+05
   1.4334778e-09  -2.5532547e-05   2.4719718e+00   2.4670653e+00  -1.5763947e+05
   1.4344782e-09  -2.5375591e-05   2.4719579e+00   2.4670816e+00  -1.5667247e+05
   1.4354785e-09  -2.5219596e-05   2.4719441e+00   2.4670977e+00  -1.5571138e+05
   1.4364788e-09  -2.5064558e-05   2.4719303e+00   2.4671138e+00  -1.5475615e+05
   1.4374792e-09  -2.4910470e-05   2.4719167e+00   2.4671297e+00  -1.5380676e+05
   1.4384795e-09  -2.4757326e-05   2.4719031e+00   2.4671456e+00  -1.5286317e+05
   1.4394798e-09  -2.4605122e-05   2.4718896e+00   2.4671613e+00  -1.5192534e+05
   1.4404802e-09  -2.4453850e-05   2.4718762e+00   2.4671770e+00  -1.5099324e+05
   1.4414805e-09  -2.4303506e-05   2.4718629e+00   2.4671926e+00  -1.5006683e+05
   1.4424808e-09  -2.4154084e-05   2.4718497e+00   2.4672081e+00  -1.4914608e+05
   1.4434812e-09  -2.4005578e-05   2.4718365e+00   2.4672234e+00  -1.4823095e+05
   1.4444815e-09  -2.3857982e-05   2.4718234e+00   2.4672387e+00  -1.4732142e+05
   1.4454818e-09  -2.3711291e-05   2.4718104e+00   2.4672539e+00  -1.4641744e+05
   1.4464822e-09  -2.3565500e-05   2.4717975e+00   2.4672690e+00  -1.4551898e+05
   1.4474825e-09  -2.3420603e-05   2.4717847e+00   2.4672840e+00  -1.4462601e+05
   1.4484828e-09  -2.3276594e-05   2.4717719e+00   2.4672989e+00  -1.4373850e+05
   1.4494832e-09  -2.3133468e-05   2.4717592e+00   2.4673137e+00  -1.4285641e+05
   1.4504835e-09  -2.2991220e-05   2.4717466e+00   2.4673285e+00  -1.4197971e+05
   1.4514838e-09  -2.2849844e-05   2.4717341e+00   2.4673431e+00  -1.4110837e+05
   1.4524842e-09  -2.2709335e-05   2.4717217e+00   2.4673577e+00  -1.4024236e+05
   1.4534845e-09  -2.2569688e-05   2.4717093e+00   2.4673721e+00  -1.3938163e+05
   1.4544848e-09  -2.2430897e-05   2.4716970e+00   2.4673865e+00  -1.3852617e+05
   1.4554852e-09  -2.2292958e-05   2.4716848e+00   2.4674008e+00  -1.3767593e+05
   1.4564855e-09  -2.2155864e-05   2.4716726e+00   2.4674150e+00  -1.3683089e+05
   1.4574858e-09  -2.2019611e-05   2.4716606e+00   2.4674291e+00  -1.3599101e+05
   1.4584862e-09  -2.1884194e-05   2.4716486e+00   2.4674431e+00  -1.3515627e+05
   1.4594865e-09  -2.1749608e-05   2.4716366e+00   2.4674571e+00  -1.3432663e+05
   1.4604868e-09  -2.1615847e-05   2.4716248e+00   2.4674709e+00  -1.3350207e+05
   1.4614872e-09  -2.1482907e-05   2.4716130e+00   2.4674847e+00  -1.3268254e+05
   1.4624875e-09  -2.1350782e-05   2.4716013e+00   2.4674984e+00  -1.3186802e+05
