   0.0000000e+00  -1.2703995e-01   6.3188819e+00   3.2163688e-04  -5.2047261e+08
   1.0003334e-12  -1.2652002e-01   6.3173657e+00   3.3483633e-04  -5.1906949e+08
   2.0006669e-12  -1.2600149e-01   6.3158232e+00   3.4853792e-04  -5.1766622e+08
   3.0010003e-12  -1.2548437e-01   6.3142541e+00   3.6275900e-04  -5.1626281e+08
   4.0013338e-12  -1.2496864e-01   6.3126581e+00   3.7751746e-04  -5.1485924e+08
   5.0016672e-12  -1.2445433e-01   6.3110348e+00   3.9283169e-04  -5.1345553e+08
   6.0020007e-12  -1.2394141e-01   6.3093838e+00   4.0872068e-04  -5.1205168e+08
   7.0023341e-12  -1.2342991e-01   6.3077049e+00   4.2520395e-04  -5.1064769e+08
   8.0026676e-12  -1.2291980e-01   6.3059976e+00   4.4230160e-04  -5.0924357e+08
   9.0030010e-12  -1.2241110e-01   6.3042617e+00   4.6003434e-04  -5.0783930e+08
   1.0003334e-11  -1.2190381e-01   6.3024966e+00   4.7842348e-04  -5.0643491e+08
   1.1003668e-11  -1.2139792e-01   6.3007021e+00   4.9749093e-04  -5.0503039e+08
   1.2004001e-11  -1.2089344e-01   6.2988779e+00   5.1725927e-04  -5.0362574e+08
   1.3004335e-11  -1.2039036e-01   6.2970234e+00   5.3775170e-04  -5.0222098e+08
   1.4004668e-11  -1.1988868e-01   6.2951385e+00   5.5899209e-04  -5.0081609e+08
   1.5005002e-11  -1.1938842e-01   6.2932226e+00   5.8100500e-04  -4.9941109e+08
   1.6005335e-11  -1.1888955e-01   6.2912755e+00   6.0381567e-04  -4.9800598e+08
   1.7005669e-11  -1.1839210e-01   6.2892967e+00   6.2745004e-04  -4.9660077e+08
   1.8006002e-11  -1.1789605e-01   6.2872860e+00   6.5193480e-04  -4.9519545e+08
   1.9006335e-11  -1.1740140e-01   6.2852428e+00   6.7729737e-04  -4.9379003e+08
   2.0006669e-11  -1.1690816e-01   6.2831669e+00   7.0356590e-04  -4.9238452e+08
   2.1007002e-11  -1.1641633e-01   6.2810579e+00   7.3076935e-04  -4.9097892e+08
   2.2007336e-11  -1.1592590e-01   6.2789153e+00   7.5893744e-04  -4.8957324e+08
   2.3007669e-11  -1.1543688e-01   6.2767389e+00   7.8810071e-04  -4.8816748e+08
   2.4008003e-11  -1.1494927e-01   6.2745281e+00   8.1829049e-04  -4.8676164e+08
   2.5008336e-11  -1.1446306e-01   6.2722828e+00   8.4953898e-04  -4.8535574e+08
   2.6008670e-11  -1.1397826e-01   6.2700024e+00   8.8187921e-04  -4.8394977e+08
   2.7009003e-11  -1.1349486e-01   6.2676865e+00   9.1534509e-04  -4.8254374e+08
   2.8009336e-11  -1.1301287e-01   6.2653349e+00   9.4997141e-04  -4.8113767e+08
   2.9009670e-11  -1.1253229e-01   6.2629472e+00   9.8579385e-04  -4.7973154e+08
   3.0010003e-11  -1.1205312e-01   6.2605228e+00   1.0228490e-03  -4.7832538e+08
   3.1010337e-11  -1.1157535e-01   6.2580615e+00   1.0611745e-03  -4.7691918e+08
   3.2010670e-11  -1.1109898e-01   6.2555629e+00   1.1008088e-03  -4.7551296e+08
   3.3011004e-11  -1.1062403e-01   6.2530266e+00   1.1417913e-03  -4.7410672e+08
   3.4011337e-11  -1.1015048e-01   6.2504522e+00   1.1841625e-03  -4.7270046e+08
   3.5011671e-11  -1.0967834e-01   6.2478393e+00   1.2279640e-03  -4.7129420e+08
   3.6012004e-11  -1.0920760e-01   6.2451876e+00   1.2732380e-03  -4.6988794e+08
   3.7012337e-11  -1.0873827e-01   6.2424966e+00   1.3200283e-03  -4.6848169e+08
   3.8012671e-11  -1.0827035e-01   6.2397661e+00   1.3683793e-03  -4.6707545e+08
   3.9013004e-11  -1.0780384e-01   6.2369955e+00   1.4183367e-03  -4.6566924e+08
   4.0013338e-11  -1.0733873e-01   6.2341845e+00   1.4699473e-03  -4.6426306e+08
   4.1013671e-11  -1.0687503e-01   6.2313328e+00   1.5232588e-03  -4.6285693e+08
   4.2014005e-11  -1.0641273e-01   6.2284400e+00   1.5783203e-03  -4.6145084e+08
   4.3014338e-11  -1.0595184e-01   6.2255056e+00   1.6351820e-03  -4.6004481e+08
   4.4014672e-11  -1.0549236e-01   6.2225294e+00   1.6938949e-03  -4.5863885e+08
   4.5015005e-11  -1.0503429e-01   6.2195109e+00   1.7545117e-03  -4.5723297e+08
   4.6015338e-11  -1.0457762e-01   6.2164497e+00   1.8170859e-03  -4.5582717e+08
   4.7015672e-11  -1.0412235e-01   6.2133456e+00   1.8816724e-03  -4.5442147e+08
   4.8016005e-11  -1.0366850e-01   6.2101980e+00   1.9483273e-03  -4.5301587e+08
   4.9016339e-11  -1.0321604e-01   6.2070067e+00   2.0171079e-03  -4.5161039e+08
   5.0016672e-11  -1.0276500e-01   6.2037713e+00   2.0880728e-03  -4.5020504e+08
   5.1017006e-11  -1.0231536e-01   6.2004914e+00   2.1612817e-03  -4.4879982e+08
   5.2017339e-11  -1.0186713e-01   6.1971667e+00   2.2367960e-03  -4.4739475e+08
   5.3017673e-11  -1.0142030e-01   6.1937968e+00   2.3146780e-03  -4.4598984e+08
   5.4018006e-11  -1.0097487e-01   6.1903813e+00   2.3949914e-03  -4.4458509e+08
   5.5018339e-11  -1.0053086e-01   6.1869199e+00   2.4778014e-03  -4.4318053e+08
   5.6018673e-11  -1.0008824e-01   6.1834122e+00   2.5631745e-03  -4.4177617e+08
   5.7019006e-11  -9.9647033e-02   6.1798579e+00   2.6511785e-03  -4.4037200e+08
   5.8019340e-11  -9.9207229e-02   6.1762566e+00   2.7418826e-03  -4.3896806e+08
   5.9019673e-11  -9.8768830e-02   6.1726080e+00   2.8353573e-03  -4.3756434e+08
   6.0020007e-11  -9.8331834e-02   6.1689118e+00   2.9316748e-03  -4.3616087e+08
   6.1020340e-11  -9.7896242e-02   6.1651675e+00   3.0309083e-03  -4.3475765e+08
   6.2020674e-11  -9.7462054e-02   6.1613749e+00   3.1331329e-03  -4.3335470e+08
   6.3021007e-11  -9.7029268e-02   6.1575337e+00   3.2384248e-03  -4.3195203e+08
   6.4021340e-11  -9.6597886e-02   6.1536435e+00   3.3468617e-03  -4.3054966e+08
   6.5021674e-11  -9.6167907e-02   6.1497040e+00   3.4585230e-03  -4.2914760e+08
   6.6022007e-11  -9.5739330e-02   6.1457148e+00   3.5734893e-03  -4.2774586e+08
   6.7022341e-11  -9.5312154e-02   6.1416757e+00   3.6918429e-03  -4.2634446e+08
   6.8022674e-11  -9.4886381e-02   6.1375864e+00   3.8136675e-03  -4.2494342e+08
   6.9023008e-11  -9.4462008e-02   6.1334464e+00   3.9390484e-03  -4.2354274e+08
   7.0023341e-11  -9.4039037e-02   6.1292556e+00   4.0680722e-03  -4.2214244e+08
   7.1023675e-11  -9.3617466e-02   6.1250137e+00   4.2008274e-03  -4.2074255e+08
   7.2024008e-11  -9.3197296e-02   6.1207202e+00   4.3374036e-03  -4.1934306e+08
   7.3024341e-11  -9.2778525e-02   6.1163751e+00   4.4778923e-03  -4.1794401e+08
   7.4024675e-11  -9.2361153e-02   6.1119779e+00   4.6223865e-03  -4.1654541e+08
   7.5025008e-11  -9.1945180e-02   6.1075284e+00   4.7709806e-03  -4.1514726e+08
   7.6025342e-11  -9.1530605e-02   6.1030263e+00   4.9237706e-03  -4.1374960e+08
   7.7025675e-11  -9.1117428e-02   6.0984713e+00   5.0808542e-03  -4.1235243e+08
   7.8026009e-11  -9.0705649e-02   6.0938633e+00   5.2423307e-03  -4.1095578e+08
   7.9026342e-11  -9.0295266e-02   6.0892018e+00   5.4083007e-03  -4.0955966e+08
   8.0026676e-11  -8.9886280e-02   6.0844868e+00   5.5788666e-03  -4.0816409e+08
   8.1027009e-11  -8.9478689e-02   6.0797179e+00   5.7541323e-03  -4.0676908e+08
   8.2027342e-11  -8.9072494e-02   6.0748949e+00   5.9342035e-03  -4.0537466e+08
   8.3027676e-11  -8.8667692e-02   6.0700175e+00   6.1191872e-03  -4.0398084e+08
   8.4028009e-11  -8.8264285e-02   6.0650856e+00   6.3091920e-03  -4.0258765e+08
   8.5028343e-11  -8.7862271e-02   6.0600990e+00   6.5043282e-03  -4.0119510e+08
   8.6028676e-11  -8.7461650e-02   6.0550573e+00   6.7047078e-03  -3.9980320e+08
   8.7029010e-11  -8.7062421e-02   6.0499604e+00   6.9104441e-03  -3.9841199e+08
   8.8029343e-11  -8.6664583e-02   6.0448081e+00   7.1216521e-03  -3.9702148e+08
   8.9029677e-11  -8.6268136e-02   6.0396003e+00   7.3384484e-03  -3.9563168e+08
   9.0030010e-11  -8.5873078e-02   6.0343367e+00   7.5609511e-03  -3.9424263e+08
   9.1030343e-11  -8.5479409e-02   6.0290171e+00   7.7892798e-03  -3.9285433e+08
   9.2030677e-11  -8.5087129e-02   6.0236414e+00   8.0235559e-03  -3.9146682e+08
   9.3031010e-11  -8.4696236e-02   6.0182094e+00   8.2639021e-03  -3.9008011e+08
   9.4031344e-11  -8.4306730e-02   6.0127209e+00   8.5104427e-03  -3.8869422e+08
   9.5031677e-11  -8.3918610e-02   6.0071759e+00   8.7633034e-03  -3.8730918e+08
   9.6032011e-11  -8.3531875e-02   6.0015741e+00   9.0226117e-03  -3.8592500e+08
   9.7032344e-11  -8.3146524e-02   5.9959155e+00   9.2884963e-03  -3.8454171e+08
   9.8032678e-11  -8.2762556e-02   5.9901999e+00   9.5610875e-03  -3.8315933e+08
   9.9033011e-11  -8.2379971e-02   5.9844272e+00   9.8405170e-03  -3.8177788e+08
   1.0003334e-10  -8.1998767e-02   5.9785973e+00   1.0126918e-02  -3.8039738e+08
   1.0103368e-10  -8.1618943e-02   5.9727101e+00   1.0420425e-02  -3.7901786e+08
   1.0203401e-10  -8.1240499e-02   5.9667655e+00   1.0721175e-02  -3.7763934e+08
   1.0303434e-10  -8.0863433e-02   5.9607633e+00   1.1029304e-02  -3.7626185e+08
   1.0403468e-10  -8.0487744e-02   5.9547037e+00   1.1344952e-02  -3.7488540e+08
   1.0503501e-10  -8.0113432e-02   5.9485864e+00   1.1668259e-02  -3.7351002e+08
   1.0603535e-10  -7.9740495e-02   5.9424114e+00   1.1999366e-02  -3.7213573e+08
   1.0703568e-10  -7.9368932e-02   5.9361787e+00   1.2338415e-02  -3.7076256e+08
   1.0803601e-10  -7.8998742e-02   5.9298882e+00   1.2685552e-02  -3.6939053e+08
   1.0903635e-10  -7.8629924e-02   5.9235399e+00   1.3040922e-02  -3.6801967e+08
   1.1003668e-10  -7.8262476e-02   5.9171339e+00   1.3404670e-02  -3.6665000e+08
   1.1103701e-10  -7.7896398e-02   5.9106699e+00   1.3776945e-02  -3.6528154e+08
   1.1203735e-10  -7.7531689e-02   5.9041482e+00   1.4157896e-02  -3.6391432e+08
   1.1303768e-10  -7.7168346e-02   5.8975686e+00   1.4547673e-02  -3.6254837e+08
   1.1403801e-10  -7.6806369e-02   5.8909312e+00   1.4946427e-02  -3.6118370e+08
   1.1503835e-10  -7.6445756e-02   5.8842360e+00   1.5354310e-02  -3.5982035e+08
   1.1603868e-10  -7.6086506e-02   5.8774831e+00   1.5771476e-02  -3.5845835e+08
   1.1703901e-10  -7.5728618e-02   5.8706725e+00   1.6198079e-02  -3.5709770e+08
   1.1803935e-10  -7.5372090e-02   5.8638042e+00   1.6634274e-02  -3.5573845e+08
   1.1903968e-10  -7.5016922e-02   5.8568783e+00   1.7080218e-02  -3.5438062e+08
   1.2004001e-10  -7.4663110e-02   5.8498949e+00   1.7536068e-02  -3.5302423e+08
   1.2104035e-10  -7.4310655e-02   5.8428540e+00   1.8001981e-02  -3.5166931e+08
   1.2204068e-10  -7.3959554e-02   5.8357558e+00   1.8478117e-02  -3.5031589e+08
   1.2304101e-10  -7.3609807e-02   5.8286004e+00   1.8964635e-02  -3.4896399e+08
   1.2404135e-10  -7.3261410e-02   5.8213878e+00   1.9461696e-02  -3.4761364e+08
   1.2504168e-10  -7.2914364e-02   5.8141183e+00   1.9969460e-02  -3.4626487e+08
   1.2604201e-10  -7.2568666e-02   5.8067918e+00   2.0488090e-02  -3.4491770e+08
   1.2704235e-10  -7.2224315e-02   5.7994086e+00   2.1017747e-02  -3.4357216e+08
   1.2804268e-10  -7.1881309e-02   5.7919688e+00   2.1558595e-02  -3.4222828e+08
   1.2904301e-10  -7.1539646e-02   5.7844726e+00   2.2110796e-02  -3.4088607e+08
   1.3004335e-10  -7.1199325e-02   5.7769201e+00   2.2674515e-02  -3.3954559e+08
   1.3104368e-10  -7.0860344e-02   5.7693115e+00   2.3249917e-02  -3.3820683e+08
   1.3204401e-10  -7.0522702e-02   5.7616471e+00   2.3837164e-02  -3.3686985e+08
   1.3304435e-10  -7.0186395e-02   5.7539269e+00   2.4436423e-02  -3.3553466e+08
   1.3404468e-10  -6.9851424e-02   5.7461513e+00   2.5047859e-02  -3.3420128e+08
   1.3504502e-10  -6.9517785e-02   5.7383204e+00   2.5671637e-02  -3.3286976e+08
   1.3604535e-10  -6.9185477e-02   5.7304345e+00   2.6307923e-02  -3.3154011e+08
   1.3704568e-10  -6.8854498e-02   5.7224937e+00   2.6956882e-02  -3.3021236e+08
   1.3804602e-10  -6.8524846e-02   5.7144984e+00   2.7618681e-02  -3.2888655e+08
   1.3904635e-10  -6.8196520e-02   5.7064488e+00   2.8293484e-02  -3.2756269e+08
   1.4004668e-10  -6.7869517e-02   5.6983452e+00   2.8981457e-02  -3.2624082e+08
   1.4104702e-10  -6.7543835e-02   5.6901878e+00   2.9682767e-02  -3.2492096e+08
   1.4204735e-10  -6.7219472e-02   5.6819770e+00   3.0397579e-02  -3.2360314e+08
   1.4304768e-10  -6.6896426e-02   5.6737129e+00   3.1126057e-02  -3.2228739e+08
   1.4404802e-10  -6.6574696e-02   5.6653960e+00   3.1868366e-02  -3.2097374e+08
   1.4504835e-10  -6.6254278e-02   5.6570265e+00   3.2624672e-02  -3.1966221e+08
   1.4604868e-10  -6.5935171e-02   5.6486048e+00   3.3395138e-02  -3.1835284e+08
   1.4704902e-10  -6.5617373e-02   5.6401312e+00   3.4179928e-02  -3.1704564e+08
   1.4804935e-10  -6.5300881e-02   5.6316060e+00   3.4979206e-02  -3.1574065e+08
   1.4904968e-10  -6.4985694e-02   5.6230296e+00   3.5793132e-02  -3.1443790e+08
   1.5005002e-10  -6.4671808e-02   5.6144023e+00   3.6621871e-02  -3.1313740e+08
   1.5105035e-10  -6.4359222e-02   5.6057245e+00   3.7465582e-02  -3.1183920e+08
   1.5205068e-10  -6.4047934e-02   5.5969966e+00   3.8324427e-02  -3.1054331e+08
   1.5305102e-10  -6.3737941e-02   5.5882190e+00   3.9198565e-02  -3.0924977e+08
   1.5405135e-10  -6.3429240e-02   5.5793920e+00   4.0088155e-02  -3.0795860e+08
   1.5505168e-10  -6.3121830e-02   5.5705160e+00   4.0993354e-02  -3.0666983e+08
   1.5605202e-10  -6.2815707e-02   5.5615916e+00   4.1914320e-02  -3.0538349e+08
   1.5705235e-10  -6.2510870e-02   5.5526190e+00   4.2851208e-02  -3.0409959e+08
   1.5805268e-10  -6.2207317e-02   5.5435987e+00   4.3804173e-02  -3.0281818e+08
   1.5905302e-10  -6.1905043e-02   5.5345311e+00   4.4773368e-02  -3.0153928e+08
   1.6005335e-10  -6.1604048e-02   5.5254168e+00   4.5758946e-02  -3.0026291e+08
   1.6105368e-10  -6.1304328e-02   5.5162560e+00   4.6761057e-02  -2.9898909e+08
   1.6205402e-10  -6.1005881e-02   5.5070494e+00   4.7779852e-02  -2.9771787e+08
   1.6305435e-10  -6.0708704e-02   5.4977973e+00   4.8815478e-02  -2.9644926e+08
   1.6405468e-10  -6.0412795e-02   5.4885002e+00   4.9868081e-02  -2.9518328e+08
   1.6505502e-10  -6.0118151e-02   5.4791586e+00   5.0937807e-02  -2.9391997e+08
   1.6605535e-10  -5.9824769e-02   5.4697730e+00   5.2024800e-02  -2.9265936e+08
   1.6705569e-10  -5.9532647e-02   5.4603438e+00   5.3129201e-02  -2.9140146e+08
   1.6805602e-10  -5.9241782e-02   5.4508717e+00   5.4251150e-02  -2.9014630e+08
   1.6905635e-10  -5.8952171e-02   5.4413570e+00   5.5390785e-02  -2.8889391e+08
   1.7005669e-10  -5.8663811e-02   5.4318003e+00   5.6548244e-02  -2.8764431e+08
   1.7105702e-10  -5.8376700e-02   5.4222021e+00   5.7723660e-02  -2.8639753e+08
   1.7205735e-10  -5.8090835e-02   5.4125630e+00   5.8917166e-02  -2.8515359e+08
   1.7305769e-10  -5.7806212e-02   5.4028834e+00   6.0128894e-02  -2.8391253e+08
   1.7405802e-10  -5.7522829e-02   5.3931639e+00   6.1358970e-02  -2.8267435e+08
   1.7505835e-10  -5.7240684e-02   5.3834050e+00   6.2607523e-02  -2.8143909e+08
   1.7605869e-10  -5.6959772e-02   5.3736074e+00   6.3874676e-02  -2.8020677e+08
   1.7705902e-10  -5.6680092e-02   5.3637715e+00   6.5160550e-02  -2.7897741e+08
   1.7805935e-10  -5.6401640e-02   5.3538979e+00   6.6465267e-02  -2.7775105e+08
   1.7905969e-10  -5.6124413e-02   5.3439872e+00   6.7788944e-02  -2.7652769e+08
   1.8006002e-10  -5.5848409e-02   5.3340399e+00   6.9131695e-02  -2.7530737e+08
   1.8106035e-10  -5.5573623e-02   5.3240566e+00   7.0493633e-02  -2.7409011e+08
   1.8206069e-10  -5.5300054e-02   5.3140379e+00   7.1874869e-02  -2.7287592e+08
   1.8306102e-10  -5.5027698e-02   5.3039844e+00   7.3275511e-02  -2.7166484e+08
   1.8406135e-10  -5.4756551e-02   5.2938966e+00   7.4695662e-02  -2.7045689e+08
   1.8506169e-10  -5.4486612e-02   5.2837752e+00   7.6135426e-02  -2.6925208e+08
   1.8606202e-10  -5.4217875e-02   5.2736208e+00   7.7594904e-02  -2.6805044e+08
   1.8706235e-10  -5.3950340e-02   5.2634339e+00   7.9074191e-02  -2.6685199e+08
   1.8806269e-10  -5.3684001e-02   5.2532151e+00   8.0573382e-02  -2.6565675e+08
   1.8906302e-10  -5.3418857e-02   5.2429651e+00   8.2092570e-02  -2.6446475e+08
   1.9006335e-10  -5.3154903e-02   5.2326845e+00   8.3631843e-02  -2.6327599e+08
   1.9106369e-10  -5.2892136e-02   5.2223738e+00   8.5191287e-02  -2.6209051e+08
   1.9206402e-10  -5.2630554e-02   5.2120337e+00   8.6770985e-02  -2.6090832e+08
   1.9306435e-10  -5.2370153e-02   5.2016649e+00   8.8371017e-02  -2.5972945e+08
   1.9406469e-10  -5.2110929e-02   5.1912679e+00   8.9991462e-02  -2.5855391e+08
   1.9506502e-10  -5.1852880e-02   5.1808433e+00   9.1632392e-02  -2.5738171e+08
   1.9606536e-10  -5.1596001e-02   5.1703918e+00   9.3293879e-02  -2.5621289e+08
   1.9706569e-10  -5.1340290e-02   5.1599141e+00   9.4975992e-02  -2.5504746e+08
   1.9806602e-10  -5.1085743e-02   5.1494107e+00   9.6678795e-02  -2.5388543e+08
   1.9906636e-10  -5.0832357e-02   5.1388822e+00   9.8402351e-02  -2.5272683e+08
   2.0006669e-10  -5.0580128e-02   5.1283294e+00   1.0014672e-01  -2.5157167e+08
   2.0106702e-10  -5.0329052e-02   5.1177528e+00   1.0191195e-01  -2.5041998e+08
   2.0206736e-10  -5.0079127e-02   5.1071530e+00   1.0369811e-01  -2.4927175e+08
   2.0306769e-10  -4.9830349e-02   5.0965308e+00   1.0550523e-01  -2.4812703e+08
   2.0406802e-10  -4.9582714e-02   5.0858868e+00   1.0733337e-01  -2.4698581e+08
   2.0506836e-10  -4.9336219e-02   5.0752215e+00   1.0918257e-01  -2.4584812e+08
   2.0606869e-10  -4.9090861e-02   5.0645357e+00   1.1105286e-01  -2.4471396e+08
   2.0706902e-10  -4.8846635e-02   5.0538300e+00   1.1294429e-01  -2.4358337e+08
   2.0806936e-10  -4.8603538e-02   5.0431049e+00   1.1485689e-01  -2.4245635e+08
   2.0906969e-10  -4.8361566e-02   5.0323612e+00   1.1679068e-01  -2.4133291e+08
   2.1007002e-10  -4.8120717e-02   5.0215995e+00   1.1874570e-01  -2.4021308e+08
   2.1107036e-10  -4.7880986e-02   5.0108205e+00   1.2072196e-01  -2.3909686e+08
   2.1207069e-10  -4.7642370e-02   5.0000247e+00   1.2271949e-01  -2.3798426e+08
   2.1307102e-10  -4.7404865e-02   4.9892128e+00   1.2473830e-01  -2.3687531e+08
   2.1407136e-10  -4.7168467e-02   4.9783855e+00   1.2677841e-01  -2.3577002e+08
   2.1507169e-10  -4.6933174e-02   4.9675433e+00   1.2883982e-01  -2.3466839e+08
   2.1607202e-10  -4.6698980e-02   4.9566870e+00   1.3092255e-01  -2.3357044e+08
   2.1707236e-10  -4.6465883e-02   4.9458172e+00   1.3302659e-01  -2.3247619e+08
   2.1807269e-10  -4.6233878e-02   4.9349345e+00   1.3515195e-01  -2.3138563e+08
   2.1907302e-10  -4.6002963e-02   4.9240394e+00   1.3729861e-01  -2.3029880e+08
   2.2007336e-10  -4.5773133e-02   4.9131328e+00   1.3946658e-01  -2.2921568e+08
   2.2107369e-10  -4.5544385e-02   4.9022151e+00   1.4165585e-01  -2.2813631e+08
   2.2207402e-10  -4.5316714e-02   4.8912871e+00   1.4386639e-01  -2.2706068e+08
   2.2307436e-10  -4.5090118e-02   4.8803493e+00   1.4609820e-01  -2.2598880e+08
   2.2407469e-10  -4.4864591e-02   4.8694024e+00   1.4835125e-01  -2.2492069e+08
   2.2507503e-10  -4.4640132e-02   4.8584470e+00   1.5062551e-01  -2.2385636e+08
   2.2607536e-10  -4.4416735e-02   4.8474837e+00   1.5292097e-01  -2.2279581e+08
   2.2707569e-10  -4.4194397e-02   4.8365131e+00   1.5523759e-01  -2.2173905e+08
   2.2807603e-10  -4.3973115e-02   4.8255359e+00   1.5757534e-01  -2.2068609e+08
   2.2907636e-10  -4.3752883e-02   4.8145527e+00   1.5993418e-01  -2.1963694e+08
   2.3007669e-10  -4.3533700e-02   4.8035640e+00   1.6231407e-01  -2.1859161e+08
   2.3107703e-10  -4.3315560e-02   4.7925705e+00   1.6471497e-01  -2.1755010e+08
   2.3207736e-10  -4.3098460e-02   4.7815728e+00   1.6713682e-01  -2.1651242e+08
   2.3307769e-10  -4.2882396e-02   4.7705714e+00   1.6957959e-01  -2.1547857e+08
   2.3407803e-10  -4.2667365e-02   4.7595670e+00   1.7204322e-01  -2.1444857e+08
   2.3507836e-10  -4.2453361e-02   4.7485602e+00   1.7452764e-01  -2.1342242e+08
   2.3607869e-10  -4.2240383e-02   4.7375516e+00   1.7703281e-01  -2.1240012e+08
   2.3707903e-10  -4.2028425e-02   4.7265417e+00   1.7955866e-01  -2.1138167e+08
   2.3807936e-10  -4.1817484e-02   4.7155312e+00   1.8210513e-01  -2.1036710e+08
   2.3907969e-10  -4.1607556e-02   4.7045205e+00   1.8467214e-01  -2.0935639e+08
   2.4008003e-10  -4.1398637e-02   4.6935103e+00   1.8725962e-01  -2.0834955e+08
   2.4108036e-10  -4.1190723e-02   4.6825012e+00   1.8986750e-01  -2.0734658e+08
   2.4208069e-10  -4.0983811e-02   4.6714938e+00   1.9249571e-01  -2.0634750e+08
   2.4308103e-10  -4.0777896e-02   4.6604885e+00   1.9514415e-01  -2.0535230e+08
   2.4408136e-10  -4.0572974e-02   4.6494859e+00   1.9781275e-01  -2.0436098e+08
   2.4508169e-10  -4.0369043e-02   4.6384867e+00   2.0050143e-01  -2.0337356e+08
   2.4608203e-10  -4.0166097e-02   4.6274913e+00   2.0321008e-01  -2.0239002e+08
   2.4708236e-10  -3.9964133e-02   4.6165003e+00   2.0593863e-01  -2.0141037e+08
   2.4808269e-10  -3.9763147e-02   4.6055143e+00   2.0868697e-01  -2.0043462e+08
   2.4908303e-10  -3.9563136e-02   4.5945337e+00   2.1145501e-01  -1.9946276e+08
   2.5008336e-10  -3.9364094e-02   4.5835592e+00   2.1424264e-01  -1.9849480e+08
   2.5108369e-10  -3.9166019e-02   4.5725912e+00   2.1704977e-01  -1.9753074e+08
   2.5208403e-10  -3.8968906e-02   4.5616302e+00   2.1987629e-01  -1.9657057e+08
   2.5308436e-10  -3.8772752e-02   4.5506768e+00   2.2272209e-01  -1.9561430e+08
   2.5408469e-10  -3.8577552e-02   4.5397316e+00   2.2558706e-01  -1.9466193e+08
   2.5508503e-10  -3.8383303e-02   4.5287949e+00   2.2847108e-01  -1.9371345e+08
   2.5608536e-10  -3.8190001e-02   4.5178673e+00   2.3137404e-01  -1.9276887e+08
   2.5708570e-10  -3.7997642e-02   4.5069493e+00   2.3429582e-01  -1.9182818e+08
   2.5808603e-10  -3.7806222e-02   4.4960414e+00   2.3723631e-01  -1.9089139e+08
   2.5908636e-10  -3.7615738e-02   4.4851441e+00   2.4019537e-01  -1.8995849e+08
   2.6008670e-10  -3.7426184e-02   4.4742579e+00   2.4317288e-01  -1.8902948e+08
   2.6108703e-10  -3.7237558e-02   4.4633832e+00   2.4616871e-01  -1.8810435e+08
   2.6208736e-10  -3.7049855e-02   4.4525205e+00   2.4918274e-01  -1.8718311e+08
   2.6308770e-10  -3.6863072e-02   4.4416703e+00   2.5221484e-01  -1.8626576e+08
   2.6408803e-10  -3.6677205e-02   4.4308330e+00   2.5526486e-01  -1.8535228e+08
   2.6508836e-10  -3.6492249e-02   4.4200091e+00   2.5833267e-01  -1.8444268e+08
   2.6608870e-10  -3.6308201e-02   4.4091991e+00   2.6141813e-01  -1.8353696e+08
   2.6708903e-10  -3.6125058e-02   4.3984034e+00   2.6452110e-01  -1.8263510e+08
   2.6808936e-10  -3.5942815e-02   4.3876224e+00   2.6764144e-01  -1.8173711e+08
   2.6908970e-10  -3.5761468e-02   4.3768566e+00   2.7077901e-01  -1.8084297e+08
   2.7009003e-10  -3.5581013e-02   4.3661063e+00   2.7393365e-01  -1.7995270e+08
   2.7109036e-10  -3.5401448e-02   4.3553721e+00   2.7710522e-01  -1.7906628e+08
   2.7209070e-10  -3.5222767e-02   4.3446543e+00   2.8029357e-01  -1.7818370e+08
   2.7309103e-10  -3.5044966e-02   4.3339534e+00   2.8349855e-01  -1.7730497e+08
   2.7409136e-10  -3.4868044e-02   4.3232697e+00   2.8672000e-01  -1.7643007e+08
   2.7509170e-10  -3.4691994e-02   4.3126037e+00   2.8995777e-01  -1.7555901e+08
   2.7609203e-10  -3.4516814e-02   4.3019557e+00   2.9321170e-01  -1.7469177e+08
   2.7709236e-10  -3.4342499e-02   4.2913262e+00   2.9648163e-01  -1.7382835e+08
   2.7809270e-10  -3.4169046e-02   4.2807154e+00   2.9976741e-01  -1.7296874e+08
   2.7909303e-10  -3.3996451e-02   4.2701239e+00   3.0306886e-01  -1.7211294e+08
   2.8009336e-10  -3.3824711e-02   4.2595520e+00   3.0638583e-01  -1.7126094e+08
   2.8109370e-10  -3.3653820e-02   4.2490000e+00   3.0971816e-01  -1.7041274e+08
   2.8209403e-10  -3.3483777e-02   4.2384683e+00   3.1306567e-01  -1.6956832e+08
   2.8309436e-10  -3.3314576e-02   4.2279573e+00   3.1642821e-01  -1.6872768e+08
   2.8409470e-10  -3.3146214e-02   4.2174672e+00   3.1980559e-01  -1.6789081e+08
   2.8509503e-10  -3.2978687e-02   4.2069986e+00   3.2319766e-01  -1.6705770e+08
   2.8609537e-10  -3.2811992e-02   4.1965516e+00   3.2660424e-01  -1.6622835e+08
   2.8709570e-10  -3.2646125e-02   4.1861266e+00   3.3002515e-01  -1.6540275e+08
   2.8809603e-10  -3.2481082e-02   4.1757240e+00   3.3346024e-01  -1.6458089e+08
   2.8909637e-10  -3.2316859e-02   4.1653441e+00   3.3690931e-01  -1.6376276e+08
   2.9009670e-10  -3.2153452e-02   4.1549872e+00   3.4037221e-01  -1.6294836e+08
   2.9109703e-10  -3.1990858e-02   4.1446535e+00   3.4384874e-01  -1.6213767e+08
   2.9209737e-10  -3.1829074e-02   4.1343435e+00   3.4733874e-01  -1.6133069e+08
   2.9309770e-10  -3.1668094e-02   4.1240574e+00   3.5084203e-01  -1.6052740e+08
   2.9409803e-10  -3.1507917e-02   4.1137955e+00   3.5435842e-01  -1.5972780e+08
   2.9509837e-10  -3.1348537e-02   4.1035581e+00   3.5788774e-01  -1.5893188e+08
   2.9609870e-10  -3.1189952e-02   4.0933455e+00   3.6142981e-01  -1.5813963e+08
   2.9709903e-10  -3.1032158e-02   4.0831579e+00   3.6498445e-01  -1.5735104e+08
   2.9809937e-10  -3.0875150e-02   4.0729956e+00   3.6855147e-01  -1.5656611e+08
   2.9909970e-10  -3.0718926e-02   4.0628590e+00   3.7213070e-01  -1.5578481e+08
   3.0010003e-10  -3.0563482e-02   4.0527482e+00   3.7572195e-01  -1.5500714e+08
   3.0110037e-10  -3.0408814e-02   4.0426635e+00   3.7932503e-01  -1.5423309e+08
   3.0210070e-10  -3.0254918e-02   4.0326052e+00   3.8293977e-01  -1.5346266e+08
   3.0310103e-10  -3.0101791e-02   4.0225736e+00   3.8656598e-01  -1.5269582e+08
   3.0410137e-10  -2.9949429e-02   4.0125687e+00   3.9020348e-01  -1.5193257e+08
   3.0510170e-10  -2.9797829e-02   4.0025910e+00   3.9385207e-01  -1.5117291e+08
   3.0610203e-10  -2.9646988e-02   3.9926406e+00   3.9751158e-01  -1.5041681e+08
   3.0710237e-10  -2.9496900e-02   3.9827177e+00   4.0118182e-01  -1.4966427e+08
   3.0810270e-10  -2.9347564e-02   3.9728226e+00   4.0486260e-01  -1.4891527e+08
   3.0910303e-10  -2.9198975e-02   3.9629555e+00   4.0855374e-01  -1.4816982e+08
   3.1010337e-10  -2.9051131e-02   3.9531166e+00   4.1225505e-01  -1.4742788e+08
   3.1110370e-10  -2.8904026e-02   3.9433061e+00   4.1596635e-01  -1.4668946e+08
   3.1210403e-10  -2.8757659e-02   3.9335242e+00   4.1968744e-01  -1.4595455e+08
   3.1310437e-10  -2.8612025e-02   3.9237711e+00   4.2341815e-01  -1.4522312e+08
   3.1410470e-10  -2.8467120e-02   3.9140470e+00   4.2715828e-01  -1.4449518e+08
   3.1510504e-10  -2.8322943e-02   3.9043520e+00   4.3090765e-01  -1.4377070e+08
   3.1610537e-10  -2.8179488e-02   3.8946864e+00   4.3466607e-01  -1.4304968e+08
   3.1710570e-10  -2.8036753e-02   3.8850504e+00   4.3843336e-01  -1.4233210e+08
   3.1810604e-10  -2.7894734e-02   3.8754440e+00   4.4220933e-01  -1.4161796e+08
   3.1910637e-10  -2.7753427e-02   3.8658676e+00   4.4599379e-01  -1.4090724e+08
   3.2010670e-10  -2.7612830e-02   3.8563211e+00   4.4978655e-01  -1.4019992e+08
   3.2110704e-10  -2.7472939e-02   3.8468049e+00   4.5358744e-01  -1.3949601e+08
   3.2210737e-10  -2.7333750e-02   3.8373190e+00   4.5739626e-01  -1.3879548e+08
   3.2310770e-10  -2.7195260e-02   3.8278636e+00   4.6121283e-01  -1.3809832e+08
   3.2410804e-10  -2.7057465e-02   3.8184388e+00   4.6503697e-01  -1.3740453e+08
   3.2510837e-10  -2.6920364e-02   3.8090449e+00   4.6886848e-01  -1.3671408e+08
   3.2610870e-10  -2.6783951e-02   3.7996818e+00   4.7270719e-01  -1.3602697e+08
   3.2710904e-10  -2.6648224e-02   3.7903498e+00   4.7655291e-01  -1.3534319e+08
   3.2810937e-10  -2.6513179e-02   3.7810489e+00   4.8040546e-01  -1.3466272e+08
   3.2910970e-10  -2.6378813e-02   3.7717794e+00   4.8426465e-01  -1.3398554e+08
   3.3011004e-10  -2.6245123e-02   3.7625413e+00   4.8813031e-01  -1.3331166e+08
   3.3111037e-10  -2.6112105e-02   3.7533347e+00   4.9200224e-01  -1.3264105e+08
   3.3211070e-10  -2.5979757e-02   3.7441597e+00   4.9588027e-01  -1.3197370e+08
   3.3311104e-10  -2.5848074e-02   3.7350165e+00   4.9976421e-01  -1.3130960e+08
   3.3411137e-10  -2.5717054e-02   3.7259051e+00   5.0365390e-01  -1.3064873e+08
   3.3511170e-10  -2.5586694e-02   3.7168257e+00   5.0754913e-01  -1.2999110e+08
   3.3611204e-10  -2.5456990e-02   3.7077784e+00   5.1144974e-01  -1.2933667e+08
   3.3711237e-10  -2.5327939e-02   3.6987631e+00   5.1535555e-01  -1.2868544e+08
   3.3811270e-10  -2.5199537e-02   3.6897801e+00   5.1926638e-01  -1.2803740e+08
   3.3911304e-10  -2.5071783e-02   3.6808294e+00   5.2318205e-01  -1.2739253e+08
   3.4011337e-10  -2.4944672e-02   3.6719111e+00   5.2710238e-01  -1.2675082e+08
   3.4111370e-10  -2.4818201e-02   3.6630252e+00   5.3102720e-01  -1.2611226e+08
   3.4211404e-10  -2.4692367e-02   3.6541718e+00   5.3495634e-01  -1.2547683e+08
   3.4311437e-10  -2.4567168e-02   3.6453511e+00   5.3888961e-01  -1.2484453e+08
   3.4411470e-10  -2.4442599e-02   3.6365630e+00   5.4282685e-01  -1.2421533e+08
   3.4511504e-10  -2.4318658e-02   3.6278076e+00   5.4676788e-01  -1.2358923e+08
   3.4611537e-10  -2.4195342e-02   3.6190850e+00   5.5071252e-01  -1.2296622e+08
   3.4711571e-10  -2.4072648e-02   3.6103953e+00   5.5466062e-01  -1.2234627e+08
   3.4811604e-10  -2.3950572e-02   3.6017384e+00   5.5861200e-01  -1.2172939e+08
   3.4911637e-10  -2.3829112e-02   3.5931144e+00   5.6256648e-01  -1.2111554e+08
   3.5011671e-10  -2.3708265e-02   3.5845235e+00   5.6652390e-01  -1.2050473e+08
   3.5111704e-10  -2.3588026e-02   3.5759655e+00   5.7048410e-01  -1.1989694e+08
   3.5211737e-10  -2.3468395e-02   3.5674406e+00   5.7444690e-01  -1.1929215e+08
   3.5311771e-10  -2.3349366e-02   3.5589488e+00   5.7841214e-01  -1.1869036e+08
   3.5411804e-10  -2.3230939e-02   3.5504902e+00   5.8237966e-01  -1.1809154e+08
   3.5511837e-10  -2.3113108e-02   3.5420646e+00   5.8634928e-01  -1.1749569e+08
   3.5611871e-10  -2.2995873e-02   3.5336723e+00   5.9032086e-01  -1.1690280e+08
   3.5711904e-10  -2.2879229e-02   3.5253131e+00   5.9429422e-01  -1.1631285e+08
   3.5811937e-10  -2.2763173e-02   3.5169872e+00   5.9826920e-01  -1.1572582e+08
   3.5911971e-10  -2.2647704e-02   3.5086945e+00   6.0224565e-01  -1.1514171e+08
   3.6012004e-10  -2.2532817e-02   3.5004350e+00   6.0622341e-01  -1.1456051e+08
   3.6112037e-10  -2.2418510e-02   3.4922088e+00   6.1020232e-01  -1.1398219e+08
   3.6212071e-10  -2.2304780e-02   3.4840159e+00   6.1418222e-01  -1.1340675e+08
   3.6312104e-10  -2.2191624e-02   3.4758562e+00   6.1816295e-01  -1.1283417e+08
   3.6412137e-10  -2.2079040e-02   3.4677298e+00   6.2214437e-01  -1.1226445e+08
   3.6512171e-10  -2.1967024e-02   3.4596367e+00   6.2612632e-01  -1.1169756e+08
   3.6612204e-10  -2.1855574e-02   3.4515768e+00   6.3010864e-01  -1.1113350e+08
   3.6712237e-10  -2.1744687e-02   3.4435503e+00   6.3409119e-01  -1.1057225e+08
   3.6812271e-10  -2.1634359e-02   3.4355569e+00   6.3807381e-01  -1.1001379e+08
   3.6912304e-10  -2.1524589e-02   3.4275969e+00   6.4205636e-01  -1.0945813e+08
   3.7012337e-10  -2.1415374e-02   3.4196700e+00   6.4603869e-01  -1.0890524e+08
   3.7112371e-10  -2.1306709e-02   3.4117764e+00   6.5002065e-01  -1.0835511e+08
   3.7212404e-10  -2.1198594e-02   3.4039160e+00   6.5400210e-01  -1.0780773e+08
   3.7312437e-10  -2.1091025e-02   3.3960888e+00   6.5798289e-01  -1.0726309e+08
   3.7412471e-10  -2.0984000e-02   3.3882948e+00   6.6196288e-01  -1.0672117e+08
   3.7512504e-10  -2.0877515e-02   3.3805338e+00   6.6594193e-01  -1.0618196e+08
   3.7612538e-10  -2.0771569e-02   3.3728060e+00   6.6991989e-01  -1.0564544e+08
   3.7712571e-10  -2.0666157e-02   3.3651113e+00   6.7389664e-01  -1.0511162e+08
   3.7812604e-10  -2.0561278e-02   3.3574497e+00   6.7787202e-01  -1.0458046e+08
   3.7912638e-10  -2.0456930e-02   3.3498210e+00   6.8184590e-01  -1.0405197e+08
   3.8012671e-10  -2.0353108e-02   3.3422254e+00   6.8581815e-01  -1.0352613e+08
   3.8112704e-10  -2.0249811e-02   3.3346627e+00   6.8978863e-01  -1.0300292e+08
   3.8212738e-10  -2.0147037e-02   3.3271329e+00   6.9375721e-01  -1.0248233e+08
   3.8312771e-10  -2.0044781e-02   3.3196360e+00   6.9772376e-01  -1.0196435e+08
   3.8412804e-10  -1.9943043e-02   3.3121720e+00   7.0168814e-01  -1.0144898e+08
   3.8512838e-10  -1.9841819e-02   3.3047407e+00   7.0565023e-01  -1.0093619e+08
   3.8612871e-10  -1.9741106e-02   3.2973421e+00   7.0960989e-01  -1.0042597e+08
   3.8712904e-10  -1.9640903e-02   3.2899763e+00   7.1356700e-01  -9.9918311e+07
   3.8812938e-10  -1.9541206e-02   3.2826431e+00   7.1752144e-01  -9.9413204e+07
   3.8912971e-10  -1.9442013e-02   3.2753425e+00   7.2147307e-01  -9.8910634e+07
   3.9013004e-10  -1.9343322e-02   3.2680744e+00   7.2542178e-01  -9.8410588e+07
   3.9113038e-10  -1.9245129e-02   3.2608388e+00   7.2936744e-01  -9.7913056e+07
   3.9213071e-10  -1.9147433e-02   3.2536357e+00   7.3330993e-01  -9.7418024e+07
   3.9313104e-10  -1.9050231e-02   3.2464649e+00   7.3724914e-01  -9.6925480e+07
   3.9413138e-10  -1.8953520e-02   3.2393264e+00   7.4118494e-01  -9.6435413e+07
   3.9513171e-10  -1.8857298e-02   3.2322202e+00   7.4511721e-01  -9.5947811e+07
   3.9613204e-10  -1.8761563e-02   3.2251462e+00   7.4904584e-01  -9.5462662e+07
   3.9713238e-10  -1.8666312e-02   3.2181043e+00   7.5297072e-01  -9.4979953e+07
   3.9813271e-10  -1.8571542e-02   3.2110944e+00   7.5689173e-01  -9.4499673e+07
   3.9913304e-10  -1.8477252e-02   3.2041166e+00   7.6080876e-01  -9.4021810e+07
   4.0013338e-10  -1.8383439e-02   3.1971707e+00   7.6472169e-01  -9.3546353e+07
   4.0113371e-10  -1.8290100e-02   3.1902566e+00   7.6863043e-01  -9.3073290e+07
   4.0213404e-10  -1.8197232e-02   3.1833743e+00   7.7253485e-01  -9.2602608e+07
   4.0313438e-10  -1.8104835e-02   3.1765238e+00   7.7643485e-01  -9.2134297e+07
   4.0413471e-10  -1.8012905e-02   3.1697049e+00   7.8033033e-01  -9.1668344e+07
   4.0513505e-10  -1.7921440e-02   3.1629175e+00   7.8422118e-01  -9.1204739e+07
   4.0613538e-10  -1.7830437e-02   3.1561617e+00   7.8810730e-01  -9.0743469e+07
   4.0713571e-10  -1.7739894e-02   3.1494373e+00   7.9198858e-01  -9.0284523e+07
   4.0813605e-10  -1.7649810e-02   3.1427442e+00   7.9586493e-01  -8.9827890e+07
   4.0913638e-10  -1.7560181e-02   3.1360823e+00   7.9973624e-01  -8.9373559e+07
   4.1013671e-10  -1.7471006e-02   3.1294517e+00   8.0360241e-01  -8.8921517e+07
   4.1113705e-10  -1.7382281e-02   3.1228522e+00   8.0746335e-01  -8.8471754e+07
   4.1213738e-10  -1.7294005e-02   3.1162836e+00   8.1131896e-01  -8.8024259e+07
   4.1313771e-10  -1.7206176e-02   3.1097460e+00   8.1516914e-01  -8.7579020e+07
   4.1413805e-10  -1.7118791e-02   3.1032393e+00   8.1901381e-01  -8.7136026e+07
   4.1513838e-10  -1.7031848e-02   3.0967633e+00   8.2285286e-01  -8.6695266e+07
   4.1613871e-10  -1.6945345e-02   3.0903180e+00   8.2668621e-01  -8.6256729e+07
   4.1713905e-10  -1.6859279e-02   3.0839034e+00   8.3051377e-01  -8.5820403e+07
   4.1813938e-10  -1.6773649e-02   3.0775192e+00   8.3433544e-01  -8.5386279e+07
   4.1913971e-10  -1.6688452e-02   3.0711654e+00   8.3815115e-01  -8.4954345e+07
   4.2014005e-10  -1.6603685e-02   3.0648420e+00   8.4196080e-01  -8.4524589e+07
   4.2114038e-10  -1.6519348e-02   3.0585488e+00   8.4576430e-01  -8.4097002e+07
   4.2214071e-10  -1.6435437e-02   3.0522857e+00   8.4956158e-01  -8.3671572e+07
   4.2314105e-10  -1.6351951e-02   3.0460528e+00   8.5335255e-01  -8.3248289e+07
   4.2414138e-10  -1.6268887e-02   3.0398497e+00   8.5713712e-01  -8.2827142e+07
   4.2514171e-10  -1.6186243e-02   3.0336766e+00   8.6091522e-01  -8.2408120e+07
   4.2614205e-10  -1.6104018e-02   3.0275332e+00   8.6468677e-01  -8.1991212e+07
   4.2714238e-10  -1.6022208e-02   3.0214196e+00   8.6845169e-01  -8.1576409e+07
   4.2814271e-10  -1.5940812e-02   3.0153355e+00   8.7220989e-01  -8.1163699e+07
   4.2914305e-10  -1.5859828e-02   3.0092809e+00   8.7596131e-01  -8.0753072e+07
   4.3014338e-10  -1.5779254e-02   3.0032557e+00   8.7970587e-01  -8.0344518e+07
   4.3114371e-10  -1.5699087e-02   2.9972598e+00   8.8344350e-01  -7.9938027e+07
   4.3214405e-10  -1.5619326e-02   2.9912932e+00   8.8717412e-01  -7.9533587e+07
   4.3314438e-10  -1.5539969e-02   2.9853556e+00   8.9089765e-01  -7.9131188e+07
   4.3414471e-10  -1.5461013e-02   2.9794471e+00   8.9461404e-01  -7.8730822e+07
   4.3514505e-10  -1.5382456e-02   2.9735674e+00   8.9832320e-01  -7.8332476e+07
   4.3614538e-10  -1.5304297e-02   2.9677166e+00   9.0202508e-01  -7.7936141e+07
   4.3714572e-10  -1.5226534e-02   2.9618945e+00   9.0571960e-01  -7.7541807e+07
   4.3814605e-10  -1.5149163e-02   2.9561010e+00   9.0940670e-01  -7.7149464e+07
   4.3914638e-10  -1.5072185e-02   2.9503360e+00   9.1308631e-01  -7.6759102e+07
   4.4014672e-10  -1.4995595e-02   2.9445994e+00   9.1675837e-01  -7.6370711e+07
   4.4114705e-10  -1.4919394e-02   2.9388911e+00   9.2042281e-01  -7.5984281e+07
   4.4214738e-10  -1.4843578e-02   2.9332111e+00   9.2407957e-01  -7.5599801e+07
   4.4314772e-10  -1.4768145e-02   2.9275591e+00   9.2772860e-01  -7.5217263e+07
   4.4414805e-10  -1.4693094e-02   2.9219352e+00   9.3136982e-01  -7.4836657e+07
   4.4514838e-10  -1.4618423e-02   2.9163391e+00   9.3500319e-01  -7.4457972e+07
   4.4614872e-10  -1.4544130e-02   2.9107709e+00   9.3862865e-01  -7.4081199e+07
   4.4714905e-10  -1.4470213e-02   2.9052303e+00   9.4224613e-01  -7.3706328e+07
   4.4814938e-10  -1.4396670e-02   2.8997173e+00   9.4585558e-01  -7.3333350e+07
   4.4914972e-10  -1.4323499e-02   2.8942318e+00   9.4945695e-01  -7.2962256e+07
   4.5015005e-10  -1.4250698e-02   2.8887737e+00   9.5305018e-01  -7.2593035e+07
   4.5115038e-10  -1.4178265e-02   2.8833429e+00   9.5663522e-01  -7.2225678e+07
   4.5215072e-10  -1.4106200e-02   2.8779393e+00   9.6021202e-01  -7.1860177e+07
   4.5315105e-10  -1.4034498e-02   2.8725627e+00   9.6378053e-01  -7.1496520e+07
   4.5415138e-10  -1.3963160e-02   2.8672131e+00   9.6734069e-01  -7.1134700e+07
   4.5515172e-10  -1.3892183e-02   2.8618903e+00   9.7089246e-01  -7.0774707e+07
   4.5615205e-10  -1.3821565e-02   2.8565943e+00   9.7443579e-01  -7.0416531e+07
   4.5715238e-10  -1.3751304e-02   2.8513250e+00   9.7797063e-01  -7.0060163e+07
   4.5815272e-10  -1.3681399e-02   2.8460821e+00   9.8149694e-01  -6.9705595e+07
   4.5915305e-10  -1.3611847e-02   2.8408658e+00   9.8501467e-01  -6.9352817e+07
   4.6015338e-10  -1.3542648e-02   2.8356757e+00   9.8852378e-01  -6.9001820e+07
   4.6115372e-10  -1.3473799e-02   2.8305119e+00   9.9202422e-01  -6.8652595e+07
   4.6215405e-10  -1.3405298e-02   2.8253741e+00   9.9551595e-01  -6.8305134e+07
   4.6315438e-10  -1.3337144e-02   2.8202624e+00   9.9899893e-01  -6.7959426e+07
   4.6415472e-10  -1.3269335e-02   2.8151766e+00   1.0024731e+00  -6.7615464e+07
   4.6515505e-10  -1.3201869e-02   2.8101166e+00   1.0059385e+00  -6.7273238e+07
   4.6615539e-10  -1.3134745e-02   2.8050823e+00   1.0093950e+00  -6.6932740e+07
   4.6715572e-10  -1.3067960e-02   2.8000736e+00   1.0128425e+00  -6.6593961e+07
   4.6815605e-10  -1.3001513e-02   2.7950903e+00   1.0162812e+00  -6.6256892e+07
   4.6915639e-10  -1.2935403e-02   2.7901324e+00   1.0197108e+00  -6.5921525e+07
   4.7015672e-10  -1.2869627e-02   2.7851998e+00   1.0231315e+00  -6.5587850e+07
   4.7115705e-10  -1.2804184e-02   2.7802924e+00   1.0265430e+00  -6.5255860e+07
   4.7215739e-10  -1.2739073e-02   2.7754099e+00   1.0299455e+00  -6.4925546e+07
   4.7315772e-10  -1.2674291e-02   2.7705525e+00   1.0333389e+00  -6.4596899e+07
   4.7415805e-10  -1.2609837e-02   2.7657198e+00   1.0367232e+00  -6.4269911e+07
   4.7515839e-10  -1.2545709e-02   2.7609119e+00   1.0400982e+00  -6.3944574e+07
   4.7615872e-10  -1.2481906e-02   2.7561287e+00   1.0434640e+00  -6.3620878e+07
   4.7715905e-10  -1.2418426e-02   2.7513699e+00   1.0468206e+00  -6.3298816e+07
   4.7815939e-10  -1.2355267e-02   2.7466355e+00   1.0501680e+00  -6.2978380e+07
   4.7915972e-10  -1.2292428e-02   2.7419255e+00   1.0535060e+00  -6.2659562e+07
   4.8016005e-10  -1.2229907e-02   2.7372397e+00   1.0568347e+00  -6.2342352e+07
   4.8116039e-10  -1.2167702e-02   2.7325779e+00   1.0601540e+00  -6.2026743e+07
   4.8216072e-10  -1.2105812e-02   2.7279401e+00   1.0634640e+00  -6.1712727e+07
   4.8316105e-10  -1.2044236e-02   2.7233262e+00   1.0667646e+00  -6.1400296e+07
   4.8416139e-10  -1.1982972e-02   2.7187361e+00   1.0700557e+00  -6.1089441e+07
   4.8516172e-10  -1.1922017e-02   2.7141697e+00   1.0733374e+00  -6.0780155e+07
   4.8616205e-10  -1.1861371e-02   2.7096268e+00   1.0766096e+00  -6.0472430e+07
   4.8716239e-10  -1.1801033e-02   2.7051074e+00   1.0798723e+00  -6.0166258e+07
   4.8816272e-10  -1.1740999e-02   2.7006113e+00   1.0831255e+00  -5.9861631e+07
   4.8916305e-10  -1.1681270e-02   2.6961385e+00   1.0863691e+00  -5.9558541e+07
   4.9016339e-10  -1.1621843e-02   2.6916888e+00   1.0896032e+00  -5.9256980e+07
   4.9116372e-10  -1.1562717e-02   2.6872621e+00   1.0928277e+00  -5.8956941e+07
   4.9216405e-10  -1.1503891e-02   2.6828584e+00   1.0960427e+00  -5.8658416e+07
   4.9316439e-10  -1.1445362e-02   2.6784775e+00   1.0992480e+00  -5.8361397e+07
   4.9416472e-10  -1.1387130e-02   2.6741193e+00   1.1024436e+00  -5.8065877e+07
   4.9516506e-10  -1.1329192e-02   2.6697838e+00   1.1056297e+00  -5.7771847e+07
   4.9616539e-10  -1.1271548e-02   2.6654708e+00   1.1088060e+00  -5.7479302e+07
   4.9716572e-10  -1.1214196e-02   2.6611801e+00   1.1119727e+00  -5.7188232e+07
   4.9816606e-10  -1.1157134e-02   2.6569118e+00   1.1151297e+00  -5.6898630e+07
   4.9916639e-10  -1.1100361e-02   2.6526657e+00   1.1182770e+00  -5.6610490e+07
   5.0016672e-10  -1.1043876e-02   2.6484417e+00   1.1214145e+00  -5.6323803e+07
   5.0116706e-10  -1.0987676e-02   2.6442397e+00   1.1245424e+00  -5.6038563e+07
   5.0216739e-10  -1.0931762e-02   2.6400595e+00   1.1276604e+00  -5.5754762e+07
   5.0316772e-10  -1.0876130e-02   2.6359012e+00   1.1307688e+00  -5.5472392e+07
   5.0416806e-10  -1.0820780e-02   2.6317646e+00   1.1338673e+00  -5.5191446e+07
   5.0516839e-10  -1.0765711e-02   2.6276495e+00   1.1369561e+00  -5.4911918e+07
   5.0616872e-10  -1.0710920e-02   2.6235559e+00   1.1400351e+00  -5.4633800e+07
   5.0716906e-10  -1.0656407e-02   2.6194837e+00   1.1431043e+00  -5.4357085e+07
   5.0816939e-10  -1.0602170e-02   2.6154328e+00   1.1461637e+00  -5.4081766e+07
   5.0916972e-10  -1.0548208e-02   2.6114031e+00   1.1492132e+00  -5.3807835e+07
   5.1017006e-10  -1.0494519e-02   2.6073945e+00   1.1522530e+00  -5.3535286e+07
   5.1117039e-10  -1.0441102e-02   2.6034068e+00   1.1552829e+00  -5.3264112e+07
   5.1217072e-10  -1.0387956e-02   2.5994400e+00   1.1583030e+00  -5.2994305e+07
   5.1317106e-10  -1.0335079e-02   2.5954940e+00   1.1613132e+00  -5.2725859e+07
   5.1417139e-10  -1.0282469e-02   2.5915687e+00   1.1643136e+00  -5.2458768e+07
   5.1517172e-10  -1.0230126e-02   2.5876639e+00   1.1673042e+00  -5.2193023e+07
   5.1617206e-10  -1.0178049e-02   2.5837797e+00   1.1702849e+00  -5.1928619e+07
   5.1717239e-10  -1.0126235e-02   2.5799158e+00   1.1732557e+00  -5.1665548e+07
   5.1817272e-10  -1.0074683e-02   2.5760722e+00   1.1762167e+00  -5.1403804e+07
   5.1917306e-10  -1.0023393e-02   2.5722488e+00   1.1791678e+00  -5.1143380e+07
   5.2017339e-10  -9.9723629e-03   2.5684454e+00   1.1821091e+00  -5.0884269e+07
   5.2117372e-10  -9.9215910e-03   2.5646621e+00   1.1850404e+00  -5.0626465e+07
   5.2217406e-10  -9.8710764e-03   2.5608987e+00   1.1879620e+00  -5.0369962e+07
   5.2317439e-10  -9.8208178e-03   2.5571550e+00   1.1908736e+00  -5.0114751e+07
   5.2417472e-10  -9.7708138e-03   2.5534310e+00   1.1937754e+00  -4.9860828e+07
   5.2517506e-10  -9.7210632e-03   2.5497267e+00   1.1966673e+00  -4.9608186e+07
   5.2617539e-10  -9.6715646e-03   2.5460418e+00   1.1995493e+00  -4.9356817e+07
   5.2717573e-10  -9.6223168e-03   2.5423764e+00   1.2024215e+00  -4.9106716e+07
   5.2817606e-10  -9.5733186e-03   2.5387302e+00   1.2052838e+00  -4.8857876e+07
   5.2917639e-10  -9.5245687e-03   2.5351033e+00   1.2081363e+00  -4.8610292e+07
   5.3017673e-10  -9.4760659e-03   2.5314955e+00   1.2109788e+00  -4.8363955e+07
   5.3117706e-10  -9.4278088e-03   2.5279067e+00   1.2138116e+00  -4.8118861e+07
   5.3217739e-10  -9.3797963e-03   2.5243369e+00   1.2166345e+00  -4.7875003e+07
   5.3317773e-10  -9.3320271e-03   2.5207859e+00   1.2194475e+00  -4.7632374e+07
   5.3417806e-10  -9.2844999e-03   2.5172536e+00   1.2222507e+00  -4.7390969e+07
   5.3517839e-10  -9.2372137e-03   2.5137400e+00   1.2250440e+00  -4.7150781e+07
   5.3617873e-10  -9.1901671e-03   2.5102450e+00   1.2278275e+00  -4.6911805e+07
   5.3717906e-10  -9.1433590e-03   2.5067684e+00   1.2306012e+00  -4.6674033e+07
   5.3817939e-10  -9.0967881e-03   2.5033102e+00   1.2333650e+00  -4.6437461e+07
   5.3917973e-10  -9.0504532e-03   2.4998703e+00   1.2361191e+00  -4.6202081e+07
   5.4018006e-10  -9.0043533e-03   2.4964485e+00   1.2388633e+00  -4.5967888e+07
   5.4118039e-10  -8.9584870e-03   2.4930449e+00   1.2415977e+00  -4.5734876e+07
   5.4218073e-10  -8.9128532e-03   2.4896593e+00   1.2443224e+00  -4.5503039e+07
   5.4318106e-10  -8.8674507e-03   2.4862915e+00   1.2470372e+00  -4.5272371e+07
   5.4418139e-10  -8.8222783e-03   2.4829417e+00   1.2497422e+00  -4.5042867e+07
   5.4518173e-10  -8.7773350e-03   2.4796095e+00   1.2524375e+00  -4.4814519e+07
   5.4618206e-10  -8.7326195e-03   2.4762950e+00   1.2551230e+00  -4.4587323e+07
   5.4718239e-10  -8.6881307e-03   2.4729980e+00   1.2577988e+00  -4.4361273e+07
   5.4818273e-10  -8.6438675e-03   2.4697185e+00   1.2604648e+00  -4.4136362e+07
   5.4918306e-10  -8.5998287e-03   2.4664564e+00   1.2631211e+00  -4.3912585e+07
   5.5018339e-10  -8.5560131e-03   2.4632116e+00   1.2657677e+00  -4.3689937e+07
   5.5118373e-10  -8.5124198e-03   2.4599840e+00   1.2684045e+00  -4.3468412e+07
   5.5218406e-10  -8.4690474e-03   2.4567735e+00   1.2710317e+00  -4.3248003e+07
   5.5318439e-10  -8.4258950e-03   2.4535800e+00   1.2736491e+00  -4.3028706e+07
   5.5418473e-10  -8.3829614e-03   2.4504035e+00   1.2762569e+00  -4.2810515e+07
   5.5518506e-10  -8.3402455e-03   2.4472438e+00   1.2788550e+00  -4.2593424e+07
   5.5618540e-10  -8.2977462e-03   2.4441009e+00   1.2814435e+00  -4.2377428e+07
   5.5718573e-10  -8.2554624e-03   2.4409746e+00   1.2840223e+00  -4.2162521e+07
   5.5818606e-10  -8.2133931e-03   2.4378650e+00   1.2865915e+00  -4.1948698e+07
   5.5918640e-10  -8.1715371e-03   2.4347718e+00   1.2891510e+00  -4.1735953e+07
   5.6018673e-10  -8.1298934e-03   2.4316951e+00   1.2917010e+00  -4.1524280e+07
   5.6118706e-10  -8.0884609e-03   2.4286348e+00   1.2942413e+00  -4.1313675e+07
   5.6218740e-10  -8.0472385e-03   2.4255906e+00   1.2967721e+00  -4.1104132e+07
   5.6318773e-10  -8.0062252e-03   2.4225627e+00   1.2992933e+00  -4.0895646e+07
   5.6418806e-10  -7.9654200e-03   2.4195509e+00   1.3018050e+00  -4.0688211e+07
   5.6518840e-10  -7.9248217e-03   2.4165550e+00   1.3043072e+00  -4.0481823e+07
   5.6618873e-10  -7.8844294e-03   2.4135751e+00   1.3067998e+00  -4.0276475e+07
   5.6718906e-10  -7.8442419e-03   2.4106110e+00   1.3092829e+00  -4.0072162e+07
   5.6818940e-10  -7.8042583e-03   2.4076627e+00   1.3117565e+00  -3.9868880e+07
   5.6918973e-10  -7.7644776e-03   2.4047300e+00   1.3142207e+00  -3.9666623e+07
   5.7019006e-10  -7.7248986e-03   2.4018130e+00   1.3166754e+00  -3.9465387e+07
   5.7119040e-10  -7.6855205e-03   2.3989115e+00   1.3191207e+00  -3.9265165e+07
   5.7219073e-10  -7.6463421e-03   2.3960254e+00   1.3215565e+00  -3.9065953e+07
   5.7319106e-10  -7.6073625e-03   2.3931546e+00   1.3239829e+00  -3.8867745e+07
   5.7419140e-10  -7.5685807e-03   2.3902992e+00   1.3264000e+00  -3.8670537e+07
   5.7519173e-10  -7.5299956e-03   2.3874589e+00   1.3288076e+00  -3.8474324e+07
   5.7619206e-10  -7.4916064e-03   2.3846337e+00   1.3312059e+00  -3.8279101e+07
   5.7719240e-10  -7.4534119e-03   2.3818236e+00   1.3335949e+00  -3.8084862e+07
   5.7819273e-10  -7.4154112e-03   2.3790284e+00   1.3359746e+00  -3.7891602e+07
   5.7919306e-10  -7.3776034e-03   2.3762481e+00   1.3383449e+00  -3.7699318e+07
   5.8019340e-10  -7.3399874e-03   2.3734827e+00   1.3407060e+00  -3.7508003e+07
   5.8119373e-10  -7.3025623e-03   2.3707319e+00   1.3430578e+00  -3.7317654e+07
   5.8219406e-10  -7.2653272e-03   2.3679958e+00   1.3454003e+00  -3.7128264e+07
   5.8319440e-10  -7.2282810e-03   2.3652742e+00   1.3477336e+00  -3.6939830e+07
   5.8419473e-10  -7.1914228e-03   2.3625672e+00   1.3500577e+00  -3.6752347e+07
   5.8519507e-10  -7.1547517e-03   2.3598746e+00   1.3523727e+00  -3.6565809e+07
   5.8619540e-10  -7.1182668e-03   2.3571963e+00   1.3546784e+00  -3.6380212e+07
   5.8719573e-10  -7.0819670e-03   2.3545322e+00   1.3569750e+00  -3.6195551e+07
   5.8819607e-10  -7.0458515e-03   2.3518824e+00   1.3592624e+00  -3.6011822e+07
   5.8919640e-10  -7.0099193e-03   2.3492467e+00   1.3615408e+00  -3.5829020e+07
   5.9019673e-10  -6.9741695e-03   2.3466250e+00   1.3638100e+00  -3.5647140e+07
   5.9119707e-10  -6.9386012e-03   2.3440173e+00   1.3660702e+00  -3.5466177e+07
   5.9219740e-10  -6.9032134e-03   2.3414235e+00   1.3683213e+00  -3.5286128e+07
   5.9319773e-10  -6.8680053e-03   2.3388436e+00   1.3705634e+00  -3.5106987e+07
   5.9419807e-10  -6.8329759e-03   2.3362773e+00   1.3727965e+00  -3.4928749e+07
   5.9519840e-10  -6.7981244e-03   2.3337248e+00   1.3750206e+00  -3.4751411e+07
   5.9619873e-10  -6.7634499e-03   2.3311858e+00   1.3772357e+00  -3.4574968e+07
   5.9719907e-10  -6.7289514e-03   2.3286604e+00   1.3794419e+00  -3.4399415e+07
   5.9819940e-10  -6.6946280e-03   2.3261484e+00   1.3816391e+00  -3.4224748e+07
   5.9919973e-10  -6.6604790e-03   2.3236499e+00   1.3838274e+00  -3.4050962e+07
   6.0020007e-10  -6.6265033e-03   2.3211646e+00   1.3860069e+00  -3.3878053e+07
   6.0120040e-10  -6.5927002e-03   2.3186926e+00   1.3881775e+00  -3.3706017e+07
   6.0220073e-10  -6.5590687e-03   2.3162338e+00   1.3903392e+00  -3.3534848e+07
   6.0320107e-10  -6.5256080e-03   2.3137881e+00   1.3924921e+00  -3.3364544e+07
   6.0420140e-10  -6.4923173e-03   2.3113554e+00   1.3946363e+00  -3.3195099e+07
   6.0520173e-10  -6.4591956e-03   2.3089357e+00   1.3967716e+00  -3.3026509e+07
   6.0620207e-10  -6.4262421e-03   2.3065289e+00   1.3988982e+00  -3.2858770e+07
   6.0720240e-10  -6.3934560e-03   2.3041349e+00   1.4010160e+00  -3.2691877e+07
   6.0820273e-10  -6.3608365e-03   2.3017537e+00   1.4031252e+00  -3.2525827e+07
   6.0920307e-10  -6.3283826e-03   2.2993852e+00   1.4052257e+00  -3.2360615e+07
   6.1020340e-10  -6.2960936e-03   2.2970293e+00   1.4073175e+00  -3.2196237e+07
   6.1120373e-10  -6.2639685e-03   2.2946860e+00   1.4094006e+00  -3.2032688e+07
   6.1220407e-10  -6.2320067e-03   2.2923552e+00   1.4114752e+00  -3.1869966e+07
   6.1320440e-10  -6.2002073e-03   2.2900368e+00   1.4135411e+00  -3.1708064e+07
   6.1420473e-10  -6.1685693e-03   2.2877307e+00   1.4155985e+00  -3.1546980e+07
   6.1520507e-10  -6.1370921e-03   2.2854370e+00   1.4176473e+00  -3.1386708e+07
   6.1620540e-10  -6.1057749e-03   2.2831555e+00   1.4196876e+00  -3.1227246e+07
   6.1720574e-10  -6.0746167e-03   2.2808861e+00   1.4217194e+00  -3.1068589e+07
   6.1820607e-10  -6.0436169e-03   2.2786289e+00   1.4237427e+00  -3.0910733e+07
   6.1920640e-10  -6.0127745e-03   2.2763837e+00   1.4257575e+00  -3.0753674e+07
   6.2020674e-10  -5.9820889e-03   2.2741504e+00   1.4277640e+00  -3.0597408e+07
   6.2120707e-10  -5.9515592e-03   2.2719291e+00   1.4297620e+00  -3.0441931e+07
   6.2220740e-10  -5.9211846e-03   2.2697196e+00   1.4317516e+00  -3.0287239e+07
   6.2320774e-10  -5.8909644e-03   2.2675219e+00   1.4337329e+00  -3.0133328e+07
   6.2420807e-10  -5.8608977e-03   2.2653359e+00   1.4357058e+00  -2.9980194e+07
   6.2520840e-10  -5.8309839e-03   2.2631616e+00   1.4376704e+00  -2.9827833e+07
   6.2620874e-10  -5.8012221e-03   2.2609989e+00   1.4396267e+00  -2.9676242e+07
   6.2720907e-10  -5.7716115e-03   2.2588476e+00   1.4415748e+00  -2.9525416e+07
   6.2820940e-10  -5.7421514e-03   2.2567079e+00   1.4435146e+00  -2.9375352e+07
   6.2920974e-10  -5.7128411e-03   2.2545796e+00   1.4454462e+00  -2.9226046e+07
   6.3021007e-10  -5.6836797e-03   2.2524626e+00   1.4473696e+00  -2.9077494e+07
   6.3121040e-10  -5.6546666e-03   2.2503569e+00   1.4492849e+00  -2.8929693e+07
   6.3221074e-10  -5.6258009e-03   2.2482624e+00   1.4511920e+00  -2.8782637e+07
   6.3321107e-10  -5.5970820e-03   2.2461791e+00   1.4530909e+00  -2.8636325e+07
   6.3421140e-10  -5.5685090e-03   2.2441069e+00   1.4549818e+00  -2.8490752e+07
   6.3521174e-10  -5.5400813e-03   2.2420458e+00   1.4568646e+00  -2.8345913e+07
   6.3621207e-10  -5.5117981e-03   2.2399956e+00   1.4587394e+00  -2.8201807e+07
   6.3721240e-10  -5.4836588e-03   2.2379564e+00   1.4606062e+00  -2.8058429e+07
   6.3821274e-10  -5.4556624e-03   2.2359280e+00   1.4624649e+00  -2.7915775e+07
   6.3921307e-10  -5.4278085e-03   2.2339104e+00   1.4643157e+00  -2.7773841e+07
   6.4021340e-10  -5.4000961e-03   2.2319036e+00   1.4661585e+00  -2.7632625e+07
   6.4121374e-10  -5.3725246e-03   2.2299075e+00   1.4679934e+00  -2.7492122e+07
   6.4221407e-10  -5.3450934e-03   2.2279220e+00   1.4698204e+00  -2.7352329e+07
   6.4321440e-10  -5.3178016e-03   2.2259471e+00   1.4716395e+00  -2.7213242e+07
   6.4421474e-10  -5.2906486e-03   2.2239828e+00   1.4734508e+00  -2.7074859e+07
   6.4521507e-10  -5.2636337e-03   2.2220289e+00   1.4752543e+00  -2.6937174e+07
   6.4621541e-10  -5.2367562e-03   2.2200854e+00   1.4770500e+00  -2.6800185e+07
   6.4721574e-10  -5.2100153e-03   2.2181523e+00   1.4788379e+00  -2.6663889e+07
   6.4821607e-10  -5.1834105e-03   2.2162294e+00   1.4806180e+00  -2.6528281e+07
   6.4921641e-10  -5.1569409e-03   2.2143168e+00   1.4823904e+00  -2.6393359e+07
   6.5021674e-10  -5.1306060e-03   2.2124144e+00   1.4841551e+00  -2.6259119e+07
   6.5121707e-10  -5.1044050e-03   2.2105222e+00   1.4859122e+00  -2.6125557e+07
   6.5221741e-10  -5.0783373e-03   2.2086400e+00   1.4876616e+00  -2.5992670e+07
   6.5321774e-10  -5.0524022e-03   2.2067678e+00   1.4894034e+00  -2.5860455e+07
   6.5421807e-10  -5.0265990e-03   2.2049056e+00   1.4911375e+00  -2.5728908e+07
   6.5521841e-10  -5.0009271e-03   2.2030533e+00   1.4928641e+00  -2.5598026e+07
   6.5621874e-10  -4.9753858e-03   2.2012109e+00   1.4945832e+00  -2.5467806e+07
   6.5721907e-10  -4.9499743e-03   2.1993783e+00   1.4962947e+00  -2.5338244e+07
   6.5821941e-10  -4.9246922e-03   2.1975555e+00   1.4979988e+00  -2.5209338e+07
   6.5921974e-10  -4.8995387e-03   2.1957424e+00   1.4996953e+00  -2.5081083e+07
   6.6022007e-10  -4.8745132e-03   2.1939389e+00   1.5013845e+00  -2.4953476e+07
   6.6122041e-10  -4.8496150e-03   2.1921450e+00   1.5030662e+00  -2.4826515e+07
   6.6222074e-10  -4.8248435e-03   2.1903607e+00   1.5047405e+00  -2.4700195e+07
   6.6322107e-10  -4.8001980e-03   2.1885859e+00   1.5064074e+00  -2.4574515e+07
   6.6422141e-10  -4.7756779e-03   2.1868205e+00   1.5080670e+00  -2.4449470e+07
   6.6522174e-10  -4.7512826e-03   2.1850645e+00   1.5097192e+00  -2.4325057e+07
   6.6622207e-10  -4.7270114e-03   2.1833179e+00   1.5113642e+00  -2.4201273e+07
   6.6722241e-10  -4.7028637e-03   2.1815805e+00   1.5130019e+00  -2.4078116e+07
   6.6822274e-10  -4.6788390e-03   2.1798524e+00   1.5146324e+00  -2.3955581e+07
   6.6922307e-10  -4.6549365e-03   2.1781335e+00   1.5162556e+00  -2.3833666e+07
   6.7022341e-10  -4.6311556e-03   2.1764238e+00   1.5178716e+00  -2.3712368e+07
   6.7122374e-10  -4.6074958e-03   2.1747231e+00   1.5194805e+00  -2.3591684e+07
   6.7222407e-10  -4.5839564e-03   2.1730315e+00   1.5210822e+00  -2.3471609e+07
   6.7322441e-10  -4.5605367e-03   2.1713489e+00   1.5226768e+00  -2.3352143e+07
   6.7422474e-10  -4.5372363e-03   2.1696752e+00   1.5242643e+00  -2.3233280e+07
   6.7522508e-10  -4.5140545e-03   2.1680105e+00   1.5258448e+00  -2.3115019e+07
   6.7622541e-10  -4.4909907e-03   2.1663546e+00   1.5274182e+00  -2.2997357e+07
   6.7722574e-10  -4.4680443e-03   2.1647075e+00   1.5289845e+00  -2.2880289e+07
   6.7822608e-10  -4.4452148e-03   2.1630692e+00   1.5305439e+00  -2.2763814e+07
   6.7922641e-10  -4.4225014e-03   2.1614395e+00   1.5320963e+00  -2.2647929e+07
   6.8022674e-10  -4.3999037e-03   2.1598186e+00   1.5336418e+00  -2.2532629e+07
   6.8122708e-10  -4.3774210e-03   2.1582062e+00   1.5351804e+00  -2.2417914e+07
   6.8222741e-10  -4.3550527e-03   2.1566025e+00   1.5367120e+00  -2.2303778e+07
   6.8322774e-10  -4.3327984e-03   2.1550072e+00   1.5382368e+00  -2.2190221e+07
   6.8422808e-10  -4.3106573e-03   2.1534205e+00   1.5397548e+00  -2.2077238e+07
   6.8522841e-10  -4.2886290e-03   2.1518421e+00   1.5412659e+00  -2.1964827e+07
   6.8622874e-10  -4.2667129e-03   2.1502722e+00   1.5427702e+00  -2.1852985e+07
   6.8722908e-10  -4.2449083e-03   2.1487106e+00   1.5442678e+00  -2.1741709e+07
   6.8822941e-10  -4.2232148e-03   2.1471573e+00   1.5457586e+00  -2.1630996e+07
   6.8922974e-10  -4.2016318e-03   2.1456122e+00   1.5472427e+00  -2.1520843e+07
   6.9023008e-10  -4.1801586e-03   2.1440754e+00   1.5487201e+00  -2.1411249e+07
   6.9123041e-10  -4.1587949e-03   2.1425467e+00   1.5501908e+00  -2.1302209e+07
   6.9223074e-10  -4.1375399e-03   2.1410262e+00   1.5516549e+00  -2.1193721e+07
   6.9323108e-10  -4.1163931e-03   2.1395137e+00   1.5531124e+00  -2.1085783e+07
   6.9423141e-10  -4.0953541e-03   2.1380092e+00   1.5545633e+00  -2.0978390e+07
   6.9523174e-10  -4.0744222e-03   2.1365128e+00   1.5560076e+00  -2.0871542e+07
   6.9623208e-10  -4.0535970e-03   2.1350243e+00   1.5574453e+00  -2.0765235e+07
   6.9723241e-10  -4.0328778e-03   2.1335437e+00   1.5588766e+00  -2.0659466e+07
   6.9823274e-10  -4.0122641e-03   2.1320709e+00   1.5603013e+00  -2.0554233e+07
   6.9923308e-10  -3.9917554e-03   2.1306060e+00   1.5617196e+00  -2.0449532e+07
   7.0023341e-10  -3.9713513e-03   2.1291489e+00   1.5631314e+00  -2.0345362e+07
   7.0123374e-10  -3.9510510e-03   2.1276994e+00   1.5645368e+00  -2.0241720e+07
   7.0223408e-10  -3.9308542e-03   2.1262577e+00   1.5659358e+00  -2.0138602e+07
   7.0323441e-10  -3.9107602e-03   2.1248236e+00   1.5673284e+00  -2.0036007e+07
   7.0423474e-10  -3.8907687e-03   2.1233972e+00   1.5687147e+00  -1.9933931e+07
   7.0523508e-10  -3.8708789e-03   2.1219783e+00   1.5700946e+00  -1.9832372e+07
   7.0623541e-10  -3.8510905e-03   2.1205669e+00   1.5714683e+00  -1.9731328e+07
   7.0723575e-10  -3.8314030e-03   2.1191631e+00   1.5728356e+00  -1.9630796e+07
   7.0823608e-10  -3.8118157e-03   2.1177666e+00   1.5741967e+00  -1.9530773e+07
   7.0923641e-10  -3.7923283e-03   2.1163776e+00   1.5755516e+00  -1.9431257e+07
   7.1023675e-10  -3.7729401e-03   2.1149960e+00   1.5769003e+00  -1.9332245e+07
   7.1123708e-10  -3.7536507e-03   2.1136216e+00   1.5782428e+00  -1.9233735e+07
   7.1223741e-10  -3.7344597e-03   2.1122546e+00   1.5795792e+00  -1.9135724e+07
   7.1323775e-10  -3.7153664e-03   2.1108948e+00   1.5809094e+00  -1.9038209e+07
   7.1423808e-10  -3.6963704e-03   2.1095422e+00   1.5822335e+00  -1.8941189e+07
   7.1523841e-10  -3.6774712e-03   2.1081968e+00   1.5835515e+00  -1.8844660e+07
   7.1623875e-10  -3.6586684e-03   2.1068585e+00   1.5848634e+00  -1.8748621e+07
   7.1723908e-10  -3.6399613e-03   2.1055273e+00   1.5861694e+00  -1.8653068e+07
   7.1823941e-10  -3.6213497e-03   2.1042032e+00   1.5874693e+00  -1.8558000e+07
   7.1923975e-10  -3.6028328e-03   2.1028861e+00   1.5887632e+00  -1.8463413e+07
   7.2024008e-10  -3.5844104e-03   2.1015760e+00   1.5900511e+00  -1.8369306e+07
   7.2124041e-10  -3.5660818e-03   2.1002728e+00   1.5913331e+00  -1.8275676e+07
   7.2224075e-10  -3.5478467e-03   2.0989765e+00   1.5926092e+00  -1.8182521e+07
   7.2324108e-10  -3.5297045e-03   2.0976871e+00   1.5938794e+00  -1.8089838e+07
   7.2424141e-10  -3.5116548e-03   2.0964045e+00   1.5951438e+00  -1.7997624e+07
   7.2524175e-10  -3.4936971e-03   2.0951287e+00   1.5964022e+00  -1.7905878e+07
   7.2624208e-10  -3.4758310e-03   2.0938596e+00   1.5976549e+00  -1.7814598e+07
   7.2724241e-10  -3.4580559e-03   2.0925973e+00   1.5989017e+00  -1.7723780e+07
   7.2824275e-10  -3.4403715e-03   2.0913417e+00   1.6001428e+00  -1.7633423e+07
   7.2924308e-10  -3.4227772e-03   2.0900927e+00   1.6013781e+00  -1.7543523e+07
   7.3024341e-10  -3.4052726e-03   2.0888503e+00   1.6026077e+00  -1.7454080e+07
   7.3124375e-10  -3.3878572e-03   2.0876145e+00   1.6038316e+00  -1.7365090e+07
   7.3224408e-10  -3.3705307e-03   2.0863852e+00   1.6050497e+00  -1.7276552e+07
   7.3324441e-10  -3.3532925e-03   2.0851625e+00   1.6062623e+00  -1.7188463e+07
   7.3424475e-10  -3.3361422e-03   2.0839462e+00   1.6074691e+00  -1.7100820e+07
   7.3524508e-10  -3.3190793e-03   2.0827363e+00   1.6086704e+00  -1.7013622e+07
   7.3624542e-10  -3.3021035e-03   2.0815329e+00   1.6098661e+00  -1.6926866e+07
   7.3724575e-10  -3.2852142e-03   2.0803358e+00   1.6110562e+00  -1.6840550e+07
   7.3824608e-10  -3.2684110e-03   2.0791451e+00   1.6122407e+00  -1.6754672e+07
   7.3924642e-10  -3.2516935e-03   2.0779606e+00   1.6134198e+00  -1.6669230e+07
   7.4024675e-10  -3.2350613e-03   2.0767824e+00   1.6145933e+00  -1.6584221e+07
   7.4124708e-10  -3.2185139e-03   2.0756105e+00   1.6157613e+00  -1.6499644e+07
   7.4224742e-10  -3.2020509e-03   2.0744447e+00   1.6169239e+00  -1.6415495e+07
   7.4324775e-10  -3.1856718e-03   2.0732851e+00   1.6180811e+00  -1.6331774e+07
   7.4424808e-10  -3.1693763e-03   2.0721317e+00   1.6192328e+00  -1.6248477e+07
   7.4524842e-10  -3.1531639e-03   2.0709843e+00   1.6203791e+00  -1.6165603e+07
   7.4624875e-10  -3.1370342e-03   2.0698430e+00   1.6215201e+00  -1.6083150e+07
   7.4724908e-10  -3.1209867e-03   2.0687077e+00   1.6226557e+00  -1.6001115e+07
   7.4824942e-10  -3.1050211e-03   2.0675785e+00   1.6237860e+00  -1.5919496e+07
   7.4924975e-10  -3.0891370e-03   2.0664551e+00   1.6249110e+00  -1.5838291e+07
   7.5025008e-10  -3.0733339e-03   2.0653378e+00   1.6260308e+00  -1.5757499e+07
   7.5125042e-10  -3.0576114e-03   2.0642263e+00   1.6271452e+00  -1.5677117e+07
   7.5225075e-10  -3.0419691e-03   2.0631207e+00   1.6282545e+00  -1.5597142e+07
   7.5325108e-10  -3.0264065e-03   2.0620210e+00   1.6293585e+00  -1.5517574e+07
   7.5425142e-10  -3.0109234e-03   2.0609270e+00   1.6304573e+00  -1.5438409e+07
   7.5525175e-10  -2.9955193e-03   2.0598389e+00   1.6315509e+00  -1.5359647e+07
   7.5625208e-10  -2.9801938e-03   2.0587564e+00   1.6326394e+00  -1.5281284e+07
   7.5725242e-10  -2.9649464e-03   2.0576797e+00   1.6337228e+00  -1.5203319e+07
   7.5825275e-10  -2.9497769e-03   2.0566087e+00   1.6348011e+00  -1.5125750e+07
   7.5925308e-10  -2.9346847e-03   2.0555434e+00   1.6358742e+00  -1.5048574e+07
   7.6025342e-10  -2.9196696e-03   2.0544836e+00   1.6369424e+00  -1.4971791e+07
   7.6125375e-10  -2.9047310e-03   2.0534295e+00   1.6380054e+00  -1.4895397e+07
   7.6225408e-10  -2.8898687e-03   2.0523809e+00   1.6390635e+00  -1.4819391e+07
   7.6325442e-10  -2.8750822e-03   2.0513378e+00   1.6401165e+00  -1.4743771e+07
   7.6425475e-10  -2.8603712e-03   2.0503003e+00   1.6411646e+00  -1.4668536e+07
   7.6525509e-10  -2.8457353e-03   2.0492682e+00   1.6422077e+00  -1.4593682e+07
   7.6625542e-10  -2.8311740e-03   2.0482416e+00   1.6432459e+00  -1.4519208e+07
   7.6725575e-10  -2.8166870e-03   2.0472204e+00   1.6442792e+00  -1.4445113e+07
   7.6825609e-10  -2.8022740e-03   2.0462046e+00   1.6453076e+00  -1.4371394e+07
   7.6925642e-10  -2.7879346e-03   2.0451941e+00   1.6463311e+00  -1.4298049e+07
   7.7025675e-10  -2.7736683e-03   2.0441889e+00   1.6473497e+00  -1.4225077e+07
   7.7125709e-10  -2.7594748e-03   2.0431891e+00   1.6483635e+00  -1.4152476e+07
   7.7225742e-10  -2.7453538e-03   2.0421945e+00   1.6493725e+00  -1.4080243e+07
   7.7325775e-10  -2.7313048e-03   2.0412052e+00   1.6503768e+00  -1.4008378e+07
   7.7425809e-10  -2.7173276e-03   2.0402211e+00   1.6513762e+00  -1.3936877e+07
   7.7525842e-10  -2.7034216e-03   2.0392422e+00   1.6523709e+00  -1.3865740e+07
   7.7625875e-10  -2.6895867e-03   2.0382684e+00   1.6533609e+00  -1.3794964e+07
   7.7725909e-10  -2.6758224e-03   2.0372998e+00   1.6543461e+00  -1.3724548e+07
   7.7825942e-10  -2.6621283e-03   2.0363363e+00   1.6553267e+00  -1.3654489e+07
   7.7925975e-10  -2.6485042e-03   2.0353778e+00   1.6563026e+00  -1.3584787e+07
   7.8026009e-10  -2.6349496e-03   2.0344244e+00   1.6572739e+00  -1.3515438e+07
   7.8126042e-10  -2.6214642e-03   2.0334760e+00   1.6582405e+00  -1.3446442e+07
   7.8226075e-10  -2.6080476e-03   2.0325327e+00   1.6592025e+00  -1.3377797e+07
   7.8326109e-10  -2.5946996e-03   2.0315942e+00   1.6601600e+00  -1.3309500e+07
   7.8426142e-10  -2.5814196e-03   2.0306608e+00   1.6611128e+00  -1.3241551e+07
   7.8526175e-10  -2.5682075e-03   2.0297322e+00   1.6620611e+00  -1.3173947e+07
   7.8626209e-10  -2.5550629e-03   2.0288086e+00   1.6630049e+00  -1.3106687e+07
   7.8726242e-10  -2.5419853e-03   2.0278898e+00   1.6639442e+00  -1.3039768e+07
   7.8826275e-10  -2.5289745e-03   2.0269758e+00   1.6648790e+00  -1.2973190e+07
   7.8926309e-10  -2.5160302e-03   2.0260666e+00   1.6658093e+00  -1.2906950e+07
   7.9026342e-10  -2.5031519e-03   2.0251623e+00   1.6667352e+00  -1.2841046e+07
   7.9126375e-10  -2.4903394e-03   2.0242627e+00   1.6676567e+00  -1.2775478e+07
   7.9226409e-10  -2.4775923e-03   2.0233678e+00   1.6685737e+00  -1.2710243e+07
   7.9326442e-10  -2.4649103e-03   2.0224776e+00   1.6694863e+00  -1.2645340e+07
   7.9426475e-10  -2.4522931e-03   2.0215921e+00   1.6703946e+00  -1.2580767e+07
   7.9526509e-10  -2.4397403e-03   2.0207113e+00   1.6712985e+00  -1.2516522e+07
   7.9626542e-10  -2.4272516e-03   2.0198351e+00   1.6721981e+00  -1.2452603e+07
   7.9726576e-10  -2.4148267e-03   2.0189635e+00   1.6730934e+00  -1.2389010e+07
   7.9826609e-10  -2.4024652e-03   2.0180965e+00   1.6739844e+00  -1.2325740e+07
   7.9926642e-10  -2.3901669e-03   2.0172341e+00   1.6748711e+00  -1.2262792e+07
   8.0026676e-10  -2.3779313e-03   2.0163762e+00   1.6757535e+00  -1.2200164e+07
   8.0126709e-10  -2.3657583e-03   2.0155228e+00   1.6766317e+00  -1.2137854e+07
   8.0226742e-10  -2.3536474e-03   2.0146739e+00   1.6775057e+00  -1.2075861e+07
   8.0326776e-10  -2.3415984e-03   2.0138295e+00   1.6783755e+00  -1.2014184e+07
   8.0426809e-10  -2.3296110e-03   2.0129895e+00   1.6792411e+00  -1.1952820e+07
   8.0526842e-10  -2.3176847e-03   2.0121539e+00   1.6801025e+00  -1.1891768e+07
   8.0626876e-10  -2.3058194e-03   2.0113227e+00   1.6809598e+00  -1.1831027e+07
   8.0726909e-10  -2.2940147e-03   2.0104959e+00   1.6818130e+00  -1.1770595e+07
   8.0826942e-10  -2.2822702e-03   2.0096734e+00   1.6826620e+00  -1.1710470e+07
   8.0926976e-10  -2.2705858e-03   2.0088552e+00   1.6835070e+00  -1.1650652e+07
   8.1027009e-10  -2.2589611e-03   2.0080414e+00   1.6843479e+00  -1.1591137e+07
   8.1127042e-10  -2.2473957e-03   2.0072318e+00   1.6851847e+00  -1.1531925e+07
   8.1227076e-10  -2.2358894e-03   2.0064264e+00   1.6860175e+00  -1.1473015e+07
   8.1327109e-10  -2.2244419e-03   2.0056253e+00   1.6868463e+00  -1.1414404e+07
   8.1427142e-10  -2.2130529e-03   2.0048284e+00   1.6876710e+00  -1.1356091e+07
   8.1527176e-10  -2.2017221e-03   2.0040357e+00   1.6884918e+00  -1.1298075e+07
   8.1627209e-10  -2.1904491e-03   2.0032472e+00   1.6893087e+00  -1.1240355e+07
   8.1727242e-10  -2.1792338e-03   2.0024628e+00   1.6901216e+00  -1.1182928e+07
   8.1827276e-10  -2.1680757e-03   2.0016825e+00   1.6909305e+00  -1.1125793e+07
   8.1927309e-10  -2.1569747e-03   2.0009063e+00   1.6917356e+00  -1.1068949e+07
   8.2027342e-10  -2.1459303e-03   2.0001342e+00   1.6925367e+00  -1.1012394e+07
   8.2127376e-10  -2.1349424e-03   1.9993661e+00   1.6933340e+00  -1.0956127e+07
   8.2227409e-10  -2.1240107e-03   1.9986020e+00   1.6941274e+00  -1.0900146e+07
   8.2327442e-10  -2.1131348e-03   1.9978420e+00   1.6949170e+00  -1.0844451e+07
   8.2427476e-10  -2.1023145e-03   1.9970860e+00   1.6957027e+00  -1.0789039e+07
   8.2527509e-10  -2.0915494e-03   1.9963339e+00   1.6964847e+00  -1.0733908e+07
   8.2627543e-10  -2.0808394e-03   1.9955858e+00   1.6972628e+00  -1.0679059e+07
   8.2727576e-10  -2.0701841e-03   1.9948416e+00   1.6980372e+00  -1.0624489e+07
   8.2827609e-10  -2.0595832e-03   1.9941013e+00   1.6988078e+00  -1.0570196e+07
   8.2927643e-10  -2.0490366e-03   1.9933649e+00   1.6995747e+00  -1.0516180e+07
   8.3027676e-10  -2.0385438e-03   1.9926323e+00   1.7003379e+00  -1.0462439e+07
   8.3127709e-10  -2.0281046e-03   1.9919036e+00   1.7010974e+00  -1.0408971e+07
   8.3227743e-10  -2.0177188e-03   1.9911787e+00   1.7018531e+00  -1.0355776e+07
   8.3327776e-10  -2.0073861e-03   1.9904576e+00   1.7026052e+00  -1.0302851e+07
   8.3427809e-10  -1.9971061e-03   1.9897403e+00   1.7033537e+00  -1.0250196e+07
   8.3527843e-10  -1.9868787e-03   1.9890267e+00   1.7040985e+00  -1.0197809e+07
   8.3627876e-10  -1.9767036e-03   1.9883169e+00   1.7048397e+00  -1.0145689e+07
   8.3727909e-10  -1.9665805e-03   1.9876108e+00   1.7055773e+00  -1.0093834e+07
   8.3827943e-10  -1.9565091e-03   1.9869085e+00   1.7063113e+00  -1.0042243e+07
   8.3927976e-10  -1.9464892e-03   1.9862097e+00   1.7070417e+00  -9.9909152e+06
   8.4028009e-10  -1.9365206e-03   1.9855147e+00   1.7077686e+00  -9.9398486e+06
   8.4128043e-10  -1.9266028e-03   1.9848233e+00   1.7084919e+00  -9.8890420e+06
   8.4228076e-10  -1.9167358e-03   1.9841355e+00   1.7092117e+00  -9.8384941e+06
   8.4328109e-10  -1.9069192e-03   1.9834513e+00   1.7099280e+00  -9.7882037e+06
   8.4428143e-10  -1.8971528e-03   1.9827707e+00   1.7106408e+00  -9.7381694e+06
   8.4528176e-10  -1.8874363e-03   1.9820937e+00   1.7113502e+00  -9.6883900e+06
   8.4628209e-10  -1.8777694e-03   1.9814202e+00   1.7120560e+00  -9.6388641e+06
   8.4728243e-10  -1.8681520e-03   1.9807503e+00   1.7127585e+00  -9.5895905e+06
   8.4828276e-10  -1.8585838e-03   1.9800838e+00   1.7134575e+00  -9.5405679e+06
   8.4928309e-10  -1.8490644e-03   1.9794208e+00   1.7141531e+00  -9.4917950e+06
   8.5028343e-10  -1.8395938e-03   1.9787614e+00   1.7148453e+00  -9.4432706e+06
   8.5128376e-10  -1.8301715e-03   1.9781053e+00   1.7155341e+00  -9.3949934e+06
   8.5228409e-10  -1.8207974e-03   1.9774527e+00   1.7162195e+00  -9.3469621e+06
   8.5328443e-10  -1.8114713e-03   1.9768035e+00   1.7169016e+00  -9.2991755e+06
   8.5428476e-10  -1.8021928e-03   1.9761577e+00   1.7175804e+00  -9.2516324e+06
   8.5528510e-10  -1.7929618e-03   1.9755153e+00   1.7182559e+00  -9.2043315e+06
   8.5628543e-10  -1.7837779e-03   1.9748763e+00   1.7189280e+00  -9.1572716e+06
   8.5728576e-10  -1.7746410e-03   1.9742406e+00   1.7195969e+00  -9.1104515e+06
   8.5828610e-10  -1.7655509e-03   1.9736082e+00   1.7202625e+00  -9.0638700e+06
   8.5928643e-10  -1.7565072e-03   1.9729791e+00   1.7209248e+00  -9.0175259e+06
   8.6028676e-10  -1.7475097e-03   1.9723533e+00   1.7215839e+00  -8.9714179e+06
   8.6128710e-10  -1.7385583e-03   1.9717308e+00   1.7222397e+00  -8.9255449e+06
   8.6228743e-10  -1.7296526e-03   1.9711116e+00   1.7228924e+00  -8.8799056e+06
   8.6328776e-10  -1.7207925e-03   1.9704956e+00   1.7235418e+00  -8.8344990e+06
   8.6428810e-10  -1.7119776e-03   1.9698828e+00   1.7241881e+00  -8.7893237e+06
   8.6528843e-10  -1.7032079e-03   1.9692732e+00   1.7248312e+00  -8.7443787e+06
   8.6628876e-10  -1.6944830e-03   1.9686668e+00   1.7254712e+00  -8.6996628e+06
   8.6728910e-10  -1.6858027e-03   1.9680636e+00   1.7261080e+00  -8.6551748e+06
   8.6828943e-10  -1.6771668e-03   1.9674635e+00   1.7267417e+00  -8.6109135e+06
   8.6928976e-10  -1.6685750e-03   1.9668665e+00   1.7273722e+00  -8.5668779e+06
   8.7029010e-10  -1.6600272e-03   1.9662727e+00   1.7279997e+00  -8.5230667e+06
   8.7129043e-10  -1.6515231e-03   1.9656820e+00   1.7286241e+00  -8.4794788e+06
   8.7229076e-10  -1.6430625e-03   1.9650944e+00   1.7292455e+00  -8.4361132e+06
   8.7329110e-10  -1.6346452e-03   1.9645098e+00   1.7298637e+00  -8.3929686e+06
   8.7429143e-10  -1.6262709e-03   1.9639283e+00   1.7304790e+00  -8.3500439e+06
   8.7529176e-10  -1.6179395e-03   1.9633499e+00   1.7310912e+00  -8.3073381e+06
   8.7629210e-10  -1.6096506e-03   1.9627744e+00   1.7317004e+00  -8.2648501e+06
   8.7729243e-10  -1.6014042e-03   1.9622020e+00   1.7323066e+00  -8.2225786e+06
   8.7829276e-10  -1.5931999e-03   1.9616325e+00   1.7329099e+00  -8.1805227e+06
   8.7929310e-10  -1.5850376e-03   1.9610661e+00   1.7335102e+00  -8.1386812e+06
   8.8029343e-10  -1.5769171e-03   1.9605026e+00   1.7341075e+00  -8.0970531e+06
   8.8129376e-10  -1.5688380e-03   1.9599420e+00   1.7347019e+00  -8.0556372e+06
   8.8229410e-10  -1.5608003e-03   1.9593844e+00   1.7352933e+00  -8.0144325e+06
   8.8329443e-10  -1.5528037e-03   1.9588296e+00   1.7358818e+00  -7.9734379e+06
   8.8429476e-10  -1.5448481e-03   1.9582778e+00   1.7364675e+00  -7.9326524e+06
   8.8529510e-10  -1.5369331e-03   1.9577288e+00   1.7370502e+00  -7.8920749e+06
   8.8629543e-10  -1.5290586e-03   1.9571828e+00   1.7376301e+00  -7.8517043e+06
   8.8729577e-10  -1.5212244e-03   1.9566395e+00   1.7382072e+00  -7.8115396e+06
   8.8829610e-10  -1.5134302e-03   1.9560991e+00   1.7387813e+00  -7.7715797e+06
   8.8929643e-10  -1.5056760e-03   1.9555616e+00   1.7393527e+00  -7.7318236e+06
   8.9029677e-10  -1.4979614e-03   1.9550268e+00   1.7399212e+00  -7.6922703e+06
   8.9129710e-10  -1.4902862e-03   1.9544948e+00   1.7404870e+00  -7.6529188e+06
   8.9229743e-10  -1.4826503e-03   1.9539656e+00   1.7410499e+00  -7.6137679e+06
   8.9329777e-10  -1.4750535e-03   1.9534392e+00   1.7416101e+00  -7.5748168e+06
   8.9429810e-10  -1.4674956e-03   1.9529155e+00   1.7421675e+00  -7.5360644e+06
   8.9529843e-10  -1.4599763e-03   1.9523945e+00   1.7427221e+00  -7.4975096e+06
   8.9629877e-10  -1.4524955e-03   1.9518762e+00   1.7432740e+00  -7.4591515e+06
   8.9729910e-10  -1.4450530e-03   1.9513607e+00   1.7438232e+00  -7.4209891e+06
   8.9829943e-10  -1.4376485e-03   1.9508478e+00   1.7443697e+00  -7.3830214e+06
   8.9929977e-10  -1.4302819e-03   1.9503377e+00   1.7449134e+00  -7.3452473e+06
   9.0030010e-10  -1.4229531e-03   1.9498301e+00   1.7454545e+00  -7.3076660e+06
   9.0130043e-10  -1.4156617e-03   1.9493253e+00   1.7459929e+00  -7.2702764e+06
   9.0230077e-10  -1.4084076e-03   1.9488230e+00   1.7465287e+00  -7.2330776e+06
   9.0330110e-10  -1.4011906e-03   1.9483234e+00   1.7470618e+00  -7.1960686e+06
   9.0430143e-10  -1.3940106e-03   1.9478264e+00   1.7475922e+00  -7.1592484e+06
   9.0530177e-10  -1.3868673e-03   1.9473320e+00   1.7481201e+00  -7.1226161e+06
   9.0630210e-10  -1.3797605e-03   1.9468401e+00   1.7486453e+00  -7.0861707e+06
   9.0730243e-10  -1.3726902e-03   1.9463508e+00   1.7491679e+00  -7.0499112e+06
   9.0830277e-10  -1.3656560e-03   1.9458641e+00   1.7496880e+00  -7.0138368e+06
   9.0930310e-10  -1.3586577e-03   1.9453799e+00   1.7502054e+00  -6.9779465e+06
   9.1030343e-10  -1.3516953e-03   1.9448982e+00   1.7507203e+00  -6.9422394e+06
   9.1130377e-10  -1.3447686e-03   1.9444191e+00   1.7512327e+00  -6.9067144e+06
   9.1230410e-10  -1.3378772e-03   1.9439424e+00   1.7517425e+00  -6.8713708e+06
   9.1330443e-10  -1.3310212e-03   1.9434682e+00   1.7522498e+00  -6.8362075e+06
   9.1430477e-10  -1.3242002e-03   1.9429965e+00   1.7527546e+00  -6.8012237e+06
   9.1530510e-10  -1.3174141e-03   1.9425273e+00   1.7532568e+00  -6.7664185e+06
   9.1630544e-10  -1.3106628e-03   1.9420605e+00   1.7537566e+00  -6.7317908e+06
   9.1730577e-10  -1.3039460e-03   1.9415961e+00   1.7542539e+00  -6.6973400e+06
   9.1830610e-10  -1.2972636e-03   1.9411341e+00   1.7547487e+00  -6.6630649e+06
   9.1930644e-10  -1.2906154e-03   1.9406746e+00   1.7552411e+00  -6.6289649e+06
   9.2030677e-10  -1.2840012e-03   1.9402174e+00   1.7557311e+00  -6.5950388e+06
   9.2130710e-10  -1.2774208e-03   1.9397627e+00   1.7562186e+00  -6.5612860e+06
   9.2230744e-10  -1.2708742e-03   1.9393102e+00   1.7567037e+00  -6.5277055e+06
   9.2330777e-10  -1.2643610e-03   1.9388602e+00   1.7571863e+00  -6.4942963e+06
   9.2430810e-10  -1.2578812e-03   1.9384125e+00   1.7576666e+00  -6.4610578e+06
   9.2530844e-10  -1.2514345e-03   1.9379671e+00   1.7581445e+00  -6.4279889e+06
   9.2630877e-10  -1.2450209e-03   1.9375240e+00   1.7586200e+00  -6.3950888e+06
   9.2730910e-10  -1.2386400e-03   1.9370833e+00   1.7590932e+00  -6.3623567e+06
   9.2830944e-10  -1.2322919e-03   1.9366448e+00   1.7595640e+00  -6.3297917e+06
   9.2930977e-10  -1.2259762e-03   1.9362087e+00   1.7600325e+00  -6.2973930e+06
   9.3031010e-10  -1.2196928e-03   1.9357748e+00   1.7604986e+00  -6.2651597e+06
   9.3131044e-10  -1.2134416e-03   1.9353431e+00   1.7609625e+00  -6.2330910e+06
   9.3231077e-10  -1.2072224e-03   1.9349137e+00   1.7614240e+00  -6.2011860e+06
   9.3331110e-10  -1.2010351e-03   1.9344865e+00   1.7618832e+00  -6.1694439e+06
   9.3431144e-10  -1.1948794e-03   1.9340616e+00   1.7623402e+00  -6.1378639e+06
   9.3531177e-10  -1.1887552e-03   1.9336389e+00   1.7627948e+00  -6.1064451e+06
   9.3631210e-10  -1.1826624e-03   1.9332183e+00   1.7632472e+00  -6.0751868e+06
   9.3731244e-10  -1.1766007e-03   1.9328000e+00   1.7636974e+00  -6.0440881e+06
   9.3831277e-10  -1.1705701e-03   1.9323838e+00   1.7641453e+00  -6.0131483e+06
   9.3931310e-10  -1.1645703e-03   1.9319698e+00   1.7645910e+00  -5.9823664e+06
   9.4031344e-10  -1.1586013e-03   1.9315580e+00   1.7650344e+00  -5.9517417e+06
   9.4131377e-10  -1.1526628e-03   1.9311482e+00   1.7654757e+00  -5.9212734e+06
   9.4231410e-10  -1.1467548e-03   1.9307407e+00   1.7659148e+00  -5.8909608e+06
   9.4331444e-10  -1.1408769e-03   1.9303352e+00   1.7663516e+00  -5.8608029e+06
   9.4431477e-10  -1.1350292e-03   1.9299319e+00   1.7667863e+00  -5.8307991e+06
   9.4531511e-10  -1.1292114e-03   1.9295306e+00   1.7672189e+00  -5.8009485e+06
   9.4631544e-10  -1.1234234e-03   1.9291314e+00   1.7676492e+00  -5.7712504e+06
   9.4731577e-10  -1.1176650e-03   1.9287344e+00   1.7680775e+00  -5.7417039e+06
   9.4831611e-10  -1.1119361e-03   1.9283393e+00   1.7685035e+00  -5.7123084e+06
   9.4931644e-10  -1.1062365e-03   1.9279464e+00   1.7689275e+00  -5.6830630e+06
   9.5031677e-10  -1.1005661e-03   1.9275554e+00   1.7693494e+00  -5.6539671e+06
   9.5131711e-10  -1.0949248e-03   1.9271665e+00   1.7697691e+00  -5.6250197e+06
   9.5231744e-10  -1.0893123e-03   1.9267797e+00   1.7701868e+00  -5.5962202e+06
   9.5331777e-10  -1.0837285e-03   1.9263948e+00   1.7706024e+00  -5.5675678e+06
   9.5431811e-10  -1.0781734e-03   1.9260119e+00   1.7710159e+00  -5.5390619e+06
   9.5531844e-10  -1.0726467e-03   1.9256311e+00   1.7714273e+00  -5.5107015e+06
   9.5631877e-10  -1.0671483e-03   1.9252522e+00   1.7718367e+00  -5.4824860e+06
   9.5731911e-10  -1.0616780e-03   1.9248752e+00   1.7722440e+00  -5.4544147e+06
   9.5831944e-10  -1.0562357e-03   1.9245003e+00   1.7726493e+00  -5.4264867e+06
   9.5931977e-10  -1.0508214e-03   1.9241272e+00   1.7730526e+00  -5.3987015e+06
   9.6032011e-10  -1.0454347e-03   1.9237562e+00   1.7734539e+00  -5.3710582e+06
   9.6132044e-10  -1.0400756e-03   1.9233870e+00   1.7738531e+00  -5.3435562e+06
   9.6232077e-10  -1.0347440e-03   1.9230198e+00   1.7742504e+00  -5.3161946e+06
   9.6332111e-10  -1.0294396e-03   1.9226544e+00   1.7746457e+00  -5.2889729e+06
   9.6432144e-10  -1.0241624e-03   1.9222910e+00   1.7750390e+00  -5.2618903e+06
   9.6532177e-10  -1.0189123e-03   1.9219295e+00   1.7754303e+00  -5.2349460e+06
   9.6632211e-10  -1.0136890e-03   1.9215698e+00   1.7758197e+00  -5.2081394e+06
   9.6732244e-10  -1.0084925e-03   1.9212120e+00   1.7762071e+00  -5.1814699e+06
   9.6832277e-10  -1.0033226e-03   1.9208561e+00   1.7765926e+00  -5.1549365e+06
   9.6932311e-10  -9.9817913e-04   1.9205020e+00   1.7769762e+00  -5.1285388e+06
   9.7032344e-10  -9.9306203e-04   1.9201497e+00   1.7773579e+00  -5.1022760e+06
   9.7132377e-10  -9.8797113e-04   1.9197993e+00   1.7777376e+00  -5.0761474e+06
   9.7232411e-10  -9.8290630e-04   1.9194507e+00   1.7781155e+00  -5.0501523e+06
   9.7332444e-10  -9.7786741e-04   1.9191039e+00   1.7784914e+00  -5.0242901e+06
   9.7432477e-10  -9.7285433e-04   1.9187589e+00   1.7788655e+00  -4.9985600e+06
   9.7532511e-10  -9.6786691e-04   1.9184157e+00   1.7792377e+00  -4.9729614e+06
   9.7632544e-10  -9.6290504e-04   1.9180743e+00   1.7796080e+00  -4.9474937e+06
   9.7732578e-10  -9.5796858e-04   1.9177346e+00   1.7799765e+00  -4.9221561e+06
   9.7832611e-10  -9.5305740e-04   1.9173968e+00   1.7803432e+00  -4.8969480e+06
   9.7932644e-10  -9.4817138e-04   1.9170606e+00   1.7807080e+00  -4.8718688e+06
   9.8032678e-10  -9.4331037e-04   1.9167262e+00   1.7810709e+00  -4.8469177e+06
   9.8132711e-10  -9.3847427e-04   1.9163936e+00   1.7814321e+00  -4.8220942e+06
   9.8232744e-10  -9.3366293e-04   1.9160627e+00   1.7817914e+00  -4.7973976e+06
   9.8332778e-10  -9.2887623e-04   1.9157334e+00   1.7821490e+00  -4.7728272e+06
   9.8432811e-10  -9.2411405e-04   1.9154059e+00   1.7825047e+00  -4.7483824e+06
   9.8532844e-10  -9.1937625e-04   1.9150801e+00   1.7828587e+00  -4.7240626e+06
   9.8632878e-10  -9.1466273e-04   1.9147560e+00   1.7832109e+00  -4.6998670e+06
   9.8732911e-10  -9.0997334e-04   1.9144336e+00   1.7835614e+00  -4.6757952e+06
   9.8832944e-10  -9.0530798e-04   1.9141129e+00   1.7839100e+00  -4.6518464e+06
   9.8932978e-10  -9.0066651e-04   1.9137938e+00   1.7842570e+00  -4.6280200e+06
   9.9033011e-10  -8.9604881e-04   1.9134763e+00   1.7846021e+00  -4.6043155e+06
   9.9133044e-10  -8.9145476e-04   1.9131605e+00   1.7849456e+00  -4.5807321e+06
   9.9233078e-10  -8.8688425e-04   1.9128464e+00   1.7852873e+00  -4.5572693e+06
   9.9333111e-10  -8.8233714e-04   1.9125339e+00   1.7856274e+00  -4.5339265e+06
   9.9433144e-10  -8.7781333e-04   1.9122229e+00   1.7859657e+00  -4.5107030e+06
   9.9533178e-10  -8.7331269e-04   1.9119137e+00   1.7863023e+00  -4.4875982e+06
   9.9633211e-10  -8.6883510e-04   1.9116060e+00   1.7866372e+00  -4.4646116e+06
   9.9733244e-10  -8.6438045e-04   1.9112999e+00   1.7869705e+00  -4.4417424e+06
   9.9833278e-10  -8.5994861e-04   1.9109954e+00   1.7873020e+00  -4.4189903e+06
   9.9933311e-10  -8.5553948e-04   1.9106925e+00   1.7876319e+00  -4.3963544e+06
   1.0003334e-09  -8.5115293e-04   1.9103911e+00   1.7879602e+00  -4.3738343e+06
   1.0013338e-09  -8.4678886e-04   1.9100913e+00   1.7882868e+00  -4.3514293e+06
   1.0023341e-09  -8.4244713e-04   1.9097931e+00   1.7886118e+00  -4.3291389e+06
   1.0033344e-09  -8.3812765e-04   1.9094964e+00   1.7889351e+00  -4.3069625e+06
   1.0043348e-09  -8.3383030e-04   1.9092012e+00   1.7892568e+00  -4.2848995e+06
   1.0053351e-09  -8.2955496e-04   1.9089076e+00   1.7895769e+00  -4.2629493e+06
   1.0063354e-09  -8.2530152e-04   1.9086155e+00   1.7898954e+00  -4.2411113e+06
   1.0073358e-09  -8.2106987e-04   1.9083249e+00   1.7902123e+00  -4.2193850e+06
   1.0083361e-09  -8.1685990e-04   1.9080358e+00   1.7905275e+00  -4.1977699e+06
   1.0093364e-09  -8.1267149e-04   1.9077482e+00   1.7908412e+00  -4.1762652e+06
   1.0103368e-09  -8.0850454e-04   1.9074621e+00   1.7911534e+00  -4.1548706e+06
   1.0113371e-09  -8.0435894e-04   1.9071775e+00   1.7914639e+00  -4.1335853e+06
   1.0123374e-09  -8.0023458e-04   1.9068944e+00   1.7917729e+00  -4.1124089e+06
   1.0133378e-09  -7.9613135e-04   1.9066127e+00   1.7920804e+00  -4.0913408e+06
   1.0143381e-09  -7.9204913e-04   1.9063325e+00   1.7923863e+00  -4.0703805e+06
   1.0153384e-09  -7.8798783e-04   1.9060538e+00   1.7926906e+00  -4.0495273e+06
   1.0163388e-09  -7.8394734e-04   1.9057764e+00   1.7929935e+00  -4.0287809e+06
   1.0173391e-09  -7.7992755e-04   1.9055006e+00   1.7932948e+00  -4.0081405e+06
   1.0183394e-09  -7.7592835e-04   1.9052261e+00   1.7935946e+00  -3.9876057e+06
   1.0193398e-09  -7.7194964e-04   1.9049531e+00   1.7938928e+00  -3.9671759e+06
   1.0203401e-09  -7.6799132e-04   1.9046815e+00   1.7941896e+00  -3.9468506e+06
   1.0213404e-09  -7.6405327e-04   1.9044113e+00   1.7944849e+00  -3.9266293e+06
   1.0223408e-09  -7.6013540e-04   1.9041425e+00   1.7947787e+00  -3.9065114e+06
   1.0233411e-09  -7.5623761e-04   1.9038751e+00   1.7950710e+00  -3.8864964e+06
   1.0243414e-09  -7.5235979e-04   1.9036090e+00   1.7953619e+00  -3.8665839e+06
   1.0253418e-09  -7.4850183e-04   1.9033444e+00   1.7956513e+00  -3.8467731e+06
   1.0263421e-09  -7.4466364e-04   1.9030811e+00   1.7959392e+00  -3.8270637e+06
   1.0273424e-09  -7.4084511e-04   1.9028192e+00   1.7962257e+00  -3.8074551e+06
   1.0283428e-09  -7.3704616e-04   1.9025586e+00   1.7965107e+00  -3.7879469e+06
   1.0293431e-09  -7.3326666e-04   1.9022994e+00   1.7967943e+00  -3.7685384e+06
   1.0303434e-09  -7.2950653e-04   1.9020415e+00   1.7970765e+00  -3.7492292e+06
   1.0313438e-09  -7.2576567e-04   1.9017850e+00   1.7973572e+00  -3.7300188e+06
   1.0323441e-09  -7.2204397e-04   1.9015298e+00   1.7976366e+00  -3.7109067e+06
   1.0333444e-09  -7.1834135e-04   1.9012759e+00   1.7979145e+00  -3.6918923e+06
   1.0343448e-09  -7.1465769e-04   1.9010233e+00   1.7981910e+00  -3.6729753e+06
   1.0353451e-09  -7.1099291e-04   1.9007721e+00   1.7984661e+00  -3.6541550e+06
   1.0363454e-09  -7.0734691e-04   1.9005221e+00   1.7987399e+00  -3.6354310e+06
   1.0373458e-09  -7.0371960e-04   1.9002734e+00   1.7990123e+00  -3.6168028e+06
   1.0383461e-09  -7.0011086e-04   1.9000261e+00   1.7992832e+00  -3.5982699e+06
   1.0393464e-09  -6.9652062e-04   1.8997800e+00   1.7995529e+00  -3.5798318e+06
   1.0403468e-09  -6.9294878e-04   1.8995351e+00   1.7998211e+00  -3.5614881e+06
   1.0413471e-09  -6.8939524e-04   1.8992916e+00   1.8000881e+00  -3.5432382e+06
   1.0423474e-09  -6.8585991e-04   1.8990493e+00   1.8003536e+00  -3.5250817e+06
   1.0433478e-09  -6.8234269e-04   1.8988082e+00   1.8006179e+00  -3.5070181e+06
   1.0443481e-09  -6.7884350e-04   1.8985684e+00   1.8008807e+00  -3.4890469e+06
   1.0453484e-09  -6.7536224e-04   1.8983299e+00   1.8011423e+00  -3.4711677e+06
   1.0463488e-09  -6.7189882e-04   1.8980925e+00   1.8014026e+00  -3.4533799e+06
   1.0473491e-09  -6.6845315e-04   1.8978564e+00   1.8016615e+00  -3.4356832e+06
   1.0483494e-09  -6.6502513e-04   1.8976216e+00   1.8019191e+00  -3.4180771e+06
   1.0493498e-09  -6.6161468e-04   1.8973879e+00   1.8021755e+00  -3.4005610e+06
   1.0503501e-09  -6.5822171e-04   1.8971555e+00   1.8024305e+00  -3.3831346e+06
   1.0513505e-09  -6.5484613e-04   1.8969242e+00   1.8026843e+00  -3.3657973e+06
   1.0523508e-09  -6.5148784e-04   1.8966942e+00   1.8029367e+00  -3.3485488e+06
   1.0533511e-09  -6.4814677e-04   1.8964653e+00   1.8031879e+00  -3.3313885e+06
   1.0543515e-09  -6.4482281e-04   1.8962376e+00   1.8034378e+00  -3.3143161e+06
   1.0553518e-09  -6.4151590e-04   1.8960111e+00   1.8036865e+00  -3.2973310e+06
   1.0563521e-09  -6.3822592e-04   1.8957858e+00   1.8039339e+00  -3.2804328e+06
   1.0573525e-09  -6.3495281e-04   1.8955616e+00   1.8041801e+00  -3.2636211e+06
   1.0583528e-09  -6.3169648e-04   1.8953386e+00   1.8044250e+00  -3.2468955e+06
   1.0593531e-09  -6.2845683e-04   1.8951168e+00   1.8046687e+00  -3.2302555e+06
   1.0603535e-09  -6.2523378e-04   1.8948961e+00   1.8049111e+00  -3.2137006e+06
   1.0613538e-09  -6.2202725e-04   1.8946765e+00   1.8051523e+00  -3.1972304e+06
   1.0623541e-09  -6.1883716e-04   1.8944581e+00   1.8053923e+00  -3.1808446e+06
   1.0633545e-09  -6.1566342e-04   1.8942408e+00   1.8056311e+00  -3.1645426e+06
   1.0643548e-09  -6.1250594e-04   1.8940246e+00   1.8058687e+00  -3.1483241e+06
   1.0653551e-09  -6.0936464e-04   1.8938096e+00   1.8061051e+00  -3.1321885e+06
   1.0663555e-09  -6.0623944e-04   1.8935956e+00   1.8063403e+00  -3.1161356e+06
   1.0673558e-09  -6.0313026e-04   1.8933828e+00   1.8065743e+00  -3.1001648e+06
   1.0683561e-09  -6.0003702e-04   1.8931710e+00   1.8068071e+00  -3.0842757e+06
   1.0693565e-09  -5.9695963e-04   1.8929604e+00   1.8070388e+00  -3.0684680e+06
   1.0703568e-09  -5.9389801e-04   1.8927508e+00   1.8072692e+00  -3.0527412e+06
   1.0713571e-09  -5.9085208e-04   1.8925424e+00   1.8074985e+00  -3.0370949e+06
   1.0723575e-09  -5.8782177e-04   1.8923350e+00   1.8077267e+00  -3.0215287e+06
   1.0733578e-09  -5.8480698e-04   1.8921287e+00   1.8079537e+00  -3.0060422e+06
   1.0743581e-09  -5.8180765e-04   1.8919234e+00   1.8081795e+00  -2.9906349e+06
   1.0753585e-09  -5.7882369e-04   1.8917192e+00   1.8084042e+00  -2.9753065e+06
   1.0763588e-09  -5.7585503e-04   1.8915161e+00   1.8086278e+00  -2.9600566e+06
   1.0773591e-09  -5.7290158e-04   1.8913140e+00   1.8088502e+00  -2.9448848e+06
   1.0783595e-09  -5.6996327e-04   1.8911129e+00   1.8090715e+00  -2.9297906e+06
   1.0793598e-09  -5.6704001e-04   1.8909129e+00   1.8092917e+00  -2.9147737e+06
   1.0803601e-09  -5.6413175e-04   1.8907140e+00   1.8095108e+00  -2.8998336e+06
   1.0813605e-09  -5.6123839e-04   1.8905160e+00   1.8097288e+00  -2.8849701e+06
   1.0823608e-09  -5.5835986e-04   1.8903191e+00   1.8099456e+00  -2.8701826e+06
   1.0833611e-09  -5.5549608e-04   1.8901232e+00   1.8101614e+00  -2.8554708e+06
   1.0843615e-09  -5.5264699e-04   1.8899283e+00   1.8103761e+00  -2.8408344e+06
   1.0853618e-09  -5.4981249e-04   1.8897344e+00   1.8105897e+00  -2.8262729e+06
   1.0863621e-09  -5.4699253e-04   1.8895416e+00   1.8108022e+00  -2.8117859e+06
   1.0873625e-09  -5.4418702e-04   1.8893497e+00   1.8110136e+00  -2.7973731e+06
   1.0883628e-09  -5.4139589e-04   1.8891588e+00   1.8112240e+00  -2.7830341e+06
   1.0893631e-09  -5.3861907e-04   1.8889689e+00   1.8114333e+00  -2.7687685e+06
   1.0903635e-09  -5.3585649e-04   1.8887799e+00   1.8116415e+00  -2.7545760e+06
   1.0913638e-09  -5.3310806e-04   1.8885920e+00   1.8118487e+00  -2.7404561e+06
   1.0923641e-09  -5.3037372e-04   1.8884050e+00   1.8120548e+00  -2.7264085e+06
   1.0933645e-09  -5.2765340e-04   1.8882190e+00   1.8122599e+00  -2.7124328e+06
   1.0943648e-09  -5.2494702e-04   1.8880339e+00   1.8124640e+00  -2.6985287e+06
   1.0953651e-09  -5.2225452e-04   1.8878498e+00   1.8126670e+00  -2.6846958e+06
   1.0963655e-09  -5.1957582e-04   1.8876667e+00   1.8128690e+00  -2.6709337e+06
   1.0973658e-09  -5.1691085e-04   1.8874845e+00   1.8130699e+00  -2.6572420e+06
   1.0983661e-09  -5.1425954e-04   1.8873032e+00   1.8132699e+00  -2.6436205e+06
   1.0993665e-09  -5.1162182e-04   1.8871229e+00   1.8134688e+00  -2.6300687e+06
   1.1003668e-09  -5.0899762e-04   1.8869435e+00   1.8136668e+00  -2.6165864e+06
   1.1013671e-09  -5.0638688e-04   1.8867651e+00   1.8138637e+00  -2.6031730e+06
   1.1023675e-09  -5.0378952e-04   1.8865875e+00   1.8140596e+00  -2.5898283e+06
   1.1033678e-09  -5.0120547e-04   1.8864109e+00   1.8142545e+00  -2.5765520e+06
   1.1043681e-09  -4.9863467e-04   1.8862352e+00   1.8144485e+00  -2.5633437e+06
   1.1053685e-09  -4.9607705e-04   1.8860604e+00   1.8146414e+00  -2.5502030e+06
   1.1063688e-09  -4.9353254e-04   1.8858865e+00   1.8148334e+00  -2.5371295e+06
   1.1073691e-09  -4.9100108e-04   1.8857135e+00   1.8150244e+00  -2.5241231e+06
   1.1083695e-09  -4.8848259e-04   1.8855414e+00   1.8152145e+00  -2.5111832e+06
   1.1093698e-09  -4.8597701e-04   1.8853701e+00   1.8154036e+00  -2.4983096e+06
   1.1103701e-09  -4.8348428e-04   1.8851998e+00   1.8155917e+00  -2.4855019e+06
   1.1113705e-09  -4.8100433e-04   1.8850303e+00   1.8157789e+00  -2.4727598e+06
   1.1123708e-09  -4.7853709e-04   1.8848617e+00   1.8159651e+00  -2.4600830e+06
   1.1133711e-09  -4.7608250e-04   1.8846940e+00   1.8161503e+00  -2.4474711e+06
   1.1143715e-09  -4.7364049e-04   1.8845272e+00   1.8163347e+00  -2.4349238e+06
   1.1153718e-09  -4.7121101e-04   1.8843612e+00   1.8165181e+00  -2.4224407e+06
   1.1163721e-09  -4.6879398e-04   1.8841961e+00   1.8167006e+00  -2.4100216e+06
   1.1173725e-09  -4.6638934e-04   1.8840318e+00   1.8168821e+00  -2.3976661e+06
   1.1183728e-09  -4.6399702e-04   1.8838683e+00   1.8170627e+00  -2.3853738e+06
   1.1193731e-09  -4.6161698e-04   1.8837058e+00   1.8172424e+00  -2.3731445e+06
   1.1203735e-09  -4.5924913e-04   1.8835440e+00   1.8174212e+00  -2.3609778e+06
   1.1213738e-09  -4.5689342e-04   1.8833831e+00   1.8175991e+00  -2.3488735e+06
   1.1223741e-09  -4.5454980e-04   1.8832230e+00   1.8177761e+00  -2.3368311e+06
   1.1233745e-09  -4.5221818e-04   1.8830638e+00   1.8179522e+00  -2.3248505e+06
   1.1243748e-09  -4.4989852e-04   1.8829053e+00   1.8181274e+00  -2.3129311e+06
   1.1253751e-09  -4.4759076e-04   1.8827477e+00   1.8183017e+00  -2.3010729e+06
   1.1263755e-09  -4.4529482e-04   1.8825909e+00   1.8184751e+00  -2.2892753e+06
   1.1273758e-09  -4.4301066e-04   1.8824349e+00   1.8186476e+00  -2.2775382e+06
   1.1283761e-09  -4.4073821e-04   1.8822797e+00   1.8188193e+00  -2.2658612e+06
   1.1293765e-09  -4.3847741e-04   1.8821253e+00   1.8189901e+00  -2.2542441e+06
   1.1303768e-09  -4.3622820e-04   1.8819717e+00   1.8191600e+00  -2.2426864e+06
   1.1313771e-09  -4.3399052e-04   1.8818189e+00   1.8193291e+00  -2.2311879e+06
   1.1323775e-09  -4.3176431e-04   1.8816669e+00   1.8194973e+00  -2.2197483e+06
   1.1333778e-09  -4.2954952e-04   1.8815157e+00   1.8196646e+00  -2.2083674e+06
   1.1343781e-09  -4.2734609e-04   1.8813652e+00   1.8198311e+00  -2.1970447e+06
   1.1353785e-09  -4.2515395e-04   1.8812156e+00   1.8199968e+00  -2.1857800e+06
   1.1363788e-09  -4.2297305e-04   1.8810667e+00   1.8201616e+00  -2.1745730e+06
   1.1373791e-09  -4.2080333e-04   1.8809185e+00   1.8203256e+00  -2.1634234e+06
   1.1383795e-09  -4.1864474e-04   1.8807712e+00   1.8204887e+00  -2.1523310e+06
   1.1393798e-09  -4.1649721e-04   1.8806246e+00   1.8206511e+00  -2.1412953e+06
   1.1403801e-09  -4.1436070e-04   1.8804787e+00   1.8208125e+00  -2.1303162e+06
   1.1413805e-09  -4.1223514e-04   1.8803336e+00   1.8209732e+00  -2.1193934e+06
   1.1423808e-09  -4.1012048e-04   1.8801893e+00   1.8211331e+00  -2.1085264e+06
   1.1433811e-09  -4.0801666e-04   1.8800457e+00   1.8212921e+00  -2.0977152e+06
   1.1443815e-09  -4.0592363e-04   1.8799028e+00   1.8214504e+00  -2.0869593e+06
   1.1453818e-09  -4.0384134e-04   1.8797607e+00   1.8216078e+00  -2.0762586e+06
   1.1463821e-09  -4.0176971e-04   1.8796193e+00   1.8217644e+00  -2.0656126e+06
   1.1473825e-09  -3.9970871e-04   1.8794786e+00   1.8219203e+00  -2.0550212e+06
   1.1483828e-09  -3.9765828e-04   1.8793387e+00   1.8220753e+00  -2.0444841e+06
   1.1493831e-09  -3.9561836e-04   1.8791995e+00   1.8222296e+00  -2.0340009e+06
   1.1503835e-09  -3.9358891e-04   1.8790610e+00   1.8223830e+00  -2.0235715e+06
   1.1513838e-09  -3.9156985e-04   1.8789232e+00   1.8225357e+00  -2.0131954e+06
   1.1523841e-09  -3.8956115e-04   1.8787861e+00   1.8226876e+00  -2.0028726e+06
   1.1533845e-09  -3.8756276e-04   1.8786498e+00   1.8228388e+00  -1.9926026e+06
   1.1543848e-09  -3.8557460e-04   1.8785141e+00   1.8229892e+00  -1.9823852e+06
   1.1553851e-09  -3.8359665e-04   1.8783791e+00   1.8231388e+00  -1.9722202e+06
   1.1563855e-09  -3.8162883e-04   1.8782449e+00   1.8232876e+00  -1.9621072e+06
   1.1573858e-09  -3.7967110e-04   1.8781113e+00   1.8234357e+00  -1.9520461e+06
   1.1583861e-09  -3.7772342e-04   1.8779784e+00   1.8235831e+00  -1.9420365e+06
   1.1593865e-09  -3.7578572e-04   1.8778462e+00   1.8237297e+00  -1.9320782e+06
   1.1603868e-09  -3.7385796e-04   1.8777147e+00   1.8238755e+00  -1.9221709e+06
   1.1613871e-09  -3.7194008e-04   1.8775838e+00   1.8240206e+00  -1.9123144e+06
   1.1623875e-09  -3.7003203e-04   1.8774537e+00   1.8241650e+00  -1.9025084e+06
   1.1633878e-09  -3.6813378e-04   1.8773242e+00   1.8243086e+00  -1.8927526e+06
   1.1643881e-09  -3.6624525e-04   1.8771953e+00   1.8244515e+00  -1.8830468e+06
   1.1653885e-09  -3.6436641e-04   1.8770672e+00   1.8245937e+00  -1.8733908e+06
   1.1663888e-09  -3.6249720e-04   1.8769397e+00   1.8247351e+00  -1.8637842e+06
   1.1673891e-09  -3.6063758e-04   1.8768128e+00   1.8248759e+00  -1.8542268e+06
   1.1683895e-09  -3.5878750e-04   1.8766866e+00   1.8250159e+00  -1.8447184e+06
   1.1693898e-09  -3.5694690e-04   1.8765611e+00   1.8251552e+00  -1.8352587e+06
   1.1703901e-09  -3.5511574e-04   1.8764362e+00   1.8252938e+00  -1.8258475e+06
   1.1713905e-09  -3.5329397e-04   1.8763119e+00   1.8254317e+00  -1.8164845e+06
   1.1723908e-09  -3.5148154e-04   1.8761883e+00   1.8255689e+00  -1.8071695e+06
   1.1733911e-09  -3.4967841e-04   1.8760654e+00   1.8257054e+00  -1.7979023e+06
   1.1743915e-09  -3.4788452e-04   1.8759430e+00   1.8258412e+00  -1.7886825e+06
   1.1753918e-09  -3.4609984e-04   1.8758213e+00   1.8259763e+00  -1.7795099e+06
   1.1763921e-09  -3.4432430e-04   1.8757002e+00   1.8261107e+00  -1.7703844e+06
   1.1773925e-09  -3.4255787e-04   1.8755798e+00   1.8262444e+00  -1.7613056e+06
   1.1783928e-09  -3.4080050e-04   1.8754599e+00   1.8263775e+00  -1.7522733e+06
   1.1793931e-09  -3.3905214e-04   1.8753407e+00   1.8265099e+00  -1.7432873e+06
   1.1803935e-09  -3.3731275e-04   1.8752221e+00   1.8266416e+00  -1.7343474e+06
   1.1813938e-09  -3.3558227e-04   1.8751041e+00   1.8267726e+00  -1.7254533e+06
   1.1823941e-09  -3.3386067e-04   1.8749867e+00   1.8269030e+00  -1.7166047e+06
   1.1833945e-09  -3.3214790e-04   1.8748700e+00   1.8270327e+00  -1.7078015e+06
   1.1843948e-09  -3.3044392e-04   1.8747538e+00   1.8271617e+00  -1.6990434e+06
   1.1853951e-09  -3.2874867e-04   1.8746382e+00   1.8272901e+00  -1.6903302e+06
   1.1863955e-09  -3.2706211e-04   1.8745232e+00   1.8274179e+00  -1.6816617e+06
   1.1873958e-09  -3.2538421e-04   1.8744088e+00   1.8275449e+00  -1.6730375e+06
   1.1883961e-09  -3.2371491e-04   1.8742950e+00   1.8276714e+00  -1.6644576e+06
   1.1893965e-09  -3.2205417e-04   1.8741818e+00   1.8277972e+00  -1.6559216e+06
   1.1903968e-09  -3.2040195e-04   1.8740692e+00   1.8279223e+00  -1.6474294e+06
   1.1913971e-09  -3.1875820e-04   1.8739571e+00   1.8280468e+00  -1.6389807e+06
   1.1923975e-09  -3.1712288e-04   1.8738456e+00   1.8281707e+00  -1.6305753e+06
   1.1933978e-09  -3.1549594e-04   1.8737347e+00   1.8282940e+00  -1.6222130e+06
   1.1943981e-09  -3.1387735e-04   1.8736244e+00   1.8284166e+00  -1.6138935e+06
   1.1953985e-09  -3.1226707e-04   1.8735147e+00   1.8285386e+00  -1.6056166e+06
   1.1963988e-09  -3.1066504e-04   1.8734055e+00   1.8286600e+00  -1.5973822e+06
   1.1973991e-09  -3.0907122e-04   1.8732968e+00   1.8287807e+00  -1.5891900e+06
   1.1983995e-09  -3.0748558e-04   1.8731888e+00   1.8289009e+00  -1.5810398e+06
   1.1993998e-09  -3.0590807e-04   1.8730812e+00   1.8290204e+00  -1.5729313e+06
   1.2004001e-09  -3.0433866e-04   1.8729743e+00   1.8291393e+00  -1.5648644e+06
   1.2014005e-09  -3.0277729e-04   1.8728679e+00   1.8292576e+00  -1.5568388e+06
   1.2024008e-09  -3.0122393e-04   1.8727620e+00   1.8293754e+00  -1.5488544e+06
   1.2034011e-09  -2.9967853e-04   1.8726567e+00   1.8294925e+00  -1.5409109e+06
   1.2044015e-09  -2.9814106e-04   1.8725519e+00   1.8296090e+00  -1.5330081e+06
   1.2054018e-09  -2.9661148e-04   1.8724477e+00   1.8297249e+00  -1.5251458e+06
   1.2064021e-09  -2.9508974e-04   1.8723440e+00   1.8298403e+00  -1.5173238e+06
   1.2074025e-09  -2.9357581e-04   1.8722408e+00   1.8299550e+00  -1.5095419e+06
   1.2084028e-09  -2.9206964e-04   1.8721382e+00   1.8300692e+00  -1.5017998e+06
   1.2094031e-09  -2.9057119e-04   1.8720361e+00   1.8301827e+00  -1.4940975e+06
   1.2104035e-09  -2.8908043e-04   1.8719345e+00   1.8302957e+00  -1.4864346e+06
   1.2114038e-09  -2.8759732e-04   1.8718335e+00   1.8304082e+00  -1.4788110e+06
   1.2124041e-09  -2.8612181e-04   1.8717329e+00   1.8305200e+00  -1.4712265e+06
   1.2134045e-09  -2.8465387e-04   1.8716329e+00   1.8306313e+00  -1.4636809e+06
   1.2144048e-09  -2.8319346e-04   1.8715334e+00   1.8307420e+00  -1.4561739e+06
   1.2154051e-09  -2.8174054e-04   1.8714344e+00   1.8308522e+00  -1.4487054e+06
   1.2164055e-09  -2.8029507e-04   1.8713359e+00   1.8309618e+00  -1.4412752e+06
   1.2174058e-09  -2.7885701e-04   1.8712380e+00   1.8310708e+00  -1.4338831e+06
   1.2184061e-09  -2.7742633e-04   1.8711405e+00   1.8311793e+00  -1.4265289e+06
   1.2194065e-09  -2.7600299e-04   1.8710435e+00   1.8312872e+00  -1.4192123e+06
   1.2204068e-09  -2.7458695e-04   1.8709471e+00   1.8313946e+00  -1.4119333e+06
   1.2214071e-09  -2.7317817e-04   1.8708511e+00   1.8315014e+00  -1.4046916e+06
   1.2224075e-09  -2.7177662e-04   1.8707556e+00   1.8316077e+00  -1.3974870e+06
   1.2234078e-09  -2.7038225e-04   1.8706606e+00   1.8317134e+00  -1.3903193e+06
   1.2244081e-09  -2.6899504e-04   1.8705661e+00   1.8318186e+00  -1.3831883e+06
   1.2254085e-09  -2.6761494e-04   1.8704721e+00   1.8319233e+00  -1.3760940e+06
   1.2264088e-09  -2.6624192e-04   1.8703786e+00   1.8320274e+00  -1.3690359e+06
   1.2274091e-09  -2.6487595e-04   1.8702856e+00   1.8321310e+00  -1.3620141e+06
   1.2284095e-09  -2.6351697e-04   1.8701930e+00   1.8322341e+00  -1.3550283e+06
   1.2294098e-09  -2.6216497e-04   1.8701009e+00   1.8323366e+00  -1.3480782e+06
   1.2304101e-09  -2.6081991e-04   1.8700093e+00   1.8324387e+00  -1.3411638e+06
   1.2314105e-09  -2.5948174e-04   1.8699182e+00   1.8325402e+00  -1.3342848e+06
   1.2324108e-09  -2.5815044e-04   1.8698275e+00   1.8326411e+00  -1.3274411e+06
   1.2334111e-09  -2.5682596e-04   1.8697373e+00   1.8327416e+00  -1.3206325e+06
   1.2344115e-09  -2.5550828e-04   1.8696476e+00   1.8328416e+00  -1.3138588e+06
   1.2354118e-09  -2.5419735e-04   1.8695583e+00   1.8329410e+00  -1.3071198e+06
   1.2364121e-09  -2.5289315e-04   1.8694695e+00   1.8330400e+00  -1.3004153e+06
   1.2374125e-09  -2.5159564e-04   1.8693811e+00   1.8331384e+00  -1.2937453e+06
   1.2384128e-09  -2.5030479e-04   1.8692932e+00   1.8332363e+00  -1.2871094e+06
   1.2394131e-09  -2.4902056e-04   1.8692057e+00   1.8333338e+00  -1.2805075e+06
   1.2404135e-09  -2.4774291e-04   1.8691187e+00   1.8334307e+00  -1.2739395e+06
   1.2414138e-09  -2.4647182e-04   1.8690322e+00   1.8335271e+00  -1.2674051e+06
   1.2424141e-09  -2.4520724e-04   1.8689461e+00   1.8336231e+00  -1.2609043e+06
   1.2434145e-09  -2.4394916e-04   1.8688604e+00   1.8337186e+00  -1.2544367e+06
   1.2444148e-09  -2.4269752e-04   1.8687752e+00   1.8338135e+00  -1.2480023e+06
   1.2454151e-09  -2.4145231e-04   1.8686904e+00   1.8339080e+00  -1.2416010e+06
   1.2464155e-09  -2.4021348e-04   1.8686061e+00   1.8340020e+00  -1.2352324e+06
   1.2474158e-09  -2.3898101e-04   1.8685221e+00   1.8340956e+00  -1.2288965e+06
   1.2484161e-09  -2.3775486e-04   1.8684387e+00   1.8341886e+00  -1.2225930e+06
   1.2494165e-09  -2.3653500e-04   1.8683556e+00   1.8342812e+00  -1.2163219e+06
   1.2504168e-09  -2.3532139e-04   1.8682730e+00   1.8343733e+00  -1.2100829e+06
   1.2514171e-09  -2.3411401e-04   1.8681908e+00   1.8344649e+00  -1.2038759e+06
   1.2524175e-09  -2.3291283e-04   1.8681090e+00   1.8345561e+00  -1.1977007e+06
   1.2534178e-09  -2.3171780e-04   1.8680276e+00   1.8346468e+00  -1.1915572e+06
   1.2544181e-09  -2.3052891e-04   1.8679467e+00   1.8347370e+00  -1.1854452e+06
   1.2554185e-09  -2.2934611e-04   1.8678662e+00   1.8348268e+00  -1.1793645e+06
   1.2564188e-09  -2.2816938e-04   1.8677861e+00   1.8349161e+00  -1.1733150e+06
   1.2574191e-09  -2.2699869e-04   1.8677064e+00   1.8350050e+00  -1.1672965e+06
   1.2584195e-09  -2.2583400e-04   1.8676271e+00   1.8350934e+00  -1.1613089e+06
   1.2594198e-09  -2.2467528e-04   1.8675482e+00   1.8351814e+00  -1.1553519e+06
   1.2604201e-09  -2.2352251e-04   1.8674697e+00   1.8352689e+00  -1.1494255e+06
   1.2614205e-09  -2.2237566e-04   1.8673917e+00   1.8353560e+00  -1.1435295e+06
   1.2624208e-09  -2.2123468e-04   1.8673140e+00   1.8354426e+00  -1.1376637e+06
   1.2634211e-09  -2.2009956e-04   1.8672367e+00   1.8355288e+00  -1.1318280e+06
   1.2644215e-09  -2.1897026e-04   1.8671599e+00   1.8356145e+00  -1.1260222e+06
   1.2654218e-09  -2.1784676e-04   1.8670834e+00   1.8356998e+00  -1.1202462e+06
   1.2664221e-09  -2.1672901e-04   1.8670073e+00   1.8357847e+00  -1.1144998e+06
   1.2674225e-09  -2.1561700e-04   1.8669316e+00   1.8358691e+00  -1.1087828e+06
   1.2684228e-09  -2.1451070e-04   1.8668563e+00   1.8359531e+00  -1.1030952e+06
   1.2694231e-09  -2.1341007e-04   1.8667814e+00   1.8360367e+00  -1.0974367e+06
   1.2704235e-09  -2.1231508e-04   1.8667069e+00   1.8361198e+00  -1.0918072e+06
   1.2714238e-09  -2.1122571e-04   1.8666328e+00   1.8362025e+00  -1.0862066e+06
   1.2724241e-09  -2.1014193e-04   1.8665590e+00   1.8362848e+00  -1.0806348e+06
   1.2734245e-09  -2.0906371e-04   1.8664856e+00   1.8363667e+00  -1.0750914e+06
   1.2744248e-09  -2.0799103e-04   1.8664126e+00   1.8364482e+00  -1.0695765e+06
   1.2754251e-09  -2.0692384e-04   1.8663400e+00   1.8365292e+00  -1.0640899e+06
   1.2764255e-09  -2.0586213e-04   1.8662677e+00   1.8366098e+00  -1.0586314e+06
   1.2774258e-09  -2.0480586e-04   1.8661959e+00   1.8366901e+00  -1.0532009e+06
   1.2784261e-09  -2.0375501e-04   1.8661244e+00   1.8367699e+00  -1.0477983e+06
   1.2794265e-09  -2.0270956e-04   1.8660532e+00   1.8368493e+00  -1.0424233e+06
   1.2804268e-09  -2.0166946e-04   1.8659824e+00   1.8369283e+00  -1.0370759e+06
   1.2814271e-09  -2.0063470e-04   1.8659120e+00   1.8370069e+00  -1.0317559e+06
   1.2824275e-09  -1.9960525e-04   1.8658420e+00   1.8370850e+00  -1.0264632e+06
   1.2834278e-09  -1.9858108e-04   1.8657723e+00   1.8371628e+00  -1.0211977e+06
   1.2844281e-09  -1.9756217e-04   1.8657029e+00   1.8372402e+00  -1.0159591e+06
   1.2854285e-09  -1.9654848e-04   1.8656340e+00   1.8373172e+00  -1.0107474e+06
   1.2864288e-09  -1.9553999e-04   1.8655654e+00   1.8373938e+00  -1.0055624e+06
   1.2874291e-09  -1.9453667e-04   1.8654971e+00   1.8374701e+00  -1.0004041e+06
   1.2884295e-09  -1.9353851e-04   1.8654292e+00   1.8375459e+00  -9.9527211e+05
   1.2894298e-09  -1.9254546e-04   1.8653616e+00   1.8376213e+00  -9.9016649e+05
   1.2904301e-09  -1.9155750e-04   1.8652944e+00   1.8376964e+00  -9.8508704e+05
   1.2914305e-09  -1.9057462e-04   1.8652275e+00   1.8377710e+00  -9.8003364e+05
   1.2924308e-09  -1.8959677e-04   1.8651610e+00   1.8378453e+00  -9.7500615e+05
   1.2934311e-09  -1.8862395e-04   1.8650948e+00   1.8379192e+00  -9.7000444e+05
   1.2944315e-09  -1.8765611e-04   1.8650289e+00   1.8379928e+00  -9.6502838e+05
   1.2954318e-09  -1.8669324e-04   1.8649634e+00   1.8380659e+00  -9.6007783e+05
   1.2964321e-09  -1.8573530e-04   1.8648983e+00   1.8381387e+00  -9.5515267e+05
   1.2974325e-09  -1.8478229e-04   1.8648334e+00   1.8382111e+00  -9.5025277e+05
   1.2984328e-09  -1.8383416e-04   1.8647689e+00   1.8382832e+00  -9.4537799e+05
   1.2994331e-09  -1.8289089e-04   1.8647048e+00   1.8383548e+00  -9.4052821e+05
   1.3004335e-09  -1.8195247e-04   1.8646409e+00   1.8384261e+00  -9.3570329e+05
   1.3014338e-09  -1.8101885e-04   1.8645774e+00   1.8384971e+00  -9.3090312e+05
   1.3024341e-09  -1.8009003e-04   1.8645142e+00   1.8385677e+00  -9.2612757e+05
   1.3034345e-09  -1.7916597e-04   1.8644514e+00   1.8386379e+00  -9.2137650e+05
   1.3044348e-09  -1.7824665e-04   1.8643888e+00   1.8387077e+00  -9.1664979e+05
   1.3054351e-09  -1.7733205e-04   1.8643266e+00   1.8387772e+00  -9.1194733e+05
   1.3064355e-09  -1.7642214e-04   1.8642647e+00   1.8388464e+00  -9.0726898e+05
   1.3074358e-09  -1.7551690e-04   1.8642031e+00   1.8389152e+00  -9.0261461e+05
   1.3084361e-09  -1.7461630e-04   1.8641419e+00   1.8389836e+00  -8.9798412e+05
   1.3094365e-09  -1.7372033e-04   1.8640809e+00   1.8390517e+00  -8.9337737e+05
   1.3104368e-09  -1.7282895e-04   1.8640203e+00   1.8391195e+00  -8.8879425e+05
   1.3114371e-09  -1.7194214e-04   1.8639600e+00   1.8391869e+00  -8.8423463e+05
   1.3124375e-09  -1.7105988e-04   1.8639000e+00   1.8392539e+00  -8.7969839e+05
   1.3134378e-09  -1.7018215e-04   1.8638403e+00   1.8393206e+00  -8.7518541e+05
   1.3144381e-09  -1.6930892e-04   1.8637809e+00   1.8393870e+00  -8.7069558e+05
   1.3154385e-09  -1.6844017e-04   1.8637218e+00   1.8394530e+00  -8.6622877e+05
   1.3164388e-09  -1.6757587e-04   1.8636630e+00   1.8395187e+00  -8.6178487e+05
   1.3174391e-09  -1.6671601e-04   1.8636045e+00   1.8395841e+00  -8.5736375e+05
   1.3184395e-09  -1.6586057e-04   1.8635464e+00   1.8396491e+00  -8.5296531e+05
   1.3194398e-09  -1.6500951e-04   1.8634885e+00   1.8397138e+00  -8.4858943e+05
   1.3204401e-09  -1.6416281e-04   1.8634309e+00   1.8397782e+00  -8.4423599e+05
   1.3214405e-09  -1.6332047e-04   1.8633736e+00   1.8398422e+00  -8.3990487e+05
   1.3224408e-09  -1.6248244e-04   1.8633166e+00   1.8399059e+00  -8.3559596e+05
   1.3234411e-09  -1.6164871e-04   1.8632599e+00   1.8399693e+00  -8.3130915e+05
   1.3244415e-09  -1.6081926e-04   1.8632035e+00   1.8400323e+00  -8.2704433e+05
   1.3254418e-09  -1.5999406e-04   1.8631474e+00   1.8400951e+00  -8.2280138e+05
   1.3264421e-09  -1.5917310e-04   1.8630915e+00   1.8401575e+00  -8.1858018e+05
   1.3274425e-09  -1.5835635e-04   1.8630360e+00   1.8402196e+00  -8.1438064e+05
   1.3284428e-09  -1.5754379e-04   1.8629807e+00   1.8402814e+00  -8.1020263e+05
   1.3294431e-09  -1.5673539e-04   1.8629258e+00   1.8403428e+00  -8.0604605e+05
   1.3304435e-09  -1.5593115e-04   1.8628711e+00   1.8404040e+00  -8.0191078e+05
   1.3314438e-09  -1.5513103e-04   1.8628167e+00   1.8404648e+00  -7.9779673e+05
   1.3324441e-09  -1.5433502e-04   1.8627625e+00   1.8405253e+00  -7.9370377e+05
   1.3334445e-09  -1.5354309e-04   1.8627087e+00   1.8405855e+00  -7.8963180e+05
   1.3344448e-09  -1.5275522e-04   1.8626551e+00   1.8406454e+00  -7.8558072e+05
   1.3354451e-09  -1.5197140e-04   1.8626018e+00   1.8407050e+00  -7.8155041e+05
   1.3364455e-09  -1.5119159e-04   1.8625488e+00   1.8407643e+00  -7.7754078e+05
   1.3374458e-09  -1.5041579e-04   1.8624960e+00   1.8408233e+00  -7.7355170e+05
   1.3384461e-09  -1.4964397e-04   1.8624436e+00   1.8408820e+00  -7.6958309e+05
   1.3394465e-09  -1.4887610e-04   1.8623914e+00   1.8409404e+00  -7.6563482e+05
   1.3404468e-09  -1.4811218e-04   1.8623394e+00   1.8409985e+00  -7.6170681e+05
   1.3414471e-09  -1.4735217e-04   1.8622877e+00   1.8410563e+00  -7.5779895e+05
   1.3424475e-09  -1.4659607e-04   1.8622363e+00   1.8411138e+00  -7.5391112e+05
   1.3434478e-09  -1.4584384e-04   1.8621852e+00   1.8411710e+00  -7.5004324e+05
   1.3444481e-09  -1.4509548e-04   1.8621343e+00   1.8412279e+00  -7.4619519e+05
   1.3454485e-09  -1.4435095e-04   1.8620837e+00   1.8412845e+00  -7.4236688e+05
   1.3464488e-09  -1.4361024e-04   1.8620333e+00   1.8413408e+00  -7.3855820e+05
   1.3474491e-09  -1.4287333e-04   1.8619832e+00   1.8413969e+00  -7.3476905e+05
   1.3484495e-09  -1.4214020e-04   1.8619334e+00   1.8414526e+00  -7.3099934e+05
   1.3494498e-09  -1.4141084e-04   1.8618838e+00   1.8415081e+00  -7.2724897e+05
   1.3504502e-09  -1.4068522e-04   1.8618345e+00   1.8415633e+00  -7.2351783e+05
   1.3514505e-09  -1.3996331e-04   1.8617854e+00   1.8416182e+00  -7.1980582e+05
   1.3524508e-09  -1.3924512e-04   1.8617365e+00   1.8416728e+00  -7.1611286e+05
   1.3534512e-09  -1.3853061e-04   1.8616880e+00   1.8417272e+00  -7.1243883e+05
   1.3544515e-09  -1.3781976e-04   1.8616396e+00   1.8417812e+00  -7.0878365e+05
   1.3554518e-09  -1.3711256e-04   1.8615916e+00   1.8418350e+00  -7.0514722e+05
   1.3564522e-09  -1.3640899e-04   1.8615437e+00   1.8418885e+00  -7.0152943e+05
   1.3574525e-09  -1.3570903e-04   1.8614962e+00   1.8419418e+00  -6.9793020e+05
   1.3584528e-09  -1.3501266e-04   1.8614488e+00   1.8419948e+00  -6.9434944e+05
   1.3594532e-09  -1.3431986e-04   1.8614017e+00   1.8420475e+00  -6.9078703e+05
   1.3604535e-09  -1.3363061e-04   1.8613549e+00   1.8420999e+00  -6.8724290e+05
   1.3614538e-09  -1.3294491e-04   1.8613083e+00   1.8421520e+00  -6.8371695e+05
   1.3624542e-09  -1.3226272e-04   1.8612619e+00   1.8422039e+00  -6.8020908e+05
   1.3634545e-09  -1.3158403e-04   1.8612157e+00   1.8422556e+00  -6.7671921e+05
   1.3644548e-09  -1.3090882e-04   1.8611698e+00   1.8423069e+00  -6.7324723e+05
   1.3654552e-09  -1.3023708e-04   1.8611242e+00   1.8423580e+00  -6.6979306e+05
   1.3664555e-09  -1.2956878e-04   1.8610788e+00   1.8424089e+00  -6.6635661e+05
   1.3674558e-09  -1.2890392e-04   1.8610336e+00   1.8424595e+00  -6.6293779e+05
   1.3684562e-09  -1.2824246e-04   1.8609886e+00   1.8425098e+00  -6.5953650e+05
   1.3694565e-09  -1.2758440e-04   1.8609439e+00   1.8425598e+00  -6.5615265e+05
   1.3704568e-09  -1.2692971e-04   1.8608994e+00   1.8426096e+00  -6.5278616e+05
   1.3714572e-09  -1.2627838e-04   1.8608551e+00   1.8426592e+00  -6.4943694e+05
   1.3724575e-09  -1.2563040e-04   1.8608111e+00   1.8427085e+00  -6.4610490e+05
   1.3734578e-09  -1.2498574e-04   1.8607672e+00   1.8427575e+00  -6.4278995e+05
   1.3744582e-09  -1.2434439e-04   1.8607236e+00   1.8428063e+00  -6.3949200e+05
   1.3754585e-09  -1.2370632e-04   1.8606803e+00   1.8428549e+00  -6.3621097e+05
   1.3764588e-09  -1.2307153e-04   1.8606371e+00   1.8429032e+00  -6.3294677e+05
   1.3774592e-09  -1.2244000e-04   1.8605942e+00   1.8429512e+00  -6.2969931e+05
   1.3784595e-09  -1.2181171e-04   1.8605515e+00   1.8429990e+00  -6.2646850e+05
   1.3794598e-09  -1.2118664e-04   1.8605090e+00   1.8430466e+00  -6.2325427e+05
   1.3804602e-09  -1.2056478e-04   1.8604668e+00   1.8430939e+00  -6.2005653e+05
   1.3814605e-09  -1.1994611e-04   1.8604247e+00   1.8431410e+00  -6.1687518e+05
   1.3824608e-09  -1.1933061e-04   1.8603829e+00   1.8431878e+00  -6.1371016e+05
   1.3834612e-09  -1.1871827e-04   1.8603413e+00   1.8432344e+00  -6.1056137e+05
   1.3844615e-09  -1.1810908e-04   1.8602999e+00   1.8432808e+00  -6.0742873e+05
   1.3854618e-09  -1.1750301e-04   1.8602587e+00   1.8433269e+00  -6.0431216e+05
   1.3864622e-09  -1.1690004e-04   1.8602177e+00   1.8433728e+00  -6.0121158e+05
   1.3874625e-09  -1.1630018e-04   1.8601769e+00   1.8434184e+00  -5.9812690e+05
   1.3884628e-09  -1.1570339e-04   1.8601364e+00   1.8434638e+00  -5.9505804e+05
   1.3894632e-09  -1.1510966e-04   1.8600960e+00   1.8435090e+00  -5.9200493e+05
   1.3904635e-09  -1.1451898e-04   1.8600559e+00   1.8435540e+00  -5.8896747e+05
   1.3914638e-09  -1.1393133e-04   1.8600159e+00   1.8435987e+00  -5.8594560e+05
   1.3924642e-09  -1.1334669e-04   1.8599762e+00   1.8436432e+00  -5.8293922e+05
   1.3934645e-09  -1.1276505e-04   1.8599367e+00   1.8436874e+00  -5.7994827e+05
   1.3944648e-09  -1.1218640e-04   1.8598974e+00   1.8437315e+00  -5.7697266e+05
   1.3954652e-09  -1.1161072e-04   1.8598582e+00   1.8437753e+00  -5.7401231e+05
   1.3964655e-09  -1.1103799e-04   1.8598193e+00   1.8438189e+00  -5.7106715e+05
   1.3974658e-09  -1.1046820e-04   1.8597806e+00   1.8438623e+00  -5.6813710e+05
   1.3984662e-09  -1.0990133e-04   1.8597421e+00   1.8439054e+00  -5.6522207e+05
   1.3994665e-09  -1.0933737e-04   1.8597037e+00   1.8439483e+00  -5.6232200e+05
   1.4004668e-09  -1.0877631e-04   1.8596656e+00   1.8439910e+00  -5.5943680e+05
   1.4014672e-09  -1.0821812e-04   1.8596277e+00   1.8440335e+00  -5.5656641e+05
   1.4024675e-09  -1.0766280e-04   1.8595900e+00   1.8440758e+00  -5.5371074e+05
   1.4034678e-09  -1.0711032e-04   1.8595524e+00   1.8441178e+00  -5.5086971e+05
   1.4044682e-09  -1.0656069e-04   1.8595151e+00   1.8441597e+00  -5.4804326e+05
   1.4054685e-09  -1.0601387e-04   1.8594779e+00   1.8442013e+00  -5.4523131e+05
   1.4064688e-09  -1.0546985e-04   1.8594409e+00   1.8442427e+00  -5.4243378e+05
   1.4074692e-09  -1.0492863e-04   1.8594042e+00   1.8442839e+00  -5.3965061e+05
   1.4084695e-09  -1.0439019e-04   1.8593676e+00   1.8443249e+00  -5.3688171e+05
   1.4094698e-09  -1.0385451e-04   1.8593312e+00   1.8443656e+00  -5.3412701e+05
   1.4104702e-09  -1.0332157e-04   1.8592950e+00   1.8444062e+00  -5.3138644e+05
   1.4114705e-09  -1.0279137e-04   1.8592589e+00   1.8444466e+00  -5.2865994e+05
   1.4124708e-09  -1.0226390e-04   1.8592231e+00   1.8444867e+00  -5.2594742e+05
   1.4134712e-09  -1.0173912e-04   1.8591874e+00   1.8445267e+00  -5.2324881e+05
   1.4144715e-09  -1.0121705e-04   1.8591520e+00   1.8445664e+00  -5.2056405e+05
   1.4154718e-09  -1.0069764e-04   1.8591167e+00   1.8446059e+00  -5.1789306e+05
   1.4164722e-09  -1.0018091e-04   1.8590816e+00   1.8446453e+00  -5.1523577e+05
   1.4174725e-09  -9.9666825e-05   1.8590466e+00   1.8446844e+00  -5.1259211e+05
   1.4184728e-09  -9.9155379e-05   1.8590119e+00   1.8447233e+00  -5.0996201e+05
   1.4194732e-09  -9.8646556e-05   1.8589773e+00   1.8447621e+00  -5.0734541e+05
   1.4204735e-09  -9.8140345e-05   1.8589429e+00   1.8448006e+00  -5.0474222e+05
   1.4214738e-09  -9.7636731e-05   1.8589087e+00   1.8448390e+00  -5.0215240e+05
   1.4224742e-09  -9.7135701e-05   1.8588747e+00   1.8448771e+00  -4.9957585e+05
   1.4234745e-09  -9.6637242e-05   1.8588408e+00   1.8449150e+00  -4.9701253e+05
   1.4244748e-09  -9.6141340e-05   1.8588071e+00   1.8449528e+00  -4.9446235e+05
   1.4254752e-09  -9.5647983e-05   1.8587736e+00   1.8449904e+00  -4.9192526e+05
   1.4264755e-09  -9.5157157e-05   1.8587402e+00   1.8450277e+00  -4.8940118e+05
   1.4274758e-09  -9.4668850e-05   1.8587071e+00   1.8450649e+00  -4.8689005e+05
   1.4284762e-09  -9.4183048e-05   1.8586741e+00   1.8451019e+00  -4.8439180e+05
   1.4294765e-09  -9.3699739e-05   1.8586412e+00   1.8451387e+00  -4.8190637e+05
   1.4304768e-09  -9.3218910e-05   1.8586086e+00   1.8451753e+00  -4.7943369e+05
   1.4314772e-09  -9.2740547e-05   1.8585761e+00   1.8452117e+00  -4.7697369e+05
   1.4324775e-09  -9.2264640e-05   1.8585437e+00   1.8452479e+00  -4.7452631e+05
   1.4334778e-09  -9.1791174e-05   1.8585116e+00   1.8452840e+00  -4.7209149e+05
   1.4344782e-09  -9.1320138e-05   1.8584796e+00   1.8453199e+00  -4.6966915e+05
   1.4354785e-09  -9.0851519e-05   1.8584477e+00   1.8453555e+00  -4.6725925e+05
   1.4364788e-09  -9.0385304e-05   1.8584161e+00   1.8453910e+00  -4.6486170e+05
   1.4374792e-09  -8.9921481e-05   1.8583846e+00   1.8454264e+00  -4.6247646e+05
   1.4384795e-09  -8.9460038e-05   1.8583532e+00   1.8454615e+00  -4.6010345e+05
   1.4394798e-09  -8.9000963e-05   1.8583220e+00   1.8454964e+00  -4.5774262e+05
   1.4404802e-09  -8.8544244e-05   1.8582910e+00   1.8455312e+00  -4.5539390e+05
   1.4414805e-09  -8.8089868e-05   1.8582601e+00   1.8455658e+00  -4.5305722e+05
   1.4424808e-09  -8.7637823e-05   1.8582294e+00   1.8456002e+00  -4.5073254e+05
   1.4434812e-09  -8.7188098e-05   1.8581989e+00   1.8456345e+00  -4.4841978e+05
   1.4444815e-09  -8.6740681e-05   1.8581685e+00   1.8456686e+00  -4.4611888e+05
   1.4454818e-09  -8.6295559e-05   1.8581382e+00   1.8457025e+00  -4.4382979e+05
   1.4464822e-09  -8.5852721e-05   1.8581082e+00   1.8457362e+00  -4.4155244e+05
   1.4474825e-09  -8.5412156e-05   1.8580782e+00   1.8457697e+00  -4.3928678e+05
   1.4484828e-09  -8.4973851e-05   1.8580485e+00   1.8458031e+00  -4.3703273e+05
   1.4494832e-09  -8.4537795e-05   1.8580188e+00   1.8458363e+00  -4.3479026e+05
   1.4504835e-09  -8.4103976e-05   1.8579894e+00   1.8458693e+00  -4.3255928e+05
   1.4514838e-09  -8.3672384e-05   1.8579600e+00   1.8459022e+00  -4.3033975e+05
   1.4524842e-09  -8.3243006e-05   1.8579309e+00   1.8459349e+00  -4.2813161e+05
   1.4534845e-09  -8.2815831e-05   1.8579019e+00   1.8459674e+00  -4.2593479e+05
   1.4544848e-09  -8.2390849e-05   1.8578730e+00   1.8459998e+00  -4.2374925e+05
   1.4554852e-09  -8.1968047e-05   1.8578443e+00   1.8460320e+00  -4.2157492e+05
   1.4564855e-09  -8.1547414e-05   1.8578157e+00   1.8460640e+00  -4.1941174e+05
   1.4574858e-09  -8.1128940e-05   1.8577873e+00   1.8460959e+00  -4.1725966e+05
   1.4584862e-09  -8.0712613e-05   1.8577590e+00   1.8461276e+00  -4.1511862e+05
   1.4594865e-09  -8.0298422e-05   1.8577309e+00   1.8461592e+00  -4.1298857e+05
   1.4604868e-09  -7.9886356e-05   1.8577029e+00   1.8461905e+00  -4.1086944e+05
   1.4614872e-09  -7.9476405e-05   1.8576750e+00   1.8462218e+00  -4.0876119e+05
   1.4624875e-09  -7.9068558e-05   1.8576473e+00   1.8462528e+00  -4.0666375e+05
