   0.0000000e+00  -1.4641454e-01   6.2453751e+00   7.0392447e-05  -5.1847233e+08
   2.6675559e-12  -1.4503664e-01   6.2374020e+00   7.8259519e-05  -5.1468170e+08
   5.3351117e-12  -1.4366884e-01   6.2290746e+00   8.6932272e-05  -5.1088910e+08
   8.0026676e-12  -1.4231117e-01   6.2203821e+00   9.6484289e-05  -5.0709461e+08
   1.0670223e-11  -1.4096363e-01   6.2113138e+00   1.0699485e-04  -5.0329835e+08
   1.3337779e-11  -1.3962621e-01   6.2018589e+00   1.1854924e-04  -4.9950045e+08
   1.6005335e-11  -1.3829893e-01   6.1920066e+00   1.3123913e-04  -4.9570102e+08
   1.8672891e-11  -1.3698179e-01   6.1817462e+00   1.4516287e-04  -4.9190022e+08
   2.1340447e-11  -1.3567479e-01   6.1710673e+00   1.6042585e-04  -4.8809820e+08
   2.4008003e-11  -1.3437793e-01   6.1599593e+00   1.7714088e-04  -4.8429516e+08
   2.6675559e-11  -1.3309122e-01   6.1484120e+00   1.9542851e-04  -4.8049127e+08
   2.9343114e-11  -1.3181466e-01   6.1364154e+00   2.1541737e-04  -4.7668675e+08
   3.2010670e-11  -1.3054824e-01   6.1239595e+00   2.3724457e-04  -4.7288181e+08
   3.4678226e-11  -1.2929198e-01   6.1110347e+00   2.6105600e-04  -4.6907670e+08
   3.7345782e-11  -1.2804587e-01   6.0976317e+00   2.8700670e-04  -4.6527167e+08
   4.0013338e-11  -1.2680991e-01   6.0837416e+00   3.1526119e-04  -4.6146700e+08
   4.2680894e-11  -1.2558410e-01   6.0693557e+00   3.4599376e-04  -4.5766298e+08
   4.5348449e-11  -1.2436843e-01   6.0544656e+00   3.7938882e-04  -4.5385992e+08
   4.8016005e-11  -1.2316291e-01   6.0390637e+00   4.1564117e-04  -4.5005815e+08
   5.0683561e-11  -1.2196753e-01   6.0231425e+00   4.5495628e-04  -4.4625800e+08
   5.3351117e-11  -1.2078228e-01   6.0066951e+00   4.9755053e-04  -4.4245984e+08
   5.6018673e-11  -1.1960716e-01   5.9897152e+00   5.4365147e-04  -4.3866407e+08
   5.8686229e-11  -1.1844216e-01   5.9721971e+00   5.9349797e-04  -4.3487106e+08
   6.1353785e-11  -1.1728728e-01   5.9541354e+00   6.4734044e-04  -4.3108125e+08
   6.4021340e-11  -1.1614250e-01   5.9355257e+00   7.0544094e-04  -4.2729506e+08
   6.6688896e-11  -1.1500782e-01   5.9163640e+00   7.6807329e-04  -4.2351296e+08
   6.9356452e-11  -1.1388321e-01   5.8966470e+00   8.3552311e-04  -4.1973541e+08
   7.2024008e-11  -1.1276868e-01   5.8763722e+00   9.0808788e-04  -4.1596290e+08
   7.4691564e-11  -1.1166421e-01   5.8555378e+00   9.8607691e-04  -4.1219594e+08
   7.7359120e-11  -1.1056977e-01   5.8341427e+00   1.0698112e-03  -4.0843504e+08
   8.0026676e-11  -1.0948536e-01   5.8121866e+00   1.1596236e-03  -4.0468075e+08
   8.2694231e-11  -1.0841095e-01   5.7896700e+00   1.2558580e-03  -4.0093361e+08
   8.5361787e-11  -1.0734653e-01   5.7665941e+00   1.3588701e-03  -3.9719419e+08
   8.8029343e-11  -1.0629207e-01   5.7429612e+00   1.4690262e-03  -3.9346307e+08
   9.0696899e-11  -1.0524755e-01   5.7187740e+00   1.5867034e-03  -3.8974085e+08
   9.3364455e-11  -1.0421295e-01   5.6940364e+00   1.7122891e-03  -3.8602812e+08
   9.6032011e-11  -1.0318824e-01   5.6687530e+00   1.8461807e-03  -3.8232551e+08
   9.8699567e-11  -1.0217339e-01   5.6429291e+00   1.9887848e-03  -3.7863363e+08
   1.0136712e-10  -1.0116837e-01   5.6165710e+00   2.1405170e-03  -3.7495312e+08
   1.0403468e-10  -1.0017315e-01   5.5896859e+00   2.3018013e-03  -3.7128462e+08
   1.0670223e-10  -9.9187706e-02   5.5622815e+00   2.4730692e-03  -3.6762878e+08
   1.0936979e-10  -9.8211993e-02   5.5343665e+00   2.6547592e-03  -3.6398626e+08
   1.1203735e-10  -9.7245977e-02   5.5059505e+00   2.8473163e-03  -3.6035770e+08
   1.1470490e-10  -9.6289621e-02   5.4770436e+00   3.0511909e-03  -3.5674376e+08
   1.1737246e-10  -9.5342883e-02   5.4476569e+00   3.2668380e-03  -3.5314512e+08
   1.2004001e-10  -9.4405724e-02   5.4178020e+00   3.4947167e-03  -3.4956242e+08
   1.2270757e-10  -9.3478099e-02   5.3874913e+00   3.7352891e-03  -3.4599633e+08
   1.2537513e-10  -9.2559963e-02   5.3567379e+00   3.9890194e-03  -3.4244750e+08
   1.2804268e-10  -9.1651270e-02   5.3255554e+00   4.2563729e-03  -3.3891658e+08
   1.3071024e-10  -9.0751969e-02   5.2939582e+00   4.5378154e-03  -3.3540422e+08
   1.3337779e-10  -8.9862013e-02   5.2619610e+00   4.8338119e-03  -3.3191107e+08
   1.3604535e-10  -8.8981347e-02   5.2295792e+00   5.1448259e-03  -3.2843774e+08
   1.3871290e-10  -8.8109919e-02   5.1968287e+00   5.4713182e-03  -3.2498487e+08
   1.4138046e-10  -8.7247672e-02   5.1637256e+00   5.8137462e-03  -3.2155305e+08
   1.4404802e-10  -8.6394551e-02   5.1302868e+00   6.1725627e-03  -3.1814290e+08
   1.4671557e-10  -8.5550497e-02   5.0965291e+00   6.5482151e-03  -3.1475500e+08
   1.4938313e-10  -8.4715448e-02   5.0624700e+00   6.9411444e-03  -3.1138991e+08
   1.5205068e-10  -8.3889345e-02   5.0281270e+00   7.3517843e-03  -3.0804819e+08
   1.5471824e-10  -8.3072123e-02   4.9935178e+00   7.7805604e-03  -3.0473039e+08
   1.5738580e-10  -8.2263718e-02   4.9586606e+00   8.2278891e-03  -3.0143701e+08
   1.6005335e-10  -8.1464065e-02   4.9235734e+00   8.6941772e-03  -2.9816856e+08
   1.6272091e-10  -8.0673096e-02   4.8882745e+00   9.1798207e-03  -2.9492553e+08
   1.6538846e-10  -7.9890743e-02   4.8527820e+00   9.6852039e-03  -2.9170838e+08
   1.6805602e-10  -7.9116936e-02   4.8171142e+00   1.0210699e-02  -2.8851755e+08
   1.7072357e-10  -7.8351604e-02   4.7812893e+00   1.0756667e-02  -2.8535345e+08
   1.7339113e-10  -7.7594676e-02   4.7453256e+00   1.1323452e-02  -2.8221649e+08
   1.7605869e-10  -7.6846078e-02   4.7092409e+00   1.1911388e-02  -2.7910703e+08
   1.7872624e-10  -7.6105737e-02   4.6730532e+00   1.2520791e-02  -2.7602544e+08
   1.8139380e-10  -7.5373579e-02   4.6367801e+00   1.3151964e-02  -2.7297204e+08
   1.8406135e-10  -7.4649526e-02   4.6004392e+00   1.3805194e-02  -2.6994714e+08
   1.8672891e-10  -7.3933504e-02   4.5640476e+00   1.4480753e-02  -2.6695101e+08
   1.8939647e-10  -7.3225434e-02   4.5276222e+00   1.5178895e-02  -2.6398391e+08
   1.9206402e-10  -7.2525239e-02   4.4911797e+00   1.5899858e-02  -2.6104607e+08
   1.9473158e-10  -7.1832841e-02   4.4547364e+00   1.6643865e-02  -2.5813771e+08
   1.9739913e-10  -7.1148161e-02   4.4183082e+00   1.7411121e-02  -2.5525901e+08
   2.0006669e-10  -7.0471120e-02   4.3819107e+00   1.8201813e-02  -2.5241013e+08
   2.0273424e-10  -6.9801637e-02   4.3455590e+00   1.9016112e-02  -2.4959120e+08
   2.0540180e-10  -6.9139633e-02   4.3092678e+00   1.9854173e-02  -2.4680235e+08
   2.0806936e-10  -6.8485027e-02   4.2730516e+00   2.0716131e-02  -2.4404367e+08
   2.1073691e-10  -6.7837738e-02   4.2369242e+00   2.1602106e-02  -2.4131522e+08
   2.1340447e-10  -6.7197687e-02   4.2008989e+00   2.2512201e-02  -2.3861705e+08
   2.1607202e-10  -6.6564792e-02   4.1649889e+00   2.3446502e-02  -2.3594920e+08
   2.1873958e-10  -6.5938972e-02   4.1292065e+00   2.4405078e-02  -2.3331166e+08
   2.2140714e-10  -6.5320147e-02   4.0935638e+00   2.5387981e-02  -2.3070442e+08
   2.2407469e-10  -6.4708235e-02   4.0580723e+00   2.6395249e-02  -2.2812744e+08
   2.2674225e-10  -6.4103156e-02   4.0227432e+00   2.7426901e-02  -2.2558068e+08
   2.2940980e-10  -6.3504829e-02   3.9875870e+00   2.8482942e-02  -2.2306407e+08
   2.3207736e-10  -6.2913175e-02   3.9526137e+00   2.9563362e-02  -2.2057750e+08
   2.3474491e-10  -6.2328112e-02   3.9178331e+00   3.0668136e-02  -2.1812088e+08
   2.3741247e-10  -6.1749562e-02   3.8832542e+00   3.1797223e-02  -2.1569409e+08
   2.4008003e-10  -6.1177445e-02   3.8488858e+00   3.2950568e-02  -2.1329698e+08
   2.4274758e-10  -6.0611682e-02   3.8147360e+00   3.4128103e-02  -2.1092940e+08
   2.4541514e-10  -6.0052194e-02   3.7808126e+00   3.5329747e-02  -2.0859119e+08
   2.4808269e-10  -5.9498904e-02   3.7471229e+00   3.6555404e-02  -2.0628217e+08
   2.5075025e-10  -5.8951733e-02   3.7136737e+00   3.7804966e-02  -2.0400213e+08
   2.5341781e-10  -5.8410605e-02   3.6804715e+00   3.9078314e-02  -2.0175089e+08
   2.5608536e-10  -5.7875443e-02   3.6475222e+00   4.0375315e-02  -1.9952821e+08
   2.5875292e-10  -5.7346171e-02   3.6148314e+00   4.1695828e-02  -1.9733388e+08
   2.6142047e-10  -5.6822715e-02   3.5824043e+00   4.3039696e-02  -1.9516766e+08
   2.6408803e-10  -5.6304998e-02   3.5502456e+00   4.4406757e-02  -1.9302929e+08
   2.6675559e-10  -5.5792948e-02   3.5183597e+00   4.5796835e-02  -1.9091854e+08
   2.6942314e-10  -5.5286491e-02   3.4867506e+00   4.7209747e-02  -1.8883513e+08
   2.7209070e-10  -5.4785554e-02   3.4554219e+00   4.8645298e-02  -1.8677881e+08
   2.7475825e-10  -5.4290066e-02   3.4243770e+00   5.0103287e-02  -1.8474928e+08
   2.7742581e-10  -5.3799955e-02   3.3936187e+00   5.1583503e-02  -1.8274628e+08
   2.8009336e-10  -5.3315151e-02   3.3631498e+00   5.3085728e-02  -1.8076951e+08
   2.8276092e-10  -5.2835585e-02   3.3329724e+00   5.4609736e-02  -1.7881868e+08
   2.8542848e-10  -5.2361188e-02   3.3030887e+00   5.6155294e-02  -1.7689351e+08
   2.8809603e-10  -5.1891891e-02   3.2735004e+00   5.7722162e-02  -1.7499368e+08
   2.9076359e-10  -5.1427628e-02   3.2442088e+00   5.9310095e-02  -1.7311890e+08
   2.9343114e-10  -5.0968332e-02   3.2152152e+00   6.0918841e-02  -1.7126887e+08
   2.9609870e-10  -5.0513937e-02   3.1865204e+00   6.2548142e-02  -1.6944327e+08
   2.9876626e-10  -5.0064379e-02   3.1581252e+00   6.4197736e-02  -1.6764179e+08
   3.0143381e-10  -4.9619594e-02   3.1300300e+00   6.5867356e-02  -1.6586414e+08
   3.0410137e-10  -4.9179519e-02   3.1022349e+00   6.7556730e-02  -1.6410998e+08
   3.0676892e-10  -4.8744091e-02   3.0747400e+00   6.9265582e-02  -1.6237903e+08
   3.0943648e-10  -4.8313249e-02   3.0475451e+00   7.0993632e-02  -1.6067095e+08
   3.1210403e-10  -4.7886933e-02   3.0206498e+00   7.2740597e-02  -1.5898545e+08
   3.1477159e-10  -4.7465082e-02   2.9940536e+00   7.4506191e-02  -1.5732220e+08
   3.1743915e-10  -4.7047638e-02   2.9677556e+00   7.6290124e-02  -1.5568090e+08
   3.2010670e-10  -4.6634542e-02   2.9417550e+00   7.8092104e-02  -1.5406124e+08
   3.2277426e-10  -4.6225738e-02   2.9160508e+00   7.9911837e-02  -1.5246291e+08
   3.2544181e-10  -4.5821168e-02   2.8906416e+00   8.1749026e-02  -1.5088561e+08
   3.2810937e-10  -4.5420777e-02   2.8655263e+00   8.3603374e-02  -1.4932902e+08
   3.3077693e-10  -4.5024511e-02   2.8407033e+00   8.5474579e-02  -1.4779285e+08
   3.3344448e-10  -4.4632315e-02   2.8161711e+00   8.7362342e-02  -1.4627679e+08
   3.3611204e-10  -4.4244136e-02   2.7919280e+00   8.9266359e-02  -1.4478055e+08
   3.3877959e-10  -4.3859922e-02   2.7679721e+00   9.1186327e-02  -1.4330382e+08
   3.4144715e-10  -4.3479620e-02   2.7443016e+00   9.3121942e-02  -1.4184632e+08
   3.4411470e-10  -4.3103181e-02   2.7209146e+00   9.5072899e-02  -1.4040776e+08
   3.4678226e-10  -4.2730553e-02   2.6978088e+00   9.7038894e-02  -1.3898784e+08
   3.4944982e-10  -4.2361688e-02   2.6749823e+00   9.9019621e-02  -1.3758629e+08
   3.5211737e-10  -4.1996537e-02   2.6524328e+00   1.0101477e-01  -1.3620281e+08
   3.5478493e-10  -4.1635052e-02   2.6301580e+00   1.0302405e-01  -1.3483714e+08
   3.5745248e-10  -4.1277186e-02   2.6081556e+00   1.0504714e-01  -1.3348899e+08
   3.6012004e-10  -4.0922893e-02   2.5864232e+00   1.0708375e-01  -1.3215810e+08
   3.6278760e-10  -4.0572127e-02   2.5649584e+00   1.0913356e-01  -1.3084419e+08
   3.6545515e-10  -4.0224842e-02   2.5437587e+00   1.1119628e-01  -1.2954701e+08
   3.6812271e-10  -3.9880996e-02   2.5228215e+00   1.1327161e-01  -1.2826628e+08
   3.7079026e-10  -3.9540544e-02   2.5021443e+00   1.1535924e-01  -1.2700176e+08
   3.7345782e-10  -3.9203443e-02   2.4817245e+00   1.1745887e-01  -1.2575319e+08
   3.7612538e-10  -3.8869651e-02   2.4615595e+00   1.1957020e-01  -1.2452031e+08
   3.7879293e-10  -3.8539127e-02   2.4416467e+00   1.2169294e-01  -1.2330288e+08
   3.8146049e-10  -3.8211830e-02   2.4219834e+00   1.2382679e-01  -1.2210066e+08
   3.8412804e-10  -3.7887719e-02   2.4025669e+00   1.2597146e-01  -1.2091341e+08
   3.8679560e-10  -3.7566756e-02   2.3833945e+00   1.2812665e-01  -1.1974088e+08
   3.8946315e-10  -3.7248900e-02   2.3644635e+00   1.3029208e-01  -1.1858286e+08
   3.9213071e-10  -3.6934114e-02   2.3457713e+00   1.3246744e-01  -1.1743911e+08
   3.9479827e-10  -3.6622360e-02   2.3273150e+00   1.3465246e-01  -1.1630940e+08
   3.9746582e-10  -3.6313600e-02   2.3090920e+00   1.3684684e-01  -1.1519352e+08
   4.0013338e-10  -3.6007799e-02   2.2910996e+00   1.3905031e-01  -1.1409124e+08
   4.0280093e-10  -3.5704919e-02   2.2733350e+00   1.4126258e-01  -1.1300236e+08
   4.0546849e-10  -3.5404927e-02   2.2557955e+00   1.4348338e-01  -1.1192665e+08
   4.0813605e-10  -3.5107786e-02   2.2384784e+00   1.4571241e-01  -1.1086392e+08
   4.1080360e-10  -3.4813463e-02   2.2213811e+00   1.4794942e-01  -1.0981396e+08
   4.1347116e-10  -3.4521923e-02   2.2045007e+00   1.5019412e-01  -1.0877658e+08
   4.1613871e-10  -3.4233134e-02   2.1878347e+00   1.5244624e-01  -1.0775156e+08
   4.1880627e-10  -3.3947063e-02   2.1713804e+00   1.5470552e-01  -1.0673873e+08
   4.2147382e-10  -3.3663677e-02   2.1551351e+00   1.5697169e-01  -1.0573789e+08
   4.2414138e-10  -3.3382945e-02   2.1390961e+00   1.5924448e-01  -1.0474886e+08
   4.2680894e-10  -3.3104835e-02   2.1232609e+00   1.6152363e-01  -1.0377144e+08
   4.2947649e-10  -3.2829317e-02   2.1076268e+00   1.6380889e-01  -1.0280547e+08
   4.3214405e-10  -3.2556361e-02   2.0921912e+00   1.6609999e-01  -1.0185076e+08
   4.3481160e-10  -3.2285936e-02   2.0769517e+00   1.6839668e-01  -1.0090714e+08
   4.3747916e-10  -3.2018014e-02   2.0619055e+00   1.7069872e-01  -9.9974436e+07
   4.4014672e-10  -3.1752565e-02   2.0470502e+00   1.7300584e-01  -9.9052490e+07
   4.4281427e-10  -3.1489561e-02   2.0323833e+00   1.7531780e-01  -9.8141131e+07
   4.4548183e-10  -3.1228974e-02   2.0179023e+00   1.7763437e-01  -9.7240198e+07
   4.4814938e-10  -3.0970776e-02   2.0036047e+00   1.7995528e-01  -9.6349534e+07
   4.5081694e-10  -3.0714941e-02   1.9894881e+00   1.8228032e-01  -9.5468981e+07
   4.5348449e-10  -3.0461440e-02   1.9755500e+00   1.8460924e-01  -9.4598388e+07
   4.5615205e-10  -3.0210249e-02   1.9617882e+00   1.8694180e-01  -9.3737604e+07
   4.5881961e-10  -2.9961341e-02   1.9482001e+00   1.8927778e-01  -9.2886482e+07
   4.6148716e-10  -2.9714691e-02   1.9347835e+00   1.9161695e-01  -9.2044877e+07
   4.6415472e-10  -2.9470273e-02   1.9215360e+00   1.9395908e-01  -9.1212648e+07
   4.6682227e-10  -2.9228062e-02   1.9084554e+00   1.9630394e-01  -9.0389654e+07
   4.6948983e-10  -2.8988035e-02   1.8955393e+00   1.9865132e-01  -8.9575759e+07
   4.7215739e-10  -2.8750166e-02   1.8827856e+00   2.0100100e-01  -8.8770828e+07
   4.7482494e-10  -2.8514433e-02   1.8701919e+00   2.0335276e-01  -8.7974730e+07
   4.7749250e-10  -2.8280811e-02   1.8577562e+00   2.0570639e-01  -8.7187336e+07
   4.8016005e-10  -2.8049279e-02   1.8454763e+00   2.0806168e-01  -8.6408517e+07
   4.8282761e-10  -2.7819812e-02   1.8333500e+00   2.1041842e-01  -8.5638150e+07
   4.8549517e-10  -2.7592389e-02   1.8213752e+00   2.1277641e-01  -8.4876112e+07
   4.8816272e-10  -2.7366988e-02   1.8095498e+00   2.1513544e-01  -8.4122282e+07
   4.9083028e-10  -2.7143587e-02   1.7978718e+00   2.1749531e-01  -8.3376543e+07
   4.9349783e-10  -2.6922164e-02   1.7863391e+00   2.1985583e-01  -8.2638779e+07
   4.9616539e-10  -2.6702699e-02   1.7749497e+00   2.2221681e-01  -8.1908875e+07
   4.9883294e-10  -2.6485170e-02   1.7637016e+00   2.2457804e-01  -8.1186721e+07
   5.0150050e-10  -2.6269558e-02   1.7525930e+00   2.2693934e-01  -8.0472207e+07
   5.0416806e-10  -2.6055841e-02   1.7416218e+00   2.2930053e-01  -7.9765224e+07
   5.0683561e-10  -2.5844000e-02   1.7307861e+00   2.3166142e-01  -7.9065668e+07
   5.0950317e-10  -2.5634015e-02   1.7200841e+00   2.3402183e-01  -7.8373435e+07
   5.1217072e-10  -2.5425868e-02   1.7095140e+00   2.3638158e-01  -7.7688422e+07
   5.1483828e-10  -2.5219537e-02   1.6990738e+00   2.3874048e-01  -7.7010529e+07
   5.1750584e-10  -2.5015006e-02   1.6887618e+00   2.4109838e-01  -7.6339659e+07
   5.2017339e-10  -2.4812255e-02   1.6785762e+00   2.4345510e-01  -7.5675715e+07
   5.2284095e-10  -2.4611266e-02   1.6685153e+00   2.4581046e-01  -7.5018602e+07
   5.2550850e-10  -2.4412020e-02   1.6585773e+00   2.4816431e-01  -7.4368227e+07
   5.2817606e-10  -2.4214501e-02   1.6487605e+00   2.5051647e-01  -7.3724499e+07
   5.3084361e-10  -2.4018690e-02   1.6390633e+00   2.5286679e-01  -7.3087327e+07
   5.3351117e-10  -2.3824570e-02   1.6294839e+00   2.5521511e-01  -7.2456625e+07
   5.3617873e-10  -2.3632124e-02   1.6200208e+00   2.5756127e-01  -7.1832304e+07
   5.3884628e-10  -2.3441334e-02   1.6106723e+00   2.5990512e-01  -7.1214281e+07
   5.4151384e-10  -2.3252185e-02   1.6014369e+00   2.6224650e-01  -7.0602471e+07
   5.4418139e-10  -2.3064660e-02   1.5923130e+00   2.6458527e-01  -6.9996793e+07
   5.4684895e-10  -2.2878742e-02   1.5832990e+00   2.6692128e-01  -6.9397166e+07
   5.4951651e-10  -2.2694416e-02   1.5743934e+00   2.6925438e-01  -6.8803510e+07
   5.5218406e-10  -2.2511665e-02   1.5655948e+00   2.7158443e-01  -6.8215748e+07
   5.5485162e-10  -2.2330474e-02   1.5569016e+00   2.7391130e-01  -6.7633803e+07
   5.5751917e-10  -2.2150828e-02   1.5483124e+00   2.7623484e-01  -6.7057600e+07
   5.6018673e-10  -2.1972712e-02   1.5398258e+00   2.7855493e-01  -6.6487066e+07
   5.6285428e-10  -2.1796110e-02   1.5314403e+00   2.8087142e-01  -6.5922127e+07
   5.6552184e-10  -2.1621007e-02   1.5231546e+00   2.8318419e-01  -6.5362713e+07
   5.6818940e-10  -2.1447390e-02   1.5149673e+00   2.8549310e-01  -6.4808752e+07
   5.7085695e-10  -2.1275243e-02   1.5068771e+00   2.8779804e-01  -6.4260177e+07
   5.7352451e-10  -2.1104552e-02   1.4988825e+00   2.9009888e-01  -6.3716920e+07
   5.7619206e-10  -2.0935303e-02   1.4909824e+00   2.9239549e-01  -6.3178913e+07
   5.7885962e-10  -2.0767482e-02   1.4831754e+00   2.9468777e-01  -6.2646092e+07
   5.8152718e-10  -2.0601076e-02   1.4754602e+00   2.9697558e-01  -6.2118391e+07
   5.8419473e-10  -2.0436071e-02   1.4678356e+00   2.9925882e-01  -6.1595749e+07
   5.8686229e-10  -2.0272453e-02   1.4603003e+00   3.0153737e-01  -6.1078101e+07
   5.8952984e-10  -2.0110209e-02   1.4528532e+00   3.0381112e-01  -6.0565388e+07
   5.9219740e-10  -1.9949327e-02   1.4454930e+00   3.0607996e-01  -6.0057549e+07
   5.9486495e-10  -1.9789793e-02   1.4382186e+00   3.0834379e-01  -5.9554525e+07
   5.9753251e-10  -1.9631594e-02   1.4310288e+00   3.1060250e-01  -5.9056258e+07
   6.0020007e-10  -1.9474718e-02   1.4239224e+00   3.1285600e-01  -5.8562689e+07
   6.0286762e-10  -1.9319152e-02   1.4168983e+00   3.1510417e-01  -5.8073764e+07
   6.0553518e-10  -1.9164885e-02   1.4099555e+00   3.1734691e-01  -5.7589426e+07
   6.0820273e-10  -1.9011903e-02   1.4030928e+00   3.1958415e-01  -5.7109621e+07
   6.1087029e-10  -1.8860195e-02   1.3963091e+00   3.2181577e-01  -5.6634296e+07
   6.1353785e-10  -1.8709750e-02   1.3896034e+00   3.2404169e-01  -5.6163397e+07
   6.1620540e-10  -1.8560554e-02   1.3829747e+00   3.2626181e-01  -5.5696872e+07
   6.1887296e-10  -1.8412598e-02   1.3764218e+00   3.2847606e-01  -5.5234671e+07
   6.2154051e-10  -1.8265868e-02   1.3699438e+00   3.3068433e-01  -5.4776744e+07
   6.2420807e-10  -1.8120354e-02   1.3635398e+00   3.3288655e-01  -5.4323039e+07
   6.2687563e-10  -1.7976046e-02   1.3572086e+00   3.3508263e-01  -5.3873510e+07
   6.2954318e-10  -1.7832930e-02   1.3509493e+00   3.3727249e-01  -5.3428108e+07
   6.3221074e-10  -1.7690998e-02   1.3447611e+00   3.3945605e-01  -5.2986785e+07
   6.3487829e-10  -1.7550237e-02   1.3386429e+00   3.4163324e-01  -5.2549496e+07
   6.3754585e-10  -1.7410637e-02   1.3325938e+00   3.4380397e-01  -5.2116193e+07
   6.4021340e-10  -1.7272188e-02   1.3266129e+00   3.4596818e-01  -5.1686834e+07
   6.4288096e-10  -1.7134879e-02   1.3206993e+00   3.4812579e-01  -5.1261372e+07
   6.4554852e-10  -1.6998700e-02   1.3148521e+00   3.5027674e-01  -5.0839764e+07
   6.4821607e-10  -1.6863640e-02   1.3090704e+00   3.5242094e-01  -5.0421967e+07
   6.5088363e-10  -1.6729690e-02   1.3033535e+00   3.5455835e-01  -5.0007940e+07
   6.5355118e-10  -1.6596839e-02   1.2977003e+00   3.5668888e-01  -4.9597639e+07
   6.5621874e-10  -1.6465078e-02   1.2921102e+00   3.5881248e-01  -4.9191024e+07
   6.5888630e-10  -1.6334396e-02   1.2865822e+00   3.6092908e-01  -4.8788055e+07
   6.6155385e-10  -1.6204785e-02   1.2811157e+00   3.6303862e-01  -4.8388691e+07
   6.6422141e-10  -1.6076234e-02   1.2757096e+00   3.6514106e-01  -4.7992893e+07
   6.6688896e-10  -1.5948734e-02   1.2703634e+00   3.6723631e-01  -4.7600622e+07
   6.6955652e-10  -1.5822276e-02   1.2650762e+00   3.6932434e-01  -4.7211841e+07
   6.7222407e-10  -1.5696851e-02   1.2598472e+00   3.7140509e-01  -4.6826511e+07
   6.7489163e-10  -1.5572449e-02   1.2546758e+00   3.7347850e-01  -4.6444595e+07
   6.7755919e-10  -1.5449061e-02   1.2495611e+00   3.7554453e-01  -4.6066058e+07
   6.8022674e-10  -1.5326678e-02   1.2445024e+00   3.7760312e-01  -4.5690862e+07
   6.8289430e-10  -1.5205292e-02   1.2394990e+00   3.7965422e-01  -4.5318973e+07
   6.8556185e-10  -1.5084893e-02   1.2345503e+00   3.8169779e-01  -4.4950355e+07
   6.8822941e-10  -1.4965474e-02   1.2296554e+00   3.8373379e-01  -4.4584974e+07
   6.9089697e-10  -1.4847025e-02   1.2248138e+00   3.8576217e-01  -4.4222796e+07
   6.9356452e-10  -1.4729537e-02   1.2200247e+00   3.8778288e-01  -4.3863788e+07
   6.9623208e-10  -1.4613003e-02   1.2152875e+00   3.8979589e-01  -4.3507915e+07
   6.9889963e-10  -1.4497415e-02   1.2106014e+00   3.9180115e-01  -4.3155147e+07
   7.0156719e-10  -1.4382763e-02   1.2059660e+00   3.9379863e-01  -4.2805449e+07
   7.0423474e-10  -1.4269040e-02   1.2013805e+00   3.9578830e-01  -4.2458792e+07
   7.0690230e-10  -1.4156238e-02   1.1968443e+00   3.9777010e-01  -4.2115143e+07
   7.0956986e-10  -1.4044348e-02   1.1923568e+00   3.9974402e-01  -4.1774472e+07
   7.1223741e-10  -1.3933363e-02   1.1879173e+00   4.0171002e-01  -4.1436748e+07
   7.1490497e-10  -1.3823276e-02   1.1835253e+00   4.0366806e-01  -4.1101941e+07
   7.1757252e-10  -1.3714077e-02   1.1791802e+00   4.0561811e-01  -4.0770022e+07
   7.2024008e-10  -1.3605760e-02   1.1748814e+00   4.0756015e-01  -4.0440961e+07
   7.2290764e-10  -1.3498317e-02   1.1706282e+00   4.0949415e-01  -4.0114730e+07
   7.2557519e-10  -1.3391741e-02   1.1664203e+00   4.1142008e-01  -3.9791300e+07
   7.2824275e-10  -1.3286023e-02   1.1622569e+00   4.1333791e-01  -3.9470643e+07
   7.3091030e-10  -1.3181158e-02   1.1581376e+00   4.1524762e-01  -3.9152731e+07
   7.3357786e-10  -1.3077136e-02   1.1540617e+00   4.1714919e-01  -3.8837538e+07
   7.3624542e-10  -1.2973952e-02   1.1500288e+00   4.1904259e-01  -3.8525035e+07
   7.3891297e-10  -1.2871598e-02   1.1460383e+00   4.2092780e-01  -3.8215197e+07
   7.4158053e-10  -1.2770067e-02   1.1420898e+00   4.2280480e-01  -3.7907997e+07
   7.4424808e-10  -1.2669352e-02   1.1381826e+00   4.2467358e-01  -3.7603409e+07
   7.4691564e-10  -1.2569446e-02   1.1343163e+00   4.2653412e-01  -3.7301408e+07
   7.4958319e-10  -1.2470342e-02   1.1304904e+00   4.2838639e-01  -3.7001968e+07
   7.5225075e-10  -1.2372034e-02   1.1267044e+00   4.3023038e-01  -3.6705064e+07
   7.5491831e-10  -1.2274514e-02   1.1229578e+00   4.3206608e-01  -3.6410672e+07
   7.5758586e-10  -1.2177776e-02   1.1192502e+00   4.3389348e-01  -3.6118767e+07
   7.6025342e-10  -1.2081814e-02   1.1155810e+00   4.3571255e-01  -3.5829326e+07
   7.6292097e-10  -1.1986620e-02   1.1119498e+00   4.3752329e-01  -3.5542324e+07
   7.6558853e-10  -1.1892189e-02   1.1083561e+00   4.3932570e-01  -3.5257739e+07
   7.6825609e-10  -1.1798514e-02   1.1047995e+00   4.4111975e-01  -3.4975546e+07
   7.7092364e-10  -1.1705588e-02   1.1012796e+00   4.4290543e-01  -3.4695724e+07
   7.7359120e-10  -1.1613406e-02   1.0977959e+00   4.4468275e-01  -3.4418249e+07
   7.7625875e-10  -1.1521960e-02   1.0943479e+00   4.4645169e-01  -3.4143099e+07
   7.7892631e-10  -1.1431246e-02   1.0909353e+00   4.4821225e-01  -3.3870253e+07
   7.8159386e-10  -1.1341256e-02   1.0875577e+00   4.4996442e-01  -3.3599688e+07
   7.8426142e-10  -1.1251985e-02   1.0842145e+00   4.5170820e-01  -3.3331383e+07
   7.8692898e-10  -1.1163427e-02   1.0809054e+00   4.5344358e-01  -3.3065316e+07
   7.8959653e-10  -1.1075576e-02   1.0776300e+00   4.5517056e-01  -3.2801468e+07
   7.9226409e-10  -1.0988425e-02   1.0743880e+00   4.5688914e-01  -3.2539816e+07
   7.9493164e-10  -1.0901970e-02   1.0711788e+00   4.5859931e-01  -3.2280341e+07
   7.9759920e-10  -1.0816203e-02   1.0680021e+00   4.6030108e-01  -3.2023021e+07
   8.0026676e-10  -1.0731121e-02   1.0648576e+00   4.6199445e-01  -3.1767838e+07
   8.0293431e-10  -1.0646716e-02   1.0617449e+00   4.6367942e-01  -3.1514772e+07
   8.0560187e-10  -1.0562984e-02   1.0586635e+00   4.6535598e-01  -3.1263802e+07
   8.0826942e-10  -1.0479918e-02   1.0556132e+00   4.6702415e-01  -3.1014909e+07
   8.1093698e-10  -1.0397513e-02   1.0525935e+00   4.6868392e-01  -3.0768075e+07
   8.1360453e-10  -1.0315765e-02   1.0496041e+00   4.7033530e-01  -3.0523281e+07
   8.1627209e-10  -1.0234666e-02   1.0466447e+00   4.7197830e-01  -3.0280507e+07
   8.1893965e-10  -1.0154212e-02   1.0437149e+00   4.7361291e-01  -3.0039736e+07
   8.2160720e-10  -1.0074398e-02   1.0408144e+00   4.7523915e-01  -2.9800948e+07
   8.2427476e-10  -9.9952187e-03   1.0379427e+00   4.7685703e-01  -2.9564127e+07
   8.2694231e-10  -9.9166682e-03   1.0350997e+00   4.7846654e-01  -2.9329254e+07
   8.2960987e-10  -9.8387416e-03   1.0322850e+00   4.8006770e-01  -2.9096312e+07
   8.3227743e-10  -9.7614339e-03   1.0294981e+00   4.8166051e-01  -2.8865282e+07
   8.3494498e-10  -9.6847399e-03   1.0267390e+00   4.8324499e-01  -2.8636149e+07
   8.3761254e-10  -9.6086547e-03   1.0240071e+00   4.8482115e-01  -2.8408894e+07
   8.4028009e-10  -9.5331731e-03   1.0213022e+00   4.8638899e-01  -2.8183501e+07
   8.4294765e-10  -9.4582904e-03   1.0186240e+00   4.8794853e-01  -2.7959954e+07
   8.4561521e-10  -9.3840015e-03   1.0159722e+00   4.8949977e-01  -2.7738235e+07
   8.4828276e-10  -9.3103017e-03   1.0133464e+00   4.9104274e-01  -2.7518329e+07
   8.5095032e-10  -9.2371860e-03   1.0107465e+00   4.9257744e-01  -2.7300218e+07
   8.5361787e-10  -9.1646499e-03   1.0081721e+00   4.9410389e-01  -2.7083889e+07
   8.5628543e-10  -9.0926884e-03   1.0056229e+00   4.9562209e-01  -2.6869324e+07
   8.5895298e-10  -9.0212970e-03   1.0030986e+00   4.9713207e-01  -2.6656507e+07
   8.6162054e-10  -8.9504709e-03   1.0005990e+00   4.9863385e-01  -2.6445424e+07
   8.6428810e-10  -8.8802056e-03   9.9812370e-01   5.0012742e-01  -2.6236060e+07
   8.6695565e-10  -8.8104966e-03   9.9567254e-01   5.0161282e-01  -2.6028398e+07
   8.6962321e-10  -8.7413392e-03   9.9324522e-01   5.0309005e-01  -2.5822424e+07
   8.7229076e-10  -8.6727291e-03   9.9084147e-01   5.0455914e-01  -2.5618123e+07
   8.7495832e-10  -8.6046617e-03   9.8846102e-01   5.0602010e-01  -2.5415481e+07
   8.7762588e-10  -8.5371327e-03   9.8610362e-01   5.0747295e-01  -2.5214483e+07
   8.8029343e-10  -8.4701376e-03   9.8376902e-01   5.0891770e-01  -2.5015115e+07
   8.8296099e-10  -8.4036723e-03   9.8145695e-01   5.1035438e-01  -2.4817362e+07
   8.8562854e-10  -8.3377323e-03   9.7916718e-01   5.1178301e-01  -2.4621211e+07
   8.8829610e-10  -8.2723135e-03   9.7689946e-01   5.1320360e-01  -2.4426647e+07
   8.9096365e-10  -8.2074115e-03   9.7465354e-01   5.1461617e-01  -2.4233657e+07
   8.9363121e-10  -8.1430223e-03   9.7242918e-01   5.1602074e-01  -2.4042227e+07
   8.9629877e-10  -8.0791417e-03   9.7022616e-01   5.1741734e-01  -2.3852343e+07
   8.9896632e-10  -8.0157655e-03   9.6804423e-01   5.1880598e-01  -2.3663993e+07
   9.0163388e-10  -7.9528898e-03   9.6588317e-01   5.2018670e-01  -2.3477163e+07
   9.0430143e-10  -7.8905104e-03   9.6374275e-01   5.2155949e-01  -2.3291840e+07
   9.0696899e-10  -7.8286234e-03   9.6162274e-01   5.2292440e-01  -2.3108011e+07
   9.0963655e-10  -7.7672248e-03   9.5952292e-01   5.2428144e-01  -2.2925663e+07
   9.1230410e-10  -7.7063106e-03   9.5744308e-01   5.2563064e-01  -2.2744783e+07
   9.1497166e-10  -7.6458770e-03   9.5538300e-01   5.2697201e-01  -2.2565360e+07
   9.1763921e-10  -7.5859202e-03   9.5334247e-01   5.2830559e-01  -2.2387380e+07
   9.2030677e-10  -7.5264361e-03   9.5132127e-01   5.2963139e-01  -2.2210831e+07
   9.2297432e-10  -7.4674212e-03   9.4931920e-01   5.3094943e-01  -2.2035701e+07
   9.2564188e-10  -7.4088715e-03   9.4733605e-01   5.3225976e-01  -2.1861978e+07
   9.2830944e-10  -7.3507833e-03   9.4537162e-01   5.3356237e-01  -2.1689650e+07
   9.3097699e-10  -7.2931531e-03   9.4342571e-01   5.3485731e-01  -2.1518705e+07
   9.3364455e-10  -7.2359770e-03   9.4149812e-01   5.3614460e-01  -2.1349131e+07
   9.3631210e-10  -7.1792514e-03   9.3958866e-01   5.3742426e-01  -2.1180917e+07
   9.3897966e-10  -7.1229727e-03   9.3769713e-01   5.3869632e-01  -2.1014052e+07
   9.4164722e-10  -7.0671374e-03   9.3582334e-01   5.3996080e-01  -2.0848523e+07
   9.4431477e-10  -7.0117419e-03   9.3396712e-01   5.4121773e-01  -2.0684320e+07
   9.4698233e-10  -6.9567826e-03   9.3212826e-01   5.4246714e-01  -2.0521432e+07
   9.4964988e-10  -6.9022561e-03   9.3030658e-01   5.4370905e-01  -2.0359847e+07
   9.5231744e-10  -6.8481590e-03   9.2850191e-01   5.4494349e-01  -2.0199554e+07
   9.5498499e-10  -6.7944877e-03   9.2671407e-01   5.4617049e-01  -2.0040543e+07
   9.5765255e-10  -6.7412388e-03   9.2494288e-01   5.4739006e-01  -1.9882802e+07
   9.6032011e-10  -6.6884091e-03   9.2318816e-01   5.4860225e-01  -1.9726322e+07
   9.6298766e-10  -6.6359951e-03   9.2144974e-01   5.4980708e-01  -1.9571092e+07
   9.6565522e-10  -6.5839936e-03   9.1972746e-01   5.5100457e-01  -1.9417101e+07
   9.6832277e-10  -6.5324012e-03   9.1802114e-01   5.5219476e-01  -1.9264338e+07
   9.7099033e-10  -6.4812147e-03   9.1633061e-01   5.5337766e-01  -1.9112795e+07
   9.7365789e-10  -6.4304308e-03   9.1465572e-01   5.5455332e-01  -1.8962459e+07
   9.7632544e-10  -6.3800463e-03   9.1299630e-01   5.5572176e-01  -1.8813322e+07
   9.7899300e-10  -6.3300581e-03   9.1135219e-01   5.5688300e-01  -1.8665374e+07
   9.8166055e-10  -6.2804630e-03   9.0972323e-01   5.5803708e-01  -1.8518604e+07
   9.8432811e-10  -6.2312578e-03   9.0810927e-01   5.5918402e-01  -1.8373003e+07
   9.8699567e-10  -6.1824395e-03   9.0651014e-01   5.6032385e-01  -1.8228562e+07
   9.8966322e-10  -6.1340050e-03   9.0492571e-01   5.6145661e-01  -1.8085269e+07
   9.9233078e-10  -6.0859512e-03   9.0335581e-01   5.6258232e-01  -1.7943117e+07
   9.9499833e-10  -6.0382750e-03   9.0180030e-01   5.6370100e-01  -1.7802095e+07
   9.9766589e-10  -5.9909736e-03   9.0025903e-01   5.6481270e-01  -1.7662195e+07
   1.0003334e-09  -5.9440438e-03   8.9873185e-01   5.6591744e-01  -1.7523406e+07
   1.0030010e-09  -5.8974828e-03   8.9721862e-01   5.6701525e-01  -1.7385721e+07
   1.0056686e-09  -5.8512877e-03   8.9571921e-01   5.6810616e-01  -1.7249129e+07
   1.0083361e-09  -5.8054554e-03   8.9423345e-01   5.6919019e-01  -1.7113622e+07
   1.0110037e-09  -5.7599832e-03   8.9276123e-01   5.7026739e-01  -1.6979191e+07
   1.0136712e-09  -5.7148682e-03   8.9130240e-01   5.7133777e-01  -1.6845827e+07
   1.0163388e-09  -5.6701075e-03   8.8985682e-01   5.7240138e-01  -1.6713521e+07
   1.0190063e-09  -5.6256984e-03   8.8842437e-01   5.7345823e-01  -1.6582264e+07
   1.0216739e-09  -5.5816380e-03   8.8700491e-01   5.7450837e-01  -1.6452049e+07
   1.0243414e-09  -5.5379235e-03   8.8559830e-01   5.7555181e-01  -1.6322866e+07
   1.0270090e-09  -5.4945524e-03   8.8420442e-01   5.7658860e-01  -1.6194707e+07
   1.0296766e-09  -5.4515217e-03   8.8282314e-01   5.7761875e-01  -1.6067564e+07
   1.0323441e-09  -5.4088288e-03   8.8145434e-01   5.7864231e-01  -1.5941428e+07
   1.0350117e-09  -5.3664711e-03   8.8009788e-01   5.7965930e-01  -1.5816291e+07
   1.0376792e-09  -5.3244459e-03   8.7875365e-01   5.8066975e-01  -1.5692145e+07
   1.0403468e-09  -5.2827505e-03   8.7742152e-01   5.8167370e-01  -1.5568983e+07
   1.0430143e-09  -5.2413824e-03   8.7610138e-01   5.8267117e-01  -1.5446794e+07
   1.0456819e-09  -5.2003389e-03   8.7479310e-01   5.8366219e-01  -1.5325573e+07
   1.0483494e-09  -5.1596175e-03   8.7349656e-01   5.8464681e-01  -1.5205311e+07
   1.0510170e-09  -5.1192156e-03   8.7221165e-01   5.8562503e-01  -1.5086001e+07
   1.0536846e-09  -5.0791308e-03   8.7093825e-01   5.8659691e-01  -1.4967634e+07
   1.0563521e-09  -5.0393604e-03   8.6967626e-01   5.8756246e-01  -1.4850202e+07
   1.0590197e-09  -4.9999021e-03   8.6842554e-01   5.8852173e-01  -1.4733700e+07
   1.0616872e-09  -4.9607533e-03   8.6718601e-01   5.8947473e-01  -1.4618117e+07
   1.0643548e-09  -4.9219117e-03   8.6595754e-01   5.9042151e-01  -1.4503449e+07
   1.0670223e-09  -4.8833747e-03   8.6474002e-01   5.9136209e-01  -1.4389686e+07
   1.0696899e-09  -4.8451399e-03   8.6353335e-01   5.9229650e-01  -1.4276822e+07
   1.0723575e-09  -4.8072051e-03   8.6233742e-01   5.9322478e-01  -1.4164849e+07
   1.0750250e-09  -4.7695677e-03   8.6115213e-01   5.9414695e-01  -1.4053760e+07
   1.0776926e-09  -4.7322256e-03   8.5997737e-01   5.9506304e-01  -1.3943548e+07
   1.0803601e-09  -4.6951762e-03   8.5881304e-01   5.9597310e-01  -1.3834207e+07
   1.0830277e-09  -4.6584174e-03   8.5765903e-01   5.9687714e-01  -1.3725728e+07
   1.0856952e-09  -4.6219468e-03   8.5651525e-01   5.9777520e-01  -1.3618105e+07
   1.0883628e-09  -4.5857622e-03   8.5538160e-01   5.9866731e-01  -1.3511331e+07
   1.0910303e-09  -4.5498613e-03   8.5425798e-01   5.9955350e-01  -1.3405399e+07
   1.0936979e-09  -4.5142418e-03   8.5314429e-01   6.0043380e-01  -1.3300303e+07
   1.0963655e-09  -4.4789016e-03   8.5204043e-01   6.0130824e-01  -1.3196035e+07
   1.0990330e-09  -4.4438385e-03   8.5094631e-01   6.0217686e-01  -1.3092590e+07
   1.1017006e-09  -4.4090501e-03   8.4986183e-01   6.0303968e-01  -1.2989959e+07
   1.1043681e-09  -4.3745345e-03   8.4878691e-01   6.0389674e-01  -1.2888138e+07
   1.1070357e-09  -4.3402895e-03   8.4772145e-01   6.0474806e-01  -1.2787119e+07
   1.1097032e-09  -4.3063128e-03   8.4666536e-01   6.0559368e-01  -1.2686896e+07
   1.1123708e-09  -4.2726024e-03   8.4561854e-01   6.0643362e-01  -1.2587463e+07
   1.1150383e-09  -4.2391563e-03   8.4458091e-01   6.0726792e-01  -1.2488813e+07
   1.1177059e-09  -4.2059722e-03   8.4355239e-01   6.0809661e-01  -1.2390940e+07
   1.1203735e-09  -4.1730482e-03   8.4253288e-01   6.0891971e-01  -1.2293837e+07
   1.1230410e-09  -4.1403822e-03   8.4152230e-01   6.0973727e-01  -1.2197499e+07
   1.1257086e-09  -4.1079722e-03   8.4052056e-01   6.1054930e-01  -1.2101920e+07
   1.1283761e-09  -4.0758162e-03   8.3952757e-01   6.1135584e-01  -1.2007092e+07
   1.1310437e-09  -4.0439121e-03   8.3854327e-01   6.1215692e-01  -1.1913011e+07
   1.1337112e-09  -4.0122580e-03   8.3756755e-01   6.1295258e-01  -1.1819671e+07
   1.1363788e-09  -3.9808519e-03   8.3660035e-01   6.1374283e-01  -1.1727065e+07
   1.1390463e-09  -3.9496918e-03   8.3564157e-01   6.1452771e-01  -1.1635188e+07
   1.1417139e-09  -3.9187759e-03   8.3469114e-01   6.1530725e-01  -1.1544033e+07
   1.1443815e-09  -3.8881022e-03   8.3374899e-01   6.1608148e-01  -1.1453595e+07
   1.1470490e-09  -3.8576688e-03   8.3281503e-01   6.1685043e-01  -1.1363869e+07
   1.1497166e-09  -3.8274738e-03   8.3188918e-01   6.1761414e-01  -1.1274848e+07
   1.1523841e-09  -3.7975153e-03   8.3097137e-01   6.1837262e-01  -1.1186527e+07
   1.1550517e-09  -3.7677915e-03   8.3006152e-01   6.1912591e-01  -1.1098901e+07
   1.1577192e-09  -3.7383005e-03   8.2915956e-01   6.1987404e-01  -1.1011963e+07
   1.1603868e-09  -3.7090405e-03   8.2826541e-01   6.2061703e-01  -1.0925709e+07
   1.1630544e-09  -3.6800098e-03   8.2737901e-01   6.2135493e-01  -1.0840133e+07
   1.1657219e-09  -3.6512063e-03   8.2650027e-01   6.2208775e-01  -1.0755229e+07
   1.1683895e-09  -3.6226285e-03   8.2562912e-01   6.2281553e-01  -1.0670993e+07
   1.1710570e-09  -3.5942746e-03   8.2476551e-01   6.2353830e-01  -1.0587418e+07
   1.1737246e-09  -3.5661426e-03   8.2390934e-01   6.2425608e-01  -1.0504500e+07
   1.1763921e-09  -3.5382310e-03   8.2306056e-01   6.2496890e-01  -1.0422234e+07
   1.1790597e-09  -3.5105380e-03   8.2221910e-01   6.2567680e-01  -1.0340613e+07
   1.1817272e-09  -3.4830619e-03   8.2138488e-01   6.2637980e-01  -1.0259634e+07
   1.1843948e-09  -3.4558009e-03   8.2055784e-01   6.2707793e-01  -1.0179291e+07
   1.1870624e-09  -3.4287534e-03   8.1973792e-01   6.2777122e-01  -1.0099579e+07
   1.1897299e-09  -3.4019177e-03   8.1892504e-01   6.2845970e-01  -1.0020492e+07
   1.1923975e-09  -3.3752921e-03   8.1811915e-01   6.2914340e-01  -9.9420268e+06
   1.1950650e-09  -3.3488751e-03   8.1732017e-01   6.2982234e-01  -9.8641774e+06
   1.1977326e-09  -3.3226649e-03   8.1652805e-01   6.3049655e-01  -9.7869393e+06
   1.2004001e-09  -3.2966599e-03   8.1574272e-01   6.3116607e-01  -9.7103074e+06
   1.2030677e-09  -3.2708585e-03   8.1496411e-01   6.3183091e-01  -9.6342770e+06
   1.2057352e-09  -3.2452592e-03   8.1419217e-01   6.3249112e-01  -9.5588434e+06
   1.2084028e-09  -3.2198602e-03   8.1342684e-01   6.3314671e-01  -9.4840018e+06
   1.2110704e-09  -3.1946602e-03   8.1266804e-01   6.3379771e-01  -9.4097476e+06
   1.2137379e-09  -3.1696574e-03   8.1191574e-01   6.3444416e-01  -9.3360760e+06
   1.2164055e-09  -3.1448504e-03   8.1116985e-01   6.3508607e-01  -9.2629825e+06
   1.2190730e-09  -3.1202376e-03   8.1043033e-01   6.3572349e-01  -9.1904624e+06
   1.2217406e-09  -3.0958175e-03   8.0969711e-01   6.3635642e-01  -9.1185113e+06
   1.2244081e-09  -3.0715886e-03   8.0897015e-01   6.3698491e-01  -9.0471247e+06
   1.2270757e-09  -3.0475494e-03   8.0824937e-01   6.3760898e-01  -8.9762980e+06
   1.2297432e-09  -3.0236983e-03   8.0753473e-01   6.3822865e-01  -8.9060269e+06
   1.2324108e-09  -3.0000340e-03   8.0682617e-01   6.3884396e-01  -8.8363070e+06
   1.2350784e-09  -2.9765550e-03   8.0612364e-01   6.3945493e-01  -8.7671339e+06
   1.2377459e-09  -2.9532597e-03   8.0542707e-01   6.4006158e-01  -8.6985033e+06
   1.2404135e-09  -2.9301468e-03   8.0473642e-01   6.4066395e-01  -8.6304108e+06
   1.2430810e-09  -2.9072148e-03   8.0405163e-01   6.4126206e-01  -8.5628523e+06
   1.2457486e-09  -2.8844623e-03   8.0337264e-01   6.4185593e-01  -8.4958236e+06
   1.2484161e-09  -2.8618879e-03   8.0269941e-01   6.4244560e-01  -8.4293204e+06
   1.2510837e-09  -2.8394903e-03   8.0203189e-01   6.4303109e-01  -8.3633386e+06
   1.2537513e-09  -2.8172679e-03   8.0137001e-01   6.4361243e-01  -8.2978741e+06
   1.2564188e-09  -2.7952195e-03   8.0071373e-01   6.4418963e-01  -8.2329228e+06
   1.2590864e-09  -2.7733437e-03   8.0006301e-01   6.4476274e-01  -8.1684806e+06
   1.2617539e-09  -2.7516391e-03   7.9941778e-01   6.4533177e-01  -8.1045436e+06
   1.2644215e-09  -2.7301044e-03   7.9877801e-01   6.4589675e-01  -8.0411077e+06
   1.2670890e-09  -2.7087382e-03   7.9814363e-01   6.4645770e-01  -7.9781691e+06
   1.2697566e-09  -2.6875393e-03   7.9751461e-01   6.4701466e-01  -7.9157237e+06
   1.2724241e-09  -2.6665063e-03   7.9689089e-01   6.4756764e-01  -7.8537677e+06
   1.2750917e-09  -2.6456380e-03   7.9627243e-01   6.4811667e-01  -7.7922973e+06
   1.2777593e-09  -2.6249329e-03   7.9565918e-01   6.4866178e-01  -7.7313086e+06
   1.2804268e-09  -2.6043900e-03   7.9505109e-01   6.4920299e-01  -7.6707977e+06
   1.2830944e-09  -2.5840078e-03   7.9444812e-01   6.4974033e-01  -7.6107611e+06
   1.2857619e-09  -2.5637851e-03   7.9385021e-01   6.5027382e-01  -7.5511948e+06
   1.2884295e-09  -2.5437207e-03   7.9325734e-01   6.5080349e-01  -7.4920953e+06
   1.2910970e-09  -2.5238133e-03   7.9266944e-01   6.5132936e-01  -7.4334587e+06
   1.2937646e-09  -2.5040617e-03   7.9208648e-01   6.5185145e-01  -7.3752816e+06
   1.2964321e-09  -2.4844648e-03   7.9150841e-01   6.5236980e-01  -7.3175603e+06
   1.2990997e-09  -2.4650212e-03   7.9093520e-01   6.5288442e-01  -7.2602911e+06
   1.3017673e-09  -2.4457297e-03   7.9036678e-01   6.5339533e-01  -7.2034706e+06
   1.3044348e-09  -2.4265893e-03   7.8980313e-01   6.5390257e-01  -7.1470951e+06
   1.3071024e-09  -2.4075986e-03   7.8924420e-01   6.5440616e-01  -7.0911613e+06
   1.3097699e-09  -2.3887566e-03   7.8868995e-01   6.5490612e-01  -7.0356655e+06
   1.3124375e-09  -2.3700620e-03   7.8814034e-01   6.5540247e-01  -6.9806045e+06
   1.3151050e-09  -2.3515137e-03   7.8759532e-01   6.5589523e-01  -6.9259747e+06
   1.3177726e-09  -2.3331106e-03   7.8705486e-01   6.5638444e-01  -6.8717727e+06
   1.3204401e-09  -2.3148515e-03   7.8651891e-01   6.5687012e-01  -6.8179953e+06
   1.3231077e-09  -2.2967353e-03   7.8598744e-01   6.5735228e-01  -6.7646390e+06
   1.3257753e-09  -2.2787608e-03   7.8546040e-01   6.5783095e-01  -6.7117006e+06
   1.3284428e-09  -2.2609270e-03   7.8493776e-01   6.5830616e-01  -6.6591767e+06
   1.3311104e-09  -2.2432328e-03   7.8441948e-01   6.5877792e-01  -6.6070642e+06
   1.3337779e-09  -2.2256771e-03   7.8390551e-01   6.5924626e-01  -6.5553597e+06
   1.3364455e-09  -2.2082587e-03   7.8339583e-01   6.5971121e-01  -6.5040601e+06
   1.3391130e-09  -2.1909767e-03   7.8289040e-01   6.6017278e-01  -6.4531622e+06
   1.3417806e-09  -2.1738299e-03   7.8238916e-01   6.6063099e-01  -6.4026628e+06
   1.3444481e-09  -2.1568172e-03   7.8189210e-01   6.6108588e-01  -6.3525588e+06
   1.3471157e-09  -2.1399378e-03   7.8139917e-01   6.6153746e-01  -6.3028471e+06
   1.3497833e-09  -2.1231903e-03   7.8091034e-01   6.6198575e-01  -6.2535247e+06
   1.3524508e-09  -2.1065740e-03   7.8042557e-01   6.6243077e-01  -6.2045884e+06
   1.3551184e-09  -2.0900877e-03   7.7994483e-01   6.6287256e-01  -6.1560352e+06
   1.3577859e-09  -2.0737304e-03   7.7946807e-01   6.6331112e-01  -6.1078621e+06
   1.3604535e-09  -2.0575011e-03   7.7899528e-01   6.6374649e-01  -6.0600662e+06
   1.3631210e-09  -2.0413988e-03   7.7852640e-01   6.6417867e-01  -6.0126444e+06
   1.3657886e-09  -2.0254225e-03   7.7806141e-01   6.6460770e-01  -5.9655939e+06
   1.3684562e-09  -2.0095712e-03   7.7760027e-01   6.6503360e-01  -5.9189117e+06
   1.3711237e-09  -1.9938439e-03   7.7714295e-01   6.6545638e-01  -5.8725949e+06
   1.3737913e-09  -1.9782398e-03   7.7668941e-01   6.6587607e-01  -5.8266407e+06
   1.3764588e-09  -1.9627577e-03   7.7623963e-01   6.6629269e-01  -5.7810462e+06
   1.3791264e-09  -1.9473968e-03   7.7579358e-01   6.6670626e-01  -5.7358086e+06
   1.3817939e-09  -1.9321560e-03   7.7535120e-01   6.6711679e-01  -5.6909251e+06
   1.3844615e-09  -1.9170346e-03   7.7491249e-01   6.6752432e-01  -5.6463929e+06
   1.3871290e-09  -1.9020315e-03   7.7447740e-01   6.6792885e-01  -5.6022093e+06
   1.3897966e-09  -1.8871457e-03   7.7404590e-01   6.6833042e-01  -5.5583715e+06
   1.3924642e-09  -1.8723765e-03   7.7361797e-01   6.6872904e-01  -5.5148769e+06
   1.3951317e-09  -1.8577228e-03   7.7319356e-01   6.6912473e-01  -5.4717226e+06
   1.3977993e-09  -1.8431838e-03   7.7277266e-01   6.6951752e-01  -5.4289061e+06
   1.4004668e-09  -1.8287585e-03   7.7235523e-01   6.6990741e-01  -5.3864248e+06
   1.4031344e-09  -1.8144462e-03   7.7194123e-01   6.7029443e-01  -5.3442759e+06
   1.4058019e-09  -1.8002458e-03   7.7153065e-01   6.7067861e-01  -5.3024568e+06
   1.4084695e-09  -1.7861566e-03   7.7112345e-01   6.7105995e-01  -5.2609651e+06
   1.4111370e-09  -1.7721776e-03   7.7071960e-01   6.7143849e-01  -5.2197981e+06
   1.4138046e-09  -1.7583079e-03   7.7031908e-01   6.7181423e-01  -5.1789532e+06
   1.4164722e-09  -1.7445469e-03   7.6992185e-01   6.7218721e-01  -5.1384280e+06
   1.4191397e-09  -1.7308934e-03   7.6952789e-01   6.7255743e-01  -5.0982200e+06
   1.4218073e-09  -1.7173469e-03   7.6913716e-01   6.7292491e-01  -5.0583266e+06
   1.4244748e-09  -1.7039063e-03   7.6874965e-01   6.7328969e-01  -5.0187454e+06
   1.4271424e-09  -1.6905709e-03   7.6836532e-01   6.7365176e-01  -4.9794739e+06
   1.4298099e-09  -1.6773399e-03   7.6798414e-01   6.7401116e-01  -4.9405097e+06
   1.4324775e-09  -1.6642123e-03   7.6760609e-01   6.7436790e-01  -4.9018505e+06
   1.4351450e-09  -1.6511875e-03   7.6723115e-01   6.7472200e-01  -4.8634938e+06
   1.4378126e-09  -1.6382647e-03   7.6685928e-01   6.7507348e-01  -4.8254372e+06
   1.4404802e-09  -1.6254429e-03   7.6649046e-01   6.7542236e-01  -4.7876785e+06
   1.4431477e-09  -1.6127215e-03   7.6612466e-01   6.7576865e-01  -4.7502152e+06
   1.4458153e-09  -1.6000996e-03   7.6576186e-01   6.7611237e-01  -4.7130450e+06
   1.4484828e-09  -1.5875765e-03   7.6540204e-01   6.7645354e-01  -4.6761657e+06
   1.4511504e-09  -1.5751514e-03   7.6504515e-01   6.7679218e-01  -4.6395750e+06
   1.4538179e-09  -1.5628235e-03   7.6469119e-01   6.7712831e-01  -4.6032706e+06
   1.4564855e-09  -1.5505920e-03   7.6434013e-01   6.7746194e-01  -4.5672502e+06
   1.4591531e-09  -1.5384563e-03   7.6399194e-01   6.7779309e-01  -4.5315117e+06
   1.4618206e-09  -1.5264156e-03   7.6364659e-01   6.7812178e-01  -4.4960529e+06
   1.4644882e-09  -1.5144690e-03   7.6330407e-01   6.7844803e-01  -4.4608715e+06
   1.4671557e-09  -1.5026160e-03   7.6296435e-01   6.7877185e-01  -4.4259653e+06
   1.4698233e-09  -1.4908557e-03   7.6262740e-01   6.7909325e-01  -4.3913323e+06
   1.4724908e-09  -1.4791874e-03   7.6229320e-01   6.7941227e-01  -4.3569703e+06
   1.4751584e-09  -1.4676104e-03   7.6196174e-01   6.7972891e-01  -4.3228771e+06
   1.4778259e-09  -1.4561240e-03   7.6163297e-01   6.8004319e-01  -4.2890507e+06
   1.4804935e-09  -1.4447275e-03   7.6130689e-01   6.8035512e-01  -4.2554890e+06
   1.4831611e-09  -1.4334201e-03   7.6098347e-01   6.8066474e-01  -4.2221898e+06
   1.4858286e-09  -1.4222013e-03   7.6066269e-01   6.8097204e-01  -4.1891512e+06
   1.4884962e-09  -1.4110702e-03   7.6034452e-01   6.8127704e-01  -4.1563711e+06
   1.4911637e-09  -1.4000263e-03   7.6002894e-01   6.8157977e-01  -4.1238475e+06
   1.4938313e-09  -1.3890687e-03   7.5971594e-01   6.8188024e-01  -4.0915783e+06
   1.4964988e-09  -1.3781969e-03   7.5940548e-01   6.8217846e-01  -4.0595616e+06
   1.4991664e-09  -1.3674102e-03   7.5909755e-01   6.8247446e-01  -4.0277954e+06
   1.5018339e-09  -1.3567079e-03   7.5879213e-01   6.8276824e-01  -3.9962777e+06
   1.5045015e-09  -1.3460893e-03   7.5848919e-01   6.8305982e-01  -3.9650066e+06
   1.5071691e-09  -1.3355538e-03   7.5818872e-01   6.8334922e-01  -3.9339802e+06
   1.5098366e-09  -1.3251007e-03   7.5789069e-01   6.8363646e-01  -3.9031965e+06
   1.5125042e-09  -1.3147295e-03   7.5759508e-01   6.8392154e-01  -3.8726537e+06
   1.5151717e-09  -1.3044394e-03   7.5730187e-01   6.8420449e-01  -3.8423498e+06
   1.5178393e-09  -1.2942298e-03   7.5701105e-01   6.8448532e-01  -3.8122830e+06
   1.5205068e-09  -1.2841001e-03   7.5672259e-01   6.8476404e-01  -3.7824514e+06
   1.5231744e-09  -1.2740497e-03   7.5643647e-01   6.8504068e-01  -3.7528533e+06
   1.5258419e-09  -1.2640779e-03   7.5615268e-01   6.8531523e-01  -3.7234867e+06
   1.5285095e-09  -1.2541842e-03   7.5587118e-01   6.8558773e-01  -3.6943499e+06
   1.5311771e-09  -1.2443679e-03   7.5559197e-01   6.8585818e-01  -3.6654410e+06
   1.5338446e-09  -1.2346284e-03   7.5531503e-01   6.8612660e-01  -3.6367583e+06
   1.5365122e-09  -1.2249651e-03   7.5504033e-01   6.8639301e-01  -3.6082999e+06
   1.5391797e-09  -1.2153774e-03   7.5476786e-01   6.8665741e-01  -3.5800643e+06
   1.5418473e-09  -1.2058648e-03   7.5449760e-01   6.8691982e-01  -3.5520495e+06
   1.5445148e-09  -1.1964266e-03   7.5422952e-01   6.8718026e-01  -3.5242539e+06
   1.5471824e-09  -1.1870622e-03   7.5396362e-01   6.8743875e-01  -3.4966758e+06
   1.5498499e-09  -1.1777711e-03   7.5369987e-01   6.8769528e-01  -3.4693134e+06
   1.5525175e-09  -1.1685528e-03   7.5343826e-01   6.8794989e-01  -3.4421651e+06
   1.5551851e-09  -1.1594065e-03   7.5317877e-01   6.8820258e-01  -3.4152292e+06
   1.5578526e-09  -1.1503319e-03   7.5292137e-01   6.8845337e-01  -3.3885041e+06
   1.5605202e-09  -1.1413282e-03   7.5266606e-01   6.8870226e-01  -3.3619880e+06
   1.5631877e-09  -1.1323950e-03   7.5241281e-01   6.8894929e-01  -3.3356793e+06
   1.5658553e-09  -1.1235317e-03   7.5216161e-01   6.8919445e-01  -3.3095765e+06
   1.5685228e-09  -1.1147378e-03   7.5191244e-01   6.8943776e-01  -3.2836779e+06
   1.5711904e-09  -1.1060127e-03   7.5166528e-01   6.8967923e-01  -3.2579819e+06
   1.5738580e-09  -1.0973558e-03   7.5142012e-01   6.8991889e-01  -3.2324870e+06
   1.5765255e-09  -1.0887667e-03   7.5117694e-01   6.9015673e-01  -3.2071915e+06
   1.5791931e-09  -1.0802449e-03   7.5093573e-01   6.9039278e-01  -3.1820939e+06
   1.5818606e-09  -1.0717897e-03   7.5069646e-01   6.9062705e-01  -3.1571926e+06
   1.5845282e-09  -1.0634006e-03   7.5045913e-01   6.9085954e-01  -3.1324862e+06
   1.5871957e-09  -1.0550773e-03   7.5022371e-01   6.9109028e-01  -3.1079730e+06
   1.5898633e-09  -1.0468190e-03   7.4999019e-01   6.9131928e-01  -3.0836516e+06
   1.5925308e-09  -1.0386254e-03   7.4975855e-01   6.9154654e-01  -3.0595206e+06
   1.5951984e-09  -1.0304959e-03   7.4952878e-01   6.9177209e-01  -3.0355782e+06
   1.5978660e-09  -1.0224300e-03   7.4930087e-01   6.9199593e-01  -3.0118232e+06
   1.6005335e-09  -1.0144272e-03   7.4907479e-01   6.9221808e-01  -2.9882541e+06
   1.6032011e-09  -1.0064871e-03   7.4885053e-01   6.9243854e-01  -2.9648693e+06
   1.6058686e-09  -9.9860910e-04   7.4862808e-01   6.9265734e-01  -2.9416675e+06
   1.6085362e-09  -9.9079275e-04   7.4840742e-01   6.9287448e-01  -2.9186472e+06
   1.6112037e-09  -9.8303757e-04   7.4818854e-01   6.9308997e-01  -2.8958071e+06
   1.6138713e-09  -9.7534307e-04   7.4797142e-01   6.9330383e-01  -2.8731456e+06
   1.6165388e-09  -9.6770879e-04   7.4775605e-01   6.9351607e-01  -2.8506614e+06
   1.6192064e-09  -9.6013425e-04   7.4754242e-01   6.9372670e-01  -2.8283530e+06
   1.6218740e-09  -9.5261899e-04   7.4733050e-01   6.9393574e-01  -2.8062193e+06
   1.6245415e-09  -9.4516254e-04   7.4712029e-01   6.9414319e-01  -2.7842587e+06
   1.6272091e-09  -9.3776444e-04   7.4691177e-01   6.9434906e-01  -2.7624699e+06
   1.6298766e-09  -9.3042424e-04   7.4670492e-01   6.9455337e-01  -2.7408515e+06
   1.6325442e-09  -9.2314148e-04   7.4649974e-01   6.9475614e-01  -2.7194023e+06
   1.6352117e-09  -9.1591572e-04   7.4629621e-01   6.9495736e-01  -2.6981209e+06
   1.6378793e-09  -9.0874650e-04   7.4609431e-01   6.9515705e-01  -2.6770060e+06
   1.6405468e-09  -9.0163338e-04   7.4589404e-01   6.9535523e-01  -2.6560563e+06
   1.6432144e-09  -8.9457593e-04   7.4569537e-01   6.9555190e-01  -2.6352705e+06
   1.6458820e-09  -8.8757372e-04   7.4549831e-01   6.9574708e-01  -2.6146473e+06
   1.6485495e-09  -8.8062630e-04   7.4530282e-01   6.9594077e-01  -2.5941855e+06
   1.6512171e-09  -8.7373324e-04   7.4510890e-01   6.9613299e-01  -2.5738838e+06
   1.6538846e-09  -8.6689414e-04   7.4491654e-01   6.9632375e-01  -2.5537408e+06
   1.6565522e-09  -8.6010855e-04   7.4472573e-01   6.9651306e-01  -2.5337555e+06
   1.6592197e-09  -8.5337607e-04   7.4453644e-01   6.9670093e-01  -2.5139265e+06
   1.6618873e-09  -8.4669628e-04   7.4434868e-01   6.9688737e-01  -2.4942527e+06
   1.6645549e-09  -8.4006876e-04   7.4416242e-01   6.9707238e-01  -2.4747328e+06
   1.6672224e-09  -8.3349311e-04   7.4397765e-01   6.9725599e-01  -2.4553656e+06
   1.6698900e-09  -8.2696892e-04   7.4379436e-01   6.9743821e-01  -2.4361499e+06
   1.6725575e-09  -8.2049579e-04   7.4361255e-01   6.9761903e-01  -2.4170846e+06
   1.6752251e-09  -8.1407332e-04   7.4343219e-01   6.9779847e-01  -2.3981685e+06
   1.6778926e-09  -8.0770111e-04   7.4325328e-01   6.9797655e-01  -2.3794003e+06
   1.6805602e-09  -8.0137877e-04   7.4307580e-01   6.9815327e-01  -2.3607789e+06
   1.6832277e-09  -7.9510591e-04   7.4289974e-01   6.9832865e-01  -2.3423033e+06
   1.6858953e-09  -7.8888214e-04   7.4272510e-01   6.9850269e-01  -2.3239722e+06
   1.6885629e-09  -7.8270708e-04   7.4255185e-01   6.9867539e-01  -2.3057845e+06
   1.6912304e-09  -7.7658035e-04   7.4237999e-01   6.9884679e-01  -2.2877392e+06
   1.6938980e-09  -7.7050156e-04   7.4220950e-01   6.9901687e-01  -2.2698350e+06
   1.6965655e-09  -7.6447035e-04   7.4204038e-01   6.9918566e-01  -2.2520709e+06
   1.6992331e-09  -7.5848634e-04   7.4187262e-01   6.9935315e-01  -2.2344458e+06
   1.7019006e-09  -7.5254916e-04   7.4170619e-01   6.9951937e-01  -2.2169585e+06
   1.7045682e-09  -7.4665845e-04   7.4154110e-01   6.9968432e-01  -2.1996081e+06
   1.7072357e-09  -7.4081384e-04   7.4137733e-01   6.9984801e-01  -2.1823935e+06
   1.7099033e-09  -7.3501497e-04   7.4121486e-01   7.0001045e-01  -2.1653135e+06
   1.7125709e-09  -7.2926148e-04   7.4105370e-01   7.0017165e-01  -2.1483672e+06
   1.7152384e-09  -7.2355302e-04   7.4089382e-01   7.0033162e-01  -2.1315534e+06
   1.7179060e-09  -7.1788924e-04   7.4073523e-01   7.0049036e-01  -2.1148712e+06
   1.7205735e-09  -7.1226979e-04   7.4057790e-01   7.0064789e-01  -2.0983196e+06
   1.7232411e-09  -7.0669431e-04   7.4042183e-01   7.0080421e-01  -2.0818974e+06
   1.7259086e-09  -7.0116247e-04   7.4026700e-01   7.0095934e-01  -2.0656037e+06
   1.7285762e-09  -6.9567393e-04   7.4011341e-01   7.0111329e-01  -2.0494375e+06
   1.7312437e-09  -6.9022834e-04   7.3996105e-01   7.0126605e-01  -2.0333978e+06
   1.7339113e-09  -6.8482537e-04   7.3980991e-01   7.0141765e-01  -2.0174836e+06
   1.7365789e-09  -6.7946468e-04   7.3965997e-01   7.0156809e-01  -2.0016939e+06
   1.7392464e-09  -6.7414595e-04   7.3951123e-01   7.0171737e-01  -1.9860277e+06
   1.7419140e-09  -6.6886885e-04   7.3936368e-01   7.0186551e-01  -1.9704842e+06
   1.7445815e-09  -6.6363305e-04   7.3921730e-01   7.0201252e-01  -1.9550622e+06
   1.7472491e-09  -6.5843823e-04   7.3907209e-01   7.0215840e-01  -1.9397609e+06
   1.7499166e-09  -6.5328406e-04   7.3892804e-01   7.0230316e-01  -1.9245793e+06
   1.7525842e-09  -6.4817024e-04   7.3878514e-01   7.0244682e-01  -1.9095166e+06
   1.7552518e-09  -6.4309643e-04   7.3864338e-01   7.0258937e-01  -1.8945716e+06
   1.7579193e-09  -6.3806234e-04   7.3850275e-01   7.0273083e-01  -1.8797436e+06
   1.7605869e-09  -6.3306765e-04   7.3836325e-01   7.0287121e-01  -1.8650317e+06
   1.7632544e-09  -6.2811205e-04   7.3822485e-01   7.0301051e-01  -1.8504348e+06
   1.7659220e-09  -6.2319523e-04   7.3808756e-01   7.0314874e-01  -1.8359522e+06
   1.7685895e-09  -6.1831690e-04   7.3795136e-01   7.0328591e-01  -1.8215828e+06
   1.7712571e-09  -6.1347674e-04   7.3781625e-01   7.0342203e-01  -1.8073259e+06
   1.7739246e-09  -6.0867447e-04   7.3768221e-01   7.0355711e-01  -1.7931806e+06
   1.7765922e-09  -6.0390979e-04   7.3754925e-01   7.0369114e-01  -1.7791459e+06
   1.7792598e-09  -5.9918240e-04   7.3741734e-01   7.0382416e-01  -1.7652211e+06
   1.7819273e-09  -5.9449200e-04   7.3728648e-01   7.0395614e-01  -1.7514052e+06
   1.7845949e-09  -5.8983832e-04   7.3715667e-01   7.0408712e-01  -1.7376974e+06
   1.7872624e-09  -5.8522106e-04   7.3702788e-01   7.0421709e-01  -1.7240969e+06
   1.7899300e-09  -5.8063994e-04   7.3690013e-01   7.0434606e-01  -1.7106028e+06
   1.7925975e-09  -5.7609468e-04   7.3677339e-01   7.0447404e-01  -1.6972143e+06
   1.7952651e-09  -5.7158499e-04   7.3664766e-01   7.0460104e-01  -1.6839305e+06
   1.7979326e-09  -5.6711059e-04   7.3652293e-01   7.0472707e-01  -1.6707507e+06
   1.8006002e-09  -5.6267122e-04   7.3639919e-01   7.0485212e-01  -1.6576740e+06
   1.8032678e-09  -5.5826659e-04   7.3627644e-01   7.0497621e-01  -1.6446996e+06
   1.8059353e-09  -5.5389644e-04   7.3615467e-01   7.0509935e-01  -1.6318268e+06
   1.8086029e-09  -5.4956049e-04   7.3603386e-01   7.0522155e-01  -1.6190547e+06
   1.8112704e-09  -5.4525848e-04   7.3591401e-01   7.0534280e-01  -1.6063825e+06
   1.8139380e-09  -5.4099014e-04   7.3579512e-01   7.0546312e-01  -1.5938095e+06
   1.8166055e-09  -5.3675521e-04   7.3567717e-01   7.0558252e-01  -1.5813349e+06
   1.8192731e-09  -5.3255342e-04   7.3556016e-01   7.0570099e-01  -1.5689578e+06
   1.8219406e-09  -5.2838452e-04   7.3544409e-01   7.0581856e-01  -1.5566777e+06
   1.8246082e-09  -5.2424826e-04   7.3532893e-01   7.0593522e-01  -1.5444936e+06
   1.8272758e-09  -5.2014436e-04   7.3521469e-01   7.0605098e-01  -1.5324048e+06
   1.8299433e-09  -5.1607259e-04   7.3510136e-01   7.0616586e-01  -1.5204107e+06
   1.8326109e-09  -5.1203269e-04   7.3498892e-01   7.0627985e-01  -1.5085104e+06
   1.8352784e-09  -5.0802441e-04   7.3487738e-01   7.0639296e-01  -1.4967032e+06
   1.8379460e-09  -5.0404750e-04   7.3476673e-01   7.0650520e-01  -1.4849885e+06
   1.8406135e-09  -5.0010172e-04   7.3465696e-01   7.0661657e-01  -1.4733654e+06
   1.8432811e-09  -4.9618682e-04   7.3454806e-01   7.0672709e-01  -1.4618332e+06
   1.8459486e-09  -4.9230256e-04   7.3444002e-01   7.0683676e-01  -1.4503913e+06
   1.8486162e-09  -4.8844871e-04   7.3433284e-01   7.0694558e-01  -1.4390389e+06
   1.8512838e-09  -4.8462502e-04   7.3422651e-01   7.0705356e-01  -1.4277754e+06
   1.8539513e-09  -4.8083126e-04   7.3412103e-01   7.0716072e-01  -1.4166000e+06
   1.8566189e-09  -4.7706720e-04   7.3401638e-01   7.0726704e-01  -1.4055120e+06
   1.8592864e-09  -4.7333259e-04   7.3391257e-01   7.0737255e-01  -1.3945108e+06
   1.8619540e-09  -4.6962722e-04   7.3380958e-01   7.0747724e-01  -1.3835957e+06
   1.8646215e-09  -4.6595085e-04   7.3370740e-01   7.0758113e-01  -1.3727660e+06
   1.8672891e-09  -4.6230326e-04   7.3360604e-01   7.0768421e-01  -1.3620211e+06
   1.8699567e-09  -4.5868422e-04   7.3350548e-01   7.0778650e-01  -1.3513602e+06
   1.8726242e-09  -4.5509350e-04   7.3340572e-01   7.0788801e-01  -1.3407828e+06
   1.8752918e-09  -4.5153089e-04   7.3330675e-01   7.0798872e-01  -1.3302882e+06
   1.8779593e-09  -4.4799617e-04   7.3320857e-01   7.0808867e-01  -1.3198756e+06
   1.8806269e-09  -4.4448911e-04   7.3311116e-01   7.0818784e-01  -1.3095446e+06
   1.8832944e-09  -4.4100950e-04   7.3301453e-01   7.0828624e-01  -1.2992944e+06
   1.8859620e-09  -4.3755713e-04   7.3291866e-01   7.0838389e-01  -1.2891244e+06
   1.8886295e-09  -4.3413179e-04   7.3282355e-01   7.0848078e-01  -1.2790340e+06
   1.8912971e-09  -4.3073325e-04   7.3272920e-01   7.0857693e-01  -1.2690225e+06
   1.8939647e-09  -4.2736131e-04   7.3263559e-01   7.0867233e-01  -1.2590894e+06
   1.8966322e-09  -4.2401577e-04   7.3254273e-01   7.0876700e-01  -1.2492341e+06
   1.8992998e-09  -4.2069642e-04   7.3245060e-01   7.0886093e-01  -1.2394558e+06
   1.9019673e-09  -4.1740305e-04   7.3235921e-01   7.0895414e-01  -1.2297541e+06
   1.9046349e-09  -4.1413545e-04   7.3226853e-01   7.0904663e-01  -1.2201283e+06
   1.9073024e-09  -4.1089344e-04   7.3217858e-01   7.0913841e-01  -1.2105778e+06
   1.9099700e-09  -4.0767680e-04   7.3208934e-01   7.0922947e-01  -1.2011021e+06
   1.9126375e-09  -4.0448533e-04   7.3200080e-01   7.0931984e-01  -1.1917005e+06
   1.9153051e-09  -4.0131885e-04   7.3191297e-01   7.0940950e-01  -1.1823725e+06
   1.9179727e-09  -3.9817716e-04   7.3182583e-01   7.0949848e-01  -1.1731175e+06
   1.9206402e-09  -3.9506005e-04   7.3173939e-01   7.0958676e-01  -1.1639350e+06
   1.9233078e-09  -3.9196735e-04   7.3165362e-01   7.0967436e-01  -1.1548243e+06
   1.9259753e-09  -3.8889885e-04   7.3156854e-01   7.0976129e-01  -1.1457849e+06
   1.9286429e-09  -3.8585437e-04   7.3148413e-01   7.0984754e-01  -1.1368162e+06
   1.9313104e-09  -3.8283373e-04   7.3140039e-01   7.0993313e-01  -1.1279177e+06
   1.9339780e-09  -3.7983672e-04   7.3131731e-01   7.1001806e-01  -1.1190889e+06
   1.9366455e-09  -3.7686318e-04   7.3123489e-01   7.1010232e-01  -1.1103291e+06
   1.9393131e-09  -3.7391291e-04   7.3115312e-01   7.1018594e-01  -1.1016379e+06
   1.9419807e-09  -3.7098574e-04   7.3107200e-01   7.1026891e-01  -1.0930147e+06
   1.9446482e-09  -3.6808148e-04   7.3099152e-01   7.1035124e-01  -1.0844590e+06
   1.9473158e-09  -3.6519995e-04   7.3091168e-01   7.1043293e-01  -1.0759703e+06
   1.9499833e-09  -3.6234098e-04   7.3083247e-01   7.1051399e-01  -1.0675480e+06
   1.9526509e-09  -3.5950438e-04   7.3075388e-01   7.1059443e-01  -1.0591916e+06
   1.9553184e-09  -3.5669000e-04   7.3067592e-01   7.1067424e-01  -1.0509006e+06
   1.9579860e-09  -3.5389764e-04   7.3059857e-01   7.1075343e-01  -1.0426745e+06
   1.9606536e-09  -3.5112713e-04   7.3052184e-01   7.1083201e-01  -1.0345128e+06
   1.9633211e-09  -3.4837832e-04   7.3044571e-01   7.1090998e-01  -1.0264149e+06
   1.9659887e-09  -3.4565102e-04   7.3037019e-01   7.1098735e-01  -1.0183804e+06
   1.9686562e-09  -3.4294507e-04   7.3029526e-01   7.1106412e-01  -1.0104088e+06
   1.9713238e-09  -3.4026030e-04   7.3022093e-01   7.1114029e-01  -1.0024996e+06
   1.9739913e-09  -3.3759655e-04   7.3014718e-01   7.1121588e-01  -9.9465232e+05
   1.9766589e-09  -3.3495365e-04   7.3007401e-01   7.1129088e-01  -9.8686642e+05
   1.9793264e-09  -3.3233144e-04   7.3000143e-01   7.1136530e-01  -9.7914146e+05
   1.9819940e-09  -3.2972975e-04   7.2992942e-01   7.1143914e-01  -9.7147695e+05
   1.9846616e-09  -3.2714843e-04   7.2985797e-01   7.1151241e-01  -9.6387243e+05
   1.9873291e-09  -3.2458731e-04   7.2978710e-01   7.1158512e-01  -9.5632743e+05
   1.9899967e-09  -3.2204625e-04   7.2971678e-01   7.1165726e-01  -9.4884147e+05
   1.9926642e-09  -3.1952507e-04   7.2964701e-01   7.1172884e-01  -9.4141411e+05
   1.9953318e-09  -3.1702363e-04   7.2957780e-01   7.1179986e-01  -9.3404487e+05
   1.9979993e-09  -3.1454177e-04   7.2950914e-01   7.1187034e-01  -9.2673331e+05
   2.0006669e-09  -3.1207934e-04   7.2944102e-01   7.1194027e-01  -9.1947897e+05
   2.0033344e-09  -3.0963618e-04   7.2937343e-01   7.1200966e-01  -9.1228141e+05
   2.0060020e-09  -3.0721215e-04   7.2930638e-01   7.1207851e-01  -9.0514018e+05
   2.0086696e-09  -3.0480709e-04   7.2923987e-01   7.1214683e-01  -8.9805483e+05
   2.0113371e-09  -3.0242086e-04   7.2917387e-01   7.1221462e-01  -8.9102495e+05
   2.0140047e-09  -3.0005331e-04   7.2910840e-01   7.1228188e-01  -8.8405008e+05
   2.0166722e-09  -2.9770429e-04   7.2904344e-01   7.1234862e-01  -8.7712980e+05
   2.0193398e-09  -2.9537366e-04   7.2897900e-01   7.1241484e-01  -8.7026369e+05
   2.0220073e-09  -2.9306128e-04   7.2891506e-01   7.1248055e-01  -8.6345131e+05
   2.0246749e-09  -2.9076699e-04   7.2885163e-01   7.1254575e-01  -8.5669225e+05
   2.0273424e-09  -2.8849067e-04   7.2878871e-01   7.1261045e-01  -8.4998609e+05
   2.0300100e-09  -2.8623216e-04   7.2872627e-01   7.1267464e-01  -8.4333241e+05
   2.0326776e-09  -2.8399133e-04   7.2866434e-01   7.1273833e-01  -8.3673082e+05
   2.0353451e-09  -2.8176805e-04   7.2860289e-01   7.1280153e-01  -8.3018089e+05
   2.0380127e-09  -2.7956217e-04   7.2854192e-01   7.1286425e-01  -8.2368223e+05
   2.0406802e-09  -2.7737355e-04   7.2848144e-01   7.1292647e-01  -8.1723442e+05
   2.0433478e-09  -2.7520207e-04   7.2842143e-01   7.1298821e-01  -8.1083709e+05
   2.0460153e-09  -2.7304759e-04   7.2836190e-01   7.1304947e-01  -8.0448982e+05
   2.0486829e-09  -2.7090997e-04   7.2830284e-01   7.1311026e-01  -7.9819224e+05
   2.0513505e-09  -2.6878909e-04   7.2824424e-01   7.1317058e-01  -7.9194394e+05
   2.0540180e-09  -2.6668480e-04   7.2818610e-01   7.1323042e-01  -7.8574455e+05
   2.0566856e-09  -2.6459700e-04   7.2812843e-01   7.1328981e-01  -7.7959368e+05
   2.0593531e-09  -2.6252553e-04   7.2807121e-01   7.1334873e-01  -7.7349095e+05
   2.0620207e-09  -2.6047028e-04   7.2801444e-01   7.1340719e-01  -7.6743599e+05
   2.0646882e-09  -2.5843112e-04   7.2795812e-01   7.1346520e-01  -7.6142841e+05
   2.0673558e-09  -2.5640792e-04   7.2790224e-01   7.1352276e-01  -7.5546786e+05
   2.0700233e-09  -2.5440056e-04   7.2784680e-01   7.1357988e-01  -7.4955396e+05
   2.0726909e-09  -2.5240891e-04   7.2779180e-01   7.1363655e-01  -7.4368635e+05
   2.0753585e-09  -2.5043286e-04   7.2773724e-01   7.1369278e-01  -7.3786467e+05
   2.0780260e-09  -2.4847227e-04   7.2768310e-01   7.1374857e-01  -7.3208855e+05
   2.0806936e-09  -2.4652703e-04   7.2762940e-01   7.1380393e-01  -7.2635764e+05
   2.0833611e-09  -2.4459702e-04   7.2757611e-01   7.1385886e-01  -7.2067158e+05
   2.0860287e-09  -2.4268212e-04   7.2752325e-01   7.1391336e-01  -7.1503003e+05
   2.0886962e-09  -2.4078221e-04   7.2747080e-01   7.1396744e-01  -7.0943264e+05
   2.0913638e-09  -2.3889717e-04   7.2741876e-01   7.1402110e-01  -7.0387906e+05
   2.0940313e-09  -2.3702688e-04   7.2736714e-01   7.1407434e-01  -6.9836894e+05
   2.0966989e-09  -2.3517124e-04   7.2731592e-01   7.1412717e-01  -6.9290196e+05
   2.0993665e-09  -2.3333012e-04   7.2726511e-01   7.1417959e-01  -6.8747776e+05
   2.1020340e-09  -2.3150342e-04   7.2721470e-01   7.1423161e-01  -6.8209603e+05
   2.1047016e-09  -2.2969102e-04   7.2716468e-01   7.1428321e-01  -6.7675641e+05
   2.1073691e-09  -2.2789280e-04   7.2711506e-01   7.1433442e-01  -6.7145859e+05
   2.1100367e-09  -2.2610867e-04   7.2706583e-01   7.1438523e-01  -6.6620223e+05
   2.1127042e-09  -2.2433849e-04   7.2701699e-01   7.1443564e-01  -6.6098702e+05
   2.1153718e-09  -2.2258218e-04   7.2696853e-01   7.1448566e-01  -6.5581263e+05
   2.1180393e-09  -2.2083961e-04   7.2692046e-01   7.1453530e-01  -6.5067874e+05
   2.1207069e-09  -2.1911069e-04   7.2687276e-01   7.1458454e-01  -6.4558503e+05
   2.1233745e-09  -2.1739530e-04   7.2682544e-01   7.1463341e-01  -6.4053120e+05
   2.1260420e-09  -2.1569334e-04   7.2677849e-01   7.1468189e-01  -6.3551692e+05
   2.1287096e-09  -2.1400470e-04   7.2673191e-01   7.1473000e-01  -6.3054189e+05
   2.1313771e-09  -2.1232929e-04   7.2668570e-01   7.1477774e-01  -6.2560580e+05
   2.1340447e-09  -2.1066698e-04   7.2663986e-01   7.1482510e-01  -6.2070834e+05
   2.1367122e-09  -2.0901769e-04   7.2659437e-01   7.1487209e-01  -6.1584922e+05
   2.1393798e-09  -2.0738132e-04   7.2654924e-01   7.1491872e-01  -6.1102814e+05
   2.1420473e-09  -2.0575775e-04   7.2650447e-01   7.1496499e-01  -6.0624479e+05
   2.1447149e-09  -2.0414689e-04   7.2646005e-01   7.1501089e-01  -6.0149888e+05
   2.1473825e-09  -2.0254864e-04   7.2641598e-01   7.1505644e-01  -5.9679012e+05
   2.1500500e-09  -2.0096291e-04   7.2637226e-01   7.1510164e-01  -5.9211822e+05
   2.1527176e-09  -1.9938959e-04   7.2632888e-01   7.1514648e-01  -5.8748288e+05
   2.1553851e-09  -1.9782858e-04   7.2628585e-01   7.1519098e-01  -5.8288383e+05
   2.1580527e-09  -1.9627979e-04   7.2624315e-01   7.1523513e-01  -5.7832078e+05
   2.1607202e-09  -1.9474313e-04   7.2620079e-01   7.1527893e-01  -5.7379344e+05
   2.1633878e-09  -1.9321850e-04   7.2615876e-01   7.1532240e-01  -5.6930154e+05
   2.1660554e-09  -1.9170581e-04   7.2611706e-01   7.1536552e-01  -5.6484480e+05
   2.1687229e-09  -1.9020495e-04   7.2607569e-01   7.1540831e-01  -5.6042295e+05
   2.1713905e-09  -1.8871585e-04   7.2603465e-01   7.1545077e-01  -5.5603571e+05
   2.1740580e-09  -1.8723840e-04   7.2599393e-01   7.1549290e-01  -5.5168281e+05
   2.1767256e-09  -1.8577252e-04   7.2595353e-01   7.1553470e-01  -5.4736398e+05
   2.1793931e-09  -1.8431812e-04   7.2591345e-01   7.1557617e-01  -5.4307896e+05
   2.1820607e-09  -1.8287510e-04   7.2587368e-01   7.1561732e-01  -5.3882748e+05
   2.1847282e-09  -1.8144338e-04   7.2583423e-01   7.1565816e-01  -5.3460928e+05
   2.1873958e-09  -1.8002286e-04   7.2579509e-01   7.1569867e-01  -5.3042410e+05
   2.1900634e-09  -1.7861347e-04   7.2575625e-01   7.1573887e-01  -5.2627167e+05
   2.1927309e-09  -1.7721511e-04   7.2571773e-01   7.1577875e-01  -5.2215175e+05
   2.1953985e-09  -1.7582770e-04   7.2567950e-01   7.1581833e-01  -5.1806408e+05
   2.1980660e-09  -1.7445114e-04   7.2564158e-01   7.1585760e-01  -5.1400841e+05
   2.2007336e-09  -1.7308537e-04   7.2560395e-01   7.1589656e-01  -5.0998448e+05
   2.2034011e-09  -1.7173028e-04   7.2556662e-01   7.1593521e-01  -5.0599205e+05
   2.2060687e-09  -1.7038581e-04   7.2552958e-01   7.1597357e-01  -5.0203088e+05
   2.2087362e-09  -1.6905186e-04   7.2549284e-01   7.1601163e-01  -4.9810070e+05
   2.2114038e-09  -1.6772835e-04   7.2545638e-01   7.1604939e-01  -4.9420130e+05
   2.2140714e-09  -1.6641521e-04   7.2542021e-01   7.1608686e-01  -4.9033241e+05
   2.2167389e-09  -1.6511234e-04   7.2538433e-01   7.1612404e-01  -4.8649382e+05
   2.2194065e-09  -1.6381968e-04   7.2534873e-01   7.1616092e-01  -4.8268526e+05
   2.2220740e-09  -1.6253713e-04   7.2531341e-01   7.1619752e-01  -4.7890653e+05
   2.2247416e-09  -1.6126462e-04   7.2527836e-01   7.1623384e-01  -4.7515737e+05
   2.2274091e-09  -1.6000208e-04   7.2524359e-01   7.1626987e-01  -4.7143755e+05
   2.2300767e-09  -1.5874942e-04   7.2520910e-01   7.1630562e-01  -4.6774686e+05
   2.2327442e-09  -1.5750657e-04   7.2517487e-01   7.1634109e-01  -4.6408505e+05
   2.2354118e-09  -1.5627344e-04   7.2514092e-01   7.1637629e-01  -4.6045191e+05
   2.2380794e-09  -1.5504997e-04   7.2510723e-01   7.1641121e-01  -4.5684721e+05
   2.2407469e-09  -1.5383608e-04   7.2507381e-01   7.1644586e-01  -4.5327073e+05
   2.2434145e-09  -1.5263169e-04   7.2504065e-01   7.1648024e-01  -4.4972224e+05
   2.2460820e-09  -1.5143673e-04   7.2500775e-01   7.1651435e-01  -4.4620153e+05
   2.2487496e-09  -1.5025113e-04   7.2497511e-01   7.1654820e-01  -4.4270838e+05
   2.2514171e-09  -1.4907480e-04   7.2494273e-01   7.1658178e-01  -4.3924257e+05
   2.2540847e-09  -1.4790769e-04   7.2491060e-01   7.1661510e-01  -4.3580390e+05
   2.2567523e-09  -1.4674971e-04   7.2487872e-01   7.1664816e-01  -4.3239214e+05
   2.2594198e-09  -1.4560080e-04   7.2484710e-01   7.1668097e-01  -4.2900708e+05
   2.2620874e-09  -1.4446088e-04   7.2481572e-01   7.1671352e-01  -4.2564853e+05
   2.2647549e-09  -1.4332989e-04   7.2478459e-01   7.1674581e-01  -4.2231627e+05
   2.2674225e-09  -1.4220775e-04   7.2475370e-01   7.1677785e-01  -4.1901009e+05
   2.2700900e-09  -1.4109440e-04   7.2472306e-01   7.1680965e-01  -4.1572979e+05
   2.2727576e-09  -1.3998976e-04   7.2469266e-01   7.1684119e-01  -4.1247517e+05
   2.2754251e-09  -1.3889377e-04   7.2466250e-01   7.1687249e-01  -4.0924602e+05
   2.2780927e-09  -1.3780636e-04   7.2463257e-01   7.1690355e-01  -4.0604216e+05
   2.2807603e-09  -1.3672746e-04   7.2460288e-01   7.1693436e-01  -4.0286337e+05
   2.2834278e-09  -1.3565701e-04   7.2457342e-01   7.1696493e-01  -3.9970947e+05
   2.2860954e-09  -1.3459494e-04   7.2454420e-01   7.1699527e-01  -3.9658026e+05
   2.2887629e-09  -1.3354118e-04   7.2451520e-01   7.1702537e-01  -3.9347554e+05
   2.2914305e-09  -1.3249568e-04   7.2448643e-01   7.1705523e-01  -3.9039512e+05
   2.2940980e-09  -1.3145836e-04   7.2445789e-01   7.1708486e-01  -3.8733882e+05
   2.2967656e-09  -1.3042916e-04   7.2442958e-01   7.1711426e-01  -3.8430645e+05
   2.2994331e-09  -1.2940801e-04   7.2440148e-01   7.1714344e-01  -3.8129781e+05
   2.3021007e-09  -1.2839487e-04   7.2437361e-01   7.1717238e-01  -3.7831273e+05
   2.3047683e-09  -1.2738965e-04   7.2434595e-01   7.1720110e-01  -3.7535101e+05
   2.3074358e-09  -1.2639230e-04   7.2431851e-01   7.1722959e-01  -3.7241247e+05
   2.3101034e-09  -1.2540276e-04   7.2429129e-01   7.1725786e-01  -3.6949694e+05
   2.3127709e-09  -1.2442097e-04   7.2426428e-01   7.1728591e-01  -3.6660424e+05
   2.3154385e-09  -1.2344686e-04   7.2423749e-01   7.1731375e-01  -3.6373417e+05
   2.3181060e-09  -1.2248038e-04   7.2421090e-01   7.1734136e-01  -3.6088658e+05
   2.3207736e-09  -1.2152147e-04   7.2418453e-01   7.1736876e-01  -3.5806127e+05
   2.3234411e-09  -1.2057006e-04   7.2415836e-01   7.1739595e-01  -3.5525809e+05
   2.3261087e-09  -1.1962611e-04   7.2413239e-01   7.1742292e-01  -3.5247684e+05
   2.3287763e-09  -1.1868954e-04   7.2410663e-01   7.1744969e-01  -3.4971737e+05
   2.3314438e-09  -1.1776030e-04   7.2408108e-01   7.1747624e-01  -3.4697950e+05
   2.3341114e-09  -1.1683834e-04   7.2405572e-01   7.1750259e-01  -3.4426306e+05
   2.3367789e-09  -1.1592360e-04   7.2403056e-01   7.1752874e-01  -3.4156789e+05
   2.3394465e-09  -1.1501602e-04   7.2400560e-01   7.1755467e-01  -3.3889382e+05
   2.3421140e-09  -1.1411554e-04   7.2398084e-01   7.1758041e-01  -3.3624068e+05
   2.3447816e-09  -1.1322211e-04   7.2395627e-01   7.1760595e-01  -3.3360831e+05
   2.3474491e-09  -1.1233568e-04   7.2393189e-01   7.1763128e-01  -3.3099654e+05
   2.3501167e-09  -1.1145619e-04   7.2390771e-01   7.1765642e-01  -3.2840522e+05
   2.3527843e-09  -1.1058358e-04   7.2388371e-01   7.1768137e-01  -3.2583419e+05
   2.3554518e-09  -1.0971780e-04   7.2385991e-01   7.1770611e-01  -3.2328328e+05
   2.3581194e-09  -1.0885881e-04   7.2383629e-01   7.1773067e-01  -3.2075234e+05
   2.3607869e-09  -1.0800653e-04   7.2381286e-01   7.1775503e-01  -3.1824122e+05
   2.3634545e-09  -1.0716093e-04   7.2378961e-01   7.1777921e-01  -3.1574975e+05
   2.3661220e-09  -1.0632195e-04   7.2376654e-01   7.1780319e-01  -3.1327779e+05
   2.3687896e-09  -1.0548954e-04   7.2374365e-01   7.1782699e-01  -3.1082518e+05
   2.3714572e-09  -1.0466365e-04   7.2372095e-01   7.1785060e-01  -3.0839177e+05
   2.3741247e-09  -1.0384422e-04   7.2369842e-01   7.1787403e-01  -3.0597741e+05
   2.3767923e-09  -1.0303120e-04   7.2367607e-01   7.1789727e-01  -3.0358194e+05
   2.3794598e-09  -1.0222455e-04   7.2365389e-01   7.1792034e-01  -3.0120524e+05
   2.3821274e-09  -1.0142422e-04   7.2363189e-01   7.1794322e-01  -2.9884713e+05
   2.3847949e-09  -1.0063015e-04   7.2361006e-01   7.1796593e-01  -2.9650749e+05
   2.3874625e-09  -9.9842301e-05   7.2358841e-01   7.1798846e-01  -2.9418616e+05
   2.3901300e-09  -9.9060618e-05   7.2356692e-01   7.1801081e-01  -2.9188301e+05
   2.3927976e-09  -9.8285054e-05   7.2354560e-01   7.1803299e-01  -2.8959788e+05
   2.3954652e-09  -9.7515562e-05   7.2352445e-01   7.1805499e-01  -2.8733064e+05
   2.3981327e-09  -9.6752095e-05   7.2350347e-01   7.1807682e-01  -2.8508116e+05
   2.4008003e-09  -9.5994604e-05   7.2348265e-01   7.1809849e-01  -2.8284928e+05
   2.4034678e-09  -9.5243044e-05   7.2346199e-01   7.1811998e-01  -2.8063487e+05
   2.4061354e-09  -9.4497368e-05   7.2344149e-01   7.1814131e-01  -2.7843780e+05
   2.4088029e-09  -9.3757530e-05   7.2342116e-01   7.1816247e-01  -2.7625793e+05
   2.4114705e-09  -9.3023484e-05   7.2340099e-01   7.1818346e-01  -2.7409513e+05
   2.4141380e-09  -9.2295185e-05   7.2338097e-01   7.1820429e-01  -2.7194925e+05
   2.4168056e-09  -9.1572587e-05   7.2336111e-01   7.1822496e-01  -2.6982018e+05
   2.4194732e-09  -9.0855647e-05   7.2334141e-01   7.1824546e-01  -2.6770777e+05
   2.4221407e-09  -9.0144319e-05   7.2332186e-01   7.1826581e-01  -2.6561190e+05
   2.4248083e-09  -8.9438561e-05   7.2330247e-01   7.1828600e-01  -2.6353243e+05
   2.4274758e-09  -8.8738328e-05   7.2328323e-01   7.1830603e-01  -2.6146925e+05
   2.4301434e-09  -8.8043577e-05   7.2326414e-01   7.1832590e-01  -2.5942222e+05
   2.4328109e-09  -8.7354265e-05   7.2324519e-01   7.1834562e-01  -2.5739121e+05
   2.4354785e-09  -8.6670350e-05   7.2322640e-01   7.1836518e-01  -2.5537610e+05
   2.4381460e-09  -8.5991789e-05   7.2320776e-01   7.1838460e-01  -2.5337677e+05
   2.4408136e-09  -8.5318541e-05   7.2318926e-01   7.1840386e-01  -2.5139309e+05
   2.4434812e-09  -8.4650563e-05   7.2317091e-01   7.1842297e-01  -2.4942493e+05
   2.4461487e-09  -8.3987815e-05   7.2315270e-01   7.1844193e-01  -2.4747219e+05
   2.4488163e-09  -8.3330256e-05   7.2313463e-01   7.1846074e-01  -2.4553473e+05
   2.4514838e-09  -8.2677845e-05   7.2311670e-01   7.1847940e-01  -2.4361245e+05
   2.4541514e-09  -8.2030541e-05   7.2309892e-01   7.1849792e-01  -2.4170520e+05
   2.4568189e-09  -8.1388306e-05   7.2308128e-01   7.1851630e-01  -2.3981290e+05
   2.4594865e-09  -8.0751098e-05   7.2306377e-01   7.1853453e-01  -2.3793540e+05
   2.4621541e-09  -8.0118879e-05   7.2304640e-01   7.1855262e-01  -2.3607260e+05
   2.4648216e-09  -7.9491609e-05   7.2302917e-01   7.1857057e-01  -2.3422439e+05
   2.4674892e-09  -7.8869251e-05   7.2301207e-01   7.1858838e-01  -2.3239064e+05
   2.4701567e-09  -7.8251765e-05   7.2299511e-01   7.1860604e-01  -2.3057125e+05
   2.4728243e-09  -7.7639113e-05   7.2297828e-01   7.1862358e-01  -2.2876611e+05
   2.4754918e-09  -7.7031258e-05   7.2296158e-01   7.1864097e-01  -2.2697509e+05
   2.4781594e-09  -7.6428162e-05   7.2294502e-01   7.1865823e-01  -2.2519810e+05
   2.4808269e-09  -7.5829787e-05   7.2292858e-01   7.1867535e-01  -2.2343502e+05
   2.4834945e-09  -7.5236097e-05   7.2291227e-01   7.1869234e-01  -2.2168574e+05
   2.4861621e-09  -7.4647056e-05   7.2289609e-01   7.1870920e-01  -2.1995015e+05
   2.4888296e-09  -7.4062625e-05   7.2288004e-01   7.1872592e-01  -2.1822815e+05
   2.4914972e-09  -7.3482771e-05   7.2286411e-01   7.1874252e-01  -2.1651964e+05
   2.4941647e-09  -7.2907456e-05   7.2284831e-01   7.1875898e-01  -2.1482450e+05
   2.4968323e-09  -7.2336645e-05   7.2283263e-01   7.1877532e-01  -2.1314262e+05
   2.4994998e-09  -7.1770303e-05   7.2281708e-01   7.1879153e-01  -2.1147392e+05
   2.5021674e-09  -7.1208395e-05   7.2280164e-01   7.1880761e-01  -2.0981828e+05
   2.5048349e-09  -7.0650886e-05   7.2278633e-01   7.1882357e-01  -2.0817560e+05
   2.5075025e-09  -7.0097742e-05   7.2277114e-01   7.1883940e-01  -2.0654578e+05
   2.5101701e-09  -6.9548929e-05   7.2275607e-01   7.1885511e-01  -2.0492872e+05
   2.5128376e-09  -6.9004412e-05   7.2274111e-01   7.1887069e-01  -2.0332432e+05
   2.5155052e-09  -6.8464158e-05   7.2272628e-01   7.1888616e-01  -2.0173248e+05
   2.5181727e-09  -6.7928134e-05   7.2271156e-01   7.1890150e-01  -2.0015311e+05
   2.5208403e-09  -6.7396307e-05   7.2269695e-01   7.1891672e-01  -1.9858609e+05
   2.5235078e-09  -6.6868643e-05   7.2268246e-01   7.1893183e-01  -1.9703135e+05
   2.5261754e-09  -6.6345111e-05   7.2266808e-01   7.1894681e-01  -1.9548877e+05
   2.5288429e-09  -6.5825677e-05   7.2265382e-01   7.1896168e-01  -1.9395828e+05
   2.5315105e-09  -6.5310310e-05   7.2263967e-01   7.1897644e-01  -1.9243976e+05
   2.5341781e-09  -6.4798978e-05   7.2262563e-01   7.1899107e-01  -1.9093313e+05
   2.5368456e-09  -6.4291649e-05   7.2261170e-01   7.1900560e-01  -1.8943830e+05
   2.5395132e-09  -6.3788292e-05   7.2259787e-01   7.1902001e-01  -1.8795517e+05
   2.5421807e-09  -6.3288876e-05   7.2258416e-01   7.1903430e-01  -1.8648365e+05
   2.5448483e-09  -6.2793370e-05   7.2257056e-01   7.1904849e-01  -1.8502365e+05
   2.5475158e-09  -6.2301743e-05   7.2255706e-01   7.1906256e-01  -1.8357508e+05
   2.5501834e-09  -6.1813965e-05   7.2254366e-01   7.1907653e-01  -1.8213786e+05
   2.5528510e-09  -6.1330006e-05   7.2253038e-01   7.1909038e-01  -1.8071188e+05
   2.5555185e-09  -6.0849836e-05   7.2251719e-01   7.1910413e-01  -1.7929707e+05
   2.5581861e-09  -6.0373426e-05   7.2250411e-01   7.1911777e-01  -1.7789333e+05
   2.5608536e-09  -5.9900745e-05   7.2249113e-01   7.1913131e-01  -1.7650058e+05
   2.5635212e-09  -5.9431765e-05   7.2247826e-01   7.1914473e-01  -1.7511874e+05
   2.5661887e-09  -5.8966456e-05   7.2246548e-01   7.1915806e-01  -1.7374771e+05
   2.5688563e-09  -5.8504791e-05   7.2245281e-01   7.1917127e-01  -1.7238742e+05
   2.5715238e-09  -5.8046740e-05   7.2244023e-01   7.1918439e-01  -1.7103778e+05
   2.5741914e-09  -5.7592275e-05   7.2242776e-01   7.1919740e-01  -1.6969870e+05
   2.5768590e-09  -5.7141368e-05   7.2241538e-01   7.1921031e-01  -1.6837011e+05
   2.5795265e-09  -5.6693992e-05   7.2240309e-01   7.1922312e-01  -1.6705192e+05
   2.5821941e-09  -5.6250118e-05   7.2239091e-01   7.1923583e-01  -1.6574405e+05
   2.5848616e-09  -5.5809719e-05   7.2237882e-01   7.1924845e-01  -1.6444642e+05
   2.5875292e-09  -5.5372768e-05   7.2236682e-01   7.1926096e-01  -1.6315894e+05
   2.5901967e-09  -5.4939238e-05   7.2235492e-01   7.1927337e-01  -1.6188155e+05
   2.5928643e-09  -5.4509102e-05   7.2234311e-01   7.1928569e-01  -1.6061415e+05
   2.5955318e-09  -5.4082334e-05   7.2233140e-01   7.1929791e-01  -1.5935668e+05
   2.5981994e-09  -5.3658907e-05   7.2231978e-01   7.1931004e-01  -1.5810906e+05
   2.6008670e-09  -5.3238796e-05   7.2230824e-01   7.1932207e-01  -1.5687120e+05
   2.6035345e-09  -5.2821973e-05   7.2229680e-01   7.1933400e-01  -1.5564303e+05
   2.6062021e-09  -5.2408413e-05   7.2228545e-01   7.1934585e-01  -1.5442448e+05
   2.6088696e-09  -5.1998092e-05   7.2227419e-01   7.1935760e-01  -1.5321546e+05
   2.6115372e-09  -5.1590983e-05   7.2226301e-01   7.1936926e-01  -1.5201591e+05
   2.6142047e-09  -5.1187061e-05   7.2225193e-01   7.1938083e-01  -1.5082576e+05
   2.6168723e-09  -5.0786302e-05   7.2224093e-01   7.1939230e-01  -1.4964492e+05
   2.6195398e-09  -5.0388680e-05   7.2223001e-01   7.1940369e-01  -1.4847332e+05
   2.6222074e-09  -4.9994171e-05   7.2221918e-01   7.1941499e-01  -1.4731090e+05
   2.6248750e-09  -4.9602751e-05   7.2220844e-01   7.1942620e-01  -1.4615758e+05
   2.6275425e-09  -4.9214396e-05   7.2219778e-01   7.1943732e-01  -1.4501329e+05
   2.6302101e-09  -4.8829081e-05   7.2218721e-01   7.1944836e-01  -1.4387795e+05
   2.6328776e-09  -4.8446783e-05   7.2217671e-01   7.1945931e-01  -1.4275151e+05
   2.6355452e-09  -4.8067477e-05   7.2216630e-01   7.1947017e-01  -1.4163388e+05
   2.6382127e-09  -4.7691142e-05   7.2215597e-01   7.1948095e-01  -1.4052500e+05
   2.6408803e-09  -4.7317753e-05   7.2214573e-01   7.1949165e-01  -1.3942481e+05
   2.6435478e-09  -4.6947287e-05   7.2213556e-01   7.1950226e-01  -1.3833323e+05
   2.6462154e-09  -4.6579721e-05   7.2212547e-01   7.1951279e-01  -1.3725019e+05
   2.6488830e-09  -4.6215034e-05   7.2211546e-01   7.1952323e-01  -1.3617563e+05
   2.6515505e-09  -4.5853201e-05   7.2210553e-01   7.1953360e-01  -1.3510949e+05
   2.6542181e-09  -4.5494202e-05   7.2209568e-01   7.1954388e-01  -1.3405169e+05
   2.6568856e-09  -4.5138013e-05   7.2208590e-01   7.1955408e-01  -1.3300217e+05
   2.6595532e-09  -4.4784613e-05   7.2207621e-01   7.1956421e-01  -1.3196087e+05
   2.6622207e-09  -4.4433979e-05   7.2206658e-01   7.1957425e-01  -1.3092773e+05
   2.6648883e-09  -4.4086091e-05   7.2205704e-01   7.1958422e-01  -1.2990267e+05
   2.6675559e-09  -4.3740927e-05   7.2204756e-01   7.1959410e-01  -1.2888563e+05
   2.6702234e-09  -4.3398464e-05   7.2203817e-01   7.1960391e-01  -1.2787656e+05
   2.6728910e-09  -4.3058684e-05   7.2202884e-01   7.1961365e-01  -1.2687539e+05
   2.6755585e-09  -4.2721563e-05   7.2201959e-01   7.1962331e-01  -1.2588206e+05
   2.6782261e-09  -4.2387082e-05   7.2201041e-01   7.1963289e-01  -1.2489650e+05
   2.6808936e-09  -4.2055219e-05   7.2200131e-01   7.1964239e-01  -1.2391866e+05
   2.6835612e-09  -4.1725955e-05   7.2199227e-01   7.1965183e-01  -1.2294847e+05
   2.6862287e-09  -4.1399268e-05   7.2198331e-01   7.1966119e-01  -1.2198588e+05
   2.6888963e-09  -4.1075139e-05   7.2197441e-01   7.1967047e-01  -1.2103083e+05
   2.6915639e-09  -4.0753548e-05   7.2196559e-01   7.1967969e-01  -1.2008325e+05
   2.6942314e-09  -4.0434475e-05   7.2195683e-01   7.1968883e-01  -1.1914310e+05
   2.6968990e-09  -4.0117900e-05   7.2194815e-01   7.1969790e-01  -1.1821030e+05
   2.6995665e-09  -3.9803803e-05   7.2193953e-01   7.1970690e-01  -1.1728480e+05
   2.7022341e-09  -3.9492166e-05   7.2193098e-01   7.1971582e-01  -1.1636655e+05
   2.7049016e-09  -3.9182968e-05   7.2192249e-01   7.1972468e-01  -1.1545549e+05
   2.7075692e-09  -3.8876191e-05   7.2191407e-01   7.1973347e-01  -1.1455157e+05
   2.7102367e-09  -3.8571816e-05   7.2190572e-01   7.1974219e-01  -1.1365472e+05
   2.7129043e-09  -3.8269824e-05   7.2189744e-01   7.1975084e-01  -1.1276489e+05
   2.7155719e-09  -3.7970197e-05   7.2188922e-01   7.1975943e-01  -1.1188203e+05
   2.7182394e-09  -3.7672915e-05   7.2188106e-01   7.1976795e-01  -1.1100608e+05
   2.7209070e-09  -3.7377960e-05   7.2187297e-01   7.1977640e-01  -1.1013698e+05
   2.7235745e-09  -3.7085315e-05   7.2186494e-01   7.1978478e-01  -1.0927469e+05
   2.7262421e-09  -3.6794962e-05   7.2185697e-01   7.1979310e-01  -1.0841916e+05
   2.7289096e-09  -3.6506881e-05   7.2184907e-01   7.1980136e-01  -1.0757032e+05
   2.7315772e-09  -3.6221056e-05   7.2184122e-01   7.1980955e-01  -1.0672812e+05
   2.7342447e-09  -3.5937469e-05   7.2183344e-01   7.1981767e-01  -1.0589252e+05
   2.7369123e-09  -3.5656102e-05   7.2182572e-01   7.1982573e-01  -1.0506347e+05
   2.7395799e-09  -3.5376938e-05   7.2181807e-01   7.1983373e-01  -1.0424090e+05
   2.7422474e-09  -3.5099959e-05   7.2181047e-01   7.1984167e-01  -1.0342477e+05
   2.7449150e-09  -3.4825149e-05   7.2180293e-01   7.1984954e-01  -1.0261503e+05
   2.7475825e-09  -3.4552491e-05   7.2179545e-01   7.1985736e-01  -1.0181163e+05
   2.7502501e-09  -3.4281967e-05   7.2178803e-01   7.1986511e-01  -1.0101452e+05
   2.7529176e-09  -3.4013561e-05   7.2178066e-01   7.1987280e-01  -1.0022366e+05
   2.7555852e-09  -3.3747257e-05   7.2177336e-01   7.1988043e-01  -9.9438979e+04
   2.7582528e-09  -3.3483038e-05   7.2176611e-01   7.1988800e-01  -9.8660446e+04
   2.7609203e-09  -3.3220887e-05   7.2175892e-01   7.1989552e-01  -9.7888008e+04
   2.7635879e-09  -3.2960789e-05   7.2175178e-01   7.1990297e-01  -9.7121618e+04
   2.7662554e-09  -3.2702727e-05   7.2174470e-01   7.1991036e-01  -9.6361227e+04
   2.7689230e-09  -3.2446686e-05   7.2173768e-01   7.1991770e-01  -9.5606790e+04
   2.7715905e-09  -3.2192649e-05   7.2173071e-01   7.1992498e-01  -9.4858259e+04
   2.7742581e-09  -3.1940601e-05   7.2172379e-01   7.1993220e-01  -9.4115589e+04
   2.7769256e-09  -3.1690527e-05   7.2171693e-01   7.1993937e-01  -9.3378733e+04
   2.7795932e-09  -3.1442410e-05   7.2171013e-01   7.1994648e-01  -9.2647646e+04
   2.7822608e-09  -3.1196236e-05   7.2170337e-01   7.1995354e-01  -9.1922283e+04
   2.7849283e-09  -3.0951989e-05   7.2169667e-01   7.1996054e-01  -9.1202599e+04
   2.7875959e-09  -3.0709655e-05   7.2169003e-01   7.1996748e-01  -9.0488549e+04
   2.7902634e-09  -3.0469218e-05   7.2168343e-01   7.1997437e-01  -8.9780089e+04
   2.7929310e-09  -3.0230663e-05   7.2167689e-01   7.1998121e-01  -8.9077176e+04
   2.7955985e-09  -2.9993976e-05   7.2167039e-01   7.1998799e-01  -8.8379767e+04
   2.7982661e-09  -2.9759142e-05   7.2166395e-01   7.1999472e-01  -8.7687817e+04
   2.8009336e-09  -2.9526147e-05   7.2165756e-01   7.2000140e-01  -8.7001285e+04
   2.8036012e-09  -2.9294976e-05   7.2165122e-01   7.2000802e-01  -8.6320128e+04
   2.8062688e-09  -2.9065615e-05   7.2164493e-01   7.2001460e-01  -8.5644303e+04
   2.8089363e-09  -2.8838050e-05   7.2163869e-01   7.2002112e-01  -8.4973770e+04
   2.8116039e-09  -2.8612266e-05   7.2163249e-01   7.2002759e-01  -8.4308486e+04
   2.8142714e-09  -2.8388250e-05   7.2162635e-01   7.2003401e-01  -8.3648411e+04
   2.8169390e-09  -2.8165988e-05   7.2162025e-01   7.2004038e-01  -8.2993504e+04
   2.8196065e-09  -2.7945466e-05   7.2161420e-01   7.2004670e-01  -8.2343724e+04
   2.8222741e-09  -2.7726670e-05   7.2160820e-01   7.2005297e-01  -8.1699032e+04
   2.8249416e-09  -2.7509588e-05   7.2160225e-01   7.2005919e-01  -8.1059386e+04
   2.8276092e-09  -2.7294205e-05   7.2159634e-01   7.2006537e-01  -8.0424749e+04
   2.8302768e-09  -2.7080508e-05   7.2159048e-01   7.2007149e-01  -7.9795080e+04
   2.8329443e-09  -2.6868485e-05   7.2158466e-01   7.2007757e-01  -7.9170341e+04
   2.8356119e-09  -2.6658122e-05   7.2157889e-01   7.2008360e-01  -7.8550494e+04
   2.8382794e-09  -2.6449405e-05   7.2157317e-01   7.2008958e-01  -7.7935499e+04
   2.8409470e-09  -2.6242323e-05   7.2156749e-01   7.2009552e-01  -7.7325319e+04
   2.8436145e-09  -2.6036862e-05   7.2156185e-01   7.2010140e-01  -7.6719916e+04
   2.8462821e-09  -2.5833009e-05   7.2155626e-01   7.2010725e-01  -7.6119253e+04
   2.8489496e-09  -2.5630753e-05   7.2155071e-01   7.2011304e-01  -7.5523292e+04
   2.8516172e-09  -2.5430080e-05   7.2154521e-01   7.2011880e-01  -7.4931998e+04
   2.8542848e-09  -2.5230978e-05   7.2153975e-01   7.2012450e-01  -7.4345333e+04
   2.8569523e-09  -2.5033436e-05   7.2153433e-01   7.2013017e-01  -7.3763261e+04
   2.8596199e-09  -2.4837439e-05   7.2152896e-01   7.2013578e-01  -7.3185746e+04
   2.8622874e-09  -2.4642978e-05   7.2152362e-01   7.2014136e-01  -7.2612752e+04
   2.8649550e-09  -2.4450038e-05   7.2151833e-01   7.2014689e-01  -7.2044245e+04
   2.8676225e-09  -2.4258610e-05   7.2151308e-01   7.2015238e-01  -7.1480189e+04
   2.8702901e-09  -2.4068680e-05   7.2150787e-01   7.2015782e-01  -7.0920548e+04
   2.8729577e-09  -2.3880237e-05   7.2150270e-01   7.2016322e-01  -7.0365290e+04
   2.8756252e-09  -2.3693269e-05   7.2149758e-01   7.2016858e-01  -6.9814378e+04
   2.8782928e-09  -2.3507766e-05   7.2149249e-01   7.2017390e-01  -6.9267780e+04
   2.8809603e-09  -2.3323714e-05   7.2148744e-01   7.2017917e-01  -6.8725461e+04
   2.8836279e-09  -2.3141104e-05   7.2148243e-01   7.2018441e-01  -6.8187388e+04
   2.8862954e-09  -2.2959923e-05   7.2147746e-01   7.2018960e-01  -6.7653527e+04
   2.8889630e-09  -2.2780161e-05   7.2147253e-01   7.2019475e-01  -6.7123846e+04
   2.8916305e-09  -2.2601807e-05   7.2146764e-01   7.2019987e-01  -6.6598313e+04
   2.8942981e-09  -2.2424848e-05   7.2146279e-01   7.2020494e-01  -6.6076893e+04
   2.8969657e-09  -2.2249276e-05   7.2145797e-01   7.2020997e-01  -6.5559557e+04
   2.8996332e-09  -2.2075077e-05   7.2145320e-01   7.2021497e-01  -6.5046270e+04
   2.9023008e-09  -2.1902243e-05   7.2144846e-01   7.2021992e-01  -6.4537002e+04
   2.9049683e-09  -2.1730762e-05   7.2144375e-01   7.2022484e-01  -6.4031721e+04
   2.9076359e-09  -2.1560623e-05   7.2143909e-01   7.2022971e-01  -6.3530396e+04
   2.9103034e-09  -2.1391817e-05   7.2143446e-01   7.2023455e-01  -6.3032996e+04
   2.9129710e-09  -2.1224332e-05   7.2142987e-01   7.2023935e-01  -6.2539491e+04
   2.9156385e-09  -2.1058158e-05   7.2142531e-01   7.2024412e-01  -6.2049849e+04
   2.9183061e-09  -2.0893286e-05   7.2142079e-01   7.2024884e-01  -6.1564040e+04
   2.9209737e-09  -2.0729704e-05   7.2141630e-01   7.2025353e-01  -6.1082036e+04
   2.9236412e-09  -2.0567403e-05   7.2141185e-01   7.2025819e-01  -6.0603804e+04
   2.9263088e-09  -2.0406373e-05   7.2140743e-01   7.2026280e-01  -6.0129317e+04
   2.9289763e-09  -2.0246603e-05   7.2140305e-01   7.2026738e-01  -5.9658545e+04
   2.9316439e-09  -2.0088085e-05   7.2139871e-01   7.2027193e-01  -5.9191459e+04
   2.9343114e-09  -1.9930807e-05   7.2139439e-01   7.2027644e-01  -5.8728029e+04
   2.9369790e-09  -1.9774761e-05   7.2139011e-01   7.2028091e-01  -5.8268228e+04
   2.9396465e-09  -1.9619937e-05   7.2138587e-01   7.2028535e-01  -5.7812027e+04
   2.9423141e-09  -1.9466324e-05   7.2138166e-01   7.2028975e-01  -5.7359397e+04
   2.9449817e-09  -1.9313915e-05   7.2137748e-01   7.2029412e-01  -5.6910312e+04
   2.9476492e-09  -1.9162699e-05   7.2137333e-01   7.2029846e-01  -5.6464742e+04
   2.9503168e-09  -1.9012666e-05   7.2136922e-01   7.2030276e-01  -5.6022660e+04
   2.9529843e-09  -1.8863809e-05   7.2136513e-01   7.2030703e-01  -5.5584040e+04
   2.9556519e-09  -1.8716116e-05   7.2136108e-01   7.2031126e-01  -5.5148854e+04
   2.9583194e-09  -1.8569581e-05   7.2135707e-01   7.2031546e-01  -5.4717075e+04
   2.9609870e-09  -1.8424192e-05   7.2135308e-01   7.2031963e-01  -5.4288677e+04
   2.9636546e-09  -1.8279942e-05   7.2134912e-01   7.2032377e-01  -5.3863632e+04
   2.9663221e-09  -1.8136821e-05   7.2134520e-01   7.2032787e-01  -5.3441916e+04
   2.9689897e-09  -1.7994820e-05   7.2134130e-01   7.2033194e-01  -5.3023501e+04
   2.9716572e-09  -1.7853932e-05   7.2133744e-01   7.2033598e-01  -5.2608362e+04
   2.9743248e-09  -1.7714146e-05   7.2133361e-01   7.2033999e-01  -5.2196473e+04
   2.9769923e-09  -1.7575455e-05   7.2132981e-01   7.2034396e-01  -5.1787809e+04
   2.9796599e-09  -1.7437850e-05   7.2132603e-01   7.2034791e-01  -5.1382344e+04
   2.9823274e-09  -1.7301322e-05   7.2132229e-01   7.2035182e-01  -5.0980054e+04
   2.9849950e-09  -1.7165863e-05   7.2131857e-01   7.2035571e-01  -5.0580914e+04
   2.9876626e-09  -1.7031464e-05   7.2131489e-01   7.2035956e-01  -5.0184898e+04
   2.9903301e-09  -1.6898118e-05   7.2131123e-01   7.2036338e-01  -4.9791983e+04
   2.9929977e-09  -1.6765816e-05   7.2130760e-01   7.2036718e-01  -4.9402145e+04
   2.9956652e-09  -1.6634550e-05   7.2130401e-01   7.2037094e-01  -4.9015358e+04
   2.9983328e-09  -1.6504311e-05   7.2130043e-01   7.2037467e-01  -4.8631600e+04
   3.0010003e-09  -1.6375092e-05   7.2129689e-01   7.2037838e-01  -4.8250846e+04
   3.0036679e-09  -1.6246885e-05   7.2129338e-01   7.2038205e-01  -4.7873073e+04
   3.0063354e-09  -1.6119682e-05   7.2128989e-01   7.2038570e-01  -4.7498258e+04
   3.0090030e-09  -1.5993474e-05   7.2128643e-01   7.2038932e-01  -4.7126378e+04
   3.0116706e-09  -1.5868255e-05   7.2128299e-01   7.2039291e-01  -4.6757409e+04
   3.0143381e-09  -1.5744016e-05   7.2127959e-01   7.2039647e-01  -4.6391328e+04
   3.0170057e-09  -1.5620750e-05   7.2127621e-01   7.2040001e-01  -4.6028114e+04
   3.0196732e-09  -1.5498448e-05   7.2127285e-01   7.2040351e-01  -4.5667744e+04
   3.0223408e-09  -1.5377105e-05   7.2126953e-01   7.2040699e-01  -4.5310195e+04
   3.0250083e-09  -1.5256711e-05   7.2126623e-01   7.2041044e-01  -4.4955445e+04
   3.0276759e-09  -1.5137260e-05   7.2126295e-01   7.2041387e-01  -4.4603473e+04
   3.0303434e-09  -1.5018744e-05   7.2125970e-01   7.2041727e-01  -4.4254257e+04
   3.0330110e-09  -1.4901157e-05   7.2125648e-01   7.2042064e-01  -4.3907774e+04
   3.0356786e-09  -1.4784489e-05   7.2125328e-01   7.2042398e-01  -4.3564005e+04
   3.0383461e-09  -1.4668736e-05   7.2125010e-01   7.2042730e-01  -4.3222926e+04
   3.0410137e-09  -1.4553888e-05   7.2124696e-01   7.2043060e-01  -4.2884519e+04
   3.0436812e-09  -1.4439940e-05   7.2124383e-01   7.2043386e-01  -4.2548760e+04
   3.0463488e-09  -1.4326883e-05   7.2124073e-01   7.2043711e-01  -4.2215631e+04
   3.0490163e-09  -1.4214712e-05   7.2123766e-01   7.2044032e-01  -4.1885109e+04
   3.0516839e-09  -1.4103420e-05   7.2123460e-01   7.2044351e-01  -4.1557176e+04
   3.0543515e-09  -1.3992998e-05   7.2123158e-01   7.2044668e-01  -4.1231809e+04
   3.0570190e-09  -1.3883441e-05   7.2122857e-01   7.2044982e-01  -4.0908991e+04
   3.0596866e-09  -1.3774742e-05   7.2122559e-01   7.2045294e-01  -4.0588699e+04
   3.0623541e-09  -1.3666894e-05   7.2122264e-01   7.2045603e-01  -4.0270916e+04
   3.0650217e-09  -1.3559890e-05   7.2121970e-01   7.2045910e-01  -3.9955620e+04
   3.0676892e-09  -1.3453724e-05   7.2121679e-01   7.2046214e-01  -3.9642793e+04
   3.0703568e-09  -1.3348390e-05   7.2121390e-01   7.2046516e-01  -3.9332415e+04
   3.0730243e-09  -1.3243880e-05   7.2121104e-01   7.2046816e-01  -3.9024467e+04
   3.0756919e-09  -1.3140188e-05   7.2120820e-01   7.2047113e-01  -3.8718930e+04
   3.0783595e-09  -1.3037308e-05   7.2120537e-01   7.2047408e-01  -3.8415785e+04
   3.0810270e-09  -1.2935233e-05   7.2120258e-01   7.2047701e-01  -3.8115014e+04
   3.0836946e-09  -1.2833958e-05   7.2119980e-01   7.2047991e-01  -3.7816598e+04
   3.0863621e-09  -1.2733476e-05   7.2119704e-01   7.2048280e-01  -3.7520517e+04
   3.0890297e-09  -1.2633780e-05   7.2119431e-01   7.2048565e-01  -3.7226755e+04
   3.0916972e-09  -1.2534865e-05   7.2119160e-01   7.2048849e-01  -3.6935293e+04
   3.0943648e-09  -1.2436724e-05   7.2118891e-01   7.2049130e-01  -3.6646113e+04
   3.0970323e-09  -1.2339352e-05   7.2118624e-01   7.2049410e-01  -3.6359197e+04
   3.0996999e-09  -1.2242742e-05   7.2118359e-01   7.2049687e-01  -3.6074528e+04
   3.1023675e-09  -1.2146889e-05   7.2118096e-01   7.2049962e-01  -3.5792087e+04
   3.1050350e-09  -1.2051786e-05   7.2117835e-01   7.2050234e-01  -3.5511857e+04
   3.1077026e-09  -1.1957427e-05   7.2117577e-01   7.2050505e-01  -3.5233821e+04
   3.1103701e-09  -1.1863808e-05   7.2117320e-01   7.2050773e-01  -3.4957963e+04
   3.1130377e-09  -1.1770921e-05   7.2117065e-01   7.2051040e-01  -3.4684264e+04
   3.1157052e-09  -1.1678761e-05   7.2116813e-01   7.2051304e-01  -3.4412708e+04
   3.1183728e-09  -1.1587324e-05   7.2116562e-01   7.2051566e-01  -3.4143278e+04
   3.1210403e-09  -1.1496602e-05   7.2116313e-01   7.2051826e-01  -3.3875957e+04
   3.1237079e-09  -1.1406590e-05   7.2116067e-01   7.2052084e-01  -3.3610729e+04
   3.1263755e-09  -1.1317283e-05   7.2115822e-01   7.2052341e-01  -3.3347578e+04
   3.1290430e-09  -1.1228675e-05   7.2115579e-01   7.2052595e-01  -3.3086488e+04
   3.1317106e-09  -1.1140761e-05   7.2115338e-01   7.2052847e-01  -3.2827441e+04
   3.1343781e-09  -1.1053536e-05   7.2115099e-01   7.2053097e-01  -3.2570422e+04
   3.1370457e-09  -1.0966993e-05   7.2114861e-01   7.2053345e-01  -3.2315416e+04
   3.1397132e-09  -1.0881128e-05   7.2114626e-01   7.2053591e-01  -3.2062407e+04
   3.1423808e-09  -1.0795935e-05   7.2114392e-01   7.2053836e-01  -3.1811378e+04
   3.1450483e-09  -1.0711409e-05   7.2114161e-01   7.2054078e-01  -3.1562315e+04
   3.1477159e-09  -1.0627545e-05   7.2113931e-01   7.2054318e-01  -3.1315201e+04
   3.1503835e-09  -1.0544337e-05   7.2113703e-01   7.2054557e-01  -3.1070022e+04
   3.1530510e-09  -1.0461781e-05   7.2113476e-01   7.2054794e-01  -3.0826763e+04
   3.1557186e-09  -1.0379872e-05   7.2113252e-01   7.2055029e-01  -3.0585409e+04
   3.1583861e-09  -1.0298603e-05   7.2113029e-01   7.2055262e-01  -3.0345944e+04
   3.1610537e-09  -1.0217971e-05   7.2112808e-01   7.2055493e-01  -3.0108354e+04
   3.1637212e-09  -1.0137970e-05   7.2112589e-01   7.2055722e-01  -2.9872624e+04
   3.1663888e-09  -1.0058596e-05   7.2112371e-01   7.2055950e-01  -2.9638740e+04
   3.1690564e-09  -9.9798429e-06   7.2112155e-01   7.2056176e-01  -2.9406687e+04
   3.1717239e-09  -9.9017065e-06   7.2111941e-01   7.2056400e-01  -2.9176451e+04
   3.1743915e-09  -9.8241818e-06   7.2111728e-01   7.2056622e-01  -2.8948017e+04
   3.1770590e-09  -9.7472642e-06   7.2111518e-01   7.2056843e-01  -2.8721372e+04
   3.1797266e-09  -9.6709487e-06   7.2111308e-01   7.2057062e-01  -2.8496501e+04
   3.1823941e-09  -9.5952308e-06   7.2111101e-01   7.2057279e-01  -2.8273391e+04
   3.1850617e-09  -9.5201057e-06   7.2110895e-01   7.2057494e-01  -2.8052028e+04
   3.1877292e-09  -9.4455688e-06   7.2110690e-01   7.2057708e-01  -2.7832397e+04
   3.1903968e-09  -9.3716154e-06   7.2110488e-01   7.2057920e-01  -2.7614487e+04
   3.1930644e-09  -9.2982411e-06   7.2110287e-01   7.2058131e-01  -2.7398282e+04
   3.1957319e-09  -9.2254412e-06   7.2110087e-01   7.2058339e-01  -2.7183770e+04
   3.1983995e-09  -9.1532113e-06   7.2109889e-01   7.2058546e-01  -2.6970938e+04
   3.2010670e-09  -9.0815470e-06   7.2109693e-01   7.2058752e-01  -2.6759772e+04
   3.2037346e-09  -9.0104437e-06   7.2109498e-01   7.2058956e-01  -2.6550259e+04
   3.2064021e-09  -8.9398971e-06   7.2109304e-01   7.2059158e-01  -2.6342387e+04
   3.2090697e-09  -8.8699028e-06   7.2109112e-01   7.2059359e-01  -2.6136142e+04
   3.2117372e-09  -8.8004566e-06   7.2108922e-01   7.2059558e-01  -2.5931512e+04
   3.2144048e-09  -8.7315541e-06   7.2108733e-01   7.2059756e-01  -2.5728484e+04
   3.2170724e-09  -8.6631910e-06   7.2108546e-01   7.2059952e-01  -2.5527046e+04
   3.2197399e-09  -8.5953632e-06   7.2108360e-01   7.2060146e-01  -2.5327185e+04
   3.2224075e-09  -8.5280665e-06   7.2108175e-01   7.2060339e-01  -2.5128888e+04
   3.2250750e-09  -8.4612966e-06   7.2107992e-01   7.2060531e-01  -2.4932144e+04
   3.2277426e-09  -8.3950495e-06   7.2107811e-01   7.2060721e-01  -2.4736941e+04
   3.2304101e-09  -8.3293211e-06   7.2107630e-01   7.2060909e-01  -2.4543265e+04
   3.2330777e-09  -8.2641073e-06   7.2107452e-01   7.2061096e-01  -2.4351106e+04
   3.2357452e-09  -8.1994041e-06   7.2107274e-01   7.2061282e-01  -2.4160452e+04
   3.2384128e-09  -8.1352075e-06   7.2107098e-01   7.2061466e-01  -2.3971290e+04
   3.2410804e-09  -8.0715134e-06   7.2106924e-01   7.2061649e-01  -2.3783610e+04
   3.2437479e-09  -8.0083181e-06   7.2106750e-01   7.2061830e-01  -2.3597398e+04
   3.2464155e-09  -7.9456176e-06   7.2106579e-01   7.2062010e-01  -2.3412645e+04
   3.2490830e-09  -7.8834079e-06   7.2106408e-01   7.2062188e-01  -2.3229338e+04
   3.2517506e-09  -7.8216854e-06   7.2106239e-01   7.2062365e-01  -2.3047466e+04
   3.2544181e-09  -7.7604461e-06   7.2106071e-01   7.2062541e-01  -2.2867019e+04
   3.2570857e-09  -7.6996862e-06   7.2105904e-01   7.2062715e-01  -2.2687984e+04
   3.2597533e-09  -7.6394021e-06   7.2105739e-01   7.2062888e-01  -2.2510350e+04
   3.2624208e-09  -7.5795899e-06   7.2105575e-01   7.2063059e-01  -2.2334108e+04
   3.2650884e-09  -7.5202461e-06   7.2105413e-01   7.2063230e-01  -2.2159245e+04
   3.2677559e-09  -7.4613668e-06   7.2105251e-01   7.2063398e-01  -2.1985752e+04
   3.2704235e-09  -7.4029486e-06   7.2105091e-01   7.2063566e-01  -2.1813617e+04
   3.2730910e-09  -7.3449877e-06   7.2104932e-01   7.2063732e-01  -2.1642829e+04
   3.2757586e-09  -7.2874807e-06   7.2104774e-01   7.2063897e-01  -2.1473379e+04
   3.2784261e-09  -7.2304238e-06   7.2104618e-01   7.2064061e-01  -2.1305255e+04
   3.2810937e-09  -7.1738137e-06   7.2104463e-01   7.2064223e-01  -2.1138448e+04
   3.2837613e-09  -7.1176469e-06   7.2104309e-01   7.2064384e-01  -2.0972946e+04
   3.2864288e-09  -7.0619198e-06   7.2104156e-01   7.2064544e-01  -2.0808741e+04
   3.2890964e-09  -7.0066289e-06   7.2104005e-01   7.2064703e-01  -2.0645821e+04
   3.2917639e-09  -6.9517710e-06   7.2103854e-01   7.2064860e-01  -2.0484176e+04
   3.2944315e-09  -6.8973426e-06   7.2103705e-01   7.2065016e-01  -2.0323797e+04
   3.2970990e-09  -6.8433404e-06   7.2103557e-01   7.2065171e-01  -2.0164674e+04
   3.2997666e-09  -6.7897609e-06   7.2103410e-01   7.2065325e-01  -2.0006797e+04
   3.3024341e-09  -6.7366009e-06   7.2103264e-01   7.2065477e-01  -1.9850156e+04
   3.3051017e-09  -6.6838572e-06   7.2103120e-01   7.2065628e-01  -1.9694741e+04
   3.3077693e-09  -6.6315264e-06   7.2102976e-01   7.2065778e-01  -1.9540543e+04
   3.3104368e-09  -6.5796053e-06   7.2102834e-01   7.2065927e-01  -1.9387552e+04
   3.3131044e-09  -6.5280907e-06   7.2102693e-01   7.2066075e-01  -1.9235759e+04
   3.3157719e-09  -6.4769795e-06   7.2102553e-01   7.2066222e-01  -1.9085154e+04
   3.3184395e-09  -6.4262684e-06   7.2102414e-01   7.2066367e-01  -1.8935729e+04
   3.3211070e-09  -6.3759544e-06   7.2102276e-01   7.2066511e-01  -1.8787474e+04
   3.3237746e-09  -6.3260343e-06   7.2102139e-01   7.2066655e-01  -1.8640379e+04
   3.3264421e-09  -6.2765050e-06   7.2102003e-01   7.2066797e-01  -1.8494436e+04
   3.3291097e-09  -6.2273635e-06   7.2101869e-01   7.2066938e-01  -1.8349635e+04
   3.3317773e-09  -6.1786068e-06   7.2101735e-01   7.2067077e-01  -1.8205969e+04
   3.3344448e-09  -6.1302318e-06   7.2101602e-01   7.2067216e-01  -1.8063427e+04
   3.3371124e-09  -6.0822356e-06   7.2101471e-01   7.2067354e-01  -1.7922001e+04
   3.3397799e-09  -6.0346151e-06   7.2101340e-01   7.2067490e-01  -1.7781682e+04
   3.3424475e-09  -5.9873675e-06   7.2101211e-01   7.2067626e-01  -1.7642462e+04
   3.3451150e-09  -5.9404898e-06   7.2101082e-01   7.2067760e-01  -1.7504332e+04
   3.3477826e-09  -5.8939791e-06   7.2100955e-01   7.2067894e-01  -1.7367284e+04
   3.3504502e-09  -5.8478326e-06   7.2100828e-01   7.2068026e-01  -1.7231308e+04
   3.3531177e-09  -5.8020474e-06   7.2100703e-01   7.2068157e-01  -1.7096397e+04
   3.3557853e-09  -5.7566206e-06   7.2100578e-01   7.2068288e-01  -1.6962542e+04
   3.3584528e-09  -5.7115495e-06   7.2100455e-01   7.2068417e-01  -1.6829736e+04
   3.3611204e-09  -5.6668313e-06   7.2100332e-01   7.2068545e-01  -1.6697969e+04
   3.3637879e-09  -5.6224633e-06   7.2100210e-01   7.2068673e-01  -1.6567234e+04
   3.3664555e-09  -5.5784425e-06   7.2100090e-01   7.2068799e-01  -1.6437522e+04
   3.3691230e-09  -5.5347665e-06   7.2099970e-01   7.2068924e-01  -1.6308826e+04
   3.3717906e-09  -5.4914324e-06   7.2099851e-01   7.2069048e-01  -1.6181137e+04
   3.3744582e-09  -5.4484376e-06   7.2099733e-01   7.2069172e-01  -1.6054449e+04
   3.3771257e-09  -5.4057794e-06   7.2099616e-01   7.2069294e-01  -1.5928752e+04
   3.3797933e-09  -5.3634552e-06   7.2099500e-01   7.2069415e-01  -1.5804039e+04
   3.3824608e-09  -5.3214623e-06   7.2099385e-01   7.2069536e-01  -1.5680303e+04
   3.3851284e-09  -5.2797983e-06   7.2099271e-01   7.2069655e-01  -1.5557535e+04
   3.3877959e-09  -5.2384604e-06   7.2099158e-01   7.2069774e-01  -1.5435729e+04
   3.3904635e-09  -5.1974463e-06   7.2099045e-01   7.2069892e-01  -1.5314876e+04
   3.3931310e-09  -5.1567532e-06   7.2098934e-01   7.2070008e-01  -1.5194970e+04
   3.3957986e-09  -5.1163787e-06   7.2098823e-01   7.2070124e-01  -1.5076002e+04
   3.3984662e-09  -5.0763203e-06   7.2098713e-01   7.2070239e-01  -1.4957966e+04
   3.4011337e-09  -5.0365756e-06   7.2098604e-01   7.2070353e-01  -1.4840854e+04
   3.4038013e-09  -4.9971420e-06   7.2098496e-01   7.2070466e-01  -1.4724659e+04
   3.4064688e-09  -4.9580172e-06   7.2098389e-01   7.2070578e-01  -1.4609373e+04
   3.4091364e-09  -4.9191987e-06   7.2098283e-01   7.2070690e-01  -1.4494990e+04
   3.4118039e-09  -4.8806842e-06   7.2098177e-01   7.2070800e-01  -1.4381503e+04
   3.4144715e-09  -4.8424712e-06   7.2098072e-01   7.2070910e-01  -1.4268904e+04
   3.4171390e-09  -4.8045573e-06   7.2097968e-01   7.2071018e-01  -1.4157187e+04
   3.4198066e-09  -4.7669404e-06   7.2097865e-01   7.2071126e-01  -1.4046345e+04
   3.4224742e-09  -4.7296179e-06   7.2097763e-01   7.2071233e-01  -1.3936370e+04
   3.4251417e-09  -4.6925876e-06   7.2097662e-01   7.2071340e-01  -1.3827256e+04
   3.4278093e-09  -4.6558473e-06   7.2097561e-01   7.2071445e-01  -1.3718997e+04
   3.4304768e-09  -4.6193946e-06   7.2097461e-01   7.2071550e-01  -1.3611585e+04
   3.4331444e-09  -4.5832274e-06   7.2097362e-01   7.2071653e-01  -1.3505015e+04
   3.4358119e-09  -4.5473433e-06   7.2097263e-01   7.2071756e-01  -1.3399278e+04
   3.4384795e-09  -4.5117401e-06   7.2097166e-01   7.2071858e-01  -1.3294370e+04
   3.4411470e-09  -4.4764157e-06   7.2097069e-01   7.2071960e-01  -1.3190283e+04
   3.4438146e-09  -4.4413679e-06   7.2096973e-01   7.2072060e-01  -1.3087010e+04
   3.4464822e-09  -4.4065945e-06   7.2096878e-01   7.2072160e-01  -1.2984547e+04
   3.4491497e-09  -4.3720933e-06   7.2096783e-01   7.2072259e-01  -1.2882885e+04
   3.4518173e-09  -4.3378623e-06   7.2096689e-01   7.2072357e-01  -1.2782020e+04
   3.4544848e-09  -4.3038992e-06   7.2096596e-01   7.2072454e-01  -1.2681944e+04
   3.4571524e-09  -4.2702021e-06   7.2096504e-01   7.2072551e-01  -1.2582652e+04
   3.4598199e-09  -4.2367688e-06   7.2096412e-01   7.2072647e-01  -1.2484137e+04
   3.4624875e-09  -4.2035973e-06   7.2096321e-01   7.2072742e-01  -1.2386394e+04
   3.4651551e-09  -4.1706855e-06   7.2096231e-01   7.2072837e-01  -1.2289415e+04
   3.4678226e-09  -4.1380313e-06   7.2096142e-01   7.2072930e-01  -1.2193196e+04
   3.4704902e-09  -4.1056328e-06   7.2096053e-01   7.2073023e-01  -1.2097731e+04
   3.4731577e-09  -4.0734880e-06   7.2095965e-01   7.2073115e-01  -1.2003013e+04
   3.4758253e-09  -4.0415949e-06   7.2095877e-01   7.2073207e-01  -1.1909036e+04
   3.4784928e-09  -4.0099515e-06   7.2095790e-01   7.2073298e-01  -1.1815795e+04
   3.4811604e-09  -3.9785558e-06   7.2095704e-01   7.2073388e-01  -1.1723284e+04
   3.4838279e-09  -3.9474059e-06   7.2095619e-01   7.2073477e-01  -1.1631498e+04
   3.4864955e-09  -3.9164999e-06   7.2095534e-01   7.2073566e-01  -1.1540430e+04
   3.4891631e-09  -3.8858359e-06   7.2095450e-01   7.2073654e-01  -1.1450075e+04
   3.4918306e-09  -3.8554120e-06   7.2095367e-01   7.2073741e-01  -1.1360428e+04
   3.4944982e-09  -3.8252262e-06   7.2095284e-01   7.2073827e-01  -1.1271482e+04
   3.4971657e-09  -3.7952769e-06   7.2095202e-01   7.2073913e-01  -1.1183233e+04
   3.4998333e-09  -3.7655620e-06   7.2095121e-01   7.2073999e-01  -1.1095675e+04
   3.5025008e-09  -3.7360797e-06   7.2095040e-01   7.2074083e-01  -1.1008802e+04
   3.5051684e-09  -3.7068283e-06   7.2094960e-01   7.2074167e-01  -1.0922610e+04
   3.5078359e-09  -3.6778059e-06   7.2094880e-01   7.2074250e-01  -1.0837092e+04
   3.5105035e-09  -3.6490107e-06   7.2094801e-01   7.2074333e-01  -1.0752244e+04
   3.5131711e-09  -3.6204410e-06   7.2094723e-01   7.2074415e-01  -1.0668060e+04
   3.5158386e-09  -3.5920949e-06   7.2094645e-01   7.2074496e-01  -1.0584535e+04
   3.5185062e-09  -3.5639708e-06   7.2094568e-01   7.2074577e-01  -1.0501664e+04
   3.5211737e-09  -3.5360669e-06   7.2094492e-01   7.2074657e-01  -1.0419442e+04
   3.5238413e-09  -3.5083815e-06   7.2094416e-01   7.2074736e-01  -1.0337864e+04
   3.5265088e-09  -3.4809128e-06   7.2094340e-01   7.2074815e-01  -1.0256925e+04
   3.5291764e-09  -3.4536592e-06   7.2094266e-01   7.2074893e-01  -1.0176619e+04
   3.5318439e-09  -3.4266189e-06   7.2094192e-01   7.2074971e-01  -1.0096942e+04
   3.5345115e-09  -3.3997904e-06   7.2094118e-01   7.2075048e-01  -1.0017889e+04
   3.5371791e-09  -3.3731719e-06   7.2094045e-01   7.2075124e-01  -9.9394544e+03
   3.5398466e-09  -3.3467619e-06   7.2093973e-01   7.2075200e-01  -9.8616342e+03
   3.5425142e-09  -3.3205586e-06   7.2093901e-01   7.2075275e-01  -9.7844233e+03
   3.5451817e-09  -3.2945605e-06   7.2093830e-01   7.2075350e-01  -9.7078169e+03
   3.5478493e-09  -3.2687659e-06   7.2093759e-01   7.2075424e-01  -9.6318103e+03
   3.5505168e-09  -3.2431733e-06   7.2093689e-01   7.2075497e-01  -9.5563988e+03
   3.5531844e-09  -3.2177810e-06   7.2093619e-01   7.2075570e-01  -9.4815777e+03
   3.5558520e-09  -3.1925876e-06   7.2093550e-01   7.2075642e-01  -9.4073425e+03
   3.5585195e-09  -3.1675914e-06   7.2093482e-01   7.2075714e-01  -9.3336884e+03
   3.5611871e-09  -3.1427909e-06   7.2093414e-01   7.2075785e-01  -9.2606110e+03
   3.5638546e-09  -3.1181846e-06   7.2093346e-01   7.2075855e-01  -9.1881058e+03
   3.5665222e-09  -3.0937709e-06   7.2093279e-01   7.2075925e-01  -9.1161682e+03
   3.5691897e-09  -3.0695484e-06   7.2093213e-01   7.2075995e-01  -9.0447938e+03
   3.5718573e-09  -3.0455155e-06   7.2093147e-01   7.2076064e-01  -8.9739783e+03
   3.5745248e-09  -3.0216708e-06   7.2093082e-01   7.2076132e-01  -8.9037172e+03
   3.5771924e-09  -2.9980128e-06   7.2093017e-01   7.2076200e-01  -8.8340063e+03
   3.5798600e-09  -2.9745400e-06   7.2092952e-01   7.2076267e-01  -8.7648411e+03
   3.5825275e-09  -2.9512510e-06   7.2092889e-01   7.2076334e-01  -8.6962174e+03
   3.5851951e-09  -2.9281443e-06   7.2092825e-01   7.2076401e-01  -8.6281311e+03
   3.5878626e-09  -2.9052186e-06   7.2092762e-01   7.2076466e-01  -8.5605778e+03
   3.5905302e-09  -2.8824723e-06   7.2092700e-01   7.2076532e-01  -8.4935534e+03
   3.5931977e-09  -2.8599042e-06   7.2092638e-01   7.2076596e-01  -8.4270537e+03
   3.5958653e-09  -2.8375127e-06   7.2092577e-01   7.2076661e-01  -8.3610747e+03
   3.5985328e-09  -2.8152965e-06   7.2092516e-01   7.2076724e-01  -8.2956123e+03
   3.6012004e-09  -2.7932543e-06   7.2092456e-01   7.2076787e-01  -8.2306625e+03
   3.6038680e-09  -2.7713847e-06   7.2092396e-01   7.2076850e-01  -8.1662211e+03
   3.6065355e-09  -2.7496863e-06   7.2092336e-01   7.2076912e-01  -8.1022843e+03
   3.6092031e-09  -2.7281577e-06   7.2092277e-01   7.2076974e-01  -8.0388480e+03
   3.6118706e-09  -2.7067978e-06   7.2092219e-01   7.2077035e-01  -7.9759085e+03
   3.6145382e-09  -2.6856050e-06   7.2092161e-01   7.2077096e-01  -7.9134617e+03
   3.6172057e-09  -2.6645782e-06   7.2092103e-01   7.2077157e-01  -7.8515038e+03
   3.6198733e-09  -2.6437160e-06   7.2092046e-01   7.2077216e-01  -7.7900311e+03
   3.6225408e-09  -2.6230172e-06   7.2091989e-01   7.2077276e-01  -7.7290396e+03
   3.6252084e-09  -2.6024804e-06   7.2091933e-01   7.2077335e-01  -7.6685257e+03
   3.6278760e-09  -2.5821044e-06   7.2091877e-01   7.2077393e-01  -7.6084855e+03
   3.6305435e-09  -2.5618880e-06   7.2091821e-01   7.2077451e-01  -7.5489154e+03
   3.6332111e-09  -2.5418298e-06   7.2091766e-01   7.2077509e-01  -7.4898117e+03
   3.6358786e-09  -2.5219286e-06   7.2091712e-01   7.2077566e-01  -7.4311708e+03
   3.6385462e-09  -2.5021833e-06   7.2091658e-01   7.2077622e-01  -7.3729890e+03
   3.6412137e-09  -2.4825926e-06   7.2091604e-01   7.2077679e-01  -7.3152627e+03
   3.6438813e-09  -2.4631553e-06   7.2091551e-01   7.2077734e-01  -7.2579884e+03
   3.6465488e-09  -2.4438701e-06   7.2091498e-01   7.2077790e-01  -7.2011625e+03
   3.6492164e-09  -2.4247360e-06   7.2091446e-01   7.2077845e-01  -7.1447815e+03
   3.6518840e-09  -2.4057516e-06   7.2091394e-01   7.2077899e-01  -7.0888420e+03
   3.6545515e-09  -2.3869159e-06   7.2091342e-01   7.2077953e-01  -7.0333404e+03
   3.6572191e-09  -2.3682276e-06   7.2091291e-01   7.2078007e-01  -6.9782734e+03
   3.6598866e-09  -2.3496857e-06   7.2091240e-01   7.2078060e-01  -6.9236375e+03
   3.6625542e-09  -2.3312890e-06   7.2091189e-01   7.2078113e-01  -6.8694294e+03
   3.6652217e-09  -2.3130362e-06   7.2091139e-01   7.2078165e-01  -6.8156457e+03
   3.6678893e-09  -2.2949264e-06   7.2091090e-01   7.2078217e-01  -6.7622831e+03
   3.6705569e-09  -2.2769584e-06   7.2091041e-01   7.2078268e-01  -6.7093383e+03
   3.6732244e-09  -2.2591311e-06   7.2090992e-01   7.2078320e-01  -6.6568080e+03
   3.6758920e-09  -2.2414433e-06   7.2090943e-01   7.2078370e-01  -6.6046890e+03
   3.6785595e-09  -2.2238940e-06   7.2090895e-01   7.2078421e-01  -6.5529780e+03
   3.6812271e-09  -2.2064822e-06   7.2090847e-01   7.2078471e-01  -6.5016720e+03
   3.6838946e-09  -2.1892066e-06   7.2090800e-01   7.2078520e-01  -6.4507676e+03
   3.6865622e-09  -2.1720663e-06   7.2090753e-01   7.2078569e-01  -6.4002618e+03
   3.6892297e-09  -2.1550602e-06   7.2090706e-01   7.2078618e-01  -6.3501514e+03
   3.6918973e-09  -2.1381873e-06   7.2090660e-01   7.2078666e-01  -6.3004333e+03
   3.6945649e-09  -2.1214464e-06   7.2090614e-01   7.2078715e-01  -6.2511045e+03
   3.6972324e-09  -2.1048367e-06   7.2090569e-01   7.2078762e-01  -6.2021619e+03
   3.6999000e-09  -2.0883570e-06   7.2090524e-01   7.2078809e-01  -6.1536025e+03
   3.7025675e-09  -2.0720063e-06   7.2090479e-01   7.2078856e-01  -6.1054233e+03
   3.7052351e-09  -2.0557836e-06   7.2090434e-01   7.2078903e-01  -6.0576214e+03
   3.7079026e-09  -2.0396879e-06   7.2090390e-01   7.2078949e-01  -6.0101936e+03
   3.7105702e-09  -2.0237183e-06   7.2090346e-01   7.2078995e-01  -5.9631372e+03
   3.7132377e-09  -2.0078737e-06   7.2090303e-01   7.2079040e-01  -5.9164493e+03
   3.7159053e-09  -1.9921531e-06   7.2090260e-01   7.2079085e-01  -5.8701269e+03
   3.7185729e-09  -1.9765556e-06   7.2090217e-01   7.2079130e-01  -5.8241671e+03
   3.7212404e-09  -1.9610803e-06   7.2090175e-01   7.2079175e-01  -5.7785672e+03
   3.7239080e-09  -1.9457261e-06   7.2090133e-01   7.2079219e-01  -5.7333243e+03
   3.7265755e-09  -1.9304921e-06   7.2090091e-01   7.2079262e-01  -5.6884357e+03
   3.7292431e-09  -1.9153774e-06   7.2090049e-01   7.2079306e-01  -5.6438984e+03
   3.7319106e-09  -1.9003810e-06   7.2090008e-01   7.2079349e-01  -5.5997099e+03
   3.7345782e-09  -1.8855021e-06   7.2089968e-01   7.2079391e-01  -5.5558674e+03
   3.7372457e-09  -1.8707396e-06   7.2089927e-01   7.2079434e-01  -5.5123681e+03
   3.7399133e-09  -1.8560927e-06   7.2089887e-01   7.2079476e-01  -5.4692094e+03
   3.7425809e-09  -1.8415605e-06   7.2089847e-01   7.2079517e-01  -5.4263886e+03
   3.7452484e-09  -1.8271421e-06   7.2089808e-01   7.2079559e-01  -5.3839031e+03
   3.7479160e-09  -1.8128366e-06   7.2089768e-01   7.2079600e-01  -5.3417502e+03
   3.7505835e-09  -1.7986431e-06   7.2089730e-01   7.2079640e-01  -5.2999273e+03
   3.7532511e-09  -1.7845607e-06   7.2089691e-01   7.2079681e-01  -5.2584319e+03
   3.7559186e-09  -1.7705885e-06   7.2089653e-01   7.2079721e-01  -5.2172614e+03
   3.7585862e-09  -1.7567258e-06   7.2089615e-01   7.2079761e-01  -5.1764132e+03
   3.7612538e-09  -1.7429716e-06   7.2089577e-01   7.2079800e-01  -5.1358848e+03
   3.7639213e-09  -1.7293250e-06   7.2089540e-01   7.2079839e-01  -5.0956737e+03
   3.7665889e-09  -1.7157854e-06   7.2089502e-01   7.2079878e-01  -5.0557775e+03
   3.7692564e-09  -1.7023517e-06   7.2089466e-01   7.2079917e-01  -5.0161936e+03
   3.7719240e-09  -1.6890232e-06   7.2089429e-01   7.2079955e-01  -4.9769197e+03
   3.7745915e-09  -1.6757991e-06   7.2089393e-01   7.2079993e-01  -4.9379532e+03
   3.7772591e-09  -1.6626785e-06   7.2089357e-01   7.2080030e-01  -4.8992919e+03
   3.7799266e-09  -1.6496606e-06   7.2089321e-01   7.2080068e-01  -4.8609332e+03
   3.7825942e-09  -1.6367446e-06   7.2089286e-01   7.2080105e-01  -4.8228749e+03
   3.7852618e-09  -1.6239298e-06   7.2089251e-01   7.2080142e-01  -4.7851145e+03
   3.7879293e-09  -1.6112153e-06   7.2089216e-01   7.2080178e-01  -4.7476498e+03
   3.7905969e-09  -1.5986004e-06   7.2089181e-01   7.2080214e-01  -4.7104784e+03
   3.7932644e-09  -1.5860842e-06   7.2089147e-01   7.2080250e-01  -4.6735980e+03
   3.7959320e-09  -1.5736660e-06   7.2089113e-01   7.2080286e-01  -4.6370064e+03
   3.7985995e-09  -1.5613450e-06   7.2089079e-01   7.2080321e-01  -4.6007012e+03
   3.8012671e-09  -1.5491206e-06   7.2089046e-01   7.2080356e-01  -4.5646804e+03
   3.8039346e-09  -1.5369918e-06   7.2089012e-01   7.2080391e-01  -4.5289415e+03
   3.8066022e-09  -1.5249580e-06   7.2088979e-01   7.2080426e-01  -4.4934824e+03
   3.8092698e-09  -1.5130184e-06   7.2088947e-01   7.2080460e-01  -4.4583010e+03
   3.8119373e-09  -1.5011722e-06   7.2088914e-01   7.2080494e-01  -4.4233951e+03
   3.8146049e-09  -1.4894189e-06   7.2088882e-01   7.2080527e-01  -4.3887624e+03
   3.8172724e-09  -1.4777575e-06   7.2088850e-01   7.2080561e-01  -4.3544009e+03
   3.8199400e-09  -1.4661875e-06   7.2088818e-01   7.2080594e-01  -4.3203084e+03
   3.8226075e-09  -1.4547080e-06   7.2088787e-01   7.2080627e-01  -4.2864828e+03
   3.8252751e-09  -1.4433184e-06   7.2088756e-01   7.2080660e-01  -4.2529221e+03
   3.8279426e-09  -1.4320180e-06   7.2088725e-01   7.2080692e-01  -4.2196241e+03
   3.8306102e-09  -1.4208061e-06   7.2088694e-01   7.2080724e-01  -4.1865868e+03
   3.8332778e-09  -1.4096819e-06   7.2088664e-01   7.2080756e-01  -4.1538082e+03
   3.8359453e-09  -1.3986449e-06   7.2088633e-01   7.2080788e-01  -4.1212863e+03
   3.8386129e-09  -1.3876942e-06   7.2088603e-01   7.2080819e-01  -4.0890189e+03
   3.8412804e-09  -1.3768293e-06   7.2088573e-01   7.2080850e-01  -4.0570042e+03
   3.8439480e-09  -1.3660495e-06   7.2088544e-01   7.2080881e-01  -4.0252402e+03
   3.8466155e-09  -1.3553541e-06   7.2088515e-01   7.2080912e-01  -3.9937248e+03
   3.8492831e-09  -1.3447424e-06   7.2088486e-01   7.2080942e-01  -3.9624562e+03
   3.8519507e-09  -1.3342138e-06   7.2088457e-01   7.2080973e-01  -3.9314324e+03
   3.8546182e-09  -1.3237676e-06   7.2088428e-01   7.2081003e-01  -3.9006515e+03
   3.8572858e-09  -1.3134032e-06   7.2088400e-01   7.2081032e-01  -3.8701116e+03
   3.8599533e-09  -1.3031199e-06   7.2088371e-01   7.2081062e-01  -3.8398109e+03
   3.8626209e-09  -1.2929172e-06   7.2088343e-01   7.2081091e-01  -3.8097473e+03
   3.8652884e-09  -1.2827944e-06   7.2088316e-01   7.2081120e-01  -3.7799191e+03
   3.8679560e-09  -1.2727508e-06   7.2088288e-01   7.2081149e-01  -3.7503245e+03
   3.8706235e-09  -1.2627858e-06   7.2088261e-01   7.2081178e-01  -3.7209616e+03
   3.8732911e-09  -1.2528989e-06   7.2088234e-01   7.2081206e-01  -3.6918286e+03
   3.8759587e-09  -1.2430893e-06   7.2088207e-01   7.2081234e-01  -3.6629236e+03
   3.8786262e-09  -1.2333566e-06   7.2088180e-01   7.2081262e-01  -3.6342450e+03
   3.8812938e-09  -1.2237001e-06   7.2088154e-01   7.2081290e-01  -3.6057909e+03
   3.8839613e-09  -1.2141192e-06   7.2088128e-01   7.2081317e-01  -3.5775596e+03
   3.8866289e-09  -1.2046133e-06   7.2088101e-01   7.2081344e-01  -3.5495493e+03
   3.8892964e-09  -1.1951818e-06   7.2088076e-01   7.2081372e-01  -3.5217584e+03
   3.8919640e-09  -1.1858241e-06   7.2088050e-01   7.2081398e-01  -3.4941850e+03
   3.8946315e-09  -1.1765398e-06   7.2088025e-01   7.2081425e-01  -3.4668275e+03
   3.8972991e-09  -1.1673281e-06   7.2087999e-01   7.2081451e-01  -3.4396842e+03
   3.8999667e-09  -1.1581885e-06   7.2087974e-01   7.2081478e-01  -3.4127534e+03
