   0.0000000e+00  -1.5566931e-01   6.2258977e+00   3.4151332e-05  -5.1794094e+08
   2.6675559e-12  -1.5429288e-01   6.2169192e+00   3.7957426e-05  -5.1413804e+08
   5.3351117e-12  -1.5292661e-01   6.2075461e+00   4.2151627e-05  -5.1033298e+08
   8.0026676e-12  -1.5157049e-01   6.1977667e+00   4.6769127e-05  -5.0652585e+08
   1.0670223e-11  -1.5022453e-01   6.1875695e+00   5.1847808e-05  -5.0271680e+08
   1.3337779e-11  -1.4888873e-01   6.1769429e+00   5.7428389e-05  -4.9890596e+08
   1.6005335e-11  -1.4756311e-01   6.1658755e+00   6.3554577e-05  -4.9509348e+08
   1.8672891e-11  -1.4624766e-01   6.1543562e+00   7.0273229e-05  -4.9127954e+08
   2.1340447e-11  -1.4494239e-01   6.1423736e+00   7.7634499e-05  -4.8746432e+08
   2.4008003e-11  -1.4364730e-01   6.1299170e+00   8.5692005e-05  -4.8364802e+08
   2.6675559e-11  -1.4236239e-01   6.1169756e+00   9.4502980e-05  -4.7983086e+08
   2.9343114e-11  -1.4108767e-01   6.1035391e+00   1.0412843e-04  -4.7601309e+08
   3.2010670e-11  -1.3982313e-01   6.0895972e+00   1.1463328e-04  -4.7219495e+08
   3.4678226e-11  -1.3856878e-01   6.0751404e+00   1.2608656e-04  -4.6837672e+08
   3.7345782e-11  -1.3732462e-01   6.0601590e+00   1.3856149e-04  -4.6455869e+08
   4.0013338e-11  -1.3609064e-01   6.0446442e+00   1.5213568e-04  -4.6074117e+08
   4.2680894e-11  -1.3486685e-01   6.0285876e+00   1.6689125e-04  -4.5692449e+08
   4.5348449e-11  -1.3365324e-01   6.0119809e+00   1.8291493e-04  -4.5310901e+08
   4.8016005e-11  -1.3244981e-01   5.9948168e+00   2.0029824e-04  -4.4929509e+08
   5.0683561e-11  -1.3125655e-01   5.9770884e+00   2.1913752e-04  -4.4548313e+08
   5.3351117e-11  -1.3007345e-01   5.9587893e+00   2.3953412e-04  -4.4167352e+08
   5.6018673e-11  -1.2890052e-01   5.9399139e+00   2.6159439e-04  -4.3786670e+08
   5.8686229e-11  -1.2773774e-01   5.9204571e+00   2.8542984e-04  -4.3406311e+08
   6.1353785e-11  -1.2658510e-01   5.9004148e+00   3.1115715e-04  -4.3026323e+08
   6.4021340e-11  -1.2544259e-01   5.8797834e+00   3.3889820e-04  -4.2646754e+08
   6.6688896e-11  -1.2431020e-01   5.8585600e+00   3.6878015e-04  -4.2267655e+08
   6.9356452e-11  -1.2318792e-01   5.8367428e+00   4.0093538e-04  -4.1889077e+08
   7.2024008e-11  -1.2207573e-01   5.8143307e+00   4.3550151e-04  -4.1511076e+08
   7.4691564e-11  -1.2097361e-01   5.7913232e+00   4.7262139e-04  -4.1133706e+08
   7.7359120e-11  -1.1988156e-01   5.7677210e+00   5.1244297e-04  -4.0757025e+08
   8.0026676e-11  -1.1879954e-01   5.7435256e+00   5.5511931e-04  -4.0381093e+08
   8.2694231e-11  -1.1772754e-01   5.7187392e+00   6.0080842e-04  -4.0005969e+08
   8.5361787e-11  -1.1666553e-01   5.6933652e+00   6.4967315e-04  -3.9631717e+08
   8.8029343e-11  -1.1561349e-01   5.6674076e+00   7.0188106e-04  -3.9258399e+08
   9.0696899e-11  -1.1457140e-01   5.6408716e+00   7.5760425e-04  -3.8886079e+08
   9.3364455e-11  -1.1353923e-01   5.6137632e+00   8.1701914e-04  -3.8514824e+08
   9.6032011e-11  -1.1251695e-01   5.5860892e+00   8.8030630e-04  -3.8144700e+08
   9.8699567e-11  -1.1150452e-01   5.5578575e+00   9.4765017e-04  -3.7775775e+08
   1.0136712e-10  -1.1050191e-01   5.5290768e+00   1.0192388e-03  -3.7408117e+08
   1.0403468e-10  -1.0950910e-01   5.4997566e+00   1.0952637e-03  -3.7041794e+08
   1.0670223e-10  -1.0852603e-01   5.4699075e+00   1.1759193e-03  -3.6676875e+08
   1.0936979e-10  -1.0755268e-01   5.4395406e+00   1.2614028e-03  -3.6313432e+08
   1.1203735e-10  -1.0658901e-01   5.4086680e+00   1.3519138e-03  -3.5951532e+08
   1.1470490e-10  -1.0563496e-01   5.3773027e+00   1.4476541e-03  -3.5591247e+08
   1.1737246e-10  -1.0469051e-01   5.3454583e+00   1.5488270e-03  -3.5232646e+08
   1.2004001e-10  -1.0375559e-01   5.3131491e+00   1.6556372e-03  -3.4875798e+08
   1.2270757e-10  -1.0283017e-01   5.2803901e+00   1.7682902e-03  -3.4520772e+08
   1.2537513e-10  -1.0191419e-01   5.2471971e+00   1.8869924e-03  -3.4167637e+08
   1.2804268e-10  -1.0100760e-01   5.2135862e+00   2.0119498e-03  -3.3816460e+08
   1.3071024e-10  -1.0011035e-01   5.1795744e+00   2.1433685e-03  -3.3467309e+08
   1.3337779e-10  -9.9222389e-02   5.1451789e+00   2.2814539e-03  -3.3120248e+08
   1.3604535e-10  -9.8343653e-02   5.1104175e+00   2.4264101e-03  -3.2775344e+08
   1.3871290e-10  -9.7474086e-02   5.0753086e+00   2.5784398e-03  -3.2432659e+08
   1.4138046e-10  -9.6613628e-02   5.0398706e+00   2.7377440e-03  -3.2092254e+08
   1.4404802e-10  -9.5762217e-02   5.0041225e+00   2.9045211e-03  -3.1754192e+08
   1.4671557e-10  -9.4919791e-02   4.9680834e+00   3.0789669e-03  -3.1418530e+08
   1.4938313e-10  -9.4086283e-02   4.9317728e+00   3.2612743e-03  -3.1085325e+08
   1.5205068e-10  -9.3261628e-02   4.8952101e+00   3.4516325e-03  -3.0754632e+08
   1.5471824e-10  -9.2445758e-02   4.8584151e+00   3.6502272e-03  -3.0426505e+08
   1.5738580e-10  -9.1638604e-02   4.8214076e+00   3.8572398e-03  -3.0100994e+08
   1.6005335e-10  -9.0840095e-02   4.7842072e+00   4.0728472e-03  -2.9778148e+08
   1.6272091e-10  -9.0050160e-02   4.7468338e+00   4.2972217e-03  -2.9458013e+08
   1.6538846e-10  -8.9268726e-02   4.7093069e+00   4.5305306e-03  -2.9140634e+08
   1.6805602e-10  -8.8495718e-02   4.6716462e+00   4.7729356e-03  -2.8826052e+08
   1.7072357e-10  -8.7731061e-02   4.6338711e+00   5.0245931e-03  -2.8514307e+08
   1.7339113e-10  -8.6974680e-02   4.5960008e+00   5.2856536e-03  -2.8205435e+08
   1.7605869e-10  -8.6226497e-02   4.5580542e+00   5.5562618e-03  -2.7899471e+08
   1.7872624e-10  -8.5486433e-02   4.5200501e+00   5.8365561e-03  -2.7596447e+08
   1.8139380e-10  -8.4754412e-02   4.4820069e+00   6.1266684e-03  -2.7296390e+08
   1.8406135e-10  -8.4030352e-02   4.4439426e+00   6.4267244e-03  -2.6999329e+08
   1.8672891e-10  -8.3314173e-02   4.4058750e+00   6.7368431e-03  -2.6705287e+08
   1.8939647e-10  -8.2605795e-02   4.3678214e+00   7.0571368e-03  -2.6414285e+08
   1.9206402e-10  -8.1905137e-02   4.3297987e+00   7.3877111e-03  -2.6126343e+08
   1.9473158e-10  -8.1212116e-02   4.2918234e+00   7.7286647e-03  -2.5841476e+08
   1.9739913e-10  -8.0526650e-02   4.2539115e+00   8.0800894e-03  -2.5559699e+08
   2.0006669e-10  -7.9848657e-02   4.2160786e+00   8.4420703e-03  -2.5281022e+08
   2.0273424e-10  -7.9178054e-02   4.1783397e+00   8.8146855e-03  -2.5005455e+08
   2.0540180e-10  -7.8514758e-02   4.1407093e+00   9.1980063e-03  -2.4733003e+08
   2.0806936e-10  -7.7858686e-02   4.1032016e+00   9.5920971e-03  -2.4463672e+08
   2.1073691e-10  -7.7209754e-02   4.0658301e+00   9.9970157e-03  -2.4197463e+08
   2.1340447e-10  -7.6567879e-02   4.0286077e+00   1.0412813e-02  -2.3934375e+08
   2.1607202e-10  -7.5932979e-02   3.9915470e+00   1.0839534e-02  -2.3674406e+08
   2.1873958e-10  -7.5304969e-02   3.9546599e+00   1.1277215e-02  -2.3417551e+08
   2.2140714e-10  -7.4683768e-02   3.9179577e+00   1.1725889e-02  -2.3163805e+08
   2.2407469e-10  -7.4069292e-02   3.8814515e+00   1.2185581e-02  -2.2913157e+08
   2.2674225e-10  -7.3461458e-02   3.8451515e+00   1.2656309e-02  -2.2665598e+08
   2.2940980e-10  -7.2860185e-02   3.8090676e+00   1.3138086e-02  -2.2421116e+08
   2.3207736e-10  -7.2265391e-02   3.7732091e+00   1.3630920e-02  -2.2179695e+08
   2.3474491e-10  -7.1676994e-02   3.7375847e+00   1.4134812e-02  -2.1941322e+08
   2.3741247e-10  -7.1094913e-02   3.7022027e+00   1.4649757e-02  -2.1705978e+08
   2.4008003e-10  -7.0519068e-02   3.6670709e+00   1.5175745e-02  -2.1473646e+08
   2.4274758e-10  -6.9949379e-02   3.6321966e+00   1.5712762e-02  -2.1244304e+08
   2.4541514e-10  -6.9385766e-02   3.5975866e+00   1.6260788e-02  -2.1017932e+08
   2.4808269e-10  -6.8828150e-02   3.5632473e+00   1.6819796e-02  -2.0794507e+08
   2.5075025e-10  -6.8276453e-02   3.5291844e+00   1.7389758e-02  -2.0574005e+08
   2.5341781e-10  -6.7730598e-02   3.4954035e+00   1.7970638e-02  -2.0356402e+08
   2.5608536e-10  -6.7190507e-02   3.4619095e+00   1.8562398e-02  -2.0141671e+08
   2.5875292e-10  -6.6656105e-02   3.4287070e+00   1.9164994e-02  -1.9929786e+08
   2.6142047e-10  -6.6127316e-02   3.3958002e+00   1.9778380e-02  -1.9720720e+08
   2.6408803e-10  -6.5604064e-02   3.3631927e+00   2.0402504e-02  -1.9514444e+08
   2.6675559e-10  -6.5086277e-02   3.3308881e+00   2.1037311e-02  -1.9310928e+08
   2.6942314e-10  -6.4573880e-02   3.2988893e+00   2.1682742e-02  -1.9110144e+08
   2.7209070e-10  -6.4066802e-02   3.2671990e+00   2.2338735e-02  -1.8912060e+08
   2.7475825e-10  -6.3564970e-02   3.2358194e+00   2.3005226e-02  -1.8716647e+08
   2.7742581e-10  -6.3068315e-02   3.2047527e+00   2.3682146e-02  -1.8523872e+08
   2.8009336e-10  -6.2576766e-02   3.1740004e+00   2.4369424e-02  -1.8333704e+08
   2.8276092e-10  -6.2090253e-02   3.1435639e+00   2.5066985e-02  -1.8146111e+08
   2.8542848e-10  -6.1608710e-02   3.1134443e+00   2.5774753e-02  -1.7961061e+08
   2.8809603e-10  -6.1132068e-02   3.0836424e+00   2.6492649e-02  -1.7778520e+08
   2.9076359e-10  -6.0660261e-02   3.0541588e+00   2.7220591e-02  -1.7598457e+08
   2.9343114e-10  -6.0193224e-02   3.0249937e+00   2.7958495e-02  -1.7420838e+08
   2.9609870e-10  -5.9730891e-02   2.9961472e+00   2.8706276e-02  -1.7245630e+08
   2.9876626e-10  -5.9273199e-02   2.9676192e+00   2.9463846e-02  -1.7072801e+08
   3.0143381e-10  -5.8820085e-02   2.9394092e+00   3.0231115e-02  -1.6902316e+08
   3.0410137e-10  -5.8371486e-02   2.9115166e+00   3.1007992e-02  -1.6734144e+08
   3.0676892e-10  -5.7927342e-02   2.8839408e+00   3.1794383e-02  -1.6568250e+08
   3.0943648e-10  -5.7487593e-02   2.8566806e+00   3.2590194e-02  -1.6404603e+08
   3.1210403e-10  -5.7052178e-02   2.8297351e+00   3.3395330e-02  -1.6243168e+08
   3.1477159e-10  -5.6621039e-02   2.8031029e+00   3.4209694e-02  -1.6083914e+08
   3.1743915e-10  -5.6194119e-02   2.7767825e+00   3.5033187e-02  -1.5926807e+08
   3.2010670e-10  -5.5771361e-02   2.7507724e+00   3.5865709e-02  -1.5771816e+08
   3.2277426e-10  -5.5352708e-02   2.7250709e+00   3.6707161e-02  -1.5618909e+08
   3.2544181e-10  -5.4938106e-02   2.6996761e+00   3.7557441e-02  -1.5468052e+08
   3.2810937e-10  -5.4527501e-02   2.6745860e+00   3.8416447e-02  -1.5319216e+08
   3.3077693e-10  -5.4120838e-02   2.6497987e+00   3.9284076e-02  -1.5172368e+08
   3.3344448e-10  -5.3718065e-02   2.6253120e+00   4.0160226e-02  -1.5027477e+08
   3.3611204e-10  -5.3319131e-02   2.6011235e+00   4.1044791e-02  -1.4884513e+08
   3.3877959e-10  -5.2923985e-02   2.5772311e+00   4.1937667e-02  -1.4743444e+08
   3.4144715e-10  -5.2532576e-02   2.5536322e+00   4.2838750e-02  -1.4604242e+08
   3.4411470e-10  -5.2144855e-02   2.5303244e+00   4.3747933e-02  -1.4466876e+08
   3.4678226e-10  -5.1760774e-02   2.5073051e+00   4.4665112e-02  -1.4331316e+08
   3.4944982e-10  -5.1380284e-02   2.4845717e+00   4.5590180e-02  -1.4197534e+08
   3.5211737e-10  -5.1003340e-02   2.4621216e+00   4.6523031e-02  -1.4065501e+08
   3.5478493e-10  -5.0629893e-02   2.4399520e+00   4.7463559e-02  -1.3935188e+08
   3.5745248e-10  -5.0259900e-02   2.4180603e+00   4.8411657e-02  -1.3806568e+08
   3.6012004e-10  -4.9893314e-02   2.3964436e+00   4.9367219e-02  -1.3679612e+08
   3.6278760e-10  -4.9530093e-02   2.3750990e+00   5.0330138e-02  -1.3554295e+08
   3.6545515e-10  -4.9170193e-02   2.3540238e+00   5.1300307e-02  -1.3430589e+08
   3.6812271e-10  -4.8813571e-02   2.3332151e+00   5.2277621e-02  -1.3308467e+08
   3.7079026e-10  -4.8460185e-02   2.3126699e+00   5.3261973e-02  -1.3187904e+08
   3.7345782e-10  -4.8109995e-02   2.2923854e+00   5.4253256e-02  -1.3068873e+08
   3.7612538e-10  -4.7762959e-02   2.2723586e+00   5.5251365e-02  -1.2951351e+08
   3.7879293e-10  -4.7419037e-02   2.2525866e+00   5.6256194e-02  -1.2835312e+08
   3.8146049e-10  -4.7078191e-02   2.2330664e+00   5.7267637e-02  -1.2720731e+08
   3.8412804e-10  -4.6740383e-02   2.2137950e+00   5.8285588e-02  -1.2607584e+08
   3.8679560e-10  -4.6405573e-02   2.1947697e+00   5.9309944e-02  -1.2495849e+08
   3.8946315e-10  -4.6073724e-02   2.1759872e+00   6.0340599e-02  -1.2385501e+08
   3.9213071e-10  -4.5744801e-02   2.1574448e+00   6.1377448e-02  -1.2276518e+08
   3.9479827e-10  -4.5418767e-02   2.1391395e+00   6.2420388e-02  -1.2168877e+08
   3.9746582e-10  -4.5095586e-02   2.1210683e+00   6.3469315e-02  -1.2062557e+08
   4.0013338e-10  -4.4775223e-02   2.1032283e+00   6.4524126e-02  -1.1957535e+08
   4.0280093e-10  -4.4457644e-02   2.0856166e+00   6.5584718e-02  -1.1853791e+08
   4.0546849e-10  -4.4142816e-02   2.0682304e+00   6.6650989e-02  -1.1751303e+08
   4.0813605e-10  -4.3830705e-02   2.0510666e+00   6.7722836e-02  -1.1650050e+08
   4.1080360e-10  -4.3521279e-02   2.0341224e+00   6.8800159e-02  -1.1550014e+08
   4.1347116e-10  -4.3214504e-02   2.0173950e+00   6.9882855e-02  -1.1451173e+08
   4.1613871e-10  -4.2910350e-02   2.0008816e+00   7.0970826e-02  -1.1353508e+08
   4.1880627e-10  -4.2608786e-02   1.9845792e+00   7.2063971e-02  -1.1257001e+08
   4.2147382e-10  -4.2309781e-02   1.9684852e+00   7.3162190e-02  -1.1161631e+08
   4.2414138e-10  -4.2013304e-02   1.9525968e+00   7.4265384e-02  -1.1067382e+08
   4.2680894e-10  -4.1719327e-02   1.9369112e+00   7.5373456e-02  -1.0974235e+08
   4.2947649e-10  -4.1427820e-02   1.9214256e+00   7.6486307e-02  -1.0882172e+08
   4.3214405e-10  -4.1138754e-02   1.9061374e+00   7.7603841e-02  -1.0791175e+08
   4.3481160e-10  -4.0852101e-02   1.8910439e+00   7.8725960e-02  -1.0701228e+08
   4.3747916e-10  -4.0567834e-02   1.8761424e+00   7.9852568e-02  -1.0612313e+08
   4.4014672e-10  -4.0285924e-02   1.8614304e+00   8.0983571e-02  -1.0524415e+08
   4.4281427e-10  -4.0006346e-02   1.8469052e+00   8.2118873e-02  -1.0437517e+08
   4.4548183e-10  -3.9729073e-02   1.8325643e+00   8.3258380e-02  -1.0351603e+08
   4.4814938e-10  -3.9454078e-02   1.8184050e+00   8.4401998e-02  -1.0266658e+08
   4.5081694e-10  -3.9181336e-02   1.8044250e+00   8.5549634e-02  -1.0182666e+08
   4.5348449e-10  -3.8910822e-02   1.7906217e+00   8.6701196e-02  -1.0099613e+08
   4.5615205e-10  -3.8642511e-02   1.7769926e+00   8.7856592e-02  -1.0017483e+08
   4.5881961e-10  -3.8376379e-02   1.7635353e+00   8.9015731e-02  -9.9362622e+07
   4.6148716e-10  -3.8112401e-02   1.7502475e+00   9.0178522e-02  -9.8559367e+07
   4.6415472e-10  -3.7850554e-02   1.7371267e+00   9.1344875e-02  -9.7764925e+07
   4.6682227e-10  -3.7590814e-02   1.7241706e+00   9.2514702e-02  -9.6979157e+07
   4.6948983e-10  -3.7333159e-02   1.7113770e+00   9.3687912e-02  -9.6201932e+07
   4.7215739e-10  -3.7077565e-02   1.6987434e+00   9.4864419e-02  -9.5433118e+07
   4.7482494e-10  -3.6824012e-02   1.6862677e+00   9.6044136e-02  -9.4672587e+07
   4.7749250e-10  -3.6572476e-02   1.6739476e+00   9.7226974e-02  -9.3920211e+07
   4.8016005e-10  -3.6322936e-02   1.6617810e+00   9.8412849e-02  -9.3175868e+07
   4.8282761e-10  -3.6075372e-02   1.6497656e+00   9.9601674e-02  -9.2439435e+07
   4.8549517e-10  -3.5829761e-02   1.6378994e+00   1.0079337e-01  -9.1710794e+07
   4.8816272e-10  -3.5586083e-02   1.6261801e+00   1.0198784e-01  -9.0989828e+07
   4.9083028e-10  -3.5344319e-02   1.6146059e+00   1.0318501e-01  -9.0276422e+07
   4.9349783e-10  -3.5104447e-02   1.6031745e+00   1.0438480e-01  -8.9570463e+07
   4.9616539e-10  -3.4866449e-02   1.5918839e+00   1.0558712e-01  -8.8871841e+07
   4.9883294e-10  -3.4630304e-02   1.5807323e+00   1.0679190e-01  -8.8180448e+07
   5.0150050e-10  -3.4395995e-02   1.5697175e+00   1.0799904e-01  -8.7496177e+07
   5.0416806e-10  -3.4163501e-02   1.5588377e+00   1.0920848e-01  -8.6818925e+07
   5.0683561e-10  -3.3932804e-02   1.5480909e+00   1.1042012e-01  -8.6148587e+07
   5.0950317e-10  -3.3703887e-02   1.5374753e+00   1.1163390e-01  -8.5485065e+07
   5.1217072e-10  -3.3476730e-02   1.5269890e+00   1.1284974e-01  -8.4828260e+07
   5.1483828e-10  -3.3251317e-02   1.5166302e+00   1.1406755e-01  -8.4178074e+07
   5.1750584e-10  -3.3027629e-02   1.5063970e+00   1.1528726e-01  -8.3534414e+07
   5.2017339e-10  -3.2805649e-02   1.4962877e+00   1.1650880e-01  -8.2897185e+07
   5.2284095e-10  -3.2585361e-02   1.4863005e+00   1.1773208e-01  -8.2266296e+07
   5.2550850e-10  -3.2366747e-02   1.4764338e+00   1.1895704e-01  -8.1641658e+07
   5.2817606e-10  -3.2149791e-02   1.4666857e+00   1.2018360e-01  -8.1023183e+07
   5.3084361e-10  -3.1934477e-02   1.4570547e+00   1.2141168e-01  -8.0410783e+07
   5.3351117e-10  -3.1720788e-02   1.4475391e+00   1.2264121e-01  -7.9804375e+07
   5.3617873e-10  -3.1508710e-02   1.4381372e+00   1.2387212e-01  -7.9203874e+07
   5.3884628e-10  -3.1298225e-02   1.4288474e+00   1.2510435e-01  -7.8609200e+07
   5.4151384e-10  -3.1089318e-02   1.4196682e+00   1.2633781e-01  -7.8020271e+07
   5.4418139e-10  -3.0881975e-02   1.4105980e+00   1.2757243e-01  -7.7437009e+07
   5.4684895e-10  -3.0676181e-02   1.4016353e+00   1.2880816e-01  -7.6859337e+07
   5.4951651e-10  -3.0471920e-02   1.3927786e+00   1.3004491e-01  -7.6287178e+07
   5.5218406e-10  -3.0269178e-02   1.3840264e+00   1.3128262e-01  -7.5720458e+07
   5.5485162e-10  -3.0067940e-02   1.3753772e+00   1.3252122e-01  -7.5159104e+07
   5.5751917e-10  -2.9868193e-02   1.3668295e+00   1.3376065e-01  -7.4603043e+07
   5.6018673e-10  -2.9669922e-02   1.3583820e+00   1.3500083e-01  -7.4052205e+07
   5.6285428e-10  -2.9473113e-02   1.3500333e+00   1.3624171e-01  -7.3506521e+07
   5.6552184e-10  -2.9277754e-02   1.3417820e+00   1.3748321e-01  -7.2965922e+07
   5.6818940e-10  -2.9083829e-02   1.3336267e+00   1.3872528e-01  -7.2430341e+07
   5.7085695e-10  -2.8891327e-02   1.3255661e+00   1.3996784e-01  -7.1899714e+07
   5.7352451e-10  -2.8700234e-02   1.3175989e+00   1.4121084e-01  -7.1373974e+07
   5.7619206e-10  -2.8510536e-02   1.3097238e+00   1.4245421e-01  -7.0853058e+07
   5.7885962e-10  -2.8322222e-02   1.3019395e+00   1.4369789e-01  -7.0336905e+07
   5.8152718e-10  -2.8135278e-02   1.2942447e+00   1.4494181e-01  -6.9825452e+07
   5.8419473e-10  -2.7949693e-02   1.2866383e+00   1.4618593e-01  -6.9318641e+07
   5.8686229e-10  -2.7765453e-02   1.2791190e+00   1.4743017e-01  -6.8816410e+07
   5.8952984e-10  -2.7582547e-02   1.2716856e+00   1.4867448e-01  -6.8318703e+07
   5.9219740e-10  -2.7400962e-02   1.2643369e+00   1.4991880e-01  -6.7825463e+07
   5.9486495e-10  -2.7220688e-02   1.2570718e+00   1.5116306e-01  -6.7336632e+07
   5.9753251e-10  -2.7041711e-02   1.2498892e+00   1.5240722e-01  -6.6852156e+07
   6.0020007e-10  -2.6864021e-02   1.2427878e+00   1.5365121e-01  -6.6371981e+07
   6.0286762e-10  -2.6687607e-02   1.2357666e+00   1.5489499e-01  -6.5896054e+07
   6.0553518e-10  -2.6512456e-02   1.2288245e+00   1.5613848e-01  -6.5424321e+07
   6.0820273e-10  -2.6338558e-02   1.2219605e+00   1.5738164e-01  -6.4956731e+07
   6.1087029e-10  -2.6165902e-02   1.2151734e+00   1.5862441e-01  -6.4493234e+07
   6.1353785e-10  -2.5994477e-02   1.2084623e+00   1.5986674e-01  -6.4033780e+07
   6.1620540e-10  -2.5824272e-02   1.2018260e+00   1.6110857e-01  -6.3578320e+07
   6.1887296e-10  -2.5655276e-02   1.1952637e+00   1.6234985e-01  -6.3126806e+07
   6.2154051e-10  -2.5487480e-02   1.1887742e+00   1.6359053e-01  -6.2679190e+07
   6.2420807e-10  -2.5320873e-02   1.1823567e+00   1.6483056e-01  -6.2235426e+07
   6.2687563e-10  -2.5155445e-02   1.1760101e+00   1.6606988e-01  -6.1795468e+07
   6.2954318e-10  -2.4991185e-02   1.1697335e+00   1.6730845e-01  -6.1359271e+07
   6.3221074e-10  -2.4828084e-02   1.1635260e+00   1.6854621e-01  -6.0926791e+07
   6.3487829e-10  -2.4666131e-02   1.1573866e+00   1.6978311e-01  -6.0497983e+07
   6.3754585e-10  -2.4505317e-02   1.1513145e+00   1.7101911e-01  -6.0072806e+07
   6.4021340e-10  -2.4345633e-02   1.1453087e+00   1.7225416e-01  -5.9651217e+07
   6.4288096e-10  -2.4187069e-02   1.1393684e+00   1.7348821e-01  -5.9233174e+07
   6.4554852e-10  -2.4029615e-02   1.1334927e+00   1.7472120e-01  -5.8818637e+07
   6.4821607e-10  -2.3873262e-02   1.1276808e+00   1.7595311e-01  -5.8407565e+07
   6.5088363e-10  -2.3718002e-02   1.1219318e+00   1.7718387e-01  -5.7999919e+07
   6.5355118e-10  -2.3563824e-02   1.1162448e+00   1.7841345e-01  -5.7595660e+07
   6.5621874e-10  -2.3410720e-02   1.1106191e+00   1.7964180e-01  -5.7194749e+07
   6.5888630e-10  -2.3258681e-02   1.1050539e+00   1.8086886e-01  -5.6797150e+07
   6.6155385e-10  -2.3107698e-02   1.0995484e+00   1.8209461e-01  -5.6402824e+07
   6.6422141e-10  -2.2957763e-02   1.0941017e+00   1.8331900e-01  -5.6011735e+07
   6.6688896e-10  -2.2808867e-02   1.0887132e+00   1.8454198e-01  -5.5623848e+07
   6.6955652e-10  -2.2661001e-02   1.0833821e+00   1.8576351e-01  -5.5239127e+07
   6.7222407e-10  -2.2514157e-02   1.0781077e+00   1.8698355e-01  -5.4857536e+07
   6.7489163e-10  -2.2368327e-02   1.0728891e+00   1.8820206e-01  -5.4479043e+07
   6.7755919e-10  -2.2223503e-02   1.0677257e+00   1.8941900e-01  -5.4103612e+07
   6.8022674e-10  -2.2079676e-02   1.0626168e+00   1.9063433e-01  -5.3731210e+07
   6.8289430e-10  -2.1936839e-02   1.0575617e+00   1.9184800e-01  -5.3361806e+07
   6.8556185e-10  -2.1794983e-02   1.0525596e+00   1.9305998e-01  -5.2995366e+07
   6.8822941e-10  -2.1654100e-02   1.0476100e+00   1.9427023e-01  -5.2631859e+07
   6.9089697e-10  -2.1514183e-02   1.0427121e+00   1.9547872e-01  -5.2271253e+07
   6.9356452e-10  -2.1375225e-02   1.0378653e+00   1.9668540e-01  -5.1913518e+07
   6.9623208e-10  -2.1237217e-02   1.0330689e+00   1.9789023e-01  -5.1558623e+07
   6.9889963e-10  -2.1100151e-02   1.0283223e+00   1.9909319e-01  -5.1206538e+07
   7.0156719e-10  -2.0964022e-02   1.0236249e+00   2.0029423e-01  -5.0857233e+07
   7.0423474e-10  -2.0828820e-02   1.0189760e+00   2.0149333e-01  -5.0510681e+07
   7.0690230e-10  -2.0694539e-02   1.0143751e+00   2.0269043e-01  -5.0166851e+07
   7.0956986e-10  -2.0561172e-02   1.0098214e+00   2.0388552e-01  -4.9825717e+07
   7.1223741e-10  -2.0428711e-02   1.0053146e+00   2.0507855e-01  -4.9487249e+07
   7.1490497e-10  -2.0297150e-02   1.0008539e+00   2.0626950e-01  -4.9151420e+07
   7.1757252e-10  -2.0166481e-02   9.9643873e-01   2.0745832e-01  -4.8818205e+07
   7.2024008e-10  -2.0036697e-02   9.9206861e-01   2.0864499e-01  -4.8487575e+07
   7.2290764e-10  -1.9907792e-02   9.8774295e-01   2.0982948e-01  -4.8159505e+07
   7.2557519e-10  -1.9779759e-02   9.8346118e-01   2.1101175e-01  -4.7833968e+07
   7.2824275e-10  -1.9652590e-02   9.7922278e-01   2.1219177e-01  -4.7510940e+07
   7.3091030e-10  -1.9526280e-02   9.7502720e-01   2.1336951e-01  -4.7190395e+07
   7.3357786e-10  -1.9400822e-02   9.7087392e-01   2.1454494e-01  -4.6872308e+07
   7.3624542e-10  -1.9276209e-02   9.6676242e-01   2.1571804e-01  -4.6556656e+07
   7.3891297e-10  -1.9152435e-02   9.6269219e-01   2.1688876e-01  -4.6243412e+07
   7.4158053e-10  -1.9029493e-02   9.5866272e-01   2.1805709e-01  -4.5932555e+07
   7.4424808e-10  -1.8907378e-02   9.5467352e-01   2.1922300e-01  -4.5624061e+07
   7.4691564e-10  -1.8786082e-02   9.5072409e-01   2.2038645e-01  -4.5317905e+07
   7.4958319e-10  -1.8665600e-02   9.4681396e-01   2.2154742e-01  -4.5014067e+07
   7.5225075e-10  -1.8545925e-02   9.4294265e-01   2.2270589e-01  -4.4712522e+07
   7.5491831e-10  -1.8427051e-02   9.3910968e-01   2.2386182e-01  -4.4413250e+07
   7.5758586e-10  -1.8308973e-02   9.3531461e-01   2.2501519e-01  -4.4116227e+07
   7.6025342e-10  -1.8191684e-02   9.3155696e-01   2.2616598e-01  -4.3821433e+07
   7.6292097e-10  -1.8075179e-02   9.2783630e-01   2.2731416e-01  -4.3528846e+07
   7.6558853e-10  -1.7959451e-02   9.2415217e-01   2.2845970e-01  -4.3238445e+07
   7.6825609e-10  -1.7844495e-02   9.2050415e-01   2.2960258e-01  -4.2950209e+07
   7.7092364e-10  -1.7730305e-02   9.1689180e-01   2.3074278e-01  -4.2664118e+07
   7.7359120e-10  -1.7616875e-02   9.1331470e-01   2.3188027e-01  -4.2380152e+07
   7.7625875e-10  -1.7504200e-02   9.0977243e-01   2.3301503e-01  -4.2098290e+07
   7.7892631e-10  -1.7392275e-02   9.0626458e-01   2.3414704e-01  -4.1818513e+07
   7.8159386e-10  -1.7281092e-02   9.0279074e-01   2.3527627e-01  -4.1540803e+07
   7.8426142e-10  -1.7170648e-02   8.9935051e-01   2.3640271e-01  -4.1265138e+07
   7.8692898e-10  -1.7060936e-02   8.9594350e-01   2.3752633e-01  -4.0991501e+07
   7.8959653e-10  -1.6951952e-02   8.9256931e-01   2.3864711e-01  -4.0719873e+07
   7.9226409e-10  -1.6843689e-02   8.8922757e-01   2.3976503e-01  -4.0450235e+07
   7.9493164e-10  -1.6736144e-02   8.8591789e-01   2.4088007e-01  -4.0182570e+07
   7.9759920e-10  -1.6629309e-02   8.8263990e-01   2.4199221e-01  -3.9916858e+07
   8.0026676e-10  -1.6523181e-02   8.7939323e-01   2.4310143e-01  -3.9653083e+07
   8.0293431e-10  -1.6417754e-02   8.7617752e-01   2.4420772e-01  -3.9391227e+07
   8.0560187e-10  -1.6313023e-02   8.7299241e-01   2.4531104e-01  -3.9131273e+07
   8.0826942e-10  -1.6208982e-02   8.6983755e-01   2.4641140e-01  -3.8873203e+07
   8.1093698e-10  -1.6105628e-02   8.6671258e-01   2.4750876e-01  -3.8617001e+07
   8.1360453e-10  -1.6002955e-02   8.6361718e-01   2.4860311e-01  -3.8362650e+07
   8.1627209e-10  -1.5900958e-02   8.6055099e-01   2.4969443e-01  -3.8110133e+07
   8.1893965e-10  -1.5799631e-02   8.5751368e-01   2.5078271e-01  -3.7859435e+07
   8.2160720e-10  -1.5698972e-02   8.5450492e-01   2.5186792e-01  -3.7610538e+07
   8.2427476e-10  -1.5598973e-02   8.5152439e-01   2.5295006e-01  -3.7363428e+07
   8.2694231e-10  -1.5499632e-02   8.4857177e-01   2.5402911e-01  -3.7118089e+07
   8.2960987e-10  -1.5400943e-02   8.4564674e-01   2.5510505e-01  -3.6874505e+07
   8.3227743e-10  -1.5302901e-02   8.4274899e-01   2.5617787e-01  -3.6632661e+07
   8.3494498e-10  -1.5205502e-02   8.3987821e-01   2.5724756e-01  -3.6392541e+07
   8.3761254e-10  -1.5108741e-02   8.3703409e-01   2.5831409e-01  -3.6154131e+07
   8.4028009e-10  -1.5012614e-02   8.3421635e-01   2.5937745e-01  -3.5917416e+07
   8.4294765e-10  -1.4917116e-02   8.3142467e-01   2.6043764e-01  -3.5682382e+07
   8.4561521e-10  -1.4822243e-02   8.2865878e-01   2.6149464e-01  -3.5449013e+07
   8.4828276e-10  -1.4727990e-02   8.2591838e-01   2.6254843e-01  -3.5217297e+07
   8.5095032e-10  -1.4634353e-02   8.2320319e-01   2.6359901e-01  -3.4987218e+07
   8.5361787e-10  -1.4541328e-02   8.2051292e-01   2.6464635e-01  -3.4758762e+07
   8.5628543e-10  -1.4448910e-02   8.1784731e-01   2.6569046e-01  -3.4531917e+07
   8.5895298e-10  -1.4357095e-02   8.1520608e-01   2.6673131e-01  -3.4306668e+07
   8.6162054e-10  -1.4265879e-02   8.1258896e-01   2.6776889e-01  -3.4083002e+07
   8.6428810e-10  -1.4175257e-02   8.0999569e-01   2.6880321e-01  -3.3860905e+07
   8.6695565e-10  -1.4085226e-02   8.0742600e-01   2.6983423e-01  -3.3640365e+07
   8.6962321e-10  -1.3995781e-02   8.0487964e-01   2.7086197e-01  -3.3421369e+07
   8.7229076e-10  -1.3906918e-02   8.0235634e-01   2.7188639e-01  -3.3203903e+07
   8.7495832e-10  -1.3818633e-02   7.9985587e-01   2.7290750e-01  -3.2987955e+07
   8.7762588e-10  -1.3730922e-02   7.9737796e-01   2.7392529e-01  -3.2773512e+07
   8.8029343e-10  -1.3643781e-02   7.9492238e-01   2.7493974e-01  -3.2560563e+07
   8.8296099e-10  -1.3557206e-02   7.9248888e-01   2.7595085e-01  -3.2349094e+07
   8.8562854e-10  -1.3471194e-02   7.9007722e-01   2.7695861e-01  -3.2139093e+07
   8.8829610e-10  -1.3385739e-02   7.8768717e-01   2.7796301e-01  -3.1930549e+07
   8.9096365e-10  -1.3300839e-02   7.8531850e-01   2.7896404e-01  -3.1723450e+07
   8.9363121e-10  -1.3216490e-02   7.8297098e-01   2.7996170e-01  -3.1517783e+07
   8.9629877e-10  -1.3132687e-02   7.8064437e-01   2.8095598e-01  -3.1313538e+07
   8.9896632e-10  -1.3049428e-02   7.7833845e-01   2.8194687e-01  -3.1110702e+07
   9.0163388e-10  -1.2966707e-02   7.7605301e-01   2.8293436e-01  -3.0909264e+07
   9.0430143e-10  -1.2884522e-02   7.7378783e-01   2.8391845e-01  -3.0709214e+07
   9.0696899e-10  -1.2802869e-02   7.7154269e-01   2.8489913e-01  -3.0510540e+07
   9.0963655e-10  -1.2721744e-02   7.6931737e-01   2.8587640e-01  -3.0313230e+07
   9.1230410e-10  -1.2641143e-02   7.6711168e-01   2.8685024e-01  -3.0117275e+07
   9.1497166e-10  -1.2561063e-02   7.6492539e-01   2.8782066e-01  -2.9922662e+07
   9.1763921e-10  -1.2481501e-02   7.6275831e-01   2.8878765e-01  -2.9729383e+07
   9.2030677e-10  -1.2402453e-02   7.6061023e-01   2.8975121e-01  -2.9537425e+07
   9.2297432e-10  -1.2323915e-02   7.5848096e-01   2.9071132e-01  -2.9346779e+07
   9.2564188e-10  -1.2245883e-02   7.5637030e-01   2.9166799e-01  -2.9157434e+07
   9.2830944e-10  -1.2168355e-02   7.5427805e-01   2.9262122e-01  -2.8969379e+07
   9.3097699e-10  -1.2091327e-02   7.5220402e-01   2.9357098e-01  -2.8782606e+07
   9.3364455e-10  -1.2014796e-02   7.5014803e-01   2.9451730e-01  -2.8597104e+07
   9.3631210e-10  -1.1938757e-02   7.4810987e-01   2.9546015e-01  -2.8412862e+07
   9.3897966e-10  -1.1863209e-02   7.4608938e-01   2.9639954e-01  -2.8229871e+07
   9.4164722e-10  -1.1788147e-02   7.4408637e-01   2.9733546e-01  -2.8048122e+07
   9.4431477e-10  -1.1713568e-02   7.4210065e-01   2.9826792e-01  -2.7867604e+07
   9.4698233e-10  -1.1639469e-02   7.4013205e-01   2.9919690e-01  -2.7688309e+07
   9.4964988e-10  -1.1565847e-02   7.3818039e-01   3.0012241e-01  -2.7510226e+07
   9.5231744e-10  -1.1492698e-02   7.3624550e-01   3.0104445e-01  -2.7333346e+07
   9.5498499e-10  -1.1420019e-02   7.3432721e-01   3.0196301e-01  -2.7157661e+07
   9.5765255e-10  -1.1347808e-02   7.3242535e-01   3.0287808e-01  -2.6983161e+07
   9.6032011e-10  -1.1276060e-02   7.3053974e-01   3.0378968e-01  -2.6809836e+07
   9.6298766e-10  -1.1204773e-02   7.2867024e-01   3.0469780e-01  -2.6637679e+07
   9.6565522e-10  -1.1133944e-02   7.2681666e-01   3.0560244e-01  -2.6466679e+07
   9.6832277e-10  -1.1063569e-02   7.2497885e-01   3.0650359e-01  -2.6296829e+07
   9.7099033e-10  -1.0993646e-02   7.2315666e-01   3.0740125e-01  -2.6128119e+07
   9.7365789e-10  -1.0924172e-02   7.2134992e-01   3.0829544e-01  -2.5960541e+07
   9.7632544e-10  -1.0855143e-02   7.1955848e-01   3.0918614e-01  -2.5794087e+07
   9.7899300e-10  -1.0786557e-02   7.1778218e-01   3.1007335e-01  -2.5628747e+07
   9.8166055e-10  -1.0718410e-02   7.1602087e-01   3.1095709e-01  -2.5464514e+07
   9.8432811e-10  -1.0650700e-02   7.1427441e-01   3.1183733e-01  -2.5301379e+07
   9.8699567e-10  -1.0583423e-02   7.1254264e-01   3.1271410e-01  -2.5139334e+07
   9.8966322e-10  -1.0516578e-02   7.1082541e-01   3.1358738e-01  -2.4978370e+07
   9.9233078e-10  -1.0450160e-02   7.0912260e-01   3.1445718e-01  -2.4818481e+07
   9.9499833e-10  -1.0384167e-02   7.0743404e-01   3.1532350e-01  -2.4659657e+07
   9.9766589e-10  -1.0318597e-02   7.0575960e-01   3.1618635e-01  -2.4501891e+07
   1.0003334e-09  -1.0253446e-02   7.0409914e-01   3.1704571e-01  -2.4345175e+07
   1.0030010e-09  -1.0188712e-02   7.0245252e-01   3.1790161e-01  -2.4189501e+07
   1.0056686e-09  -1.0124392e-02   7.0081961e-01   3.1875402e-01  -2.4034862e+07
   1.0083361e-09  -1.0060482e-02   6.9920026e-01   3.1960297e-01  -2.3881250e+07
   1.0110037e-09  -9.9969817e-03   6.9759436e-01   3.2044845e-01  -2.3728657e+07
   1.0136712e-09  -9.9338866e-03   6.9600176e-01   3.2129046e-01  -2.3577075e+07
   1.0163388e-09  -9.8711945e-03   6.9442233e-01   3.2212900e-01  -2.3426498e+07
   1.0190063e-09  -9.8089027e-03   6.9285596e-01   3.2296409e-01  -2.3276918e+07
   1.0216739e-09  -9.7470087e-03   6.9130250e-01   3.2379572e-01  -2.3128328e+07
   1.0243414e-09  -9.6855097e-03   6.8976184e-01   3.2462389e-01  -2.2980721e+07
   1.0270090e-09  -9.6244032e-03   6.8823385e-01   3.2544860e-01  -2.2834089e+07
   1.0296766e-09  -9.5636865e-03   6.8671841e-01   3.2626987e-01  -2.2688425e+07
   1.0323441e-09  -9.5033571e-03   6.8521540e-01   3.2708770e-01  -2.2543722e+07
   1.0350117e-09  -9.4434124e-03   6.8372469e-01   3.2790208e-01  -2.2399974e+07
   1.0376792e-09  -9.3838499e-03   6.8224617e-01   3.2871302e-01  -2.2257173e+07
   1.0403468e-09  -9.3246671e-03   6.8077973e-01   3.2952053e-01  -2.2115312e+07
   1.0430143e-09  -9.2658615e-03   6.7932524e-01   3.3032461e-01  -2.1974386e+07
   1.0456819e-09  -9.2074305e-03   6.7788259e-01   3.3112527e-01  -2.1834386e+07
   1.0483494e-09  -9.1493718e-03   6.7645167e-01   3.3192250e-01  -2.1695307e+07
   1.0510170e-09  -9.0916829e-03   6.7503237e-01   3.3271631e-01  -2.1557142e+07
   1.0536846e-09  -9.0343613e-03   6.7362458e-01   3.3350672e-01  -2.1419883e+07
   1.0563521e-09  -8.9774046e-03   6.7222818e-01   3.3429371e-01  -2.1283526e+07
   1.0590197e-09  -8.9208106e-03   6.7084307e-01   3.3507730e-01  -2.1148063e+07
   1.0616872e-09  -8.8645766e-03   6.6946915e-01   3.3585750e-01  -2.1013488e+07
   1.0643548e-09  -8.8087005e-03   6.6810630e-01   3.3663430e-01  -2.0879794e+07
   1.0670223e-09  -8.7531799e-03   6.6675443e-01   3.3740771e-01  -2.0746976e+07
   1.0696899e-09  -8.6980124e-03   6.6541343e-01   3.3817774e-01  -2.0615027e+07
   1.0723575e-09  -8.6431957e-03   6.6408319e-01   3.3894440e-01  -2.0483941e+07
   1.0750250e-09  -8.5887275e-03   6.6276362e-01   3.3970768e-01  -2.0353712e+07
   1.0776926e-09  -8.5346056e-03   6.6145462e-01   3.4046760e-01  -2.0224333e+07
   1.0803601e-09  -8.4808278e-03   6.6015608e-01   3.4122416e-01  -2.0095800e+07
   1.0830277e-09  -8.4273916e-03   6.5886792e-01   3.4197737e-01  -1.9968105e+07
   1.0856952e-09  -8.3742950e-03   6.5759003e-01   3.4272723e-01  -1.9841243e+07
   1.0883628e-09  -8.3215357e-03   6.5632232e-01   3.4347375e-01  -1.9715209e+07
   1.0910303e-09  -8.2691115e-03   6.5506470e-01   3.4421693e-01  -1.9589995e+07
   1.0936979e-09  -8.2170202e-03   6.5381707e-01   3.4495678e-01  -1.9465598e+07
   1.0963655e-09  -8.1652597e-03   6.5257933e-01   3.4569332e-01  -1.9342010e+07
   1.0990330e-09  -8.1138278e-03   6.5135140e-01   3.4642653e-01  -1.9219226e+07
   1.1017006e-09  -8.0627223e-03   6.5013320e-01   3.4715644e-01  -1.9097241e+07
   1.1043681e-09  -8.0119412e-03   6.4892462e-01   3.4788305e-01  -1.8976048e+07
   1.1070357e-09  -7.9614823e-03   6.4772558e-01   3.4860636e-01  -1.8855644e+07
   1.1097032e-09  -7.9113436e-03   6.4653599e-01   3.4932638e-01  -1.8736021e+07
   1.1123708e-09  -7.8615229e-03   6.4535577e-01   3.5004312e-01  -1.8617175e+07
   1.1150383e-09  -7.8120182e-03   6.4418483e-01   3.5075659e-01  -1.8499100e+07
   1.1177059e-09  -7.7628275e-03   6.4302308e-01   3.5146679e-01  -1.8381790e+07
   1.1203735e-09  -7.7139487e-03   6.4187045e-01   3.5217373e-01  -1.8265242e+07
   1.1230410e-09  -7.6653798e-03   6.4072685e-01   3.5287742e-01  -1.8149448e+07
   1.1257086e-09  -7.6171188e-03   6.3959220e-01   3.5357787e-01  -1.8034405e+07
   1.1283761e-09  -7.5691636e-03   6.3846642e-01   3.5427508e-01  -1.7920107e+07
   1.1310437e-09  -7.5215124e-03   6.3734942e-01   3.5496906e-01  -1.7806548e+07
   1.1337112e-09  -7.4741631e-03   6.3624113e-01   3.5565981e-01  -1.7693724e+07
   1.1363788e-09  -7.4271138e-03   6.3514147e-01   3.5634736e-01  -1.7581629e+07
   1.1390463e-09  -7.3803626e-03   6.3405037e-01   3.5703170e-01  -1.7470260e+07
   1.1417139e-09  -7.3339074e-03   6.3296774e-01   3.5771284e-01  -1.7359609e+07
   1.1443815e-09  -7.2877465e-03   6.3189351e-01   3.5839079e-01  -1.7249674e+07
   1.1470490e-09  -7.2418779e-03   6.3082760e-01   3.5906556e-01  -1.7140448e+07
   1.1497166e-09  -7.1962998e-03   6.2976995e-01   3.5973715e-01  -1.7031928e+07
   1.1523841e-09  -7.1510101e-03   6.2872047e-01   3.6040558e-01  -1.6924107e+07
   1.1550517e-09  -7.1060072e-03   6.2767910e-01   3.6107085e-01  -1.6816982e+07
   1.1577192e-09  -7.0612891e-03   6.2664576e-01   3.6173298e-01  -1.6710548e+07
   1.1603868e-09  -7.0168540e-03   6.2562038e-01   3.6239196e-01  -1.6604799e+07
   1.1630544e-09  -6.9727001e-03   6.2460289e-01   3.6304781e-01  -1.6499732e+07
   1.1657219e-09  -6.9288255e-03   6.2359322e-01   3.6370054e-01  -1.6395342e+07
   1.1683895e-09  -6.8852286e-03   6.2259131e-01   3.6435016e-01  -1.6291623e+07
   1.1710570e-09  -6.8419074e-03   6.2159708e-01   3.6499667e-01  -1.6188572e+07
   1.1737246e-09  -6.7988602e-03   6.2061046e-01   3.6564008e-01  -1.6086184e+07
   1.1763921e-09  -6.7560853e-03   6.1963140e-01   3.6628040e-01  -1.5984455e+07
   1.1790597e-09  -6.7135808e-03   6.1865982e-01   3.6691765e-01  -1.5883379e+07
   1.1817272e-09  -6.6713451e-03   6.1769566e-01   3.6755182e-01  -1.5782954e+07
   1.1843948e-09  -6.6293765e-03   6.1673885e-01   3.6818294e-01  -1.5683173e+07
   1.1870624e-09  -6.5876732e-03   6.1578933e-01   3.6881100e-01  -1.5584033e+07
   1.1897299e-09  -6.5462334e-03   6.1484704e-01   3.6943601e-01  -1.5485530e+07
   1.1923975e-09  -6.5050556e-03   6.1391191e-01   3.7005799e-01  -1.5387660e+07
   1.1950650e-09  -6.4641380e-03   6.1298388e-01   3.7067695e-01  -1.5290417e+07
   1.1977326e-09  -6.4234790e-03   6.1206289e-01   3.7129289e-01  -1.5193798e+07
   1.2004001e-09  -6.3830769e-03   6.1114888e-01   3.7190583e-01  -1.5097799e+07
   1.2030677e-09  -6.3429301e-03   6.1024179e-01   3.7251576e-01  -1.5002415e+07
   1.2057352e-09  -6.3030369e-03   6.0934155e-01   3.7312271e-01  -1.4907643e+07
   1.2084028e-09  -6.2633957e-03   6.0844812e-01   3.7372668e-01  -1.4813478e+07
   1.2110704e-09  -6.2240049e-03   6.0756143e-01   3.7432768e-01  -1.4719916e+07
   1.2137379e-09  -6.1848628e-03   6.0668142e-01   3.7492572e-01  -1.4626953e+07
   1.2164055e-09  -6.1459680e-03   6.0580803e-01   3.7552081e-01  -1.4534586e+07
   1.2190730e-09  -6.1073187e-03   6.0494122e-01   3.7611296e-01  -1.4442810e+07
   1.2217406e-09  -6.0689135e-03   6.0408092e-01   3.7670218e-01  -1.4351621e+07
   1.2244081e-09  -6.0307508e-03   6.0322707e-01   3.7728847e-01  -1.4261015e+07
   1.2270757e-09  -5.9928289e-03   6.0237963e-01   3.7787186e-01  -1.4170989e+07
   1.2297432e-09  -5.9551465e-03   6.0153854e-01   3.7845234e-01  -1.4081538e+07
   1.2324108e-09  -5.9177019e-03   6.0070374e-01   3.7902992e-01  -1.3992660e+07
   1.2350784e-09  -5.8804937e-03   5.9987518e-01   3.7960463e-01  -1.3904349e+07
   1.2377459e-09  -5.8435202e-03   5.9905281e-01   3.8017646e-01  -1.3816602e+07
   1.2404135e-09  -5.8067801e-03   5.9823658e-01   3.8074543e-01  -1.3729416e+07
   1.2430810e-09  -5.7702718e-03   5.9742643e-01   3.8131154e-01  -1.3642787e+07
   1.2457486e-09  -5.7339939e-03   5.9662232e-01   3.8187481e-01  -1.3556711e+07
   1.2484161e-09  -5.6979448e-03   5.9582418e-01   3.8243524e-01  -1.3471184e+07
   1.2510837e-09  -5.6621232e-03   5.9503198e-01   3.8299285e-01  -1.3386203e+07
   1.2537513e-09  -5.6265275e-03   5.9424566e-01   3.8354765e-01  -1.3301764e+07
   1.2564188e-09  -5.5911564e-03   5.9346517e-01   3.8409964e-01  -1.3217864e+07
   1.2590864e-09  -5.5560083e-03   5.9269047e-01   3.8464884e-01  -1.3134499e+07
   1.2617539e-09  -5.5210820e-03   5.9192150e-01   3.8519525e-01  -1.3051665e+07
   1.2644215e-09  -5.4863758e-03   5.9115822e-01   3.8573889e-01  -1.2969360e+07
   1.2670890e-09  -5.4518886e-03   5.9040058e-01   3.8627976e-01  -1.2887579e+07
   1.2697566e-09  -5.4176188e-03   5.8964853e-01   3.8681787e-01  -1.2806319e+07
   1.2724241e-09  -5.3835650e-03   5.8890203e-01   3.8735325e-01  -1.2725576e+07
   1.2750917e-09  -5.3497260e-03   5.8816103e-01   3.8788588e-01  -1.2645348e+07
   1.2777593e-09  -5.3161003e-03   5.8742549e-01   3.8841580e-01  -1.2565631e+07
   1.2804268e-09  -5.2826866e-03   5.8669536e-01   3.8894299e-01  -1.2486421e+07
   1.2830944e-09  -5.2494835e-03   5.8597059e-01   3.8946749e-01  -1.2407716e+07
   1.2857619e-09  -5.2164896e-03   5.8525114e-01   3.8998929e-01  -1.2329511e+07
   1.2884295e-09  -5.1837038e-03   5.8453697e-01   3.9050840e-01  -1.2251804e+07
   1.2910970e-09  -5.1511245e-03   5.8382804e-01   3.9102484e-01  -1.2174591e+07
   1.2937646e-09  -5.1187506e-03   5.8312429e-01   3.9153862e-01  -1.2097869e+07
   1.2964321e-09  -5.0865807e-03   5.8242570e-01   3.9204974e-01  -1.2021636e+07
   1.2990997e-09  -5.0546135e-03   5.8173221e-01   3.9255822e-01  -1.1945886e+07
   1.3017673e-09  -5.0228477e-03   5.8104378e-01   3.9306406e-01  -1.1870619e+07
   1.3044348e-09  -4.9912820e-03   5.8036038e-01   3.9356728e-01  -1.1795830e+07
   1.3071024e-09  -4.9599153e-03   5.7968196e-01   3.9406789e-01  -1.1721516e+07
   1.3097699e-09  -4.9287461e-03   5.7900849e-01   3.9456589e-01  -1.1647674e+07
   1.3124375e-09  -4.8977733e-03   5.7833991e-01   3.9506130e-01  -1.1574301e+07
   1.3151050e-09  -4.8669955e-03   5.7767619e-01   3.9555413e-01  -1.1501394e+07
   1.3177726e-09  -4.8364117e-03   5.7701730e-01   3.9604438e-01  -1.1428951e+07
   1.3204401e-09  -4.8060205e-03   5.7636319e-01   3.9653207e-01  -1.1356967e+07
   1.3231077e-09  -4.7758207e-03   5.7571383e-01   3.9701721e-01  -1.1285440e+07
   1.3257753e-09  -4.7458111e-03   5.7506917e-01   3.9749981e-01  -1.1214367e+07
   1.3284428e-09  -4.7159904e-03   5.7442917e-01   3.9797987e-01  -1.1143745e+07
   1.3311104e-09  -4.6863576e-03   5.7379381e-01   3.9845741e-01  -1.1073571e+07
   1.3337779e-09  -4.6569114e-03   5.7316304e-01   3.9893244e-01  -1.1003843e+07
   1.3364455e-09  -4.6276506e-03   5.7253683e-01   3.9940497e-01  -1.0934557e+07
   1.3391130e-09  -4.5985740e-03   5.7191514e-01   3.9987501e-01  -1.0865710e+07
   1.3417806e-09  -4.5696805e-03   5.7129793e-01   4.0034256e-01  -1.0797299e+07
   1.3444481e-09  -4.5409689e-03   5.7068517e-01   4.0080765e-01  -1.0729323e+07
   1.3471157e-09  -4.5124380e-03   5.7007682e-01   4.0127027e-01  -1.0661777e+07
   1.3497833e-09  -4.4840868e-03   5.6947284e-01   4.0173044e-01  -1.0594660e+07
   1.3524508e-09  -4.4559140e-03   5.6887321e-01   4.0218817e-01  -1.0527968e+07
   1.3551184e-09  -4.4279186e-03   5.6827788e-01   4.0264347e-01  -1.0461698e+07
   1.3577859e-09  -4.4000994e-03   5.6768683e-01   4.0309635e-01  -1.0395849e+07
   1.3604535e-09  -4.3724553e-03   5.6710001e-01   4.0354682e-01  -1.0330416e+07
   1.3631210e-09  -4.3449852e-03   5.6651740e-01   4.0399489e-01  -1.0265398e+07
   1.3657886e-09  -4.3176879e-03   5.6593897e-01   4.0444057e-01  -1.0200792e+07
   1.3684562e-09  -4.2905625e-03   5.6536467e-01   4.0488387e-01  -1.0136595e+07
   1.3711237e-09  -4.2636078e-03   5.6479447e-01   4.0532480e-01  -1.0072805e+07
   1.3737913e-09  -4.2368227e-03   5.6422835e-01   4.0576337e-01  -1.0009418e+07
   1.3764588e-09  -4.2102061e-03   5.6366627e-01   4.0619959e-01  -9.9464324e+06
   1.3791264e-09  -4.1837571e-03   5.6310820e-01   4.0663347e-01  -9.8838455e+06
   1.3817939e-09  -4.1574744e-03   5.6255411e-01   4.0706502e-01  -9.8216548e+06
   1.3844615e-09  -4.1313572e-03   5.6200396e-01   4.0749425e-01  -9.7598576e+06
   1.3871290e-09  -4.1054042e-03   5.6145773e-01   4.0792117e-01  -9.6984514e+06
   1.3897966e-09  -4.0796146e-03   5.6091539e-01   4.0834580e-01  -9.6374337e+06
   1.3924642e-09  -4.0539872e-03   5.6037690e-01   4.0876813e-01  -9.5768019e+06
   1.3951317e-09  -4.0285210e-03   5.5984223e-01   4.0918818e-01  -9.5165537e+06
   1.3977993e-09  -4.0032150e-03   5.5931136e-01   4.0960596e-01  -9.4566864e+06
   1.4004668e-09  -3.9780683e-03   5.5878425e-01   4.1002149e-01  -9.3971978e+06
   1.4031344e-09  -3.9530797e-03   5.5826088e-01   4.1043476e-01  -9.3380853e+06
   1.4058019e-09  -3.9282483e-03   5.5774121e-01   4.1084579e-01  -9.2793465e+06
   1.4084695e-09  -3.9035731e-03   5.5722522e-01   4.1125460e-01  -9.2209790e+06
   1.4111370e-09  -3.8790531e-03   5.5671288e-01   4.1166118e-01  -9.1629804e+06
   1.4138046e-09  -3.8546873e-03   5.5620416e-01   4.1206555e-01  -9.1053485e+06
   1.4164722e-09  -3.8304748e-03   5.5569903e-01   4.1246773e-01  -9.0480807e+06
   1.4191397e-09  -3.8064145e-03   5.5519747e-01   4.1286771e-01  -8.9911748e+06
   1.4218073e-09  -3.7825056e-03   5.5469944e-01   4.1326551e-01  -8.9346284e+06
   1.4244748e-09  -3.7587471e-03   5.5420492e-01   4.1366114e-01  -8.8784393e+06
   1.4271424e-09  -3.7351379e-03   5.5371389e-01   4.1405461e-01  -8.8226052e+06
   1.4298099e-09  -3.7116772e-03   5.5322631e-01   4.1444593e-01  -8.7671237e+06
   1.4324775e-09  -3.6883641e-03   5.5274216e-01   4.1483511e-01  -8.7119927e+06
   1.4351450e-09  -3.6651975e-03   5.5226141e-01   4.1522216e-01  -8.6572098e+06
   1.4378126e-09  -3.6421767e-03   5.5178404e-01   4.1560708e-01  -8.6027728e+06
   1.4404802e-09  -3.6193006e-03   5.5131002e-01   4.1598990e-01  -8.5486796e+06
   1.4431477e-09  -3.5965683e-03   5.5083932e-01   4.1637061e-01  -8.4949279e+06
   1.4458153e-09  -3.5739790e-03   5.5037192e-01   4.1674922e-01  -8.4415156e+06
   1.4484828e-09  -3.5515316e-03   5.4990780e-01   4.1712576e-01  -8.3884404e+06
   1.4511504e-09  -3.5292255e-03   5.4944693e-01   4.1750022e-01  -8.3357003e+06
   1.4538179e-09  -3.5070595e-03   5.4898928e-01   4.1787261e-01  -8.2832930e+06
   1.4564855e-09  -3.4850330e-03   5.4853483e-01   4.1824296e-01  -8.2312164e+06
   1.4591531e-09  -3.4631449e-03   5.4808355e-01   4.1861125e-01  -8.1794685e+06
   1.4618206e-09  -3.4413944e-03   5.4763543e-01   4.1897752e-01  -8.1280471e+06
   1.4644882e-09  -3.4197806e-03   5.4719043e-01   4.1934175e-01  -8.0769501e+06
   1.4671557e-09  -3.3983027e-03   5.4674854e-01   4.1970397e-01  -8.0261756e+06
   1.4698233e-09  -3.3769599e-03   5.4630972e-01   4.2006418e-01  -7.9757213e+06
   1.4724908e-09  -3.3557512e-03   5.4587396e-01   4.2042240e-01  -7.9255853e+06
   1.4751584e-09  -3.3346758e-03   5.4544124e-01   4.2077863e-01  -7.8757655e+06
   1.4778259e-09  -3.3137329e-03   5.4501152e-01   4.2113288e-01  -7.8262600e+06
   1.4804935e-09  -3.2929216e-03   5.4458480e-01   4.2148516e-01  -7.7770667e+06
   1.4831611e-09  -3.2722412e-03   5.4416104e-01   4.2183548e-01  -7.7281836e+06
   1.4858286e-09  -3.2516907e-03   5.4374022e-01   4.2218385e-01  -7.6796087e+06
   1.4884962e-09  -3.2312694e-03   5.4332232e-01   4.2253027e-01  -7.6313401e+06
   1.4911637e-09  -3.2109764e-03   5.4290732e-01   4.2287477e-01  -7.5833759e+06
   1.4938313e-09  -3.1908110e-03   5.4249519e-01   4.2321734e-01  -7.5357140e+06
   1.4964988e-09  -3.1707724e-03   5.4208592e-01   4.2355800e-01  -7.4883526e+06
   1.4991664e-09  -3.1508597e-03   5.4167949e-01   4.2389676e-01  -7.4412897e+06
   1.5018339e-09  -3.1310721e-03   5.4127586e-01   4.2423362e-01  -7.3945235e+06
   1.5045015e-09  -3.1114089e-03   5.4087503e-01   4.2456860e-01  -7.3480521e+06
   1.5071691e-09  -3.0918692e-03   5.4047697e-01   4.2490169e-01  -7.3018735e+06
   1.5098366e-09  -3.0724524e-03   5.4008166e-01   4.2523293e-01  -7.2559860e+06
   1.5125042e-09  -3.0531576e-03   5.3968907e-01   4.2556230e-01  -7.2103876e+06
   1.5151717e-09  -3.0339840e-03   5.3929920e-01   4.2588982e-01  -7.1650766e+06
   1.5178393e-09  -3.0149309e-03   5.3891201e-01   4.2621550e-01  -7.1200510e+06
   1.5205068e-09  -2.9959976e-03   5.3852749e-01   4.2653935e-01  -7.0753092e+06
   1.5231744e-09  -2.9771832e-03   5.3814562e-01   4.2686138e-01  -7.0308492e+06
   1.5258419e-09  -2.9584870e-03   5.3776638e-01   4.2718159e-01  -6.9866693e+06
   1.5285095e-09  -2.9399083e-03   5.3738975e-01   4.2750000e-01  -6.9427677e+06
   1.5311771e-09  -2.9214464e-03   5.3701571e-01   4.2781662e-01  -6.8991427e+06
   1.5338446e-09  -2.9031005e-03   5.3664424e-01   4.2813144e-01  -6.8557924e+06
   1.5365122e-09  -2.8848698e-03   5.3627532e-01   4.2844449e-01  -6.8127152e+06
   1.5391797e-09  -2.8667537e-03   5.3590894e-01   4.2875577e-01  -6.7699093e+06
   1.5418473e-09  -2.8487515e-03   5.3554506e-01   4.2906529e-01  -6.7273730e+06
   1.5445148e-09  -2.8308623e-03   5.3518369e-01   4.2937305e-01  -6.6851045e+06
   1.5471824e-09  -2.8130855e-03   5.3482479e-01   4.2967908e-01  -6.6431022e+06
   1.5498499e-09  -2.7954204e-03   5.3446835e-01   4.2998337e-01  -6.6013644e+06
   1.5525175e-09  -2.7778664e-03   5.3411435e-01   4.3028593e-01  -6.5598894e+06
   1.5551851e-09  -2.7604225e-03   5.3376277e-01   4.3058677e-01  -6.5186756e+06
   1.5578526e-09  -2.7430883e-03   5.3341360e-01   4.3088591e-01  -6.4777212e+06
   1.5605202e-09  -2.7258630e-03   5.3306682e-01   4.3118335e-01  -6.4370246e+06
   1.5631877e-09  -2.7087459e-03   5.3272240e-01   4.3147909e-01  -6.3965843e+06
   1.5658553e-09  -2.6917364e-03   5.3238034e-01   4.3177316e-01  -6.3563985e+06
   1.5685228e-09  -2.6748337e-03   5.3204061e-01   4.3206555e-01  -6.3164657e+06
   1.5711904e-09  -2.6580372e-03   5.3170320e-01   4.3235627e-01  -6.2767842e+06
   1.5738580e-09  -2.6413462e-03   5.3136809e-01   4.3264533e-01  -6.2373525e+06
   1.5765255e-09  -2.6247601e-03   5.3103527e-01   4.3293275e-01  -6.1981689e+06
   1.5791931e-09  -2.6082782e-03   5.3070471e-01   4.3321852e-01  -6.1592320e+06
   1.5818606e-09  -2.5918998e-03   5.3037640e-01   4.3350267e-01  -6.1205402e+06
   1.5845282e-09  -2.5756243e-03   5.3005033e-01   4.3378519e-01  -6.0820918e+06
   1.5871957e-09  -2.5594510e-03   5.2972648e-01   4.3406609e-01  -6.0438853e+06
   1.5898633e-09  -2.5433793e-03   5.2940483e-01   4.3434538e-01  -6.0059193e+06
   1.5925308e-09  -2.5274086e-03   5.2908536e-01   4.3462308e-01  -5.9681922e+06
   1.5951984e-09  -2.5115382e-03   5.2876807e-01   4.3489918e-01  -5.9307025e+06
   1.5978660e-09  -2.4957675e-03   5.2845293e-01   4.3517371e-01  -5.8934486e+06
   1.6005335e-09  -2.4800959e-03   5.2813993e-01   4.3544665e-01  -5.8564292e+06
   1.6032011e-09  -2.4645227e-03   5.2782905e-01   4.3571803e-01  -5.8196426e+06
   1.6058686e-09  -2.4490473e-03   5.2752028e-01   4.3598785e-01  -5.7830875e+06
   1.6085362e-09  -2.4336692e-03   5.2721360e-01   4.3625612e-01  -5.7467623e+06
   1.6112037e-09  -2.4183876e-03   5.2690900e-01   4.3652285e-01  -5.7106657e+06
   1.6138713e-09  -2.4032020e-03   5.2660646e-01   4.3678805e-01  -5.6747961e+06
   1.6165388e-09  -2.3881118e-03   5.2630597e-01   4.3705171e-01  -5.6391521e+06
   1.6192064e-09  -2.3731164e-03   5.2600752e-01   4.3731386e-01  -5.6037324e+06
   1.6218740e-09  -2.3582152e-03   5.2571108e-01   4.3757450e-01  -5.5685354e+06
   1.6245415e-09  -2.3434075e-03   5.2541664e-01   4.3783363e-01  -5.5335598e+06
   1.6272091e-09  -2.3286929e-03   5.2512419e-01   4.3809127e-01  -5.4988042e+06
   1.6298766e-09  -2.3140707e-03   5.2483372e-01   4.3834742e-01  -5.4642672e+06
   1.6325442e-09  -2.2995403e-03   5.2454521e-01   4.3860209e-01  -5.4299474e+06
   1.6352117e-09  -2.2851012e-03   5.2425865e-01   4.3885529e-01  -5.3958434e+06
   1.6378793e-09  -2.2707528e-03   5.2397402e-01   4.3910703e-01  -5.3619539e+06
   1.6405468e-09  -2.2564945e-03   5.2369130e-01   4.3935731e-01  -5.3282775e+06
   1.6432144e-09  -2.2423257e-03   5.2341050e-01   4.3960614e-01  -5.2948129e+06
   1.6458820e-09  -2.2282459e-03   5.2313158e-01   4.3985353e-01  -5.2615587e+06
   1.6485495e-09  -2.2142546e-03   5.2285454e-01   4.4009949e-01  -5.2285136e+06
   1.6512171e-09  -2.2003511e-03   5.2257937e-01   4.4034402e-01  -5.1956762e+06
   1.6538846e-09  -2.1865350e-03   5.2230604e-01   4.4058713e-01  -5.1630454e+06
   1.6565522e-09  -2.1728056e-03   5.2203456e-01   4.4082883e-01  -5.1306197e+06
   1.6592197e-09  -2.1591624e-03   5.2176490e-01   4.4106912e-01  -5.0983978e+06
   1.6618873e-09  -2.1456050e-03   5.2149705e-01   4.4130802e-01  -5.0663786e+06
   1.6645549e-09  -2.1321327e-03   5.2123100e-01   4.4154554e-01  -5.0345607e+06
   1.6672224e-09  -2.1187449e-03   5.2096674e-01   4.4178167e-01  -5.0029427e+06
   1.6698900e-09  -2.1054413e-03   5.2070425e-01   4.4201642e-01  -4.9715236e+06
   1.6725575e-09  -2.0922212e-03   5.2044352e-01   4.4224981e-01  -4.9403020e+06
   1.6752251e-09  -2.0790841e-03   5.2018453e-01   4.4248184e-01  -4.9092766e+06
   1.6778926e-09  -2.0660296e-03   5.1992729e-01   4.4271252e-01  -4.8784463e+06
   1.6805602e-09  -2.0530570e-03   5.1967177e-01   4.4294185e-01  -4.8478097e+06
   1.6832277e-09  -2.0401659e-03   5.1941796e-01   4.4316985e-01  -4.8173658e+06
   1.6858953e-09  -2.0273557e-03   5.1916584e-01   4.4339652e-01  -4.7871132e+06
   1.6885629e-09  -2.0146260e-03   5.1891542e-01   4.4362186e-01  -4.7570507e+06
   1.6912304e-09  -2.0019762e-03   5.1866667e-01   4.4384588e-01  -4.7271773e+06
   1.6938980e-09  -1.9894059e-03   5.1841958e-01   4.4406860e-01  -4.6974915e+06
   1.6965655e-09  -1.9769145e-03   5.1817415e-01   4.4429001e-01  -4.6679924e+06
   1.6992331e-09  -1.9645016e-03   5.1793035e-01   4.4451013e-01  -4.6386786e+06
   1.7019006e-09  -1.9521666e-03   5.1768819e-01   4.4472896e-01  -4.6095491e+06
   1.7045682e-09  -1.9399090e-03   5.1744764e-01   4.4494651e-01  -4.5806027e+06
   1.7072357e-09  -1.9277285e-03   5.1720869e-01   4.4516279e-01  -4.5518381e+06
   1.7099033e-09  -1.9156244e-03   5.1697134e-01   4.4537779e-01  -4.5232544e+06
   1.7125709e-09  -1.9035963e-03   5.1673558e-01   4.4559154e-01  -4.4948502e+06
   1.7152384e-09  -1.8916438e-03   5.1650138e-01   4.4580403e-01  -4.4666246e+06
   1.7179060e-09  -1.8797663e-03   5.1626875e-01   4.4601528e-01  -4.4385763e+06
   1.7205735e-09  -1.8679634e-03   5.1603766e-01   4.4622529e-01  -4.4107043e+06
   1.7232411e-09  -1.8562346e-03   5.1580812e-01   4.4643406e-01  -4.3830075e+06
   1.7259086e-09  -1.8445795e-03   5.1558010e-01   4.4664160e-01  -4.3554847e+06
   1.7285762e-09  -1.8329976e-03   5.1535360e-01   4.4684793e-01  -4.3281348e+06
   1.7312437e-09  -1.8214883e-03   5.1512861e-01   4.4705304e-01  -4.3009568e+06
   1.7339113e-09  -1.8100514e-03   5.1490511e-01   4.4725695e-01  -4.2739495e+06
   1.7365789e-09  -1.7986863e-03   5.1468310e-01   4.4745965e-01  -4.2471119e+06
   1.7392464e-09  -1.7873925e-03   5.1446256e-01   4.4766116e-01  -4.2204430e+06
   1.7419140e-09  -1.7761697e-03   5.1424349e-01   4.4786149e-01  -4.1939416e+06
   1.7445815e-09  -1.7650173e-03   5.1402588e-01   4.4806063e-01  -4.1676068e+06
   1.7472491e-09  -1.7539349e-03   5.1380970e-01   4.4825860e-01  -4.1414374e+06
   1.7499166e-09  -1.7429222e-03   5.1359497e-01   4.4845541e-01  -4.1154324e+06
   1.7525842e-09  -1.7319786e-03   5.1338166e-01   4.4865105e-01  -4.0895908e+06
   1.7552518e-09  -1.7211037e-03   5.1316976e-01   4.4884553e-01  -4.0639115e+06
   1.7579193e-09  -1.7102971e-03   5.1295927e-01   4.4903887e-01  -4.0383936e+06
   1.7605869e-09  -1.6995584e-03   5.1275017e-01   4.4923107e-01  -4.0130360e+06
   1.7632544e-09  -1.6888870e-03   5.1254246e-01   4.4942213e-01  -3.9878377e+06
   1.7659220e-09  -1.6782827e-03   5.1233612e-01   4.4961206e-01  -3.9627977e+06
   1.7685895e-09  -1.6677450e-03   5.1213115e-01   4.4980086e-01  -3.9379150e+06
   1.7712571e-09  -1.6572735e-03   5.1192754e-01   4.4998855e-01  -3.9131886e+06
   1.7739246e-09  -1.6468677e-03   5.1172527e-01   4.5017513e-01  -3.8886175e+06
   1.7765922e-09  -1.6365272e-03   5.1152434e-01   4.5036060e-01  -3.8642008e+06
   1.7792598e-09  -1.6262517e-03   5.1132474e-01   4.5054498e-01  -3.8399375e+06
   1.7819273e-09  -1.6160406e-03   5.1112646e-01   4.5072826e-01  -3.8158266e+06
   1.7845949e-09  -1.6058937e-03   5.1092949e-01   4.5091046e-01  -3.7918671e+06
   1.7872624e-09  -1.5958106e-03   5.1073382e-01   4.5109157e-01  -3.7680582e+06
   1.7899300e-09  -1.5857907e-03   5.1053945e-01   4.5127161e-01  -3.7443988e+06
   1.7925975e-09  -1.5758337e-03   5.1034635e-01   4.5145059e-01  -3.7208880e+06
   1.7952651e-09  -1.5659393e-03   5.1015454e-01   4.5162850e-01  -3.6975249e+06
   1.7979326e-09  -1.5561069e-03   5.0996398e-01   4.5180535e-01  -3.6743086e+06
   1.8006002e-09  -1.5463364e-03   5.0977469e-01   4.5198115e-01  -3.6512381e+06
   1.8032678e-09  -1.5366271e-03   5.0958664e-01   4.5215591e-01  -3.6283124e+06
   1.8059353e-09  -1.5269789e-03   5.0939983e-01   4.5232963e-01  -3.6055308e+06
   1.8086029e-09  -1.5173912e-03   5.0921426e-01   4.5250231e-01  -3.5828923e+06
   1.8112704e-09  -1.5078637e-03   5.0902990e-01   4.5267397e-01  -3.5603960e+06
   1.8139380e-09  -1.4983960e-03   5.0884676e-01   4.5284461e-01  -3.5380409e+06
   1.8166055e-09  -1.4889878e-03   5.0866483e-01   4.5301423e-01  -3.5158263e+06
   1.8192731e-09  -1.4796386e-03   5.0848409e-01   4.5318284e-01  -3.4937512e+06
   1.8219406e-09  -1.4703482e-03   5.0830454e-01   4.5335045e-01  -3.4718147e+06
   1.8246082e-09  -1.4611161e-03   5.0812618e-01   4.5351705e-01  -3.4500160e+06
   1.8272758e-09  -1.4519419e-03   5.0794899e-01   4.5368267e-01  -3.4283542e+06
   1.8299433e-09  -1.4428254e-03   5.0777296e-01   4.5384729e-01  -3.4068285e+06
   1.8326109e-09  -1.4337661e-03   5.0759809e-01   4.5401094e-01  -3.3854380e+06
   1.8352784e-09  -1.4247636e-03   5.0742437e-01   4.5417360e-01  -3.3641818e+06
   1.8379460e-09  -1.4158177e-03   5.0725179e-01   4.5433530e-01  -3.3430591e+06
   1.8406135e-09  -1.4069280e-03   5.0708034e-01   4.5449603e-01  -3.3220690e+06
   1.8432811e-09  -1.3980941e-03   5.0691002e-01   4.5465580e-01  -3.3012108e+06
   1.8459486e-09  -1.3893156e-03   5.0674082e-01   4.5481462e-01  -3.2804835e+06
   1.8486162e-09  -1.3805923e-03   5.0657273e-01   4.5497248e-01  -3.2598865e+06
   1.8512838e-09  -1.3719237e-03   5.0640574e-01   4.5512940e-01  -3.2394188e+06
   1.8539513e-09  -1.3633096e-03   5.0623984e-01   4.5528539e-01  -3.2190796e+06
   1.8566189e-09  -1.3547495e-03   5.0607504e-01   4.5544044e-01  -3.1988681e+06
   1.8592864e-09  -1.3462432e-03   5.0591131e-01   4.5559456e-01  -3.1787836e+06
   1.8619540e-09  -1.3377903e-03   5.0574866e-01   4.5574776e-01  -3.1588252e+06
   1.8646215e-09  -1.3293905e-03   5.0558707e-01   4.5590004e-01  -3.1389921e+06
   1.8672891e-09  -1.3210434e-03   5.0542654e-01   4.5605141e-01  -3.1192836e+06
   1.8699567e-09  -1.3127487e-03   5.0526706e-01   4.5620187e-01  -3.0996989e+06
   1.8726242e-09  -1.3045061e-03   5.0510863e-01   4.5635144e-01  -3.0802371e+06
   1.8752918e-09  -1.2963153e-03   5.0495123e-01   4.5650010e-01  -3.0608975e+06
   1.8779593e-09  -1.2881759e-03   5.0479487e-01   4.5664787e-01  -3.0416794e+06
   1.8806269e-09  -1.2800876e-03   5.0463952e-01   4.5679476e-01  -3.0225820e+06
   1.8832944e-09  -1.2720500e-03   5.0448519e-01   4.5694076e-01  -3.0036045e+06
   1.8859620e-09  -1.2640630e-03   5.0433188e-01   4.5708589e-01  -2.9847461e+06
   1.8886295e-09  -1.2561260e-03   5.0417956e-01   4.5723015e-01  -2.9660062e+06
   1.8912971e-09  -1.2482390e-03   5.0402824e-01   4.5737354e-01  -2.9473840e+06
   1.8939647e-09  -1.2404014e-03   5.0387791e-01   4.5751607e-01  -2.9288787e+06
   1.8966322e-09  -1.2326130e-03   5.0372856e-01   4.5765774e-01  -2.9104896e+06
   1.8992998e-09  -1.2248736e-03   5.0358018e-01   4.5779856e-01  -2.8922159e+06
   1.9019673e-09  -1.2171827e-03   5.0343278e-01   4.5793853e-01  -2.8740570e+06
   1.9046349e-09  -1.2095401e-03   5.0328633e-01   4.5807766e-01  -2.8560122e+06
   1.9073024e-09  -1.2019455e-03   5.0314084e-01   4.5821596e-01  -2.8380806e+06
   1.9099700e-09  -1.1943986e-03   5.0299630e-01   4.5835342e-01  -2.8202616e+06
   1.9126375e-09  -1.1868991e-03   5.0285271e-01   4.5849005e-01  -2.8025545e+06
   1.9153051e-09  -1.1794466e-03   5.0271005e-01   4.5862587e-01  -2.7849587e+06
   1.9179727e-09  -1.1720410e-03   5.0256832e-01   4.5876086e-01  -2.7674732e+06
   1.9206402e-09  -1.1646818e-03   5.0242751e-01   4.5889504e-01  -2.7500976e+06
   1.9233078e-09  -1.1573689e-03   5.0228762e-01   4.5902841e-01  -2.7328311e+06
   1.9259753e-09  -1.1501018e-03   5.0214865e-01   4.5916098e-01  -2.7156730e+06
   1.9286429e-09  -1.1428804e-03   5.0201058e-01   4.5929275e-01  -2.6986226e+06
   1.9313104e-09  -1.1357044e-03   5.0187340e-01   4.5942372e-01  -2.6816793e+06
   1.9339780e-09  -1.1285733e-03   5.0173713e-01   4.5955391e-01  -2.6648424e+06
   1.9366455e-09  -1.1214871e-03   5.0160173e-01   4.5968331e-01  -2.6481112e+06
   1.9393131e-09  -1.1144454e-03   5.0146722e-01   4.5981192e-01  -2.6314850e+06
   1.9419807e-09  -1.1074478e-03   5.0133359e-01   4.5993976e-01  -2.6149632e+06
   1.9446482e-09  -1.1004942e-03   5.0120082e-01   4.6006683e-01  -2.5985452e+06
   1.9473158e-09  -1.0935843e-03   5.0106892e-01   4.6019313e-01  -2.5822303e+06
   1.9499833e-09  -1.0867177e-03   5.0093787e-01   4.6031867e-01  -2.5660178e+06
   1.9526509e-09  -1.0798942e-03   5.0080768e-01   4.6044345e-01  -2.5499070e+06
   1.9553184e-09  -1.0731136e-03   5.0067833e-01   4.6056748e-01  -2.5338975e+06
   1.9579860e-09  -1.0663756e-03   5.0054983e-01   4.6069075e-01  -2.5179884e+06
   1.9606536e-09  -1.0596799e-03   5.0042215e-01   4.6081328e-01  -2.5021793e+06
   1.9633211e-09  -1.0530262e-03   5.0029531e-01   4.6093507e-01  -2.4864694e+06
   1.9659887e-09  -1.0464142e-03   5.0016929e-01   4.6105612e-01  -2.4708581e+06
   1.9686562e-09  -1.0398438e-03   5.0004409e-01   4.6117644e-01  -2.4553449e+06
   1.9713238e-09  -1.0333147e-03   4.9991971e-01   4.6129603e-01  -2.4399290e+06
   1.9739913e-09  -1.0268265e-03   4.9979613e-01   4.6141490e-01  -2.4246100e+06
   1.9766589e-09  -1.0203791e-03   4.9967335e-01   4.6153304e-01  -2.4093871e+06
   1.9793264e-09  -1.0139722e-03   4.9955136e-01   4.6165047e-01  -2.3942598e+06
   1.9819940e-09  -1.0076054e-03   4.9943017e-01   4.6176719e-01  -2.3792275e+06
   1.9846616e-09  -1.0012787e-03   4.9930977e-01   4.6188321e-01  -2.3642895e+06
   1.9873291e-09  -9.9499166e-04   4.9919015e-01   4.6199851e-01  -2.3494454e+06
   1.9899967e-09  -9.8874411e-04   4.9907130e-01   4.6211312e-01  -2.3346944e+06
   1.9926642e-09  -9.8253579e-04   4.9895322e-01   4.6222704e-01  -2.3200361e+06
   1.9953318e-09  -9.7636644e-04   4.9883590e-01   4.6234026e-01  -2.3054697e+06
   1.9979993e-09  -9.7023583e-04   4.9871935e-01   4.6245280e-01  -2.2909949e+06
   2.0006669e-09  -9.6414371e-04   4.9860355e-01   4.6256465e-01  -2.2766109e+06
   2.0033344e-09  -9.5808984e-04   4.9848850e-01   4.6267583e-01  -2.2623172e+06
   2.0060020e-09  -9.5207397e-04   4.9837420e-01   4.6278633e-01  -2.2481133e+06
   2.0086696e-09  -9.4609588e-04   4.9826064e-01   4.6289615e-01  -2.2339985e+06
   2.0113371e-09  -9.4015533e-04   4.9814781e-01   4.6300532e-01  -2.2199724e+06
   2.0140047e-09  -9.3425207e-04   4.9803571e-01   4.6311381e-01  -2.2060343e+06
   2.0166722e-09  -9.2838587e-04   4.9792434e-01   4.6322165e-01  -2.1921837e+06
   2.0193398e-09  -9.2255650e-04   4.9781369e-01   4.6332884e-01  -2.1784201e+06
   2.0220073e-09  -9.1676374e-04   4.9770375e-01   4.6343537e-01  -2.1647429e+06
   2.0246749e-09  -9.1100734e-04   4.9759452e-01   4.6354125e-01  -2.1511515e+06
   2.0273424e-09  -9.0528709e-04   4.9748600e-01   4.6364649e-01  -2.1376455e+06
   2.0300100e-09  -8.9960275e-04   4.9737818e-01   4.6375109e-01  -2.1242243e+06
   2.0326776e-09  -8.9395410e-04   4.9727106e-01   4.6385506e-01  -2.1108874e+06
   2.0353451e-09  -8.8834091e-04   4.9716463e-01   4.6395839e-01  -2.0976341e+06
   2.0380127e-09  -8.8276297e-04   4.9705889e-01   4.6406109e-01  -2.0844641e+06
   2.0406802e-09  -8.7722005e-04   4.9695383e-01   4.6416317e-01  -2.0713768e+06
   2.0433478e-09  -8.7171193e-04   4.9684945e-01   4.6426462e-01  -2.0583716e+06
   2.0460153e-09  -8.6623839e-04   4.9674575e-01   4.6436546e-01  -2.0454481e+06
   2.0486829e-09  -8.6079922e-04   4.9664271e-01   4.6446568e-01  -2.0326057e+06
   2.0513505e-09  -8.5539420e-04   4.9654034e-01   4.6456530e-01  -2.0198440e+06
   2.0540180e-09  -8.5002311e-04   4.9643863e-01   4.6466430e-01  -2.0071623e+06
   2.0566856e-09  -8.4468575e-04   4.9633757e-01   4.6476270e-01  -1.9945603e+06
   2.0593531e-09  -8.3938190e-04   4.9623717e-01   4.6486051e-01  -1.9820374e+06
   2.0620207e-09  -8.3411134e-04   4.9613742e-01   4.6495771e-01  -1.9695931e+06
   2.0646882e-09  -8.2887388e-04   4.9603830e-01   4.6505432e-01  -1.9572270e+06
   2.0673558e-09  -8.2366931e-04   4.9593983e-01   4.6515035e-01  -1.9449384e+06
   2.0700233e-09  -8.1849741e-04   4.9584200e-01   4.6524579e-01  -1.9327271e+06
   2.0726909e-09  -8.1335798e-04   4.9574479e-01   4.6534064e-01  -1.9205923e+06
   2.0753585e-09  -8.0825082e-04   4.9564821e-01   4.6543492e-01  -1.9085338e+06
   2.0780260e-09  -8.0317573e-04   4.9555225e-01   4.6552862e-01  -1.8965510e+06
   2.0806936e-09  -7.9813250e-04   4.9545691e-01   4.6562175e-01  -1.8846434e+06
   2.0833611e-09  -7.9312093e-04   4.9536219e-01   4.6571431e-01  -1.8728106e+06
   2.0860287e-09  -7.8814083e-04   4.9526807e-01   4.6580631e-01  -1.8610520e+06
   2.0886962e-09  -7.8319200e-04   4.9517456e-01   4.6589774e-01  -1.8493673e+06
   2.0913638e-09  -7.7827424e-04   4.9508166e-01   4.6598861e-01  -1.8377559e+06
   2.0940313e-09  -7.7338736e-04   4.9498935e-01   4.6607893e-01  -1.8262174e+06
   2.0966989e-09  -7.6853116e-04   4.9489763e-01   4.6616870e-01  -1.8147514e+06
   2.0993665e-09  -7.6370544e-04   4.9480651e-01   4.6625792e-01  -1.8033573e+06
   2.1020340e-09  -7.5891003e-04   4.9471597e-01   4.6634659e-01  -1.7920348e+06
   2.1047016e-09  -7.5414473e-04   4.9462602e-01   4.6643473e-01  -1.7807834e+06
   2.1073691e-09  -7.4940934e-04   4.9453664e-01   4.6652232e-01  -1.7696026e+06
   2.1100367e-09  -7.4470369e-04   4.9444784e-01   4.6660937e-01  -1.7584920e+06
   2.1127042e-09  -7.4002758e-04   4.9435961e-01   4.6669590e-01  -1.7474511e+06
   2.1153718e-09  -7.3538083e-04   4.9427194e-01   4.6678189e-01  -1.7364796e+06
   2.1180393e-09  -7.3076326e-04   4.9418484e-01   4.6686736e-01  -1.7255769e+06
   2.1207069e-09  -7.2617468e-04   4.9409830e-01   4.6695231e-01  -1.7147427e+06
   2.1233745e-09  -7.2161491e-04   4.9401232e-01   4.6703673e-01  -1.7039765e+06
   2.1260420e-09  -7.1708377e-04   4.9392689e-01   4.6712064e-01  -1.6932779e+06
   2.1287096e-09  -7.1258107e-04   4.9384201e-01   4.6720403e-01  -1.6826465e+06
   2.1313771e-09  -7.0810665e-04   4.9375767e-01   4.6728692e-01  -1.6720818e+06
   2.1340447e-09  -7.0366032e-04   4.9367388e-01   4.6736929e-01  -1.6615834e+06
   2.1367122e-09  -6.9924191e-04   4.9359062e-01   4.6745116e-01  -1.6511509e+06
   2.1393798e-09  -6.9485124e-04   4.9350790e-01   4.6753253e-01  -1.6407840e+06
   2.1420473e-09  -6.9048813e-04   4.9342571e-01   4.6761340e-01  -1.6304821e+06
   2.1447149e-09  -6.8615243e-04   4.9334405e-01   4.6769378e-01  -1.6202449e+06
   2.1473825e-09  -6.8184394e-04   4.9326291e-01   4.6777366e-01  -1.6100719e+06
   2.1500500e-09  -6.7756250e-04   4.9318229e-01   4.6785305e-01  -1.5999629e+06
   2.1527176e-09  -6.7330795e-04   4.9310219e-01   4.6793196e-01  -1.5899173e+06
   2.1553851e-09  -6.6908011e-04   4.9302261e-01   4.6801038e-01  -1.5799347e+06
   2.1580527e-09  -6.6487882e-04   4.9294353e-01   4.6808832e-01  -1.5700148e+06
   2.1607202e-09  -6.6070390e-04   4.9286496e-01   4.6816578e-01  -1.5601572e+06
   2.1633878e-09  -6.5655520e-04   4.9278690e-01   4.6824277e-01  -1.5503615e+06
   2.1660554e-09  -6.5243254e-04   4.9270933e-01   4.6831928e-01  -1.5406273e+06
   2.1687229e-09  -6.4833577e-04   4.9263227e-01   4.6839533e-01  -1.5309542e+06
   2.1713905e-09  -6.4426472e-04   4.9255569e-01   4.6847091e-01  -1.5213418e+06
   2.1740580e-09  -6.4021923e-04   4.9247961e-01   4.6854602e-01  -1.5117898e+06
   2.1767256e-09  -6.3619915e-04   4.9240402e-01   4.6862067e-01  -1.5022978e+06
   2.1793931e-09  -6.3220430e-04   4.9232891e-01   4.6869487e-01  -1.4928653e+06
   2.1820607e-09  -6.2823454e-04   4.9225428e-01   4.6876861e-01  -1.4834920e+06
   2.1847282e-09  -6.2428970e-04   4.9218013e-01   4.6884189e-01  -1.4741776e+06
   2.1873958e-09  -6.2036963e-04   4.9210646e-01   4.6891473e-01  -1.4649217e+06
   2.1900634e-09  -6.1647417e-04   4.9203326e-01   4.6898712e-01  -1.4557239e+06
   2.1927309e-09  -6.1260317e-04   4.9196052e-01   4.6905906e-01  -1.4465838e+06
   2.1953985e-09  -6.0875648e-04   4.9188826e-01   4.6913056e-01  -1.4375011e+06
   2.1980660e-09  -6.0493394e-04   4.9181645e-01   4.6920162e-01  -1.4284754e+06
   2.2007336e-09  -6.0113540e-04   4.9174511e-01   4.6927224e-01  -1.4195064e+06
   2.2034011e-09  -5.9736071e-04   4.9167422e-01   4.6934243e-01  -1.4105937e+06
   2.2060687e-09  -5.9360972e-04   4.9160378e-01   4.6941219e-01  -1.4017370e+06
   2.2087362e-09  -5.8988228e-04   4.9153380e-01   4.6948152e-01  -1.3929358e+06
   2.2114038e-09  -5.8617825e-04   4.9146426e-01   4.6955042e-01  -1.3841900e+06
   2.2140714e-09  -5.8249747e-04   4.9139517e-01   4.6961890e-01  -1.3754990e+06
   2.2167389e-09  -5.7883980e-04   4.9132652e-01   4.6968696e-01  -1.3668625e+06
   2.2194065e-09  -5.7520510e-04   4.9125831e-01   4.6975460e-01  -1.3582803e+06
   2.2220740e-09  -5.7159322e-04   4.9119054e-01   4.6982182e-01  -1.3497520e+06
   2.2247416e-09  -5.6800402e-04   4.9112320e-01   4.6988863e-01  -1.3412772e+06
   2.2274091e-09  -5.6443735e-04   4.9105629e-01   4.6995503e-01  -1.3328557e+06
   2.2300767e-09  -5.6089308e-04   4.9098981e-01   4.7002102e-01  -1.3244870e+06
   2.2327442e-09  -5.5737106e-04   4.9092375e-01   4.7008660e-01  -1.3161708e+06
   2.2354118e-09  -5.5387115e-04   4.9085812e-01   4.7015178e-01  -1.3079068e+06
   2.2380794e-09  -5.5039323e-04   4.9079291e-01   4.7021655e-01  -1.2996948e+06
   2.2407469e-09  -5.4693713e-04   4.9072811e-01   4.7028093e-01  -1.2915342e+06
   2.2434145e-09  -5.4350274e-04   4.9066373e-01   4.7034491e-01  -1.2834249e+06
   2.2460820e-09  -5.4008991e-04   4.9059975e-01   4.7040850e-01  -1.2753666e+06
   2.2487496e-09  -5.3669851e-04   4.9053619e-01   4.7047170e-01  -1.2673588e+06
   2.2514171e-09  -5.3332841e-04   4.9047303e-01   4.7053450e-01  -1.2594013e+06
   2.2540847e-09  -5.2997946e-04   4.9041028e-01   4.7059692e-01  -1.2514937e+06
   2.2567523e-09  -5.2665155e-04   4.9034793e-01   4.7065895e-01  -1.2436358e+06
   2.2594198e-09  -5.2334452e-04   4.9028597e-01   4.7072060e-01  -1.2358272e+06
   2.2620874e-09  -5.2005827e-04   4.9022441e-01   4.7078188e-01  -1.2280677e+06
   2.2647549e-09  -5.1679264e-04   4.9016325e-01   4.7084277e-01  -1.2203568e+06
   2.2674225e-09  -5.1354752e-04   4.9010247e-01   4.7090329e-01  -1.2126944e+06
   2.2700900e-09  -5.1032278e-04   4.9004209e-01   4.7096343e-01  -1.2050801e+06
   2.2727576e-09  -5.0711828e-04   4.8998209e-01   4.7102320e-01  -1.1975136e+06
   2.2754251e-09  -5.0393391e-04   4.8992247e-01   4.7108261e-01  -1.1899946e+06
   2.2780927e-09  -5.0076953e-04   4.8986323e-01   4.7114165e-01  -1.1825227e+06
   2.2807603e-09  -4.9762501e-04   4.8980437e-01   4.7120032e-01  -1.1750978e+06
   2.2834278e-09  -4.9450024e-04   4.8974589e-01   4.7125863e-01  -1.1677195e+06
   2.2860954e-09  -4.9139510e-04   4.8968777e-01   4.7131658e-01  -1.1603876e+06
   2.2887629e-09  -4.8830944e-04   4.8963003e-01   4.7137418e-01  -1.1531016e+06
   2.2914305e-09  -4.8524317e-04   4.8957266e-01   4.7143142e-01  -1.1458615e+06
   2.2940980e-09  -4.8219614e-04   4.8951566e-01   4.7148830e-01  -1.1386667e+06
   2.2967656e-09  -4.7916825e-04   4.8945901e-01   4.7154484e-01  -1.1315172e+06
   2.2994331e-09  -4.7615937e-04   4.8940273e-01   4.7160102e-01  -1.1244125e+06
   2.3021007e-09  -4.7316938e-04   4.8934681e-01   4.7165686e-01  -1.1173524e+06
   2.3047683e-09  -4.7019817e-04   4.8929124e-01   4.7171235e-01  -1.1103366e+06
   2.3074358e-09  -4.6724561e-04   4.8923603e-01   4.7176750e-01  -1.1033649e+06
   2.3101034e-09  -4.6431159e-04   4.8918117e-01   4.7182231e-01  -1.0964370e+06
   2.3127709e-09  -4.6139599e-04   4.8912666e-01   4.7187678e-01  -1.0895526e+06
   2.3154385e-09  -4.5849870e-04   4.8907250e-01   4.7193091e-01  -1.0827113e+06
   2.3181060e-09  -4.5561960e-04   4.8901868e-01   4.7198471e-01  -1.0759131e+06
   2.3207736e-09  -4.5275858e-04   4.8896521e-01   4.7203818e-01  -1.0691575e+06
   2.3234411e-09  -4.4991553e-04   4.8891208e-01   4.7209132e-01  -1.0624443e+06
   2.3261087e-09  -4.4709032e-04   4.8885928e-01   4.7214412e-01  -1.0557733e+06
   2.3287763e-09  -4.4428286e-04   4.8880682e-01   4.7219661e-01  -1.0491441e+06
   2.3314438e-09  -4.4149302e-04   4.8875470e-01   4.7224876e-01  -1.0425566e+06
   2.3341114e-09  -4.3872070e-04   4.8870290e-01   4.7230060e-01  -1.0360104e+06
   2.3367789e-09  -4.3596578e-04   4.8865144e-01   4.7235211e-01  -1.0295054e+06
   2.3394465e-09  -4.3322817e-04   4.8860031e-01   4.7240331e-01  -1.0230411e+06
   2.3421140e-09  -4.3050774e-04   4.8854950e-01   4.7245419e-01  -1.0166175e+06
   2.3447816e-09  -4.2780440e-04   4.8849901e-01   4.7250475e-01  -1.0102342e+06
   2.3474491e-09  -4.2511803e-04   4.8844885e-01   4.7255500e-01  -1.0038909e+06
   2.3501167e-09  -4.2244853e-04   4.8839900e-01   4.7260494e-01  -9.9758750e+05
   2.3527843e-09  -4.1979579e-04   4.8834948e-01   4.7265457e-01  -9.9132366e+05
   2.3554518e-09  -4.1715970e-04   4.8830026e-01   4.7270389e-01  -9.8509914e+05
   2.3581194e-09  -4.1454017e-04   4.8825136e-01   4.7275291e-01  -9.7891370e+05
   2.3607869e-09  -4.1193709e-04   4.8820278e-01   4.7280163e-01  -9.7276710e+05
   2.3634545e-09  -4.0935035e-04   4.8815450e-01   4.7285004e-01  -9.6665909e+05
   2.3661220e-09  -4.0677985e-04   4.8810653e-01   4.7289816e-01  -9.6058942e+05
   2.3687896e-09  -4.0422549e-04   4.8805886e-01   4.7294597e-01  -9.5455786e+05
   2.3714572e-09  -4.0168718e-04   4.8801150e-01   4.7299349e-01  -9.4856417e+05
   2.3741247e-09  -3.9916480e-04   4.8796444e-01   4.7304072e-01  -9.4260811e+05
   2.3767923e-09  -3.9665826e-04   4.8791767e-01   4.7308765e-01  -9.3668945e+05
   2.3794598e-09  -3.9416745e-04   4.8787121e-01   4.7313429e-01  -9.3080794e+05
   2.3821274e-09  -3.9169229e-04   4.8782504e-01   4.7318065e-01  -9.2496336e+05
   2.3847949e-09  -3.8923267e-04   4.8777916e-01   4.7322671e-01  -9.1915548e+05
   2.3874625e-09  -3.8678849e-04   4.8773358e-01   4.7327249e-01  -9.1338406e+05
   2.3901300e-09  -3.8435966e-04   4.8768829e-01   4.7331799e-01  -9.0764887e+05
   2.3927976e-09  -3.8194608e-04   4.8764328e-01   4.7336321e-01  -9.0194969e+05
   2.3954652e-09  -3.7954766e-04   4.8759856e-01   4.7340814e-01  -8.9628629e+05
   2.3981327e-09  -3.7716429e-04   4.8755412e-01   4.7345280e-01  -8.9065845e+05
   2.4008003e-09  -3.7479589e-04   4.8750997e-01   4.7349718e-01  -8.8506594e+05
   2.4034678e-09  -3.7244237e-04   4.8746610e-01   4.7354128e-01  -8.7950855e+05
   2.4061354e-09  -3.7010362e-04   4.8742251e-01   4.7358512e-01  -8.7398604e+05
   2.4088029e-09  -3.6777955e-04   4.8737919e-01   4.7362868e-01  -8.6849821e+05
   2.4114705e-09  -3.6547008e-04   4.8733615e-01   4.7367197e-01  -8.6304484e+05
   2.4141380e-09  -3.6317511e-04   4.8729338e-01   4.7371499e-01  -8.5762570e+05
   2.4168056e-09  -3.6089455e-04   4.8725088e-01   4.7375774e-01  -8.5224058e+05
   2.4194732e-09  -3.5862831e-04   4.8720866e-01   4.7380023e-01  -8.4688928e+05
   2.4221407e-09  -3.5637630e-04   4.8716670e-01   4.7384246e-01  -8.4157157e+05
   2.4248083e-09  -3.5413843e-04   4.8712501e-01   4.7388442e-01  -8.3628725e+05
   2.4274758e-09  -3.5191461e-04   4.8708358e-01   4.7392613e-01  -8.3103611e+05
   2.4301434e-09  -3.4970476e-04   4.8704242e-01   4.7396757e-01  -8.2581794e+05
   2.4328109e-09  -3.4750878e-04   4.8700152e-01   4.7400876e-01  -8.2063252e+05
   2.4354785e-09  -3.4532659e-04   4.8696087e-01   4.7404969e-01  -8.1547967e+05
   2.4381460e-09  -3.4315810e-04   4.8692049e-01   4.7409037e-01  -8.1035917e+05
   2.4408136e-09  -3.4100323e-04   4.8688036e-01   4.7413079e-01  -8.0527081e+05
   2.4434812e-09  -3.3886189e-04   4.8684049e-01   4.7417097e-01  -8.0021440e+05
   2.4461487e-09  -3.3673400e-04   4.8680087e-01   4.7421090e-01  -7.9518974e+05
   2.4488163e-09  -3.3461946e-04   4.8676150e-01   4.7425057e-01  -7.9019663e+05
   2.4514838e-09  -3.3251821e-04   4.8672238e-01   4.7429001e-01  -7.8523486e+05
   2.4541514e-09  -3.3043015e-04   4.8668351e-01   4.7432919e-01  -7.8030425e+05
   2.4568189e-09  -3.2835520e-04   4.8664489e-01   4.7436814e-01  -7.7540460e+05
   2.4594865e-09  -3.2629328e-04   4.8660651e-01   4.7440684e-01  -7.7053571e+05
   2.4621541e-09  -3.2424430e-04   4.8656838e-01   4.7444530e-01  -7.6569738e+05
   2.4648216e-09  -3.2220819e-04   4.8653049e-01   4.7448352e-01  -7.6088944e+05
   2.4674892e-09  -3.2018487e-04   4.8649283e-01   4.7452151e-01  -7.5611168e+05
   2.4701567e-09  -3.1817425e-04   4.8645542e-01   4.7455926e-01  -7.5136392e+05
   2.4728243e-09  -3.1617626e-04   4.8641824e-01   4.7459677e-01  -7.4664596e+05
   2.4754918e-09  -3.1419081e-04   4.8638130e-01   4.7463405e-01  -7.4195763e+05
   2.4781594e-09  -3.1221783e-04   4.8634460e-01   4.7467110e-01  -7.3729874e+05
   2.4808269e-09  -3.1025724e-04   4.8630813e-01   4.7470793e-01  -7.3266910e+05
   2.4834945e-09  -3.0830896e-04   4.8627188e-01   4.7474452e-01  -7.2806852e+05
   2.4861621e-09  -3.0637291e-04   4.8623587e-01   4.7478088e-01  -7.2349683e+05
   2.4888296e-09  -3.0444902e-04   4.8620009e-01   4.7481702e-01  -7.1895384e+05
   2.4914972e-09  -3.0253721e-04   4.8616453e-01   4.7485293e-01  -7.1443938e+05
   2.4941647e-09  -3.0063741e-04   4.8612920e-01   4.7488862e-01  -7.0995326e+05
   2.4968323e-09  -2.9874953e-04   4.8609410e-01   4.7492409e-01  -7.0549531e+05
   2.4994998e-09  -2.9687351e-04   4.8605921e-01   4.7495934e-01  -7.0106534e+05
   2.5021674e-09  -2.9500927e-04   4.8602455e-01   4.7499437e-01  -6.9666319e+05
   2.5048349e-09  -2.9315673e-04   4.8599011e-01   4.7502918e-01  -6.9228868e+05
   2.5075025e-09  -2.9131583e-04   4.8595588e-01   4.7506378e-01  -6.8794164e+05
   2.5101701e-09  -2.8948649e-04   4.8592187e-01   4.7509816e-01  -6.8362189e+05
   2.5128376e-09  -2.8766863e-04   4.8588808e-01   4.7513232e-01  -6.7932926e+05
   2.5155052e-09  -2.8586219e-04   4.8585450e-01   4.7516628e-01  -6.7506358e+05
   2.5181727e-09  -2.8406709e-04   4.8582114e-01   4.7520002e-01  -6.7082469e+05
   2.5208403e-09  -2.8228326e-04   4.8578798e-01   4.7523355e-01  -6.6661241e+05
   2.5235078e-09  -2.8051064e-04   4.8575504e-01   4.7526688e-01  -6.6242658e+05
   2.5261754e-09  -2.7874914e-04   4.8572230e-01   4.7529999e-01  -6.5826703e+05
   2.5288429e-09  -2.7699871e-04   4.8568978e-01   4.7533291e-01  -6.5413359e+05
   2.5315105e-09  -2.7525926e-04   4.8565746e-01   4.7536561e-01  -6.5002611e+05
   2.5341781e-09  -2.7353074e-04   4.8562534e-01   4.7539812e-01  -6.4594442e+05
   2.5368456e-09  -2.7181308e-04   4.8559343e-01   4.7543042e-01  -6.4188836e+05
   2.5395132e-09  -2.7010620e-04   4.8556172e-01   4.7546252e-01  -6.3785776e+05
   2.5421807e-09  -2.6841003e-04   4.8553021e-01   4.7549442e-01  -6.3385247e+05
   2.5448483e-09  -2.6672452e-04   4.8549889e-01   4.7552612e-01  -6.2987233e+05
   2.5475158e-09  -2.6504959e-04   4.8546778e-01   4.7555762e-01  -6.2591717e+05
   2.5501834e-09  -2.6338518e-04   4.8543687e-01   4.7558893e-01  -6.2198685e+05
   2.5528510e-09  -2.6173122e-04   4.8540615e-01   4.7562005e-01  -6.1808121e+05
   2.5555185e-09  -2.6008765e-04   4.8537562e-01   4.7565097e-01  -6.1420009e+05
   2.5581861e-09  -2.5845440e-04   4.8534529e-01   4.7568169e-01  -6.1034334e+05
   2.5608536e-09  -2.5683140e-04   4.8531515e-01   4.7571223e-01  -6.0651081e+05
   2.5635212e-09  -2.5521859e-04   4.8528520e-01   4.7574258e-01  -6.0270233e+05
   2.5661887e-09  -2.5361591e-04   4.8525545e-01   4.7577273e-01  -5.9891778e+05
   2.5688563e-09  -2.5202330e-04   4.8522587e-01   4.7580270e-01  -5.9515698e+05
   2.5715238e-09  -2.5044068e-04   4.8519649e-01   4.7583249e-01  -5.9141979e+05
   2.5741914e-09  -2.4886801e-04   4.8516729e-01   4.7586208e-01  -5.8770607e+05
   2.5768590e-09  -2.4730521e-04   4.8513828e-01   4.7589150e-01  -5.8401567e+05
   2.5795265e-09  -2.4575222e-04   4.8510945e-01   4.7592073e-01  -5.8034844e+05
   2.5821941e-09  -2.4420898e-04   4.8508081e-01   4.7594978e-01  -5.7670424e+05
   2.5848616e-09  -2.4267543e-04   4.8505234e-01   4.7597864e-01  -5.7308291e+05
   2.5875292e-09  -2.4115152e-04   4.8502406e-01   4.7600733e-01  -5.6948433e+05
   2.5901967e-09  -2.3963717e-04   4.8499595e-01   4.7603584e-01  -5.6590834e+05
   2.5928643e-09  -2.3813233e-04   4.8496802e-01   4.7606417e-01  -5.6235480e+05
   2.5955318e-09  -2.3663694e-04   4.8494027e-01   4.7609233e-01  -5.5882357e+05
   2.5981994e-09  -2.3515095e-04   4.8491270e-01   4.7612031e-01  -5.5531452e+05
   2.6008670e-09  -2.3367428e-04   4.8488530e-01   4.7614811e-01  -5.5182750e+05
   2.6035345e-09  -2.3220688e-04   4.8485807e-01   4.7617575e-01  -5.4836237e+05
   2.6062021e-09  -2.3074870e-04   4.8483101e-01   4.7620321e-01  -5.4491900e+05
   2.6088696e-09  -2.2929968e-04   4.8480413e-01   4.7623049e-01  -5.4149725e+05
   2.6115372e-09  -2.2785975e-04   4.8477742e-01   4.7625761e-01  -5.3809699e+05
   2.6142047e-09  -2.2642887e-04   4.8475087e-01   4.7628456e-01  -5.3471807e+05
   2.6168723e-09  -2.2500697e-04   4.8472449e-01   4.7631135e-01  -5.3136037e+05
   2.6195398e-09  -2.2359400e-04   4.8469828e-01   4.7633796e-01  -5.2802375e+05
   2.6222074e-09  -2.2218990e-04   4.8467224e-01   4.7636441e-01  -5.2470809e+05
   2.6248750e-09  -2.2079462e-04   4.8464636e-01   4.7639070e-01  -5.2141324e+05
   2.6275425e-09  -2.1940811e-04   4.8462064e-01   4.7641682e-01  -5.1813908e+05
   2.6302101e-09  -2.1803029e-04   4.8459509e-01   4.7644277e-01  -5.1488547e+05
   2.6328776e-09  -2.1666113e-04   4.8456970e-01   4.7646857e-01  -5.1165230e+05
   2.6355452e-09  -2.1530057e-04   4.8454447e-01   4.7649421e-01  -5.0843943e+05
   2.6382127e-09  -2.1394855e-04   4.8451939e-01   4.7651968e-01  -5.0524673e+05
   2.6408803e-09  -2.1260502e-04   4.8449448e-01   4.7654500e-01  -5.0207408e+05
   2.6435478e-09  -2.1126993e-04   4.8446973e-01   4.7657016e-01  -4.9892134e+05
   2.6462154e-09  -2.0994322e-04   4.8444513e-01   4.7659516e-01  -4.9578841e+05
   2.6488830e-09  -2.0862484e-04   4.8442068e-01   4.7662001e-01  -4.9267514e+05
   2.6515505e-09  -2.0731474e-04   4.8439639e-01   4.7664470e-01  -4.8958143e+05
   2.6542181e-09  -2.0601287e-04   4.8437226e-01   4.7666924e-01  -4.8650714e+05
   2.6568856e-09  -2.0471917e-04   4.8434828e-01   4.7669362e-01  -4.8345215e+05
   2.6595532e-09  -2.0343360e-04   4.8432444e-01   4.7671785e-01  -4.8041634e+05
   2.6622207e-09  -2.0215609e-04   4.8430076e-01   4.7674193e-01  -4.7739960e+05
   2.6648883e-09  -2.0088661e-04   4.8427723e-01   4.7676587e-01  -4.7440179e+05
   2.6675559e-09  -1.9962511e-04   4.8425385e-01   4.7678965e-01  -4.7142281e+05
   2.6702234e-09  -1.9837152e-04   4.8423062e-01   4.7681328e-01  -4.6846254e+05
   2.6728910e-09  -1.9712581e-04   4.8420753e-01   4.7683677e-01  -4.6552085e+05
   2.6755585e-09  -1.9588791e-04   4.8418459e-01   4.7686011e-01  -4.6259764e+05
   2.6782261e-09  -1.9465779e-04   4.8416179e-01   4.7688330e-01  -4.5969277e+05
   2.6808936e-09  -1.9343540e-04   4.8413914e-01   4.7690635e-01  -4.5680615e+05
   2.6835612e-09  -1.9222068e-04   4.8411663e-01   4.7692926e-01  -4.5393766e+05
   2.6862287e-09  -1.9101359e-04   4.8409426e-01   4.7695202e-01  -4.5108717e+05
   2.6888963e-09  -1.8981408e-04   4.8407204e-01   4.7697464e-01  -4.4825458e+05
   2.6915639e-09  -1.8862210e-04   4.8404995e-01   4.7699712e-01  -4.4543978e+05
   2.6942314e-09  -1.8743761e-04   4.8402800e-01   4.7701946e-01  -4.4264265e+05
   2.6968990e-09  -1.8626055e-04   4.8400620e-01   4.7704166e-01  -4.3986309e+05
   2.6995665e-09  -1.8509089e-04   4.8398453e-01   4.7706372e-01  -4.3710098e+05
   2.7022341e-09  -1.8392857e-04   4.8396300e-01   4.7708564e-01  -4.3435621e+05
   2.7049016e-09  -1.8277355e-04   4.8394160e-01   4.7710743e-01  -4.3162868e+05
   2.7075692e-09  -1.8162578e-04   4.8392034e-01   4.7712908e-01  -4.2891827e+05
   2.7102367e-09  -1.8048522e-04   4.8389921e-01   4.7715060e-01  -4.2622488e+05
   2.7129043e-09  -1.7935182e-04   4.8387822e-01   4.7717198e-01  -4.2354840e+05
   2.7155719e-09  -1.7822554e-04   4.8385736e-01   4.7719323e-01  -4.2088873e+05
   2.7182394e-09  -1.7710633e-04   4.8383663e-01   4.7721434e-01  -4.1824576e+05
   2.7209070e-09  -1.7599415e-04   4.8381603e-01   4.7723533e-01  -4.1561939e+05
   2.7235745e-09  -1.7488895e-04   4.8379556e-01   4.7725618e-01  -4.1300950e+05
   2.7262421e-09  -1.7379070e-04   4.8377522e-01   4.7727690e-01  -4.1041601e+05
   2.7289096e-09  -1.7269934e-04   4.8375501e-01   4.7729750e-01  -4.0783879e+05
   2.7315772e-09  -1.7161483e-04   4.8373493e-01   4.7731796e-01  -4.0527776e+05
   2.7342447e-09  -1.7053713e-04   4.8371497e-01   4.7733830e-01  -4.0273282e+05
   2.7369123e-09  -1.6946620e-04   4.8369514e-01   4.7735851e-01  -4.0020385e+05
   2.7395799e-09  -1.6840200e-04   4.8367544e-01   4.7737859e-01  -3.9769076e+05
   2.7422474e-09  -1.6734448e-04   4.8365586e-01   4.7739855e-01  -3.9519345e+05
   2.7449150e-09  -1.6629360e-04   4.8363640e-01   4.7741839e-01  -3.9271182e+05
   2.7475825e-09  -1.6524932e-04   4.8361707e-01   4.7743810e-01  -3.9024578e+05
   2.7502501e-09  -1.6421159e-04   4.8359785e-01   4.7745768e-01  -3.8779522e+05
   2.7529176e-09  -1.6318038e-04   4.8357876e-01   4.7747715e-01  -3.8536004e+05
   2.7555852e-09  -1.6215565e-04   4.8355979e-01   4.7749649e-01  -3.8294016e+05
   2.7582528e-09  -1.6113735e-04   4.8354094e-01   4.7751571e-01  -3.8053547e+05
   2.7609203e-09  -1.6012545e-04   4.8352221e-01   4.7753482e-01  -3.7814588e+05
   2.7635879e-09  -1.5911990e-04   4.8350360e-01   4.7755380e-01  -3.7577130e+05
   2.7662554e-09  -1.5812067e-04   4.8348510e-01   4.7757266e-01  -3.7341162e+05
   2.7689230e-09  -1.5712771e-04   4.8346672e-01   4.7759141e-01  -3.7106677e+05
   2.7715905e-09  -1.5614098e-04   4.8344846e-01   4.7761004e-01  -3.6873663e+05
   2.7742581e-09  -1.5516045e-04   4.8343031e-01   4.7762855e-01  -3.6642113e+05
   2.7769256e-09  -1.5418608e-04   4.8341228e-01   4.7764695e-01  -3.6412017e+05
   2.7795932e-09  -1.5321783e-04   4.8339436e-01   4.7766523e-01  -3.6183365e+05
   2.7822608e-09  -1.5225566e-04   4.8337656e-01   4.7768340e-01  -3.5956149e+05
   2.7849283e-09  -1.5129953e-04   4.8335886e-01   4.7770146e-01  -3.5730360e+05
   2.7875959e-09  -1.5034940e-04   4.8334128e-01   4.7771940e-01  -3.5505989e+05
   2.7902634e-09  -1.4940524e-04   4.8332381e-01   4.7773723e-01  -3.5283027e+05
   2.7929310e-09  -1.4846701e-04   4.8330645e-01   4.7775495e-01  -3.5061464e+05
   2.7955985e-09  -1.4753467e-04   4.8328920e-01   4.7777256e-01  -3.4841293e+05
   2.7982661e-09  -1.4660819e-04   4.8327206e-01   4.7779006e-01  -3.4622505e+05
   2.8009336e-09  -1.4568752e-04   4.8325502e-01   4.7780744e-01  -3.4405090e+05
   2.8036012e-09  -1.4477264e-04   4.8323809e-01   4.7782472e-01  -3.4189040e+05
   2.8062688e-09  -1.4386350e-04   4.8322127e-01   4.7784190e-01  -3.3974347e+05
   2.8089363e-09  -1.4296007e-04   4.8320456e-01   4.7785896e-01  -3.3761002e+05
   2.8116039e-09  -1.4206231e-04   4.8318795e-01   4.7787592e-01  -3.3548997e+05
   2.8142714e-09  -1.4117019e-04   4.8317145e-01   4.7789277e-01  -3.3338323e+05
   2.8169390e-09  -1.4028367e-04   4.8315505e-01   4.7790952e-01  -3.3128972e+05
   2.8196065e-09  -1.3940272e-04   4.8313875e-01   4.7792616e-01  -3.2920935e+05
   2.8222741e-09  -1.3852730e-04   4.8312256e-01   4.7794270e-01  -3.2714205e+05
   2.8249416e-09  -1.3765738e-04   4.8310647e-01   4.7795913e-01  -3.2508772e+05
   2.8276092e-09  -1.3679292e-04   4.8309048e-01   4.7797547e-01  -3.2304630e+05
   2.8302768e-09  -1.3593389e-04   4.8307459e-01   4.7799170e-01  -3.2101770e+05
   2.8329443e-09  -1.3508025e-04   4.8305880e-01   4.7800782e-01  -3.1900183e+05
   2.8356119e-09  -1.3423198e-04   4.8304311e-01   4.7802385e-01  -3.1699862e+05
   2.8382794e-09  -1.3338903e-04   4.8302752e-01   4.7803978e-01  -3.1500800e+05
   2.8409470e-09  -1.3255137e-04   4.8301203e-01   4.7805561e-01  -3.1302987e+05
   2.8436145e-09  -1.3171898e-04   4.8299664e-01   4.7807134e-01  -3.1106416e+05
   2.8462821e-09  -1.3089181e-04   4.8298134e-01   4.7808697e-01  -3.0911079e+05
   2.8489496e-09  -1.3006984e-04   4.8296614e-01   4.7810250e-01  -3.0716969e+05
   2.8516172e-09  -1.2925302e-04   4.8295104e-01   4.7811794e-01  -3.0524078e+05
   2.8542848e-09  -1.2844134e-04   4.8293603e-01   4.7813328e-01  -3.0332398e+05
   2.8569523e-09  -1.2763475e-04   4.8292111e-01   4.7814852e-01  -3.0141922e+05
   2.8596199e-09  -1.2683323e-04   4.8290629e-01   4.7816367e-01  -2.9952642e+05
   2.8622874e-09  -1.2603675e-04   4.8289156e-01   4.7817872e-01  -2.9764550e+05
   2.8649550e-09  -1.2524526e-04   4.8287693e-01   4.7819368e-01  -2.9577640e+05
   2.8676225e-09  -1.2445874e-04   4.8286239e-01   4.7820855e-01  -2.9391903e+05
   2.8702901e-09  -1.2367717e-04   4.8284794e-01   4.7822332e-01  -2.9207332e+05
   2.8729577e-09  -1.2290050e-04   4.8283358e-01   4.7823800e-01  -2.9023921e+05
   2.8756252e-09  -1.2212871e-04   4.8281931e-01   4.7825259e-01  -2.8841661e+05
   2.8782928e-09  -1.2136176e-04   4.8280513e-01   4.7826709e-01  -2.8660545e+05
   2.8809603e-09  -1.2059963e-04   4.8279104e-01   4.7828149e-01  -2.8480567e+05
   2.8836279e-09  -1.1984229e-04   4.8277704e-01   4.7829581e-01  -2.8301719e+05
   2.8862954e-09  -1.1908970e-04   4.8276313e-01   4.7831004e-01  -2.8123994e+05
   2.8889630e-09  -1.1834184e-04   4.8274930e-01   4.7832418e-01  -2.7947385e+05
   2.8916305e-09  -1.1759868e-04   4.8273557e-01   4.7833823e-01  -2.7771885e+05
   2.8942981e-09  -1.1686018e-04   4.8272192e-01   4.7835219e-01  -2.7597487e+05
   2.8969657e-09  -1.1612632e-04   4.8270835e-01   4.7836606e-01  -2.7424184e+05
   2.8996332e-09  -1.1539707e-04   4.8269487e-01   4.7837985e-01  -2.7251969e+05
   2.9023008e-09  -1.1467239e-04   4.8268148e-01   4.7839355e-01  -2.7080836e+05
   2.9049683e-09  -1.1395227e-04   4.8266817e-01   4.7840717e-01  -2.6910778e+05
   2.9076359e-09  -1.1323667e-04   4.8265494e-01   4.7842070e-01  -2.6741787e+05
   2.9103034e-09  -1.1252557e-04   4.8264180e-01   4.7843414e-01  -2.6573857e+05
   2.9129710e-09  -1.1181892e-04   4.8262874e-01   4.7844751e-01  -2.6406982e+05
   2.9156385e-09  -1.1111672e-04   4.8261576e-01   4.7846078e-01  -2.6241155e+05
   2.9183061e-09  -1.1041893e-04   4.8260287e-01   4.7847398e-01  -2.6076369e+05
   2.9209737e-09  -1.0972552e-04   4.8259005e-01   4.7848709e-01  -2.5912617e+05
   2.9236412e-09  -1.0903646e-04   4.8257732e-01   4.7850012e-01  -2.5749894e+05
   2.9263088e-09  -1.0835173e-04   4.8256467e-01   4.7851307e-01  -2.5588193e+05
   2.9289763e-09  -1.0767130e-04   4.8255209e-01   4.7852594e-01  -2.5427507e+05
   2.9316439e-09  -1.0699514e-04   4.8253960e-01   4.7853873e-01  -2.5267831e+05
   2.9343114e-09  -1.0632323e-04   4.8252718e-01   4.7855144e-01  -2.5109156e+05
   2.9369790e-09  -1.0565554e-04   4.8251485e-01   4.7856406e-01  -2.4951479e+05
   2.9396465e-09  -1.0499204e-04   4.8250259e-01   4.7857661e-01  -2.4794791e+05
   2.9423141e-09  -1.0433271e-04   4.8249040e-01   4.7858908e-01  -2.4639087e+05
   2.9449817e-09  -1.0367751e-04   4.8247830e-01   4.7860148e-01  -2.4484361e+05
   2.9476492e-09  -1.0302644e-04   4.8246627e-01   4.7861379e-01  -2.4330607e+05
   2.9503168e-09  -1.0237945e-04   4.8245431e-01   4.7862603e-01  -2.4177818e+05
   2.9529843e-09  -1.0173652e-04   4.8244244e-01   4.7863819e-01  -2.4025988e+05
   2.9556519e-09  -1.0109763e-04   4.8243063e-01   4.7865028e-01  -2.3875112e+05
   2.9583194e-09  -1.0046276e-04   4.8241890e-01   4.7866229e-01  -2.3725184e+05
   2.9609870e-09  -9.9831865e-05   4.8240725e-01   4.7867422e-01  -2.3576196e+05
   2.9636546e-09  -9.9204937e-05   4.8239567e-01   4.7868608e-01  -2.3428145e+05
   2.9663221e-09  -9.8581945e-05   4.8238416e-01   4.7869787e-01  -2.3281023e+05
   2.9689897e-09  -9.7962866e-05   4.8237272e-01   4.7870958e-01  -2.3134824e+05
   2.9716572e-09  -9.7347675e-05   4.8236136e-01   4.7872122e-01  -2.2989544e+05
   2.9743248e-09  -9.6736347e-05   4.8235007e-01   4.7873278e-01  -2.2845177e+05
   2.9769923e-09  -9.6128857e-05   4.8233884e-01   4.7874428e-01  -2.2701715e+05
   2.9796599e-09  -9.5525183e-05   4.8232769e-01   4.7875570e-01  -2.2559155e+05
   2.9823274e-09  -9.4925299e-05   4.8231661e-01   4.7876705e-01  -2.2417490e+05
   2.9849950e-09  -9.4329183e-05   4.8230560e-01   4.7877833e-01  -2.2276714e+05
   2.9876626e-09  -9.3736810e-05   4.8229466e-01   4.7878953e-01  -2.2136822e+05
   2.9903301e-09  -9.3148157e-05   4.8228379e-01   4.7880067e-01  -2.1997809e+05
   2.9929977e-09  -9.2563200e-05   4.8227298e-01   4.7881174e-01  -2.1859669e+05
   2.9956652e-09  -9.1981917e-05   4.8226225e-01   4.7882274e-01  -2.1722396e+05
   2.9983328e-09  -9.1404284e-05   4.8225158e-01   4.7883367e-01  -2.1585985e+05
   3.0010003e-09  -9.0830279e-05   4.8224098e-01   4.7884453e-01  -2.1450431e+05
   3.0036679e-09  -9.0259878e-05   4.8223045e-01   4.7885533e-01  -2.1315728e+05
   3.0063354e-09  -8.9693059e-05   4.8221998e-01   4.7886605e-01  -2.1181871e+05
   3.0090030e-09  -8.9129799e-05   4.8220958e-01   4.7887671e-01  -2.1048854e+05
   3.0116706e-09  -8.8570077e-05   4.8219924e-01   4.7888730e-01  -2.0916673e+05
   3.0143381e-09  -8.8013870e-05   4.8218897e-01   4.7889783e-01  -2.0785321e+05
   3.0170057e-09  -8.7461155e-05   4.8217876e-01   4.7890829e-01  -2.0654795e+05
   3.0196732e-09  -8.6911911e-05   4.8216862e-01   4.7891868e-01  -2.0525088e+05
   3.0223408e-09  -8.6366117e-05   4.8215854e-01   4.7892901e-01  -2.0396195e+05
   3.0250083e-09  -8.5823750e-05   4.8214852e-01   4.7893928e-01  -2.0268112e+05
   3.0276759e-09  -8.5284788e-05   4.8213857e-01   4.7894948e-01  -2.0140834e+05
   3.0303434e-09  -8.4749212e-05   4.8212868e-01   4.7895962e-01  -2.0014354e+05
   3.0330110e-09  -8.4216998e-05   4.8211886e-01   4.7896969e-01  -1.9888669e+05
   3.0356786e-09  -8.3688127e-05   4.8210909e-01   4.7897970e-01  -1.9763773e+05
   3.0383461e-09  -8.3162577e-05   4.8209939e-01   4.7898965e-01  -1.9639661e+05
   3.0410137e-09  -8.2640327e-05   4.8208974e-01   4.7899953e-01  -1.9516329e+05
   3.0436812e-09  -8.2121357e-05   4.8208016e-01   4.7900936e-01  -1.9393771e+05
   3.0463488e-09  -8.1605646e-05   4.8207064e-01   4.7901912e-01  -1.9271983e+05
   3.0490163e-09  -8.1093173e-05   4.8206118e-01   4.7902882e-01  -1.9150959e+05
   3.0516839e-09  -8.0583919e-05   4.8205178e-01   4.7903846e-01  -1.9030696e+05
   3.0543515e-09  -8.0077862e-05   4.8204243e-01   4.7904804e-01  -1.8911188e+05
   3.0570190e-09  -7.9574984e-05   4.8203315e-01   4.7905756e-01  -1.8792430e+05
   3.0596866e-09  -7.9075263e-05   4.8202393e-01   4.7906702e-01  -1.8674418e+05
   3.0623541e-09  -7.8578681e-05   4.8201476e-01   4.7907642e-01  -1.8557146e+05
   3.0650217e-09  -7.8085217e-05   4.8200565e-01   4.7908576e-01  -1.8440612e+05
   3.0676892e-09  -7.7594852e-05   4.8199660e-01   4.7909504e-01  -1.8324809e+05
   3.0703568e-09  -7.7107566e-05   4.8198760e-01   4.7910427e-01  -1.8209733e+05
   3.0730243e-09  -7.6623340e-05   4.8197866e-01   4.7911344e-01  -1.8095380e+05
   3.0756919e-09  -7.6142155e-05   4.8196978e-01   4.7912255e-01  -1.7981745e+05
   3.0783595e-09  -7.5663992e-05   4.8196095e-01   4.7913160e-01  -1.7868824e+05
   3.0810270e-09  -7.5188831e-05   4.8195218e-01   4.7914060e-01  -1.7756611e+05
   3.0836946e-09  -7.4716655e-05   4.8194347e-01   4.7914954e-01  -1.7645104e+05
   3.0863621e-09  -7.4247443e-05   4.8193480e-01   4.7915842e-01  -1.7534296e+05
   3.0890297e-09  -7.3781178e-05   4.8192620e-01   4.7916725e-01  -1.7424185e+05
   3.0916972e-09  -7.3317842e-05   4.8191765e-01   4.7917602e-01  -1.7314765e+05
   3.0943648e-09  -7.2857414e-05   4.8190915e-01   4.7918474e-01  -1.7206031e+05
   3.0970323e-09  -7.2399879e-05   4.8190070e-01   4.7919340e-01  -1.7097981e+05
   3.0996999e-09  -7.1945216e-05   4.8189231e-01   4.7920201e-01  -1.6990609e+05
   3.1023675e-09  -7.1493409e-05   4.8188397e-01   4.7921057e-01  -1.6883912e+05
   3.1050350e-09  -7.1044438e-05   4.8187569e-01   4.7921907e-01  -1.6777884e+05
   3.1077026e-09  -7.0598288e-05   4.8186745e-01   4.7922752e-01  -1.6672523e+05
   3.1103701e-09  -7.0154939e-05   4.8185927e-01   4.7923591e-01  -1.6567823e+05
   3.1130377e-09  -6.9714374e-05   4.8185114e-01   4.7924425e-01  -1.6463780e+05
   3.1157052e-09  -6.9276576e-05   4.8184306e-01   4.7925254e-01  -1.6360391e+05
   3.1183728e-09  -6.8841527e-05   4.8183503e-01   4.7926078e-01  -1.6257651e+05
   3.1210403e-09  -6.8409210e-05   4.8182705e-01   4.7926897e-01  -1.6155556e+05
   3.1237079e-09  -6.7979608e-05   4.8181912e-01   4.7927711e-01  -1.6054102e+05
   3.1263755e-09  -6.7552703e-05   4.8181125e-01   4.7928519e-01  -1.5953286e+05
   3.1290430e-09  -6.7128480e-05   4.8180342e-01   4.7929322e-01  -1.5853102e+05
   3.1317106e-09  -6.6706921e-05   4.8179564e-01   4.7930121e-01  -1.5753548e+05
   3.1343781e-09  -6.6288009e-05   4.8178791e-01   4.7930914e-01  -1.5654618e+05
   3.1370457e-09  -6.5871727e-05   4.8178022e-01   4.7931703e-01  -1.5556310e+05
   3.1397132e-09  -6.5458060e-05   4.8177259e-01   4.7932486e-01  -1.5458620e+05
   3.1423808e-09  -6.5046991e-05   4.8176501e-01   4.7933265e-01  -1.5361542e+05
   3.1450483e-09  -6.4638503e-05   4.8175747e-01   4.7934038e-01  -1.5265075e+05
   3.1477159e-09  -6.4232580e-05   4.8174998e-01   4.7934807e-01  -1.5169213e+05
   3.1503835e-09  -6.3829206e-05   4.8174254e-01   4.7935571e-01  -1.5073953e+05
   3.1530510e-09  -6.3428366e-05   4.8173514e-01   4.7936330e-01  -1.4979291e+05
   3.1557186e-09  -6.3030042e-05   4.8172779e-01   4.7937085e-01  -1.4885224e+05
   3.1583861e-09  -6.2634220e-05   4.8172049e-01   4.7937835e-01  -1.4791748e+05
   3.1610537e-09  -6.2240884e-05   4.8171323e-01   4.7938580e-01  -1.4698858e+05
   3.1637212e-09  -6.1850018e-05   4.8170602e-01   4.7939320e-01  -1.4606552e+05
   3.1663888e-09  -6.1461606e-05   4.8169885e-01   4.7940056e-01  -1.4514825e+05
   3.1690564e-09  -6.1075634e-05   4.8169173e-01   4.7940787e-01  -1.4423675e+05
   3.1717239e-09  -6.0692085e-05   4.8168465e-01   4.7941513e-01  -1.4333097e+05
   3.1743915e-09  -6.0310945e-05   4.8167762e-01   4.7942235e-01  -1.4243087e+05
   3.1770590e-09  -5.9932198e-05   4.8167063e-01   4.7942953e-01  -1.4153643e+05
   3.1797266e-09  -5.9555830e-05   4.8166369e-01   4.7943666e-01  -1.4064761e+05
   3.1823941e-09  -5.9181826e-05   4.8165679e-01   4.7944374e-01  -1.3976436e+05
   3.1850617e-09  -5.8810170e-05   4.8164993e-01   4.7945078e-01  -1.3888667e+05
   3.1877292e-09  -5.8440848e-05   4.8164312e-01   4.7945778e-01  -1.3801448e+05
   3.1903968e-09  -5.8073845e-05   4.8163635e-01   4.7946473e-01  -1.3714777e+05
   3.1930644e-09  -5.7709147e-05   4.8162962e-01   4.7947164e-01  -1.3628651e+05
   3.1957319e-09  -5.7346739e-05   4.8162293e-01   4.7947851e-01  -1.3543065e+05
   3.1983995e-09  -5.6986607e-05   4.8161629e-01   4.7948533e-01  -1.3458017e+05
   3.2010670e-09  -5.6628737e-05   4.8160969e-01   4.7949211e-01  -1.3373503e+05
   3.2037346e-09  -5.6273114e-05   4.8160313e-01   4.7949885e-01  -1.3289519e+05
   3.2064021e-09  -5.5919724e-05   4.8159661e-01   4.7950554e-01  -1.3206063e+05
   3.2090697e-09  -5.5568554e-05   4.8159013e-01   4.7951220e-01  -1.3123131e+05
   3.2117372e-09  -5.5219589e-05   4.8158369e-01   4.7951881e-01  -1.3040720e+05
   3.2144048e-09  -5.4872815e-05   4.8157730e-01   4.7952538e-01  -1.2958826e+05
   3.2170724e-09  -5.4528219e-05   4.8157094e-01   4.7953191e-01  -1.2877447e+05
   3.2197399e-09  -5.4185787e-05   4.8156462e-01   4.7953839e-01  -1.2796578e+05
   3.2224075e-09  -5.3845505e-05   4.8155835e-01   4.7954484e-01  -1.2716218e+05
   3.2250750e-09  -5.3507360e-05   4.8155211e-01   4.7955125e-01  -1.2636362e+05
   3.2277426e-09  -5.3171339e-05   4.8154591e-01   4.7955761e-01  -1.2557007e+05
   3.2304101e-09  -5.2837428e-05   4.8153975e-01   4.7956394e-01  -1.2478151e+05
   3.2330777e-09  -5.2505614e-05   4.8153363e-01   4.7957023e-01  -1.2399790e+05
   3.2357452e-09  -5.2175883e-05   4.8152755e-01   4.7957648e-01  -1.2321921e+05
   3.2384128e-09  -5.1848224e-05   4.8152151e-01   4.7958268e-01  -1.2244542e+05
   3.2410804e-09  -5.1522621e-05   4.8151550e-01   4.7958885e-01  -1.2167648e+05
   3.2437479e-09  -5.1199064e-05   4.8150953e-01   4.7959499e-01  -1.2091237e+05
   3.2464155e-09  -5.0877539e-05   4.8150360e-01   4.7960108e-01  -1.2015305e+05
   3.2490830e-09  -5.0558032e-05   4.8149771e-01   4.7960713e-01  -1.1939851e+05
   3.2517506e-09  -5.0240532e-05   4.8149185e-01   4.7961315e-01  -1.1864870e+05
   3.2544181e-09  -4.9925026e-05   4.8148603e-01   4.7961913e-01  -1.1790361e+05
   3.2570857e-09  -4.9611501e-05   4.8148025e-01   4.7962507e-01  -1.1716319e+05
   3.2597533e-09  -4.9299945e-05   4.8147451e-01   4.7963097e-01  -1.1642742e+05
   3.2624208e-09  -4.8990346e-05   4.8146880e-01   4.7963684e-01  -1.1569627e+05
   3.2650884e-09  -4.8682691e-05   4.8146312e-01   4.7964267e-01  -1.1496971e+05
   3.2677559e-09  -4.8376968e-05   4.8145748e-01   4.7964846e-01  -1.1424772e+05
   3.2704235e-09  -4.8073165e-05   4.8145188e-01   4.7965422e-01  -1.1353026e+05
   3.2730910e-09  -4.7771269e-05   4.8144631e-01   4.7965994e-01  -1.1281730e+05
   3.2757586e-09  -4.7471270e-05   4.8144078e-01   4.7966563e-01  -1.1210883e+05
   3.2784261e-09  -4.7173154e-05   4.8143528e-01   4.7967128e-01  -1.1140480e+05
   3.2810937e-09  -4.6876911e-05   4.8142982e-01   4.7967689e-01  -1.1070519e+05
   3.2837613e-09  -4.6582528e-05   4.8142439e-01   4.7968247e-01  -1.1000998e+05
   3.2864288e-09  -4.6289993e-05   4.8141900e-01   4.7968801e-01  -1.0931913e+05
   3.2890964e-09  -4.5999296e-05   4.8141364e-01   4.7969352e-01  -1.0863262e+05
   3.2917639e-09  -4.5710424e-05   4.8140831e-01   4.7969900e-01  -1.0795042e+05
   3.2944315e-09  -4.5423367e-05   4.8140301e-01   4.7970444e-01  -1.0727250e+05
   3.2970990e-09  -4.5138112e-05   4.8139775e-01   4.7970985e-01  -1.0659885e+05
   3.2997666e-09  -4.4854648e-05   4.8139253e-01   4.7971522e-01  -1.0592942e+05
   3.3024341e-09  -4.4572964e-05   4.8138733e-01   4.7972056e-01  -1.0526419e+05
   3.3051017e-09  -4.4293050e-05   4.8138217e-01   4.7972586e-01  -1.0460315e+05
   3.3077693e-09  -4.4014893e-05   4.8137704e-01   4.7973113e-01  -1.0394625e+05
   3.3104368e-09  -4.3738483e-05   4.8137194e-01   4.7973637e-01  -1.0329348e+05
   3.3131044e-09  -4.3463809e-05   4.8136688e-01   4.7974158e-01  -1.0264481e+05
   3.3157719e-09  -4.3190860e-05   4.8136185e-01   4.7974675e-01  -1.0200021e+05
   3.3184395e-09  -4.2919624e-05   4.8135685e-01   4.7975189e-01  -1.0135967e+05
   3.3211070e-09  -4.2650093e-05   4.8135188e-01   4.7975700e-01  -1.0072314e+05
   3.3237746e-09  -4.2382253e-05   4.8134694e-01   4.7976208e-01  -1.0009061e+05
   3.3264421e-09  -4.2116096e-05   4.8134203e-01   4.7976712e-01  -9.9462051e+04
   3.3291097e-09  -4.1851610e-05   4.8133715e-01   4.7977214e-01  -9.8837441e+04
   3.3317773e-09  -4.1588785e-05   4.8133231e-01   4.7977712e-01  -9.8216753e+04
   3.3344448e-09  -4.1327611e-05   4.8132749e-01   4.7978207e-01  -9.7599963e+04
   3.3371124e-09  -4.1068077e-05   4.8132271e-01   4.7978699e-01  -9.6987046e+04
   3.3397799e-09  -4.0810172e-05   4.8131795e-01   4.7979188e-01  -9.6377978e+04
   3.3424475e-09  -4.0553888e-05   4.8131322e-01   4.7979674e-01  -9.5772735e+04
   3.3451150e-09  -4.0299212e-05   4.8130853e-01   4.7980156e-01  -9.5171292e+04
   3.3477826e-09  -4.0046136e-05   4.8130386e-01   4.7980636e-01  -9.4573627e+04
   3.3504502e-09  -3.9794650e-05   4.8129923e-01   4.7981113e-01  -9.3979715e+04
   3.3531177e-09  -3.9544742e-05   4.8129462e-01   4.7981587e-01  -9.3389532e+04
   3.3557853e-09  -3.9296404e-05   4.8129004e-01   4.7982057e-01  -9.2803056e+04
   3.3584528e-09  -3.9049626e-05   4.8128549e-01   4.7982525e-01  -9.2220263e+04
   3.3611204e-09  -3.8804397e-05   4.8128097e-01   4.7982990e-01  -9.1641129e+04
   3.3637879e-09  -3.8560708e-05   4.8127648e-01   4.7983452e-01  -9.1065632e+04
   3.3664555e-09  -3.8318550e-05   4.8127201e-01   4.7983911e-01  -9.0493749e+04
   3.3691230e-09  -3.8077912e-05   4.8126757e-01   4.7984367e-01  -8.9925458e+04
   3.3717906e-09  -3.7838786e-05   4.8126317e-01   4.7984820e-01  -8.9360735e+04
   3.3744582e-09  -3.7601161e-05   4.8125879e-01   4.7985271e-01  -8.8799559e+04
   3.3771257e-09  -3.7365028e-05   4.8125443e-01   4.7985719e-01  -8.8241906e+04
   3.3797933e-09  -3.7130378e-05   4.8125011e-01   4.7986163e-01  -8.7687756e+04
   3.3824608e-09  -3.6897202e-05   4.8124581e-01   4.7986606e-01  -8.7137085e+04
   3.3851284e-09  -3.6665491e-05   4.8124154e-01   4.7987045e-01  -8.6589873e+04
   3.3877959e-09  -3.6435234e-05   4.8123729e-01   4.7987481e-01  -8.6046097e+04
   3.3904635e-09  -3.6206423e-05   4.8123307e-01   4.7987915e-01  -8.5505736e+04
   3.3931310e-09  -3.5979049e-05   4.8122888e-01   4.7988346e-01  -8.4968768e+04
   3.3957986e-09  -3.5753104e-05   4.8122472e-01   4.7988775e-01  -8.4435172e+04
   3.3984662e-09  -3.5528577e-05   4.8122058e-01   4.7989200e-01  -8.3904927e+04
   3.4011337e-09  -3.5305460e-05   4.8121646e-01   4.7989623e-01  -8.3378012e+04
   3.4038013e-09  -3.5083744e-05   4.8121238e-01   4.7990044e-01  -8.2854406e+04
   3.4064688e-09  -3.4863420e-05   4.8120831e-01   4.7990461e-01  -8.2334088e+04
   3.4091364e-09  -3.4644480e-05   4.8120428e-01   4.7990876e-01  -8.1817037e+04
   3.4118039e-09  -3.4426915e-05   4.8120027e-01   4.7991289e-01  -8.1303234e+04
   3.4144715e-09  -3.4210717e-05   4.8119628e-01   4.7991699e-01  -8.0792657e+04
   3.4171390e-09  -3.3995876e-05   4.8119232e-01   4.7992106e-01  -8.0285286e+04
   3.4198066e-09  -3.3782384e-05   4.8118839e-01   4.7992511e-01  -7.9781101e+04
   3.4224742e-09  -3.3570233e-05   4.8118448e-01   4.7992913e-01  -7.9280083e+04
   3.4251417e-09  -3.3359414e-05   4.8118059e-01   4.7993313e-01  -7.8782211e+04
   3.4278093e-09  -3.3149919e-05   4.8117673e-01   4.7993710e-01  -7.8287466e+04
   3.4304768e-09  -3.2941740e-05   4.8117289e-01   4.7994105e-01  -7.7795827e+04
   3.4331444e-09  -3.2734868e-05   4.8116908e-01   4.7994497e-01  -7.7307276e+04
   3.4358119e-09  -3.2529295e-05   4.8116529e-01   4.7994887e-01  -7.6821793e+04
   3.4384795e-09  -3.2325014e-05   4.8116152e-01   4.7995274e-01  -7.6339358e+04
   3.4411470e-09  -3.2122015e-05   4.8115778e-01   4.7995659e-01  -7.5859954e+04
   3.4438146e-09  -3.1920291e-05   4.8115406e-01   4.7996042e-01  -7.5383559e+04
   3.4464822e-09  -3.1719833e-05   4.8115037e-01   4.7996422e-01  -7.4910157e+04
   3.4491497e-09  -3.1520635e-05   4.8114670e-01   4.7996799e-01  -7.4439727e+04
   3.4518173e-09  -3.1322687e-05   4.8114305e-01   4.7997175e-01  -7.3972252e+04
   3.4544848e-09  -3.1125983e-05   4.8113942e-01   4.7997548e-01  -7.3507712e+04
   3.4571524e-09  -3.0930514e-05   4.8113582e-01   4.7997918e-01  -7.3046089e+04
   3.4598199e-09  -3.0736272e-05   4.8113224e-01   4.7998287e-01  -7.2587366e+04
   3.4624875e-09  -3.0543250e-05   4.8112868e-01   4.7998653e-01  -7.2131523e+04
   3.4651551e-09  -3.0351441e-05   4.8112515e-01   4.7999016e-01  -7.1678542e+04
   3.4678226e-09  -3.0160836e-05   4.8112163e-01   4.7999378e-01  -7.1228407e+04
   3.4704902e-09  -2.9971428e-05   4.8111814e-01   4.7999737e-01  -7.0781098e+04
   3.4731577e-09  -2.9783209e-05   4.8111467e-01   4.8000094e-01  -7.0336598e+04
   3.4758253e-09  -2.9596172e-05   4.8111123e-01   4.8000449e-01  -6.9894889e+04
   3.4784928e-09  -2.9410310e-05   4.8110780e-01   4.8000801e-01  -6.9455955e+04
   3.4811604e-09  -2.9225615e-05   4.8110440e-01   4.8001151e-01  -6.9019776e+04
   3.4838279e-09  -2.9042080e-05   4.8110101e-01   4.8001499e-01  -6.8586337e+04
   3.4864955e-09  -2.8859698e-05   4.8109765e-01   4.8001845e-01  -6.8155620e+04
   3.4891631e-09  -2.8678461e-05   4.8109431e-01   4.8002189e-01  -6.7727608e+04
   3.4918306e-09  -2.8498362e-05   4.8109099e-01   4.8002530e-01  -6.7302283e+04
   3.4944982e-09  -2.8319394e-05   4.8108769e-01   4.8002870e-01  -6.6879630e+04
   3.4971657e-09  -2.8141550e-05   4.8108442e-01   4.8003207e-01  -6.6459630e+04
   3.4998333e-09  -2.7964823e-05   4.8108116e-01   4.8003542e-01  -6.6042269e+04
   3.5025008e-09  -2.7789205e-05   4.8107792e-01   4.8003875e-01  -6.5627528e+04
   3.5051684e-09  -2.7614691e-05   4.8107471e-01   4.8004206e-01  -6.5215392e+04
   3.5078359e-09  -2.7441272e-05   4.8107151e-01   4.8004535e-01  -6.4805843e+04
   3.5105035e-09  -2.7268943e-05   4.8106833e-01   4.8004862e-01  -6.4398867e+04
   3.5131711e-09  -2.7097696e-05   4.8106518e-01   4.8005187e-01  -6.3994447e+04
   3.5158386e-09  -2.6927524e-05   4.8106204e-01   4.8005509e-01  -6.3592566e+04
   3.5185062e-09  -2.6758421e-05   4.8105892e-01   4.8005830e-01  -6.3193209e+04
   3.5211737e-09  -2.6590379e-05   4.8105583e-01   4.8006149e-01  -6.2796360e+04
   3.5238413e-09  -2.6423393e-05   4.8105275e-01   4.8006465e-01  -6.2402003e+04
   3.5265088e-09  -2.6257456e-05   4.8104969e-01   4.8006780e-01  -6.2010122e+04
   3.5291764e-09  -2.6092561e-05   4.8104665e-01   4.8007093e-01  -6.1620703e+04
   3.5318439e-09  -2.5928701e-05   4.8104363e-01   4.8007404e-01  -6.1233729e+04
   3.5345115e-09  -2.5765871e-05   4.8104063e-01   4.8007712e-01  -6.0849185e+04
   3.5371791e-09  -2.5604063e-05   4.8103765e-01   4.8008019e-01  -6.0467056e+04
   3.5398466e-09  -2.5443271e-05   4.8103469e-01   4.8008324e-01  -6.0087326e+04
   3.5425142e-09  -2.5283488e-05   4.8103174e-01   4.8008627e-01  -5.9709982e+04
   3.5451817e-09  -2.5124710e-05   4.8102882e-01   4.8008928e-01  -5.9335007e+04
   3.5478493e-09  -2.4966928e-05   4.8102591e-01   4.8009228e-01  -5.8962387e+04
   3.5505168e-09  -2.4810137e-05   4.8102302e-01   4.8009525e-01  -5.8592106e+04
   3.5531844e-09  -2.4654331e-05   4.8102015e-01   4.8009821e-01  -5.8224152e+04
   3.5558520e-09  -2.4499503e-05   4.8101730e-01   4.8010114e-01  -5.7858507e+04
   3.5585195e-09  -2.4345648e-05   4.8101446e-01   4.8010406e-01  -5.7495159e+04
   3.5611871e-09  -2.4192759e-05   4.8101164e-01   4.8010696e-01  -5.7134093e+04
   3.5638546e-09  -2.4040830e-05   4.8100884e-01   4.8010984e-01  -5.6775295e+04
   3.5665222e-09  -2.3889855e-05   4.8100606e-01   4.8011271e-01  -5.6418749e+04
   3.5691897e-09  -2.3739828e-05   4.8100330e-01   4.8011555e-01  -5.6064443e+04
   3.5718573e-09  -2.3590743e-05   4.8100055e-01   4.8011838e-01  -5.5712361e+04
   3.5745248e-09  -2.3442595e-05   4.8099782e-01   4.8012119e-01  -5.5362491e+04
   3.5771924e-09  -2.3295376e-05   4.8099511e-01   4.8012398e-01  -5.5014817e+04
   3.5798600e-09  -2.3149083e-05   4.8099241e-01   4.8012676e-01  -5.4669327e+04
   3.5825275e-09  -2.3003708e-05   4.8098973e-01   4.8012951e-01  -5.4326007e+04
   3.5851951e-09  -2.2859246e-05   4.8098707e-01   4.8013225e-01  -5.3984843e+04
   3.5878626e-09  -2.2715691e-05   4.8098442e-01   4.8013498e-01  -5.3645821e+04
   3.5905302e-09  -2.2573038e-05   4.8098180e-01   4.8013768e-01  -5.3308928e+04
   3.5931977e-09  -2.2431281e-05   4.8097918e-01   4.8014037e-01  -5.2974151e+04
   3.5958653e-09  -2.2290414e-05   4.8097659e-01   4.8014304e-01  -5.2641476e+04
   3.5985328e-09  -2.2150431e-05   4.8097401e-01   4.8014570e-01  -5.2310891e+04
   3.6012004e-09  -2.2011328e-05   4.8097145e-01   4.8014834e-01  -5.1982381e+04
   3.6038680e-09  -2.1873098e-05   4.8096890e-01   4.8015096e-01  -5.1655934e+04
   3.6065355e-09  -2.1735736e-05   4.8096637e-01   4.8015356e-01  -5.1331538e+04
   3.6092031e-09  -2.1599237e-05   4.8096385e-01   4.8015615e-01  -5.1009179e+04
   3.6118706e-09  -2.1463595e-05   4.8096135e-01   4.8015872e-01  -5.0688844e+04
   3.6145382e-09  -2.1328805e-05   4.8095887e-01   4.8016128e-01  -5.0370520e+04
   3.6172057e-09  -2.1194861e-05   4.8095640e-01   4.8016382e-01  -5.0054196e+04
   3.6198733e-09  -2.1061759e-05   4.8095395e-01   4.8016635e-01  -4.9739858e+04
   3.6225408e-09  -2.0929492e-05   4.8095151e-01   4.8016886e-01  -4.9427494e+04
   3.6252084e-09  -2.0798056e-05   4.8094909e-01   4.8017135e-01  -4.9117092e+04
   3.6278760e-09  -2.0667446e-05   4.8094668e-01   4.8017383e-01  -4.8808639e+04
   3.6305435e-09  -2.0537655e-05   4.8094429e-01   4.8017629e-01  -4.8502124e+04
   3.6332111e-09  -2.0408680e-05   4.8094191e-01   4.8017874e-01  -4.8197533e+04
   3.6358786e-09  -2.0280515e-05   4.8093955e-01   4.8018117e-01  -4.7894854e+04
   3.6385462e-09  -2.0153154e-05   4.8093721e-01   4.8018358e-01  -4.7594077e+04
   3.6412137e-09  -2.0026594e-05   4.8093487e-01   4.8018598e-01  -4.7295189e+04
   3.6438813e-09  -1.9900828e-05   4.8093256e-01   4.8018837e-01  -4.6998177e+04
   3.6465488e-09  -1.9775852e-05   4.8093025e-01   4.8019074e-01  -4.6703031e+04
   3.6492164e-09  -1.9651660e-05   4.8092797e-01   4.8019310e-01  -4.6409738e+04
   3.6518840e-09  -1.9528249e-05   4.8092569e-01   4.8019544e-01  -4.6118287e+04
   3.6545515e-09  -1.9405613e-05   4.8092343e-01   4.8019776e-01  -4.5828666e+04
   3.6572191e-09  -1.9283747e-05   4.8092119e-01   4.8020007e-01  -4.5540864e+04
   3.6598866e-09  -1.9162646e-05   4.8091896e-01   4.8020237e-01  -4.5254870e+04
   3.6625542e-09  -1.9042306e-05   4.8091674e-01   4.8020465e-01  -4.4970671e+04
   3.6652217e-09  -1.8922721e-05   4.8091454e-01   4.8020692e-01  -4.4688258e+04
   3.6678893e-09  -1.8803888e-05   4.8091235e-01   4.8020918e-01  -4.4407617e+04
   3.6705569e-09  -1.8685800e-05   4.8091017e-01   4.8021142e-01  -4.4128740e+04
   3.6732244e-09  -1.8568454e-05   4.8090801e-01   4.8021364e-01  -4.3851613e+04
   3.6758920e-09  -1.8451846e-05   4.8090586e-01   4.8021586e-01  -4.3576227e+04
   3.6785595e-09  -1.8335969e-05   4.8090373e-01   4.8021805e-01  -4.3302570e+04
   3.6812271e-09  -1.8220820e-05   4.8090160e-01   4.8022024e-01  -4.3030632e+04
   3.6838946e-09  -1.8106395e-05   4.8089950e-01   4.8022241e-01  -4.2760401e+04
   3.6865622e-09  -1.7992687e-05   4.8089740e-01   4.8022457e-01  -4.2491868e+04
   3.6892297e-09  -1.7879694e-05   4.8089532e-01   4.8022671e-01  -4.2225021e+04
   3.6918973e-09  -1.7767411e-05   4.8089325e-01   4.8022884e-01  -4.1959850e+04
   3.6945649e-09  -1.7655833e-05   4.8089119e-01   4.8023096e-01  -4.1696343e+04
   3.6972324e-09  -1.7544955e-05   4.8088915e-01   4.8023306e-01  -4.1434492e+04
   3.6999000e-09  -1.7434774e-05   4.8088712e-01   4.8023515e-01  -4.1174285e+04
   3.7025675e-09  -1.7325284e-05   4.8088510e-01   4.8023723e-01  -4.0915713e+04
   3.7052351e-09  -1.7216483e-05   4.8088310e-01   4.8023929e-01  -4.0658764e+04
   3.7079026e-09  -1.7108364e-05   4.8088111e-01   4.8024134e-01  -4.0403428e+04
   3.7105702e-09  -1.7000925e-05   4.8087913e-01   4.8024338e-01  -4.0149696e+04
   3.7132377e-09  -1.6894160e-05   4.8087716e-01   4.8024541e-01  -3.9897558e+04
   3.7159053e-09  -1.6788065e-05   4.8087521e-01   4.8024742e-01  -3.9647003e+04
   3.7185729e-09  -1.6682637e-05   4.8087326e-01   4.8024942e-01  -3.9398021e+04
   3.7212404e-09  -1.6577871e-05   4.8087133e-01   4.8025141e-01  -3.9150603e+04
   3.7239080e-09  -1.6473763e-05   4.8086942e-01   4.8025338e-01  -3.8904739e+04
   3.7265755e-09  -1.6370309e-05   4.8086751e-01   4.8025534e-01  -3.8660419e+04
   3.7292431e-09  -1.6267504e-05   4.8086562e-01   4.8025729e-01  -3.8417633e+04
   3.7319106e-09  -1.6165345e-05   4.8086373e-01   4.8025923e-01  -3.8176372e+04
   3.7345782e-09  -1.6063828e-05   4.8086186e-01   4.8026116e-01  -3.7936626e+04
   3.7372457e-09  -1.5962948e-05   4.8086001e-01   4.8026307e-01  -3.7698385e+04
   3.7399133e-09  -1.5862702e-05   4.8085816e-01   4.8026497e-01  -3.7461641e+04
   3.7425809e-09  -1.5763085e-05   4.8085632e-01   4.8026686e-01  -3.7226383e+04
   3.7452484e-09  -1.5664094e-05   4.8085450e-01   4.8026874e-01  -3.6992603e+04
   3.7479160e-09  -1.5565724e-05   4.8085269e-01   4.8027061e-01  -3.6760291e+04
   3.7505835e-09  -1.5467972e-05   4.8085089e-01   4.8027246e-01  -3.6529438e+04
   3.7532511e-09  -1.5370834e-05   4.8084910e-01   4.8027431e-01  -3.6300034e+04
   3.7559186e-09  -1.5274306e-05   4.8084732e-01   4.8027614e-01  -3.6072071e+04
   3.7585862e-09  -1.5178385e-05   4.8084555e-01   4.8027796e-01  -3.5845540e+04
   3.7612538e-09  -1.5083065e-05   4.8084380e-01   4.8027977e-01  -3.5620431e+04
   3.7639213e-09  -1.4988344e-05   4.8084205e-01   4.8028156e-01  -3.5396736e+04
   3.7665889e-09  -1.4894219e-05   4.8084032e-01   4.8028335e-01  -3.5174446e+04
   3.7692564e-09  -1.4800684e-05   4.8083859e-01   4.8028512e-01  -3.4953552e+04
   3.7719240e-09  -1.4707736e-05   4.8083688e-01   4.8028689e-01  -3.4734045e+04
   3.7745915e-09  -1.4615373e-05   4.8083518e-01   4.8028864e-01  -3.4515917e+04
   3.7772591e-09  -1.4523589e-05   4.8083349e-01   4.8029038e-01  -3.4299158e+04
   3.7799266e-09  -1.4432382e-05   4.8083181e-01   4.8029211e-01  -3.4083760e+04
   3.7825942e-09  -1.4341747e-05   4.8083014e-01   4.8029383e-01  -3.3869716e+04
   3.7852618e-09  -1.4251682e-05   4.8082848e-01   4.8029554e-01  -3.3657015e+04
   3.7879293e-09  -1.4162182e-05   4.8082683e-01   4.8029724e-01  -3.3445650e+04
   3.7905969e-09  -1.4073244e-05   4.8082519e-01   4.8029892e-01  -3.3235613e+04
   3.7932644e-09  -1.3984865e-05   4.8082356e-01   4.8030060e-01  -3.3026894e+04
   3.7959320e-09  -1.3897041e-05   4.8082195e-01   4.8030227e-01  -3.2819487e+04
   3.7985995e-09  -1.3809769e-05   4.8082034e-01   4.8030392e-01  -3.2613381e+04
   3.8012671e-09  -1.3723044e-05   4.8081874e-01   4.8030557e-01  -3.2408570e+04
   3.8039346e-09  -1.3636864e-05   4.8081715e-01   4.8030720e-01  -3.2205046e+04
   3.8066022e-09  -1.3551226e-05   4.8081558e-01   4.8030883e-01  -3.2002799e+04
   3.8092698e-09  -1.3466125e-05   4.8081401e-01   4.8031044e-01  -3.1801823e+04
   3.8119373e-09  -1.3381558e-05   4.8081245e-01   4.8031205e-01  -3.1602108e+04
   3.8146049e-09  -1.3297523e-05   4.8081090e-01   4.8031364e-01  -3.1403648e+04
   3.8172724e-09  -1.3214015e-05   4.8080936e-01   4.8031523e-01  -3.1206435e+04
   3.8199400e-09  -1.3131032e-05   4.8080784e-01   4.8031680e-01  -3.1010459e+04
   3.8226075e-09  -1.3048570e-05   4.8080632e-01   4.8031837e-01  -3.0815715e+04
   3.8252751e-09  -1.2966626e-05   4.8080481e-01   4.8031992e-01  -3.0622193e+04
   3.8279426e-09  -1.2885196e-05   4.8080331e-01   4.8032147e-01  -3.0429887e+04
   3.8306102e-09  -1.2804278e-05   4.8080182e-01   4.8032300e-01  -3.0238788e+04
   3.8332778e-09  -1.2723868e-05   4.8080034e-01   4.8032453e-01  -3.0048890e+04
   3.8359453e-09  -1.2643963e-05   4.8079886e-01   4.8032604e-01  -2.9860184e+04
   3.8386129e-09  -1.2564559e-05   4.8079740e-01   4.8032755e-01  -2.9672663e+04
   3.8412804e-09  -1.2485655e-05   4.8079595e-01   4.8032905e-01  -2.9486319e+04
   3.8439480e-09  -1.2407245e-05   4.8079450e-01   4.8033053e-01  -2.9301146e+04
   3.8466155e-09  -1.2329329e-05   4.8079307e-01   4.8033201e-01  -2.9117136e+04
   3.8492831e-09  -1.2251901e-05   4.8079164e-01   4.8033348e-01  -2.8934281e+04
   3.8519507e-09  -1.2174960e-05   4.8079022e-01   4.8033494e-01  -2.8752575e+04
   3.8546182e-09  -1.2098502e-05   4.8078882e-01   4.8033639e-01  -2.8572010e+04
   3.8572858e-09  -1.2022524e-05   4.8078742e-01   4.8033783e-01  -2.8392579e+04
   3.8599533e-09  -1.1947024e-05   4.8078603e-01   4.8033927e-01  -2.8214274e+04
   3.8626209e-09  -1.1871997e-05   4.8078464e-01   4.8034069e-01  -2.8037090e+04
   3.8652884e-09  -1.1797442e-05   4.8078327e-01   4.8034210e-01  -2.7861018e+04
   3.8679560e-09  -1.1723354e-05   4.8078191e-01   4.8034351e-01  -2.7686051e+04
   3.8706235e-09  -1.1649732e-05   4.8078055e-01   4.8034491e-01  -2.7512184e+04
   3.8732911e-09  -1.1576573e-05   4.8077920e-01   4.8034630e-01  -2.7339408e+04
   3.8759587e-09  -1.1503873e-05   4.8077786e-01   4.8034767e-01  -2.7167718e+04
   3.8786262e-09  -1.1431629e-05   4.8077653e-01   4.8034905e-01  -2.6997105e+04
   3.8812938e-09  -1.1359839e-05   4.8077521e-01   4.8035041e-01  -2.6827564e+04
   3.8839613e-09  -1.1288500e-05   4.8077390e-01   4.8035176e-01  -2.6659088e+04
   3.8866289e-09  -1.1217609e-05   4.8077259e-01   4.8035311e-01  -2.6491670e+04
   3.8892964e-09  -1.1147163e-05   4.8077129e-01   4.8035444e-01  -2.6325303e+04
   3.8919640e-09  -1.1077160e-05   4.8077000e-01   4.8035577e-01  -2.6159981e+04
   3.8946315e-09  -1.1007596e-05   4.8076872e-01   4.8035709e-01  -2.5995697e+04
   3.8972991e-09  -1.0938469e-05   4.8076745e-01   4.8035840e-01  -2.5832445e+04
   3.8999667e-09  -1.0869776e-05   4.8076618e-01   4.8035971e-01  -2.5670218e+04
