   0.0000000e+00  -1.6246061e-01   6.2155169e+00   2.0098936e-05  -5.1765750e+08
   2.6675559e-12  -1.6108498e-01   6.2060062e+00   2.2335571e-05  -5.1384816e+08
   5.3351117e-12  -1.5971951e-01   6.1960797e+00   2.4799749e-05  -5.1003655e+08
   8.0026676e-12  -1.5836422e-01   6.1857255e+00   2.7512024e-05  -5.0622281e+08
   1.0670223e-11  -1.5701911e-01   6.1749317e+00   3.0494510e-05  -5.0240705e+08
   1.3337779e-11  -1.5568419e-01   6.1636864e+00   3.3770965e-05  -4.9858944e+08
   1.6005335e-11  -1.5435945e-01   6.1519779e+00   3.7366877e-05  -4.9477014e+08
   1.8672891e-11  -1.5304490e-01   6.1397947e+00   4.1309554e-05  -4.9094934e+08
   2.1340447e-11  -1.5174055e-01   6.1271253e+00   4.5628213e-05  -4.8712722e+08
   2.4008003e-11  -1.5044641e-01   6.1139587e+00   5.0354063e-05  -4.8330402e+08
   2.6675559e-11  -1.4916246e-01   6.1002841e+00   5.5520404e-05  -4.7947996e+08
   2.9343114e-11  -1.4788872e-01   6.0860909e+00   6.1162703e-05  -4.7565531e+08
   3.2010670e-11  -1.4662518e-01   6.0713689e+00   6.7318689e-05  -4.7183032e+08
   3.4678226e-11  -1.4537185e-01   6.0561083e+00   7.4028432e-05  -4.6800530e+08
   3.7345782e-11  -1.4412873e-01   6.0402999e+00   8.1334427e-05  -4.6418055e+08
   4.0013338e-11  -1.4289581e-01   6.0239346e+00   8.9281670e-05  -4.6035642e+08
   4.2680894e-11  -1.4167309e-01   6.0070042e+00   9.7917735e-05  -4.5653324e+08
   4.5348449e-11  -1.4046057e-01   5.9895007e+00   1.0729284e-04  -4.5271139e+08
   4.8016005e-11  -1.3925825e-01   5.9714171e+00   1.1745992e-04  -4.4889126e+08
   5.0683561e-11  -1.3806611e-01   5.9527467e+00   1.2847467e-04  -4.4507327e+08
   5.3351117e-11  -1.3688416e-01   5.9334835e+00   1.4039562e-04  -4.4125785e+08
   5.6018673e-11  -1.3571238e-01   5.9136224e+00   1.5328414e-04  -4.3744545e+08
   5.8686229e-11  -1.3455077e-01   5.8931588e+00   1.6720452e-04  -4.3363655e+08
   6.1353785e-11  -1.3339932e-01   5.8720892e+00   1.8222397e-04  -4.2983164e+08
   6.4021340e-11  -1.3225801e-01   5.8504104e+00   1.9841264e-04  -4.2603124e+08
   6.6688896e-11  -1.3112683e-01   5.8281206e+00   2.1584363e-04  -4.2223587e+08
   6.9356452e-11  -1.3000578e-01   5.8052184e+00   2.3459301e-04  -4.1844609e+08
   7.2024008e-11  -1.2889482e-01   5.7817036e+00   2.5473975e-04  -4.1466246e+08
   7.4691564e-11  -1.2779395e-01   5.7575768e+00   2.7636574e-04  -4.1088558e+08
   7.7359120e-11  -1.2670315e-01   5.7328393e+00   2.9955574e-04  -4.0711605e+08
   8.0026676e-11  -1.2562239e-01   5.7074938e+00   3.2439731e-04  -4.0335448e+08
   8.2694231e-11  -1.2455165e-01   5.6815435e+00   3.5098077e-04  -3.9960152e+08
   8.5361787e-11  -1.2349091e-01   5.6549928e+00   3.7939911e-04  -3.9585780e+08
   8.8029343e-11  -1.2244015e-01   5.6278470e+00   4.0974792e-04  -3.9212400e+08
   9.0696899e-11  -1.2139933e-01   5.6001124e+00   4.4212525e-04  -3.8840077e+08
   9.3364455e-11  -1.2036843e-01   5.5717962e+00   4.7663152e-04  -3.8468882e+08
   9.6032011e-11  -1.1934741e-01   5.5429064e+00   5.1336940e-04  -3.8098882e+08
   9.8699567e-11  -1.1833625e-01   5.5134524e+00   5.5244363e-04  -3.7730149e+08
   1.0136712e-10  -1.1733491e-01   5.4834439e+00   5.9396093e-04  -3.7362753e+08
   1.0403468e-10  -1.1634334e-01   5.4528920e+00   6.3802978e-04  -3.6996764e+08
   1.0670223e-10  -1.1536152e-01   5.4218084e+00   6.8476028e-04  -3.6632255e+08
   1.0936979e-10  -1.1438940e-01   5.3902058e+00   7.3426396e-04  -3.6269298e+08
   1.1203735e-10  -1.1342694e-01   5.3580977e+00   7.8665358e-04  -3.5907964e+08
   1.1470490e-10  -1.1247410e-01   5.3254982e+00   8.4204293e-04  -3.5548325e+08
   1.1737246e-10  -1.1153082e-01   5.2924224e+00   9.0054665e-04  -3.5190453e+08
   1.2004001e-10  -1.1059706e-01   5.2588859e+00   9.6227999e-04  -3.4834418e+08
   1.2270757e-10  -1.0967278e-01   5.2249052e+00   1.0273586e-03  -3.4480292e+08
   1.2537513e-10  -1.0875791e-01   5.1904972e+00   1.0958983e-03  -3.4128144e+08
   1.2804268e-10  -1.0785241e-01   5.1556795e+00   1.1680148e-03  -3.3778043e+08
   1.3071024e-10  -1.0695622e-01   5.1204702e+00   1.2438238e-03  -3.3430057e+08
   1.3337779e-10  -1.0606927e-01   5.0848879e+00   1.3234402e-03  -3.3084252e+08
   1.3604535e-10  -1.0519152e-01   5.0489515e+00   1.4069783e-03  -3.2740695e+08
   1.3871290e-10  -1.0432291e-01   5.0126805e+00   1.4945515e-03  -3.2399448e+08
   1.4138046e-10  -1.0346336e-01   4.9760946e+00   1.5862720e-03  -3.2060575e+08
   1.4404802e-10  -1.0261281e-01   4.9392137e+00   1.6822506e-03  -3.1724135e+08
   1.4671557e-10  -1.0177121e-01   4.9020580e+00   1.7825967e-03  -3.1390187e+08
   1.4938313e-10  -1.0093848e-01   4.8646480e+00   1.8874176e-03  -3.1058789e+08
   1.5205068e-10  -1.0011455e-01   4.8270039e+00   1.9968190e-03  -3.0729994e+08
   1.5471824e-10  -9.9299349e-02   4.7891464e+00   2.1109040e-03  -3.0403856e+08
   1.5738580e-10  -9.8492813e-02   4.7510961e+00   2.2297739e-03  -3.0080424e+08
   1.6005335e-10  -9.7694864e-02   4.7128733e+00   2.3535270e-03  -2.9759746e+08
   1.6272091e-10  -9.6905430e-02   4.6744986e+00   2.4822591e-03  -2.9441867e+08
   1.6538846e-10  -9.6124435e-02   4.6359923e+00   2.6160634e-03  -2.9126831e+08
   1.6805602e-10  -9.5351803e-02   4.5973743e+00   2.7550298e-03  -2.8814678e+08
   1.7072357e-10  -9.4587455e-02   4.5586647e+00   2.8992454e-03  -2.8505446e+08
   1.7339113e-10  -9.3831314e-02   4.5198831e+00   3.0487939e-03  -2.8199169e+08
   1.7605869e-10  -9.3083300e-02   4.4810488e+00   3.2037560e-03  -2.7895880e+08
   1.7872624e-10  -9.2343333e-02   4.4421808e+00   3.3642087e-03  -2.7595609e+08
   1.8139380e-10  -9.1611332e-02   4.4032978e+00   3.5302258e-03  -2.7298384e+08
   1.8406135e-10  -9.0887216e-02   4.3644181e+00   3.7018775e-03  -2.7004228e+08
   1.8672891e-10  -9.0170903e-02   4.3255595e+00   3.8792304e-03  -2.6713163e+08
   1.8939647e-10  -8.9462309e-02   4.2867395e+00   4.0623474e-03  -2.6425209e+08
   1.9206402e-10  -8.8761352e-02   4.2479749e+00   4.2512881e-03  -2.6140382e+08
   1.9473158e-10  -8.8067948e-02   4.2092823e+00   4.4461081e-03  -2.5858695e+08
   1.9739913e-10  -8.7382013e-02   4.1706775e+00   4.6468594e-03  -2.5580161e+08
   2.0006669e-10  -8.6703463e-02   4.1321761e+00   4.8535905e-03  -2.5304787e+08
   2.0273424e-10  -8.6032213e-02   4.0937930e+00   5.0663461e-03  -2.5032580e+08
   2.0540180e-10  -8.5368179e-02   4.0555424e+00   5.2851673e-03  -2.4763544e+08
   2.0806936e-10  -8.4711276e-02   4.0174383e+00   5.5100916e-03  -2.4497681e+08
   2.1073691e-10  -8.4061421e-02   3.9794939e+00   5.7411529e-03  -2.4234989e+08
   2.1340447e-10  -8.3418527e-02   3.9417220e+00   5.9783816e-03  -2.3975465e+08
   2.1607202e-10  -8.2782512e-02   3.9041346e+00   6.2218047e-03  -2.3719105e+08
   2.1873958e-10  -8.2153289e-02   3.8667434e+00   6.4714456e-03  -2.3465901e+08
   2.2140714e-10  -8.1530777e-02   3.8295594e+00   6.7273245e-03  -2.3215843e+08
   2.2407469e-10  -8.0914890e-02   3.7925931e+00   6.9894583e-03  -2.2968921e+08
   2.2674225e-10  -8.0305546e-02   3.7558545e+00   7.2578605e-03  -2.2725122e+08
   2.2940980e-10  -7.9702660e-02   3.7193528e+00   7.5325418e-03  -2.2484430e+08
   2.3207736e-10  -7.9106152e-02   3.6830970e+00   7.8135095e-03  -2.2246829e+08
   2.3474491e-10  -7.8515938e-02   3.6470954e+00   8.1007682e-03  -2.2012301e+08
   2.3741247e-10  -7.7931936e-02   3.6113557e+00   8.3943194e-03  -2.1780827e+08
   2.4008003e-10  -7.7354067e-02   3.5758853e+00   8.6941618e-03  -2.1552385e+08
   2.4274758e-10  -7.6782248e-02   3.5406909e+00   9.0002917e-03  -2.1326952e+08
   2.4541514e-10  -7.6216401e-02   3.5057789e+00   9.3127023e-03  -2.1104507e+08
   2.4808269e-10  -7.5656445e-02   3.4711550e+00   9.6313846e-03  -2.0885022e+08
   2.5075025e-10  -7.5102303e-02   3.4368247e+00   9.9563271e-03  -2.0668474e+08
   2.5341781e-10  -7.4553896e-02   3.4027928e+00   1.0287516e-02  -2.0454834e+08
   2.5608536e-10  -7.4011147e-02   3.3690639e+00   1.0624935e-02  -2.0244075e+08
   2.5875292e-10  -7.3473981e-02   3.3356420e+00   1.0968566e-02  -2.0036168e+08
   2.6142047e-10  -7.2942320e-02   3.3025307e+00   1.1318388e-02  -1.9831084e+08
   2.6408803e-10  -7.2416090e-02   3.2697333e+00   1.1674379e-02  -1.9628792e+08
   2.6675559e-10  -7.1895218e-02   3.2372527e+00   1.2036515e-02  -1.9429262e+08
   2.6942314e-10  -7.1379630e-02   3.2050914e+00   1.2404770e-02  -1.9232462e+08
   2.7209070e-10  -7.0869254e-02   3.1732516e+00   1.2779116e-02  -1.9038360e+08
   2.7475825e-10  -7.0364018e-02   3.1417351e+00   1.3159523e-02  -1.8846924e+08
   2.7742581e-10  -6.9863851e-02   3.1105434e+00   1.3545961e-02  -1.8658120e+08
   2.8009336e-10  -6.9368685e-02   3.0796777e+00   1.3938397e-02  -1.8471917e+08
   2.8276092e-10  -6.8878449e-02   3.0491390e+00   1.4336797e-02  -1.8288279e+08
   2.8542848e-10  -6.8393076e-02   3.0189278e+00   1.4741126e-02  -1.8107175e+08
   2.8809603e-10  -6.7912499e-02   2.9890446e+00   1.5151348e-02  -1.7928569e+08
   2.9076359e-10  -6.7436653e-02   2.9594894e+00   1.5567424e-02  -1.7752428e+08
   2.9343114e-10  -6.6965470e-02   2.9302621e+00   1.5989316e-02  -1.7578717e+08
   2.9609870e-10  -6.6498888e-02   2.9013624e+00   1.6416985e-02  -1.7407403e+08
   2.9876626e-10  -6.6036843e-02   2.8727897e+00   1.6850389e-02  -1.7238452e+08
   3.0143381e-10  -6.5579272e-02   2.8445432e+00   1.7289487e-02  -1.7071830e+08
   3.0410137e-10  -6.5126113e-02   2.8166220e+00   1.7734235e-02  -1.6907501e+08
   3.0676892e-10  -6.4677307e-02   2.7890249e+00   1.8184592e-02  -1.6745433e+08
   3.0943648e-10  -6.4232792e-02   2.7617505e+00   1.8640512e-02  -1.6585592e+08
   3.1210403e-10  -6.3792511e-02   2.7347975e+00   1.9101951e-02  -1.6427944e+08
   3.1477159e-10  -6.3356405e-02   2.7081642e+00   1.9568864e-02  -1.6272456e+08
   3.1743915e-10  -6.2924417e-02   2.6818488e+00   2.0041204e-02  -1.6119094e+08
   3.2010670e-10  -6.2496491e-02   2.6558494e+00   2.0518924e-02  -1.5967826e+08
   3.2277426e-10  -6.2072571e-02   2.6301640e+00   2.1001978e-02  -1.5818619e+08
   3.2544181e-10  -6.1652603e-02   2.6047905e+00   2.1490318e-02  -1.5671439e+08
   3.2810937e-10  -6.1236534e-02   2.5797266e+00   2.1983896e-02  -1.5526256e+08
   3.3077693e-10  -6.0824310e-02   2.5549700e+00   2.2482664e-02  -1.5383037e+08
   3.3344448e-10  -6.0415879e-02   2.5305183e+00   2.2986573e-02  -1.5241751e+08
   3.3611204e-10  -6.0011191e-02   2.5063689e+00   2.3495574e-02  -1.5102367e+08
   3.3877959e-10  -5.9610195e-02   2.4825194e+00   2.4009617e-02  -1.4964853e+08
   3.4144715e-10  -5.9212842e-02   2.4589670e+00   2.4528653e-02  -1.4829179e+08
   3.4411470e-10  -5.8819083e-02   2.4357090e+00   2.5052633e-02  -1.4695316e+08
   3.4678226e-10  -5.8428870e-02   2.4127427e+00   2.5581505e-02  -1.4563233e+08
   3.4944982e-10  -5.8042156e-02   2.3900653e+00   2.6115222e-02  -1.4432901e+08
   3.5211737e-10  -5.7658895e-02   2.3676738e+00   2.6653731e-02  -1.4304292e+08
   3.5478493e-10  -5.7279042e-02   2.3455654e+00   2.7196982e-02  -1.4177376e+08
   3.5745248e-10  -5.6902550e-02   2.3237371e+00   2.7744926e-02  -1.4052125e+08
   3.6012004e-10  -5.6529377e-02   2.3021861e+00   2.8297512e-02  -1.3928512e+08
   3.6278760e-10  -5.6159480e-02   2.2809092e+00   2.8854689e-02  -1.3806510e+08
   3.6545515e-10  -5.5792815e-02   2.2599034e+00   2.9416406e-02  -1.3686091e+08
   3.6812271e-10  -5.5429340e-02   2.2391658e+00   2.9982614e-02  -1.3567229e+08
   3.7079026e-10  -5.5069016e-02   2.2186933e+00   3.0553260e-02  -1.3449898e+08
   3.7345782e-10  -5.4711800e-02   2.1984828e+00   3.1128296e-02  -1.3334072e+08
   3.7612538e-10  -5.4357653e-02   2.1785312e+00   3.1707670e-02  -1.3219726e+08
   3.7879293e-10  -5.4006537e-02   2.1588355e+00   3.2291332e-02  -1.3106836e+08
   3.8146049e-10  -5.3658413e-02   2.1393927e+00   3.2879232e-02  -1.2995376e+08
   3.8412804e-10  -5.3313242e-02   2.1201995e+00   3.3471319e-02  -1.2885322e+08
   3.8679560e-10  -5.2970988e-02   2.1012531e+00   3.4067543e-02  -1.2776652e+08
   3.8946315e-10  -5.2631614e-02   2.0825502e+00   3.4667855e-02  -1.2669341e+08
   3.9213071e-10  -5.2295084e-02   2.0640879e+00   3.5272203e-02  -1.2563368e+08
   3.9479827e-10  -5.1961364e-02   2.0458631e+00   3.5880539e-02  -1.2458709e+08
   3.9746582e-10  -5.1630417e-02   2.0278727e+00   3.6492812e-02  -1.2355342e+08
   4.0013338e-10  -5.1302210e-02   2.0101138e+00   3.7108973e-02  -1.2253246e+08
   4.0280093e-10  -5.0976709e-02   1.9925834e+00   3.7728973e-02  -1.2152400e+08
   4.0546849e-10  -5.0653882e-02   1.9752784e+00   3.8352762e-02  -1.2052783e+08
   4.0813605e-10  -5.0333695e-02   1.9581960e+00   3.8980291e-02  -1.1954374e+08
   4.1080360e-10  -5.0016118e-02   1.9413331e+00   3.9611512e-02  -1.1857153e+08
   4.1347116e-10  -4.9701117e-02   1.9246868e+00   4.0246375e-02  -1.1761100e+08
   4.1613871e-10  -4.9388663e-02   1.9082543e+00   4.0884832e-02  -1.1666197e+08
   4.1880627e-10  -4.9078726e-02   1.8920326e+00   4.1526836e-02  -1.1572423e+08
   4.2147382e-10  -4.8771274e-02   1.8760189e+00   4.2172336e-02  -1.1479761e+08
   4.2414138e-10  -4.8466279e-02   1.8602104e+00   4.2821287e-02  -1.1388191e+08
   4.2680894e-10  -4.8163713e-02   1.8446042e+00   4.3473639e-02  -1.1297697e+08
   4.2947649e-10  -4.7863545e-02   1.8291977e+00   4.4129345e-02  -1.1208260e+08
   4.3214405e-10  -4.7565750e-02   1.8139880e+00   4.4788359e-02  -1.1119862e+08
   4.3481160e-10  -4.7270298e-02   1.7989724e+00   4.5450632e-02  -1.1032488e+08
   4.3747916e-10  -4.6977164e-02   1.7841482e+00   4.6116119e-02  -1.0946120e+08
   4.4014672e-10  -4.6686320e-02   1.7695128e+00   4.6784771e-02  -1.0860742e+08
   4.4281427e-10  -4.6397740e-02   1.7550635e+00   4.7456544e-02  -1.0776337e+08
   4.4548183e-10  -4.6111398e-02   1.7407977e+00   4.8131390e-02  -1.0692891e+08
   4.4814938e-10  -4.5827270e-02   1.7267129e+00   4.8809264e-02  -1.0610388e+08
   4.5081694e-10  -4.5545329e-02   1.7128064e+00   4.9490119e-02  -1.0528812e+08
   4.5348449e-10  -4.5265553e-02   1.6990759e+00   5.0173911e-02  -1.0448148e+08
   4.5615205e-10  -4.4987916e-02   1.6855188e+00   5.0860593e-02  -1.0368383e+08
   4.5881961e-10  -4.4712394e-02   1.6721326e+00   5.1550121e-02  -1.0289502e+08
   4.6148716e-10  -4.4438965e-02   1.6589149e+00   5.2242451e-02  -1.0211490e+08
   4.6415472e-10  -4.4167606e-02   1.6458634e+00   5.2937537e-02  -1.0134335e+08
   4.6682227e-10  -4.3898293e-02   1.6329756e+00   5.3635334e-02  -1.0058022e+08
   4.6948983e-10  -4.3631004e-02   1.6202493e+00   5.4335800e-02  -9.9825383e+07
   4.7215739e-10  -4.3365718e-02   1.6076821e+00   5.5038889e-02  -9.9078709e+07
   4.7482494e-10  -4.3102413e-02   1.5952718e+00   5.5744559e-02  -9.8340072e+07
   4.7749250e-10  -4.2841067e-02   1.5830161e+00   5.6452766e-02  -9.7609345e+07
   4.8016005e-10  -4.2581660e-02   1.5709128e+00   5.7163466e-02  -9.6886407e+07
   4.8282761e-10  -4.2324171e-02   1.5589598e+00   5.7876617e-02  -9.6171138e+07
   4.8549517e-10  -4.2068580e-02   1.5471549e+00   5.8592176e-02  -9.5463419e+07
   4.8816272e-10  -4.1814867e-02   1.5354959e+00   5.9310101e-02  -9.4763135e+07
   4.9083028e-10  -4.1563011e-02   1.5239808e+00   6.0030349e-02  -9.4070173e+07
   4.9349783e-10  -4.1312995e-02   1.5126075e+00   6.0752879e-02  -9.3384422e+07
   4.9616539e-10  -4.1064798e-02   1.5013740e+00   6.1477648e-02  -9.2705772e+07
   4.9883294e-10  -4.0818402e-02   1.4902783e+00   6.2204615e-02  -9.2034116e+07
   5.0150050e-10  -4.0573788e-02   1.4793185e+00   6.2933740e-02  -9.1369349e+07
   5.0416806e-10  -4.0330938e-02   1.4684925e+00   6.3664980e-02  -9.0711369e+07
   5.0683561e-10  -4.0089835e-02   1.4577984e+00   6.4398296e-02  -9.0060074e+07
   5.0950317e-10  -3.9850460e-02   1.4472344e+00   6.5133646e-02  -8.9415365e+07
   5.1217072e-10  -3.9612795e-02   1.4367986e+00   6.5870991e-02  -8.8777145e+07
   5.1483828e-10  -3.9376825e-02   1.4264892e+00   6.6610290e-02  -8.8145319e+07
   5.1750584e-10  -3.9142532e-02   1.4163044e+00   6.7351503e-02  -8.7519792e+07
   5.2017339e-10  -3.8909899e-02   1.4062423e+00   6.8094592e-02  -8.6900473e+07
   5.2284095e-10  -3.8678909e-02   1.3963013e+00   6.8839516e-02  -8.6287272e+07
   5.2550850e-10  -3.8449548e-02   1.3864796e+00   6.9586237e-02  -8.5680100e+07
   5.2817606e-10  -3.8221797e-02   1.3767754e+00   7.0334716e-02  -8.5078870e+07
   5.3084361e-10  -3.7995643e-02   1.3671873e+00   7.1084914e-02  -8.4483498e+07
   5.3351117e-10  -3.7771069e-02   1.3577134e+00   7.1836793e-02  -8.3893899e+07
   5.3617873e-10  -3.7548060e-02   1.3483521e+00   7.2590315e-02  -8.3309992e+07
   5.3884628e-10  -3.7326602e-02   1.3391020e+00   7.3345442e-02  -8.2731695e+07
   5.4151384e-10  -3.7106678e-02   1.3299613e+00   7.4102136e-02  -8.2158931e+07
   5.4418139e-10  -3.6888275e-02   1.3209285e+00   7.4860360e-02  -8.1591621e+07
   5.4684895e-10  -3.6671378e-02   1.3120022e+00   7.5620076e-02  -8.1029688e+07
   5.4951651e-10  -3.6455973e-02   1.3031807e+00   7.6381249e-02  -8.0473060e+07
   5.5218406e-10  -3.6242045e-02   1.2944627e+00   7.7143841e-02  -7.9921660e+07
   5.5485162e-10  -3.6029582e-02   1.2858466e+00   7.7907816e-02  -7.9375419e+07
   5.5751917e-10  -3.5818568e-02   1.2773311e+00   7.8673137e-02  -7.8834265e+07
   5.6018673e-10  -3.5608992e-02   1.2689147e+00   7.9439769e-02  -7.8298128e+07
   5.6285428e-10  -3.5400839e-02   1.2605960e+00   8.0207676e-02  -7.7766940e+07
   5.6552184e-10  -3.5194096e-02   1.2523736e+00   8.0976822e-02  -7.7240634e+07
   5.6818940e-10  -3.4988751e-02   1.2442463e+00   8.1747173e-02  -7.6719145e+07
   5.7085695e-10  -3.4784791e-02   1.2362126e+00   8.2518692e-02  -7.6202408e+07
   5.7352451e-10  -3.4582202e-02   1.2282713e+00   8.3291346e-02  -7.5690359e+07
   5.7619206e-10  -3.4380974e-02   1.2204211e+00   8.4065100e-02  -7.5182935e+07
   5.7885962e-10  -3.4181092e-02   1.2126607e+00   8.4839920e-02  -7.4680077e+07
   5.8152718e-10  -3.3982546e-02   1.2049888e+00   8.5615771e-02  -7.4181723e+07
   5.8419473e-10  -3.3785324e-02   1.1974043e+00   8.6392619e-02  -7.3687814e+07
   5.8686229e-10  -3.3589413e-02   1.1899059e+00   8.7170432e-02  -7.3198293e+07
   5.8952984e-10  -3.3394802e-02   1.1824925e+00   8.7949175e-02  -7.2713102e+07
   5.9219740e-10  -3.3201480e-02   1.1751628e+00   8.8728816e-02  -7.2232185e+07
   5.9486495e-10  -3.3009434e-02   1.1679157e+00   8.9509321e-02  -7.1755488e+07
   5.9753251e-10  -3.2818655e-02   1.1607501e+00   9.0290658e-02  -7.1282956e+07
   6.0020007e-10  -3.2629131e-02   1.1536649e+00   9.1072795e-02  -7.0814535e+07
   6.0286762e-10  -3.2440851e-02   1.1466589e+00   9.1855699e-02  -7.0350175e+07
   6.0553518e-10  -3.2253804e-02   1.1397311e+00   9.2639338e-02  -6.9889823e+07
   6.0820273e-10  -3.2067980e-02   1.1328804e+00   9.3423681e-02  -6.9433428e+07
   6.1087029e-10  -3.1883368e-02   1.1261057e+00   9.4208696e-02  -6.8980942e+07
   6.1353785e-10  -3.1699957e-02   1.1194061e+00   9.4994351e-02  -6.8532316e+07
   6.1620540e-10  -3.1517739e-02   1.1127805e+00   9.5780616e-02  -6.8087501e+07
   6.1887296e-10  -3.1336702e-02   1.1062279e+00   9.6567460e-02  -6.7646451e+07
   6.2154051e-10  -3.1156836e-02   1.0997473e+00   9.7354852e-02  -6.7209118e+07
   6.2420807e-10  -3.0978133e-02   1.0933377e+00   9.8142761e-02  -6.6775459e+07
   6.2687563e-10  -3.0800581e-02   1.0869982e+00   9.8931159e-02  -6.6345427e+07
   6.2954318e-10  -3.0624171e-02   1.0807279e+00   9.9720014e-02  -6.5918979e+07
   6.3221074e-10  -3.0448894e-02   1.0745258e+00   1.0050930e-01  -6.5496071e+07
   6.3487829e-10  -3.0274741e-02   1.0683910e+00   1.0129898e-01  -6.5076662e+07
   6.3754585e-10  -3.0101702e-02   1.0623226e+00   1.0208903e-01  -6.4660708e+07
   6.4021340e-10  -2.9929767e-02   1.0563197e+00   1.0287942e-01  -6.4248169e+07
   6.4288096e-10  -2.9758929e-02   1.0503815e+00   1.0367012e-01  -6.3839005e+07
   6.4554852e-10  -2.9589178e-02   1.0445071e+00   1.0446111e-01  -6.3433175e+07
   6.4821607e-10  -2.9420505e-02   1.0386956e+00   1.0525234e-01  -6.3030640e+07
   6.5088363e-10  -2.9252901e-02   1.0329463e+00   1.0604381e-01  -6.2631362e+07
   6.5355118e-10  -2.9086358e-02   1.0272582e+00   1.0683547e-01  -6.2235302e+07
   6.5621874e-10  -2.8920867e-02   1.0216306e+00   1.0762731e-01  -6.1842424e+07
   6.5888630e-10  -2.8756420e-02   1.0160628e+00   1.0841929e-01  -6.1452691e+07
   6.6155385e-10  -2.8593009e-02   1.0105538e+00   1.0921138e-01  -6.1066066e+07
   6.6422141e-10  -2.8430625e-02   1.0051030e+00   1.1000356e-01  -6.0682514e+07
   6.6688896e-10  -2.8269260e-02   9.9970963e-01   1.1079581e-01  -6.0302001e+07
   6.6955652e-10  -2.8108905e-02   9.9437287e-01   1.1158809e-01  -5.9924490e+07
   6.7222407e-10  -2.7949554e-02   9.8909201e-01   1.1238037e-01  -5.9549949e+07
   6.7489163e-10  -2.7791198e-02   9.8386634e-01   1.1317265e-01  -5.9178345e+07
   6.7755919e-10  -2.7633830e-02   9.7869513e-01   1.1396488e-01  -5.8809644e+07
   6.8022674e-10  -2.7477441e-02   9.7357770e-01   1.1475704e-01  -5.8443814e+07
   6.8289430e-10  -2.7322024e-02   9.6851334e-01   1.1554910e-01  -5.8080823e+07
   6.8556185e-10  -2.7167572e-02   9.6350137e-01   1.1634105e-01  -5.7720639e+07
   6.8822941e-10  -2.7014076e-02   9.5854113e-01   1.1713285e-01  -5.7363233e+07
   6.9089697e-10  -2.6861531e-02   9.5363195e-01   1.1792448e-01  -5.7008574e+07
   6.9356452e-10  -2.6709928e-02   9.4877318e-01   1.1871592e-01  -5.6656631e+07
   6.9623208e-10  -2.6559260e-02   9.4396419e-01   1.1950714e-01  -5.6307375e+07
   6.9889963e-10  -2.6409520e-02   9.3920433e-01   1.2029812e-01  -5.5960778e+07
   7.0156719e-10  -2.6260702e-02   9.3449299e-01   1.2108883e-01  -5.5616810e+07
   7.0423474e-10  -2.6112797e-02   9.2982955e-01   1.2187924e-01  -5.5275444e+07
   7.0690230e-10  -2.5965799e-02   9.2521341e-01   1.2266935e-01  -5.4936652e+07
   7.0956986e-10  -2.5819702e-02   9.2064398e-01   1.2345912e-01  -5.4600406e+07
   7.1223741e-10  -2.5674499e-02   9.1612067e-01   1.2424852e-01  -5.4266679e+07
   7.1490497e-10  -2.5530182e-02   9.1164290e-01   1.2503755e-01  -5.3935446e+07
   7.1757252e-10  -2.5386746e-02   9.0721010e-01   1.2582616e-01  -5.3606679e+07
   7.2024008e-10  -2.5244183e-02   9.0282171e-01   1.2661435e-01  -5.3280354e+07
   7.2290764e-10  -2.5102487e-02   8.9847719e-01   1.2740209e-01  -5.2956445e+07
   7.2557519e-10  -2.4961653e-02   8.9417598e-01   1.2818935e-01  -5.2634927e+07
   7.2824275e-10  -2.4821673e-02   8.8991756e-01   1.2897612e-01  -5.2315774e+07
   7.3091030e-10  -2.4682541e-02   8.8570138e-01   1.2976237e-01  -5.1998964e+07
   7.3357786e-10  -2.4544251e-02   8.8152694e-01   1.3054808e-01  -5.1684472e+07
   7.3624542e-10  -2.4406797e-02   8.7739372e-01   1.3133324e-01  -5.1372275e+07
   7.3891297e-10  -2.4270173e-02   8.7330121e-01   1.3211781e-01  -5.1062349e+07
   7.4158053e-10  -2.4134372e-02   8.6924892e-01   1.3290178e-01  -5.0754672e+07
   7.4424808e-10  -2.3999389e-02   8.6523636e-01   1.3368513e-01  -5.0449220e+07
   7.4691564e-10  -2.3865219e-02   8.6126304e-01   1.3446783e-01  -5.0145972e+07
   7.4958319e-10  -2.3731854e-02   8.5732848e-01   1.3524988e-01  -4.9844906e+07
   7.5225075e-10  -2.3599289e-02   8.5343223e-01   1.3603123e-01  -4.9546000e+07
   7.5491831e-10  -2.3467519e-02   8.4957380e-01   1.3681189e-01  -4.9249232e+07
   7.5758586e-10  -2.3336537e-02   8.4575275e-01   1.3759182e-01  -4.8954583e+07
   7.6025342e-10  -2.3206339e-02   8.4196863e-01   1.3837101e-01  -4.8662031e+07
   7.6292097e-10  -2.3076919e-02   8.3822100e-01   1.3914944e-01  -4.8371555e+07
   7.6558853e-10  -2.2948270e-02   8.3450941e-01   1.3992709e-01  -4.8083135e+07
   7.6825609e-10  -2.2820388e-02   8.3083344e-01   1.4070394e-01  -4.7796753e+07
   7.7092364e-10  -2.2693268e-02   8.2719267e-01   1.4147997e-01  -4.7512387e+07
   7.7359120e-10  -2.2566903e-02   8.2358667e-01   1.4225517e-01  -4.7230019e+07
   7.7625875e-10  -2.2441289e-02   8.2001503e-01   1.4302951e-01  -4.6949629e+07
   7.7892631e-10  -2.2316420e-02   8.1647734e-01   1.4380298e-01  -4.6671199e+07
   7.8159386e-10  -2.2192292e-02   8.1297321e-01   1.4457555e-01  -4.6394710e+07
   7.8426142e-10  -2.2068898e-02   8.0950225e-01   1.4534722e-01  -4.6120145e+07
   7.8692898e-10  -2.1946234e-02   8.0606405e-01   1.4611796e-01  -4.5847484e+07
   7.8959653e-10  -2.1824295e-02   8.0265823e-01   1.4688776e-01  -4.5576710e+07
   7.9226409e-10  -2.1703076e-02   7.9928443e-01   1.4765660e-01  -4.5307805e+07
   7.9493164e-10  -2.1582572e-02   7.9594226e-01   1.4842446e-01  -4.5040752e+07
   7.9759920e-10  -2.1462777e-02   7.9263135e-01   1.4919133e-01  -4.4775534e+07
   8.0026676e-10  -2.1343688e-02   7.8935135e-01   1.4995718e-01  -4.4512135e+07
   8.0293431e-10  -2.1225299e-02   7.8610189e-01   1.5072201e-01  -4.4250536e+07
   8.0560187e-10  -2.1107605e-02   7.8288263e-01   1.5148580e-01  -4.3990722e+07
   8.0826942e-10  -2.0990602e-02   7.7969320e-01   1.5224853e-01  -4.3732677e+07
   8.1093698e-10  -2.0874285e-02   7.7653328e-01   1.5301018e-01  -4.3476385e+07
   8.1360453e-10  -2.0758649e-02   7.7340252e-01   1.5377074e-01  -4.3221829e+07
   8.1627209e-10  -2.0643690e-02   7.7030059e-01   1.5453019e-01  -4.2968994e+07
   8.1893965e-10  -2.0529404e-02   7.6722716e-01   1.5528852e-01  -4.2717865e+07
   8.2160720e-10  -2.0415784e-02   7.6418190e-01   1.5604572e-01  -4.2468426e+07
   8.2427476e-10  -2.0302828e-02   7.6116450e-01   1.5680177e-01  -4.2220662e+07
   8.2694231e-10  -2.0190531e-02   7.5817463e-01   1.5755665e-01  -4.1974559e+07
   8.2960987e-10  -2.0078888e-02   7.5521199e-01   1.5831034e-01  -4.1730102e+07
   8.3227743e-10  -1.9967895e-02   7.5227627e-01   1.5906285e-01  -4.1487276e+07
   8.3494498e-10  -1.9857548e-02   7.4936716e-01   1.5981414e-01  -4.1246067e+07
   8.3761254e-10  -1.9747842e-02   7.4648438e-01   1.6056421e-01  -4.1006461e+07
   8.4028009e-10  -1.9638772e-02   7.4362761e-01   1.6131305e-01  -4.0768443e+07
   8.4294765e-10  -1.9530336e-02   7.4079657e-01   1.6206063e-01  -4.0532001e+07
   8.4561521e-10  -1.9422529e-02   7.3799098e-01   1.6280695e-01  -4.0297121e+07
   8.4828276e-10  -1.9315345e-02   7.3521055e-01   1.6355199e-01  -4.0063788e+07
   8.5095032e-10  -1.9208783e-02   7.3245500e-01   1.6429574e-01  -3.9831991e+07
   8.5361787e-10  -1.9102836e-02   7.2972406e-01   1.6503819e-01  -3.9601715e+07
   8.5628543e-10  -1.8997502e-02   7.2701745e-01   1.6577932e-01  -3.9372948e+07
   8.5895298e-10  -1.8892776e-02   7.2433490e-01   1.6651912e-01  -3.9145676e+07
   8.6162054e-10  -1.8788654e-02   7.2167616e-01   1.6725759e-01  -3.8919888e+07
   8.6428810e-10  -1.8685133e-02   7.1904095e-01   1.6799469e-01  -3.8695571e+07
   8.6695565e-10  -1.8582208e-02   7.1642903e-01   1.6873044e-01  -3.8472712e+07
   8.6962321e-10  -1.8479875e-02   7.1384013e-01   1.6946480e-01  -3.8251300e+07
   8.7229076e-10  -1.8378132e-02   7.1127401e-01   1.7019777e-01  -3.8031321e+07
   8.7495832e-10  -1.8276973e-02   7.0873041e-01   1.7092935e-01  -3.7812765e+07
   8.7762588e-10  -1.8176395e-02   7.0620910e-01   1.7165951e-01  -3.7595619e+07
   8.8029343e-10  -1.8076395e-02   7.0370983e-01   1.7238825e-01  -3.7379872e+07
   8.8296099e-10  -1.7976968e-02   7.0123237e-01   1.7311555e-01  -3.7165512e+07
   8.8562854e-10  -1.7878112e-02   6.9877647e-01   1.7384141e-01  -3.6952528e+07
   8.8829610e-10  -1.7779821e-02   6.9634192e-01   1.7456581e-01  -3.6740909e+07
   8.9096365e-10  -1.7682094e-02   6.9392847e-01   1.7528874e-01  -3.6530644e+07
   8.9363121e-10  -1.7584925e-02   6.9153590e-01   1.7601020e-01  -3.6321720e+07
   8.9629877e-10  -1.7488312e-02   6.8916399e-01   1.7673016e-01  -3.6114129e+07
   8.9896632e-10  -1.7392251e-02   6.8681253e-01   1.7744863e-01  -3.5907859e+07
   9.0163388e-10  -1.7296739e-02   6.8448128e-01   1.7816560e-01  -3.5702898e+07
   9.0430143e-10  -1.7201771e-02   6.8217004e-01   1.7888104e-01  -3.5499238e+07
   9.0696899e-10  -1.7107345e-02   6.7987860e-01   1.7959495e-01  -3.5296867e+07
   9.0963655e-10  -1.7013457e-02   6.7760674e-01   1.8030733e-01  -3.5095776e+07
   9.1230410e-10  -1.6920104e-02   6.7535427e-01   1.8101816e-01  -3.4895953e+07
   9.1497166e-10  -1.6827283e-02   6.7312097e-01   1.8172744e-01  -3.4697389e+07
   9.1763921e-10  -1.6734989e-02   6.7090664e-01   1.8243515e-01  -3.4500075e+07
   9.2030677e-10  -1.6643220e-02   6.6871110e-01   1.8314129e-01  -3.4304000e+07
   9.2297432e-10  -1.6551972e-02   6.6653413e-01   1.8384584e-01  -3.4109154e+07
   9.2564188e-10  -1.6461243e-02   6.6437555e-01   1.8454880e-01  -3.3915528e+07
   9.2830944e-10  -1.6371028e-02   6.6223517e-01   1.8525016e-01  -3.3723113e+07
   9.3097699e-10  -1.6281325e-02   6.6011279e-01   1.8594992e-01  -3.3531898e+07
   9.3364455e-10  -1.6192131e-02   6.5800824e-01   1.8664806e-01  -3.3341876e+07
   9.3631210e-10  -1.6103441e-02   6.5592132e-01   1.8734457e-01  -3.3153036e+07
   9.3897966e-10  -1.6015254e-02   6.5385186e-01   1.8803945e-01  -3.2965369e+07
   9.4164722e-10  -1.5927567e-02   6.5179967e-01   1.8873269e-01  -3.2778867e+07
   9.4431477e-10  -1.5840375e-02   6.4976459e-01   1.8942429e-01  -3.2593520e+07
   9.4698233e-10  -1.5753676e-02   6.4774642e-01   1.9011423e-01  -3.2409320e+07
   9.4964988e-10  -1.5667466e-02   6.4574501e-01   1.9080250e-01  -3.2226259e+07
   9.5231744e-10  -1.5581744e-02   6.4376018e-01   1.9148911e-01  -3.2044326e+07
   9.5498499e-10  -1.5496505e-02   6.4179176e-01   1.9217404e-01  -3.1863514e+07
   9.5765255e-10  -1.5411748e-02   6.3983958e-01   1.9285728e-01  -3.1683815e+07
   9.6032011e-10  -1.5327468e-02   6.3790349e-01   1.9353883e-01  -3.1505220e+07
   9.6298766e-10  -1.5243663e-02   6.3598331e-01   1.9421869e-01  -3.1327721e+07
   9.6565522e-10  -1.5160330e-02   6.3407889e-01   1.9489685e-01  -3.1151309e+07
   9.6832277e-10  -1.5077466e-02   6.3219007e-01   1.9557329e-01  -3.0975976e+07
   9.7099033e-10  -1.4995069e-02   6.3031669e-01   1.9624801e-01  -3.0801715e+07
   9.7365789e-10  -1.4913135e-02   6.2845860e-01   1.9692102e-01  -3.0628518e+07
   9.7632544e-10  -1.4831661e-02   6.2661565e-01   1.9759229e-01  -3.0456376e+07
   9.7899300e-10  -1.4750646e-02   6.2478768e-01   1.9826183e-01  -3.0285282e+07
   9.8166055e-10  -1.4670085e-02   6.2297455e-01   1.9892964e-01  -3.0115228e+07
   9.8432811e-10  -1.4589977e-02   6.2117610e-01   1.9959569e-01  -2.9946207e+07
   9.8699567e-10  -1.4510318e-02   6.1939220e-01   2.0025999e-01  -2.9778211e+07
   9.8966322e-10  -1.4431106e-02   6.1762269e-01   2.0092254e-01  -2.9611232e+07
   9.9233078e-10  -1.4352338e-02   6.1586745e-01   2.0158332e-01  -2.9445264e+07
   9.9499833e-10  -1.4274011e-02   6.1412632e-01   2.0224234e-01  -2.9280298e+07
   9.9766589e-10  -1.4196123e-02   6.1239916e-01   2.0289958e-01  -2.9116328e+07
   1.0003334e-09  -1.4118671e-02   6.1068585e-01   2.0355505e-01  -2.8953346e+07
   1.0030010e-09  -1.4041653e-02   6.0898625e-01   2.0420874e-01  -2.8791345e+07
   1.0056686e-09  -1.3965066e-02   6.0730021e-01   2.0486064e-01  -2.8630319e+07
   1.0083361e-09  -1.3888906e-02   6.0562762e-01   2.0551075e-01  -2.8470260e+07
   1.0110037e-09  -1.3813173e-02   6.0396833e-01   2.0615906e-01  -2.8311161e+07
   1.0136712e-09  -1.3737862e-02   6.0232222e-01   2.0680557e-01  -2.8153016e+07
   1.0163388e-09  -1.3662973e-02   6.0068917e-01   2.0745028e-01  -2.7995817e+07
   1.0190063e-09  -1.3588501e-02   5.9906904e-01   2.0809318e-01  -2.7839559e+07
   1.0216739e-09  -1.3514445e-02   5.9746172e-01   2.0873427e-01  -2.7684233e+07
   1.0243414e-09  -1.3440802e-02   5.9586707e-01   2.0937355e-01  -2.7529835e+07
   1.0270090e-09  -1.3367569e-02   5.9428498e-01   2.1001100e-01  -2.7376357e+07
   1.0296766e-09  -1.3294745e-02   5.9271533e-01   2.1064663e-01  -2.7223792e+07
   1.0323441e-09  -1.3222326e-02   5.9115799e-01   2.1128044e-01  -2.7072135e+07
   1.0350117e-09  -1.3150311e-02   5.8961286e-01   2.1191241e-01  -2.6921379e+07
   1.0376792e-09  -1.3078697e-02   5.8807981e-01   2.1254256e-01  -2.6771518e+07
   1.0403468e-09  -1.3007481e-02   5.8655873e-01   2.1317086e-01  -2.6622546e+07
   1.0430143e-09  -1.2936662e-02   5.8504950e-01   2.1379733e-01  -2.6474456e+07
   1.0456819e-09  -1.2866237e-02   5.8355202e-01   2.1442195e-01  -2.6327242e+07
   1.0483494e-09  -1.2796203e-02   5.8206617e-01   2.1504473e-01  -2.6180898e+07
   1.0510170e-09  -1.2726558e-02   5.8059185e-01   2.1566566e-01  -2.6035419e+07
   1.0536846e-09  -1.2657300e-02   5.7912894e-01   2.1628474e-01  -2.5890798e+07
   1.0563521e-09  -1.2588427e-02   5.7767734e-01   2.1690197e-01  -2.5747029e+07
   1.0590197e-09  -1.2519936e-02   5.7623694e-01   2.1751734e-01  -2.5604107e+07
   1.0616872e-09  -1.2451825e-02   5.7480764e-01   2.1813085e-01  -2.5462026e+07
   1.0643548e-09  -1.2384093e-02   5.7338933e-01   2.1874250e-01  -2.5320779e+07
   1.0670223e-09  -1.2316735e-02   5.7198191e-01   2.1935229e-01  -2.5180363e+07
   1.0696899e-09  -1.2249752e-02   5.7058529e-01   2.1996022e-01  -2.5040770e+07
   1.0723575e-09  -1.2183139e-02   5.6919935e-01   2.2056628e-01  -2.4901995e+07
   1.0750250e-09  -1.2116896e-02   5.6782401e-01   2.2117047e-01  -2.4764033e+07
   1.0776926e-09  -1.2051020e-02   5.6645916e-01   2.2177279e-01  -2.4626878e+07
   1.0803601e-09  -1.1985508e-02   5.6510471e-01   2.2237324e-01  -2.4490525e+07
   1.0830277e-09  -1.1920360e-02   5.6376056e-01   2.2297181e-01  -2.4354968e+07
   1.0856952e-09  -1.1855571e-02   5.6242661e-01   2.2356851e-01  -2.4220202e+07
   1.0883628e-09  -1.1791141e-02   5.6110278e-01   2.2416334e-01  -2.4086222e+07
   1.0910303e-09  -1.1727068e-02   5.5978897e-01   2.2475628e-01  -2.3953023e+07
   1.0936979e-09  -1.1663349e-02   5.5848509e-01   2.2534735e-01  -2.3820599e+07
   1.0963655e-09  -1.1599982e-02   5.5719105e-01   2.2593654e-01  -2.3688945e+07
   1.0990330e-09  -1.1536965e-02   5.5590676e-01   2.2652385e-01  -2.3558056e+07
   1.1017006e-09  -1.1474296e-02   5.5463213e-01   2.2710927e-01  -2.3427927e+07
   1.1043681e-09  -1.1411974e-02   5.5336707e-01   2.2769281e-01  -2.3298553e+07
   1.1070357e-09  -1.1349995e-02   5.5211150e-01   2.2827447e-01  -2.3169929e+07
   1.1097032e-09  -1.1288359e-02   5.5086534e-01   2.2885425e-01  -2.3042051e+07
   1.1123708e-09  -1.1227063e-02   5.4962849e-01   2.2943214e-01  -2.2914912e+07
   1.1150383e-09  -1.1166105e-02   5.4840087e-01   2.3000814e-01  -2.2788509e+07
   1.1177059e-09  -1.1105483e-02   5.4718240e-01   2.3058226e-01  -2.2662836e+07
   1.1203735e-09  -1.1045195e-02   5.4597301e-01   2.3115449e-01  -2.2537889e+07
   1.1230410e-09  -1.0985240e-02   5.4477260e-01   2.3172484e-01  -2.2413663e+07
   1.1257086e-09  -1.0925615e-02   5.4358110e-01   2.3229330e-01  -2.2290153e+07
   1.1283761e-09  -1.0866319e-02   5.4239842e-01   2.3285987e-01  -2.2167355e+07
   1.1310437e-09  -1.0807349e-02   5.4122450e-01   2.3342456e-01  -2.2045265e+07
   1.1337112e-09  -1.0748705e-02   5.4005925e-01   2.3398736e-01  -2.1923876e+07
   1.1363788e-09  -1.0690383e-02   5.3890260e-01   2.3454827e-01  -2.1803186e+07
   1.1390463e-09  -1.0632382e-02   5.3775446e-01   2.3510729e-01  -2.1683189e+07
   1.1417139e-09  -1.0574700e-02   5.3661477e-01   2.3566443e-01  -2.1563881e+07
   1.1443815e-09  -1.0517335e-02   5.3548346e-01   2.3621968e-01  -2.1445257e+07
   1.1470490e-09  -1.0460286e-02   5.3436043e-01   2.3677305e-01  -2.1327314e+07
   1.1497166e-09  -1.0403551e-02   5.3324564e-01   2.3732453e-01  -2.1210046e+07
   1.1523841e-09  -1.0347128e-02   5.3213899e-01   2.3787413e-01  -2.1093450e+07
   1.1550517e-09  -1.0291015e-02   5.3104043e-01   2.3842184e-01  -2.0977521e+07
   1.1577192e-09  -1.0235210e-02   5.2994987e-01   2.3896767e-01  -2.0862255e+07
   1.1603868e-09  -1.0179712e-02   5.2886726e-01   2.3951162e-01  -2.0747648e+07
   1.1630544e-09  -1.0124518e-02   5.2779252e-01   2.4005369e-01  -2.0633696e+07
   1.1657219e-09  -1.0069628e-02   5.2672559e-01   2.4059387e-01  -2.0520393e+07
   1.1683895e-09  -1.0015039e-02   5.2566639e-01   2.4113218e-01  -2.0407737e+07
   1.1710570e-09  -9.9607501e-03   5.2461486e-01   2.4166860e-01  -2.0295724e+07
   1.1737246e-09  -9.9067589e-03   5.2357093e-01   2.4220315e-01  -2.0184348e+07
   1.1763921e-09  -9.8530639e-03   5.2253454e-01   2.4273582e-01  -2.0073607e+07
   1.1790597e-09  -9.7996635e-03   5.2150563e-01   2.4326662e-01  -1.9963495e+07
   1.1817272e-09  -9.7465559e-03   5.2048412e-01   2.4379554e-01  -1.9854010e+07
   1.1843948e-09  -9.6937396e-03   5.1946996e-01   2.4432259e-01  -1.9745147e+07
   1.1870624e-09  -9.6412129e-03   5.1846309e-01   2.4484777e-01  -1.9636902e+07
   1.1897299e-09  -9.5889741e-03   5.1746343e-01   2.4537107e-01  -1.9529272e+07
   1.1923975e-09  -9.5370216e-03   5.1647093e-01   2.4589251e-01  -1.9422253e+07
   1.1950650e-09  -9.4853537e-03   5.1548554e-01   2.4641208e-01  -1.9315840e+07
   1.1977326e-09  -9.4339689e-03   5.1450718e-01   2.4692979e-01  -1.9210031e+07
   1.2004001e-09  -9.3828656e-03   5.1353580e-01   2.4744563e-01  -1.9104820e+07
   1.2030677e-09  -9.3320421e-03   5.1257134e-01   2.4795961e-01  -1.9000206e+07
   1.2057352e-09  -9.2814969e-03   5.1161374e-01   2.4847173e-01  -1.8896183e+07
   1.2084028e-09  -9.2312284e-03   5.1066295e-01   2.4898200e-01  -1.8792748e+07
   1.2110704e-09  -9.1812351e-03   5.0971890e-01   2.4949040e-01  -1.8689898e+07
   1.2137379e-09  -9.1315153e-03   5.0878154e-01   2.4999695e-01  -1.8587629e+07
   1.2164055e-09  -9.0820676e-03   5.0785082e-01   2.5050165e-01  -1.8485938e+07
   1.2190730e-09  -9.0328903e-03   5.0692667e-01   2.5100450e-01  -1.8384820e+07
   1.2217406e-09  -8.9839821e-03   5.0600905e-01   2.5150550e-01  -1.8284273e+07
   1.2244081e-09  -8.9353413e-03   5.0509790e-01   2.5200466e-01  -1.8184292e+07
   1.2270757e-09  -8.8869664e-03   5.0419316e-01   2.5250197e-01  -1.8084875e+07
   1.2297432e-09  -8.8388560e-03   5.0329479e-01   2.5299744e-01  -1.7986017e+07
   1.2324108e-09  -8.7910086e-03   5.0240272e-01   2.5349107e-01  -1.7887717e+07
   1.2350784e-09  -8.7434227e-03   5.0151691e-01   2.5398287e-01  -1.7789969e+07
   1.2377459e-09  -8.6960967e-03   5.0063731e-01   2.5447283e-01  -1.7692771e+07
   1.2404135e-09  -8.6490294e-03   4.9976386e-01   2.5496096e-01  -1.7596119e+07
   1.2430810e-09  -8.6022191e-03   4.9889652e-01   2.5544725e-01  -1.7500010e+07
   1.2457486e-09  -8.5556645e-03   4.9803523e-01   2.5593173e-01  -1.7404441e+07
   1.2484161e-09  -8.5093641e-03   4.9717994e-01   2.5641437e-01  -1.7309408e+07
   1.2510837e-09  -8.4633165e-03   4.9633061e-01   2.5689520e-01  -1.7214909e+07
   1.2537513e-09  -8.4175202e-03   4.9548718e-01   2.5737421e-01  -1.7120940e+07
   1.2564188e-09  -8.3719740e-03   4.9464961e-01   2.5785140e-01  -1.7027497e+07
   1.2590864e-09  -8.3266763e-03   4.9381785e-01   2.5832678e-01  -1.6934578e+07
   1.2617539e-09  -8.2816257e-03   4.9299185e-01   2.5880035e-01  -1.6842179e+07
   1.2644215e-09  -8.2368210e-03   4.9217157e-01   2.5927211e-01  -1.6750298e+07
   1.2670890e-09  -8.1922607e-03   4.9135696e-01   2.5974207e-01  -1.6658931e+07
   1.2697566e-09  -8.1479434e-03   4.9054797e-01   2.6021022e-01  -1.6568074e+07
   1.2724241e-09  -8.1038678e-03   4.8974456e-01   2.6067658e-01  -1.6477726e+07
   1.2750917e-09  -8.0600325e-03   4.8894668e-01   2.6114114e-01  -1.6387883e+07
   1.2777593e-09  -8.0164363e-03   4.8815429e-01   2.6160391e-01  -1.6298542e+07
   1.2804268e-09  -7.9730777e-03   4.8736735e-01   2.6206488e-01  -1.6209700e+07
   1.2830944e-09  -7.9299554e-03   4.8658581e-01   2.6252408e-01  -1.6121353e+07
   1.2857619e-09  -7.8870681e-03   4.8580962e-01   2.6298149e-01  -1.6033500e+07
   1.2884295e-09  -7.8444145e-03   4.8503875e-01   2.6343712e-01  -1.5946136e+07
   1.2910970e-09  -7.8019934e-03   4.8427315e-01   2.6389097e-01  -1.5859260e+07
   1.2937646e-09  -7.7598033e-03   4.8351278e-01   2.6434305e-01  -1.5772868e+07
   1.2964321e-09  -7.7178430e-03   4.8275760e-01   2.6479336e-01  -1.5686957e+07
   1.2990997e-09  -7.6761113e-03   4.8200756e-01   2.6524190e-01  -1.5601525e+07
   1.3017673e-09  -7.6346069e-03   4.8126263e-01   2.6568868e-01  -1.5516569e+07
   1.3044348e-09  -7.5933284e-03   4.8052277e-01   2.6613370e-01  -1.5432085e+07
   1.3071024e-09  -7.5522747e-03   4.7978793e-01   2.6657696e-01  -1.5348071e+07
   1.3097699e-09  -7.5114444e-03   4.7905808e-01   2.6701848e-01  -1.5264525e+07
   1.3124375e-09  -7.4708364e-03   4.7833317e-01   2.6745824e-01  -1.5181442e+07
   1.3151050e-09  -7.4304494e-03   4.7761317e-01   2.6789625e-01  -1.5098822e+07
   1.3177726e-09  -7.3902822e-03   4.7689804e-01   2.6833253e-01  -1.5016661e+07
   1.3204401e-09  -7.3503336e-03   4.7618774e-01   2.6876706e-01  -1.4934956e+07
   1.3231077e-09  -7.3106023e-03   4.7548224e-01   2.6919987e-01  -1.4853704e+07
   1.3257753e-09  -7.2710871e-03   4.7478149e-01   2.6963094e-01  -1.4772904e+07
   1.3284428e-09  -7.2317869e-03   4.7408545e-01   2.7006028e-01  -1.4692552e+07
   1.3311104e-09  -7.1927005e-03   4.7339410e-01   2.7048790e-01  -1.4612645e+07
   1.3337779e-09  -7.1538266e-03   4.7270739e-01   2.7091380e-01  -1.4533182e+07
   1.3364455e-09  -7.1151641e-03   4.7202529e-01   2.7133798e-01  -1.4454158e+07
   1.3391130e-09  -7.0767118e-03   4.7134777e-01   2.7176045e-01  -1.4375573e+07
   1.3417806e-09  -7.0384685e-03   4.7067478e-01   2.7218121e-01  -1.4297423e+07
   1.3444481e-09  -7.0004332e-03   4.7000629e-01   2.7260027e-01  -1.4219706e+07
   1.3471157e-09  -6.9626046e-03   4.6934227e-01   2.7301762e-01  -1.4142419e+07
   1.3497833e-09  -6.9249815e-03   4.6868268e-01   2.7343328e-01  -1.4065560e+07
   1.3524508e-09  -6.8875630e-03   4.6802749e-01   2.7384725e-01  -1.3989126e+07
   1.3551184e-09  -6.8503478e-03   4.6737667e-01   2.7425953e-01  -1.3913115e+07
   1.3577859e-09  -6.8133347e-03   4.6673018e-01   2.7467012e-01  -1.3837524e+07
   1.3604535e-09  -6.7765228e-03   4.6608798e-01   2.7507904e-01  -1.3762350e+07
   1.3631210e-09  -6.7399108e-03   4.6545005e-01   2.7548627e-01  -1.3687593e+07
   1.3657886e-09  -6.7034977e-03   4.6481636e-01   2.7589183e-01  -1.3613248e+07
   1.3684562e-09  -6.6672824e-03   4.6418686e-01   2.7629573e-01  -1.3539314e+07
   1.3711237e-09  -6.6312638e-03   4.6356153e-01   2.7669796e-01  -1.3465788e+07
   1.3737913e-09  -6.5954407e-03   4.6294033e-01   2.7709853e-01  -1.3392668e+07
   1.3764588e-09  -6.5598122e-03   4.6232325e-01   2.7749744e-01  -1.3319951e+07
   1.3791264e-09  -6.5243771e-03   4.6171023e-01   2.7789470e-01  -1.3247636e+07
   1.3817939e-09  -6.4891343e-03   4.6110126e-01   2.7829032e-01  -1.3175719e+07
   1.3844615e-09  -6.4540829e-03   4.6049630e-01   2.7868429e-01  -1.3104199e+07
   1.3871290e-09  -6.4192218e-03   4.5989532e-01   2.7907662e-01  -1.3033073e+07
   1.3897966e-09  -6.3845498e-03   4.5929829e-01   2.7946731e-01  -1.2962339e+07
   1.3924642e-09  -6.3500661e-03   4.5870518e-01   2.7985637e-01  -1.2891995e+07
   1.3951317e-09  -6.3157694e-03   4.5811597e-01   2.8024381e-01  -1.2822038e+07
   1.3977993e-09  -6.2816589e-03   4.5753062e-01   2.8062962e-01  -1.2752467e+07
   1.4004668e-09  -6.2477334e-03   4.5694910e-01   2.8101382e-01  -1.2683279e+07
   1.4031344e-09  -6.2139920e-03   4.5637139e-01   2.8139640e-01  -1.2614471e+07
   1.4058019e-09  -6.1804336e-03   4.5579745e-01   2.8177738e-01  -1.2546042e+07
   1.4084695e-09  -6.1470573e-03   4.5522726e-01   2.8215674e-01  -1.2477990e+07
   1.4111370e-09  -6.1138620e-03   4.5466079e-01   2.8253451e-01  -1.2410311e+07
   1.4138046e-09  -6.0808467e-03   4.5409802e-01   2.8291068e-01  -1.2343005e+07
   1.4164722e-09  -6.0480105e-03   4.5353891e-01   2.8328526e-01  -1.2276069e+07
   1.4191397e-09  -6.0153523e-03   4.5298344e-01   2.8365825e-01  -1.2209501e+07
   1.4218073e-09  -5.9828713e-03   4.5243157e-01   2.8402966e-01  -1.2143299e+07
   1.4244748e-09  -5.9505663e-03   4.5188330e-01   2.8439949e-01  -1.2077460e+07
   1.4271424e-09  -5.9184365e-03   4.5133858e-01   2.8476774e-01  -1.2011983e+07
   1.4298099e-09  -5.8864809e-03   4.5079739e-01   2.8513443e-01  -1.1946866e+07
   1.4324775e-09  -5.8546985e-03   4.5025970e-01   2.8549955e-01  -1.1882106e+07
   1.4351450e-09  -5.8230884e-03   4.4972550e-01   2.8586311e-01  -1.1817702e+07
   1.4378126e-09  -5.7916496e-03   4.4919475e-01   2.8622511e-01  -1.1753651e+07
   1.4404802e-09  -5.7603812e-03   4.4866742e-01   2.8658556e-01  -1.1689951e+07
   1.4431477e-09  -5.7292823e-03   4.4814350e-01   2.8694446e-01  -1.1626601e+07
   1.4458153e-09  -5.6983518e-03   4.4762296e-01   2.8730182e-01  -1.1563599e+07
   1.4484828e-09  -5.6675890e-03   4.4710577e-01   2.8765765e-01  -1.1500942e+07
   1.4511504e-09  -5.6369929e-03   4.4659191e-01   2.8801194e-01  -1.1438628e+07
   1.4538179e-09  -5.6065626e-03   4.4608135e-01   2.8836470e-01  -1.1376656e+07
   1.4564855e-09  -5.5762971e-03   4.4557408e-01   2.8871593e-01  -1.1315023e+07
   1.4591531e-09  -5.5461955e-03   4.4507006e-01   2.8906565e-01  -1.1253729e+07
   1.4618206e-09  -5.5162570e-03   4.4456927e-01   2.8941385e-01  -1.1192770e+07
   1.4644882e-09  -5.4864807e-03   4.4407169e-01   2.8976053e-01  -1.1132145e+07
   1.4671557e-09  -5.4568657e-03   4.4357730e-01   2.9010572e-01  -1.1071851e+07
   1.4698233e-09  -5.4274110e-03   4.4308607e-01   2.9044940e-01  -1.1011888e+07
   1.4724908e-09  -5.3981159e-03   4.4259798e-01   2.9079158e-01  -1.0952254e+07
   1.4751584e-09  -5.3689794e-03   4.4211300e-01   2.9113227e-01  -1.0892945e+07
   1.4778259e-09  -5.3400007e-03   4.4163113e-01   2.9147148e-01  -1.0833961e+07
   1.4804935e-09  -5.3111789e-03   4.4115232e-01   2.9180920e-01  -1.0775300e+07
   1.4831611e-09  -5.2825132e-03   4.4067656e-01   2.9214544e-01  -1.0716960e+07
   1.4858286e-09  -5.2540027e-03   4.4020383e-01   2.9248021e-01  -1.0658939e+07
   1.4884962e-09  -5.2256465e-03   4.3973411e-01   2.9281351e-01  -1.0601235e+07
   1.4911637e-09  -5.1974438e-03   4.3926737e-01   2.9314534e-01  -1.0543847e+07
   1.4938313e-09  -5.1693938e-03   4.3880360e-01   2.9347572e-01  -1.0486772e+07
   1.4964988e-09  -5.1414956e-03   4.3834277e-01   2.9380464e-01  -1.0430009e+07
   1.4991664e-09  -5.1137485e-03   4.3788486e-01   2.9413211e-01  -1.0373557e+07
   1.5018339e-09  -5.0861515e-03   4.3742984e-01   2.9445813e-01  -1.0317413e+07
   1.5045015e-09  -5.0587038e-03   4.3697771e-01   2.9478272e-01  -1.0261575e+07
   1.5071691e-09  -5.0314047e-03   4.3652844e-01   2.9510586e-01  -1.0206043e+07
   1.5098366e-09  -5.0042534e-03   4.3608201e-01   2.9542758e-01  -1.0150814e+07
   1.5125042e-09  -4.9772489e-03   4.3563839e-01   2.9574786e-01  -1.0095886e+07
   1.5151717e-09  -4.9503906e-03   4.3519757e-01   2.9606673e-01  -1.0041258e+07
   1.5178393e-09  -4.9236776e-03   4.3475954e-01   2.9638418e-01  -9.9869287e+06
   1.5205068e-09  -4.8971092e-03   4.3432426e-01   2.9670021e-01  -9.9328957e+06
   1.5231744e-09  -4.8706845e-03   4.3389172e-01   2.9701484e-01  -9.8791575e+06
   1.5258419e-09  -4.8444027e-03   4.3346190e-01   2.9732806e-01  -9.8257126e+06
   1.5285095e-09  -4.8182631e-03   4.3303478e-01   2.9763988e-01  -9.7725592e+06
   1.5311771e-09  -4.7922650e-03   4.3261034e-01   2.9795031e-01  -9.7196958e+06
   1.5338446e-09  -4.7664074e-03   4.3218857e-01   2.9825935e-01  -9.6671207e+06
   1.5365122e-09  -4.7406897e-03   4.3176944e-01   2.9856700e-01  -9.6148323e+06
   1.5391797e-09  -4.7151112e-03   4.3135293e-01   2.9887328e-01  -9.5628289e+06
   1.5418473e-09  -4.6896709e-03   4.3093904e-01   2.9917818e-01  -9.5111091e+06
   1.5445148e-09  -4.6643683e-03   4.3052773e-01   2.9948171e-01  -9.4596712e+06
   1.5471824e-09  -4.6392025e-03   4.3011899e-01   2.9978387e-01  -9.4085136e+06
   1.5498499e-09  -4.6141728e-03   4.2971281e-01   3.0008467e-01  -9.3576349e+06
   1.5525175e-09  -4.5892784e-03   4.2930916e-01   3.0038412e-01  -9.3070333e+06
   1.5551851e-09  -4.5645187e-03   4.2890803e-01   3.0068221e-01  -9.2567074e+06
   1.5578526e-09  -4.5398928e-03   4.2850940e-01   3.0097895e-01  -9.2066557e+06
   1.5605202e-09  -4.5154001e-03   4.2811325e-01   3.0127436e-01  -9.1568766e+06
   1.5631877e-09  -4.4910398e-03   4.2771956e-01   3.0156842e-01  -9.1073685e+06
   1.5658553e-09  -4.4668113e-03   4.2732833e-01   3.0186116e-01  -9.0581301e+06
   1.5685228e-09  -4.4427137e-03   4.2693952e-01   3.0215256e-01  -9.0091597e+06
   1.5711904e-09  -4.4187464e-03   4.2655313e-01   3.0244264e-01  -8.9604560e+06
   1.5738580e-09  -4.3949086e-03   4.2616914e-01   3.0273140e-01  -8.9120173e+06
   1.5765255e-09  -4.3711997e-03   4.2578753e-01   3.0301885e-01  -8.8638423e+06
   1.5791931e-09  -4.3476190e-03   4.2540828e-01   3.0330499e-01  -8.8159295e+06
   1.5818606e-09  -4.3241657e-03   4.2503138e-01   3.0358982e-01  -8.7682773e+06
   1.5845282e-09  -4.3008392e-03   4.2465681e-01   3.0387335e-01  -8.7208845e+06
   1.5871957e-09  -4.2776388e-03   4.2428456e-01   3.0415559e-01  -8.6737494e+06
   1.5898633e-09  -4.2545638e-03   4.2391461e-01   3.0443653e-01  -8.6268708e+06
   1.5925308e-09  -4.2316135e-03   4.2354695e-01   3.0471619e-01  -8.5802471e+06
   1.5951984e-09  -4.2087872e-03   4.2318155e-01   3.0499457e-01  -8.5338770e+06
   1.5978660e-09  -4.1860843e-03   4.2281840e-01   3.0527167e-01  -8.4877590e+06
   1.6005335e-09  -4.1635041e-03   4.2245750e-01   3.0554750e-01  -8.4418918e+06
   1.6032011e-09  -4.1410459e-03   4.2209881e-01   3.0582206e-01  -8.3962739e+06
   1.6058686e-09  -4.1187090e-03   4.2174234e-01   3.0609536e-01  -8.3509041e+06
   1.6085362e-09  -4.0964929e-03   4.2138805e-01   3.0636740e-01  -8.3057808e+06
   1.6112037e-09  -4.0743968e-03   4.2103594e-01   3.0663819e-01  -8.2609028e+06
   1.6138713e-09  -4.0524200e-03   4.2068600e-01   3.0690773e-01  -8.2162687e+06
   1.6165388e-09  -4.0305621e-03   4.2033820e-01   3.0717602e-01  -8.1718771e+06
   1.6192064e-09  -4.0088222e-03   4.1999254e-01   3.0744307e-01  -8.1277267e+06
   1.6218740e-09  -3.9871997e-03   4.1964899e-01   3.0770889e-01  -8.0838161e+06
   1.6245415e-09  -3.9656941e-03   4.1930755e-01   3.0797348e-01  -8.0401441e+06
   1.6272091e-09  -3.9443047e-03   4.1896820e-01   3.0823684e-01  -7.9967093e+06
   1.6298766e-09  -3.9230308e-03   4.1863092e-01   3.0849899e-01  -7.9535105e+06
   1.6325442e-09  -3.9018718e-03   4.1829571e-01   3.0875991e-01  -7.9105462e+06
   1.6352117e-09  -3.8808272e-03   4.1796255e-01   3.0901962e-01  -7.8678152e+06
   1.6378793e-09  -3.8598962e-03   4.1763142e-01   3.0927813e-01  -7.8253162e+06
   1.6405468e-09  -3.8390783e-03   4.1730231e-01   3.0953543e-01  -7.7830480e+06
   1.6432144e-09  -3.8183728e-03   4.1697520e-01   3.0979153e-01  -7.7410093e+06
   1.6458820e-09  -3.7977791e-03   4.1665009e-01   3.1004644e-01  -7.6991987e+06
   1.6485495e-09  -3.7772967e-03   4.1632696e-01   3.1030017e-01  -7.6576151e+06
   1.6512171e-09  -3.7569249e-03   4.1600580e-01   3.1055270e-01  -7.6162572e+06
   1.6538846e-09  -3.7366632e-03   4.1568659e-01   3.1080406e-01  -7.5751237e+06
   1.6565522e-09  -3.7165108e-03   4.1536932e-01   3.1105424e-01  -7.5342135e+06
   1.6592197e-09  -3.6964673e-03   4.1505398e-01   3.1130325e-01  -7.4935252e+06
   1.6618873e-09  -3.6765321e-03   4.1474055e-01   3.1155109e-01  -7.4530577e+06
   1.6645549e-09  -3.6567045e-03   4.1442903e-01   3.1179778e-01  -7.4128097e+06
   1.6672224e-09  -3.6369839e-03   4.1411939e-01   3.1204330e-01  -7.3727800e+06
   1.6698900e-09  -3.6173699e-03   4.1381163e-01   3.1228767e-01  -7.3329675e+06
   1.6725575e-09  -3.5978618e-03   4.1350574e-01   3.1253090e-01  -7.2933710e+06
   1.6752251e-09  -3.5784590e-03   4.1320170e-01   3.1277298e-01  -7.2539891e+06
   1.6778926e-09  -3.5591610e-03   4.1289949e-01   3.1301392e-01  -7.2148209e+06
   1.6805602e-09  -3.5399671e-03   4.1259912e-01   3.1325372e-01  -7.1758650e+06
   1.6832277e-09  -3.5208770e-03   4.1230055e-01   3.1349240e-01  -7.1371204e+06
   1.6858953e-09  -3.5018899e-03   4.1200380e-01   3.1372994e-01  -7.0985858e+06
   1.6885629e-09  -3.4830053e-03   4.1170883e-01   3.1396637e-01  -7.0602601e+06
   1.6912304e-09  -3.4642226e-03   4.1141564e-01   3.1420168e-01  -7.0221422e+06
   1.6938980e-09  -3.4455414e-03   4.1112422e-01   3.1443588e-01  -6.9842309e+06
   1.6965655e-09  -3.4269610e-03   4.1083456e-01   3.1466897e-01  -6.9465252e+06
   1.6992331e-09  -3.4084810e-03   4.1054664e-01   3.1490096e-01  -6.9090237e+06
   1.7019006e-09  -3.3901007e-03   4.1026045e-01   3.1513184e-01  -6.8717255e+06
   1.7045682e-09  -3.3718196e-03   4.0997598e-01   3.1536163e-01  -6.8346295e+06
   1.7072357e-09  -3.3536372e-03   4.0969323e-01   3.1559033e-01  -6.7977344e+06
   1.7099033e-09  -3.3355530e-03   4.0941217e-01   3.1581795e-01  -6.7610393e+06
   1.7125709e-09  -3.3175664e-03   4.0913280e-01   3.1604448e-01  -6.7245430e+06
   1.7152384e-09  -3.2996769e-03   4.0885511e-01   3.1626994e-01  -6.6882444e+06
   1.7179060e-09  -3.2818839e-03   4.0857909e-01   3.1649432e-01  -6.6521424e+06
   1.7205735e-09  -3.2641870e-03   4.0830471e-01   3.1671763e-01  -6.6162361e+06
   1.7232411e-09  -3.2465856e-03   4.0803199e-01   3.1693988e-01  -6.5805242e+06
   1.7259086e-09  -3.2290792e-03   4.0776089e-01   3.1716107e-01  -6.5450057e+06
   1.7285762e-09  -3.2116673e-03   4.0749142e-01   3.1738120e-01  -6.5096796e+06
   1.7312437e-09  -3.1943494e-03   4.0722356e-01   3.1760029e-01  -6.4745448e+06
   1.7339113e-09  -3.1771250e-03   4.0695730e-01   3.1781832e-01  -6.4396003e+06
   1.7365789e-09  -3.1599935e-03   4.0669264e-01   3.1803531e-01  -6.4048450e+06
   1.7392464e-09  -3.1429545e-03   4.0642955e-01   3.1825126e-01  -6.3702779e+06
   1.7419140e-09  -3.1260074e-03   4.0616803e-01   3.1846618e-01  -6.3358980e+06
   1.7445815e-09  -3.1091518e-03   4.0590808e-01   3.1868007e-01  -6.3017042e+06
   1.7472491e-09  -3.0923872e-03   4.0564967e-01   3.1889294e-01  -6.2676955e+06
   1.7499166e-09  -3.0757130e-03   4.0539281e-01   3.1910478e-01  -6.2338709e+06
   1.7525842e-09  -3.0591289e-03   4.0513747e-01   3.1931560e-01  -6.2002294e+06
   1.7552518e-09  -3.0426342e-03   4.0488366e-01   3.1952541e-01  -6.1667700e+06
   1.7579193e-09  -3.0262285e-03   4.0463136e-01   3.1973421e-01  -6.1334918e+06
   1.7605869e-09  -3.0099114e-03   4.0438055e-01   3.1994201e-01  -6.1003936e+06
   1.7632544e-09  -2.9936823e-03   4.0413124e-01   3.2014881e-01  -6.0674746e+06
   1.7659220e-09  -2.9775408e-03   4.0388341e-01   3.2035461e-01  -6.0347337e+06
   1.7685895e-09  -2.9614864e-03   4.0363705e-01   3.2055942e-01  -6.0021699e+06
   1.7712571e-09  -2.9455187e-03   4.0339215e-01   3.2076324e-01  -5.9697824e+06
   1.7739246e-09  -2.9296371e-03   4.0314871e-01   3.2096607e-01  -5.9375702e+06
   1.7765922e-09  -2.9138412e-03   4.0290671e-01   3.2116793e-01  -5.9055322e+06
   1.7792598e-09  -2.8981305e-03   4.0266615e-01   3.2136881e-01  -5.8736676e+06
   1.7819273e-09  -2.8825046e-03   4.0242701e-01   3.2156872e-01  -5.8419753e+06
   1.7845949e-09  -2.8669630e-03   4.0218928e-01   3.2176766e-01  -5.8104545e+06
   1.7872624e-09  -2.8515052e-03   4.0195296e-01   3.2196564e-01  -5.7791043e+06
   1.7899300e-09  -2.8361309e-03   4.0171805e-01   3.2216266e-01  -5.7479236e+06
   1.7925975e-09  -2.8208395e-03   4.0148452e-01   3.2235873e-01  -5.7169116e+06
   1.7952651e-09  -2.8056306e-03   4.0125237e-01   3.2255384e-01  -5.6860673e+06
   1.7979326e-09  -2.7905038e-03   4.0102159e-01   3.2274801e-01  -5.6553898e+06
   1.8006002e-09  -2.7754586e-03   4.0079217e-01   3.2294123e-01  -5.6248783e+06
   1.8032678e-09  -2.7604945e-03   4.0056411e-01   3.2313352e-01  -5.5945317e+06
   1.8059353e-09  -2.7456112e-03   4.0033739e-01   3.2332487e-01  -5.5643493e+06
   1.8086029e-09  -2.7308082e-03   4.0011201e-01   3.2351528e-01  -5.5343301e+06
   1.8112704e-09  -2.7160850e-03   3.9988796e-01   3.2370478e-01  -5.5044732e+06
   1.8139380e-09  -2.7014413e-03   3.9966523e-01   3.2389335e-01  -5.4747778e+06
   1.8166055e-09  -2.6868766e-03   3.9944381e-01   3.2408100e-01  -5.4452429e+06
   1.8192731e-09  -2.6723904e-03   3.9922369e-01   3.2426773e-01  -5.4158677e+06
   1.8219406e-09  -2.6579824e-03   3.9900487e-01   3.2445355e-01  -5.3866513e+06
   1.8246082e-09  -2.6436521e-03   3.9878734e-01   3.2463847e-01  -5.3575929e+06
   1.8272758e-09  -2.6293991e-03   3.9857108e-01   3.2482248e-01  -5.3286916e+06
   1.8299433e-09  -2.6152231e-03   3.9835609e-01   3.2500560e-01  -5.2999465e+06
   1.8326109e-09  -2.6011234e-03   3.9814237e-01   3.2518781e-01  -5.2713568e+06
   1.8352784e-09  -2.5870999e-03   3.9792990e-01   3.2536914e-01  -5.2429216e+06
   1.8379460e-09  -2.5731520e-03   3.9771868e-01   3.2554958e-01  -5.2146402e+06
   1.8406135e-09  -2.5592793e-03   3.9750869e-01   3.2572914e-01  -5.1865116e+06
   1.8432811e-09  -2.5454814e-03   3.9729994e-01   3.2590781e-01  -5.1585350e+06
   1.8459486e-09  -2.5317580e-03   3.9709241e-01   3.2608561e-01  -5.1307097e+06
   1.8486162e-09  -2.5181086e-03   3.9688609e-01   3.2626254e-01  -5.1030347e+06
   1.8512838e-09  -2.5045329e-03   3.9668099e-01   3.2643860e-01  -5.0755093e+06
   1.8539513e-09  -2.4910303e-03   3.9647708e-01   3.2661379e-01  -5.0481326e+06
   1.8566189e-09  -2.4776006e-03   3.9627437e-01   3.2678812e-01  -5.0209039e+06
   1.8592864e-09  -2.4642433e-03   3.9607284e-01   3.2696160e-01  -4.9938223e+06
   1.8619540e-09  -2.4509581e-03   3.9587249e-01   3.2713422e-01  -4.9668871e+06
   1.8646215e-09  -2.4377446e-03   3.9567331e-01   3.2730599e-01  -4.9400974e+06
   1.8672891e-09  -2.4246023e-03   3.9547529e-01   3.2747692e-01  -4.9134524e+06
   1.8699567e-09  -2.4115308e-03   3.9527843e-01   3.2764701e-01  -4.8869514e+06
   1.8726242e-09  -2.3985299e-03   3.9508272e-01   3.2781625e-01  -4.8605936e+06
   1.8752918e-09  -2.3855991e-03   3.9488814e-01   3.2798466e-01  -4.8343782e+06
   1.8779593e-09  -2.3727381e-03   3.9469471e-01   3.2815225e-01  -4.8083045e+06
   1.8806269e-09  -2.3599464e-03   3.9450240e-01   3.2831900e-01  -4.7823715e+06
   1.8832944e-09  -2.3472237e-03   3.9431121e-01   3.2848493e-01  -4.7565787e+06
   1.8859620e-09  -2.3345696e-03   3.9412113e-01   3.2865004e-01  -4.7309252e+06
   1.8886295e-09  -2.3219838e-03   3.9393216e-01   3.2881434e-01  -4.7054103e+06
   1.8912971e-09  -2.3094658e-03   3.9374429e-01   3.2897782e-01  -4.6800332e+06
   1.8939647e-09  -2.2970154e-03   3.9355751e-01   3.2914049e-01  -4.6547932e+06
   1.8966322e-09  -2.2846321e-03   3.9337182e-01   3.2930236e-01  -4.6296895e+06
   1.8992998e-09  -2.2723156e-03   3.9318721e-01   3.2946342e-01  -4.6047215e+06
   1.9019673e-09  -2.2600655e-03   3.9300367e-01   3.2962369e-01  -4.5798882e+06
   1.9046349e-09  -2.2478815e-03   3.9282120e-01   3.2978316e-01  -4.5551891e+06
   1.9073024e-09  -2.2357632e-03   3.9263978e-01   3.2994184e-01  -4.5306234e+06
   1.9099700e-09  -2.2237102e-03   3.9245942e-01   3.3009974e-01  -4.5061903e+06
   1.9126375e-09  -2.2117223e-03   3.9228010e-01   3.3025685e-01  -4.4818892e+06
   1.9153051e-09  -2.1997990e-03   3.9210182e-01   3.3041318e-01  -4.4577194e+06
   1.9179727e-09  -2.1879400e-03   3.9192458e-01   3.3056873e-01  -4.4336800e+06
   1.9206402e-09  -2.1761449e-03   3.9174836e-01   3.3072351e-01  -4.4097705e+06
   1.9233078e-09  -2.1644134e-03   3.9157317e-01   3.3087752e-01  -4.3859901e+06
   1.9259753e-09  -2.1527453e-03   3.9139898e-01   3.3103077e-01  -4.3623381e+06
   1.9286429e-09  -2.1411400e-03   3.9122581e-01   3.3118325e-01  -4.3388138e+06
   1.9313104e-09  -2.1295973e-03   3.9105364e-01   3.3133497e-01  -4.3154165e+06
   1.9339780e-09  -2.1181169e-03   3.9088246e-01   3.3148593e-01  -4.2921455e+06
   1.9366455e-09  -2.1066984e-03   3.9071227e-01   3.3163615e-01  -4.2690002e+06
   1.9393131e-09  -2.0953414e-03   3.9054307e-01   3.3178561e-01  -4.2459799e+06
   1.9419807e-09  -2.0840457e-03   3.9037484e-01   3.3193433e-01  -4.2230839e+06
   1.9446482e-09  -2.0728109e-03   3.9020759e-01   3.3208230e-01  -4.2003114e+06
   1.9473158e-09  -2.0616367e-03   3.9004130e-01   3.3222954e-01  -4.1776619e+06
   1.9499833e-09  -2.0505227e-03   3.8987597e-01   3.3237604e-01  -4.1551347e+06
   1.9526509e-09  -2.0394687e-03   3.8971159e-01   3.3252181e-01  -4.1327291e+06
   1.9553184e-09  -2.0284743e-03   3.8954816e-01   3.3266685e-01  -4.1104444e+06
   1.9579860e-09  -2.0175391e-03   3.8938568e-01   3.3281116e-01  -4.0882801e+06
   1.9606536e-09  -2.0066629e-03   3.8922413e-01   3.3295476e-01  -4.0662354e+06
   1.9633211e-09  -1.9958454e-03   3.8906351e-01   3.3309763e-01  -4.0443097e+06
   1.9659887e-09  -1.9850862e-03   3.8890381e-01   3.3323979e-01  -4.0225023e+06
   1.9686562e-09  -1.9743850e-03   3.8874504e-01   3.3338123e-01  -4.0008127e+06
   1.9713238e-09  -1.9637415e-03   3.8858717e-01   3.3352197e-01  -3.9792401e+06
   1.9739913e-09  -1.9531555e-03   3.8843022e-01   3.3366200e-01  -3.9577840e+06
   1.9766589e-09  -1.9426264e-03   3.8827417e-01   3.3380133e-01  -3.9364437e+06
   1.9793264e-09  -1.9321542e-03   3.8811901e-01   3.3393996e-01  -3.9152185e+06
   1.9819940e-09  -1.9217384e-03   3.8796475e-01   3.3407789e-01  -3.8941080e+06
   1.9846616e-09  -1.9113788e-03   3.8781137e-01   3.3421513e-01  -3.8731113e+06
   1.9873291e-09  -1.9010751e-03   3.8765888e-01   3.3435168e-01  -3.8522280e+06
   1.9899967e-09  -1.8908269e-03   3.8750726e-01   3.3448755e-01  -3.8314574e+06
   1.9926642e-09  -1.8806339e-03   3.8735651e-01   3.3462273e-01  -3.8107989e+06
   1.9953318e-09  -1.8704960e-03   3.8720662e-01   3.3475723e-01  -3.7902518e+06
   1.9979993e-09  -1.8604126e-03   3.8705760e-01   3.3489105e-01  -3.7698157e+06
   2.0006669e-09  -1.8503837e-03   3.8690942e-01   3.3502421e-01  -3.7494898e+06
   2.0033344e-09  -1.8404088e-03   3.8676210e-01   3.3515669e-01  -3.7292737e+06
   2.0060020e-09  -1.8304877e-03   3.8661562e-01   3.3528850e-01  -3.7091666e+06
   2.0086696e-09  -1.8206201e-03   3.8646998e-01   3.3541965e-01  -3.6891680e+06
   2.0113371e-09  -1.8108057e-03   3.8632518e-01   3.3555013e-01  -3.6692774e+06
   2.0140047e-09  -1.8010442e-03   3.8618120e-01   3.3567996e-01  -3.6494941e+06
   2.0166722e-09  -1.7913354e-03   3.8603805e-01   3.3580914e-01  -3.6298175e+06
   2.0193398e-09  -1.7816789e-03   3.8589572e-01   3.3593766e-01  -3.6102471e+06
   2.0220073e-09  -1.7720744e-03   3.8575420e-01   3.3606553e-01  -3.5907823e+06
   2.0246749e-09  -1.7625217e-03   3.8561349e-01   3.3619276e-01  -3.5714225e+06
   2.0273424e-09  -1.7530206e-03   3.8547358e-01   3.3631934e-01  -3.5521672e+06
   2.0300100e-09  -1.7435707e-03   3.8533447e-01   3.3644529e-01  -3.5330158e+06
   2.0326776e-09  -1.7341717e-03   3.8519616e-01   3.3657060e-01  -3.5139677e+06
   2.0353451e-09  -1.7248234e-03   3.8505864e-01   3.3669527e-01  -3.4950224e+06
   2.0380127e-09  -1.7155255e-03   3.8492190e-01   3.3681931e-01  -3.4761793e+06
   2.0406802e-09  -1.7062777e-03   3.8478594e-01   3.3694273e-01  -3.4574379e+06
   2.0433478e-09  -1.6970798e-03   3.8465076e-01   3.3706552e-01  -3.4387976e+06
   2.0460153e-09  -1.6879314e-03   3.8451635e-01   3.3718769e-01  -3.4202578e+06
   2.0486829e-09  -1.6788324e-03   3.8438270e-01   3.3730924e-01  -3.4018181e+06
   2.0513505e-09  -1.6697825e-03   3.8424982e-01   3.3743017e-01  -3.3834778e+06
   2.0540180e-09  -1.6607813e-03   3.8411769e-01   3.3755049e-01  -3.3652365e+06
   2.0566856e-09  -1.6518287e-03   3.8398632e-01   3.3767020e-01  -3.3470936e+06
   2.0593531e-09  -1.6429243e-03   3.8385569e-01   3.3778930e-01  -3.3290486e+06
   2.0620207e-09  -1.6340679e-03   3.8372581e-01   3.3790780e-01  -3.3111010e+06
   2.0646882e-09  -1.6252593e-03   3.8359667e-01   3.3802569e-01  -3.2932501e+06
   2.0673558e-09  -1.6164982e-03   3.8346826e-01   3.3814299e-01  -3.2754956e+06
   2.0700233e-09  -1.6077843e-03   3.8334059e-01   3.3825969e-01  -3.2578368e+06
   2.0726909e-09  -1.5991174e-03   3.8321363e-01   3.3837580e-01  -3.2402733e+06
   2.0753585e-09  -1.5904972e-03   3.8308741e-01   3.3849132e-01  -3.2228045e+06
   2.0780260e-09  -1.5819235e-03   3.8296189e-01   3.3860625e-01  -3.2054299e+06
   2.0806936e-09  -1.5733960e-03   3.8283709e-01   3.3872059e-01  -3.1881491e+06
   2.0833611e-09  -1.5649145e-03   3.8271300e-01   3.3883435e-01  -3.1709615e+06
   2.0860287e-09  -1.5564787e-03   3.8258962e-01   3.3894754e-01  -3.1538666e+06
   2.0886962e-09  -1.5480884e-03   3.8246693e-01   3.3906015e-01  -3.1368639e+06
   2.0913638e-09  -1.5397433e-03   3.8234495e-01   3.3917218e-01  -3.1199530e+06
   2.0940313e-09  -1.5314432e-03   3.8222365e-01   3.3928364e-01  -3.1031332e+06
   2.0966989e-09  -1.5231878e-03   3.8210304e-01   3.3939454e-01  -3.0864042e+06
   2.0993665e-09  -1.5149770e-03   3.8198312e-01   3.3950487e-01  -3.0697654e+06
   2.1020340e-09  -1.5068104e-03   3.8186387e-01   3.3961464e-01  -3.0532163e+06
   2.1047016e-09  -1.4986878e-03   3.8174530e-01   3.3972384e-01  -3.0367565e+06
   2.1073691e-09  -1.4906091e-03   3.8162741e-01   3.3983249e-01  -3.0203855e+06
   2.1100367e-09  -1.4825739e-03   3.8151018e-01   3.3994059e-01  -3.0041028e+06
   2.1127042e-09  -1.4745820e-03   3.8139362e-01   3.4004813e-01  -2.9879079e+06
   2.1153718e-09  -1.4666332e-03   3.8127771e-01   3.4015513e-01  -2.9718003e+06
   2.1180393e-09  -1.4587272e-03   3.8116246e-01   3.4026157e-01  -2.9557797e+06
   2.1207069e-09  -1.4508639e-03   3.8104787e-01   3.4036748e-01  -2.9398454e+06
   2.1233745e-09  -1.4430429e-03   3.8093392e-01   3.4047284e-01  -2.9239970e+06
   2.1260420e-09  -1.4352641e-03   3.8082061e-01   3.4057766e-01  -2.9082342e+06
   2.1287096e-09  -1.4275273e-03   3.8070795e-01   3.4068195e-01  -2.8925563e+06
   2.1313771e-09  -1.4198321e-03   3.8059593e-01   3.4078570e-01  -2.8769630e+06
   2.1340447e-09  -1.4121785e-03   3.8048453e-01   3.4088892e-01  -2.8614538e+06
   2.1367122e-09  -1.4045661e-03   3.8037377e-01   3.4099162e-01  -2.8460283e+06
   2.1393798e-09  -1.3969947e-03   3.8026363e-01   3.4109378e-01  -2.8306859e+06
   2.1420473e-09  -1.3894642e-03   3.8015412e-01   3.4119543e-01  -2.8154263e+06
   2.1447149e-09  -1.3819742e-03   3.8004522e-01   3.4129655e-01  -2.8002489e+06
   2.1473825e-09  -1.3745246e-03   3.7993694e-01   3.4139716e-01  -2.7851534e+06
   2.1500500e-09  -1.3671152e-03   3.7982927e-01   3.4149724e-01  -2.7701394e+06
   2.1527176e-09  -1.3597457e-03   3.7972220e-01   3.4159682e-01  -2.7552062e+06
   2.1553851e-09  -1.3524160e-03   3.7961574e-01   3.4169588e-01  -2.7403536e+06
   2.1580527e-09  -1.3451258e-03   3.7950988e-01   3.4179444e-01  -2.7255812e+06
   2.1607202e-09  -1.3378748e-03   3.7940462e-01   3.4189249e-01  -2.7108883e+06
   2.1633878e-09  -1.3306630e-03   3.7929995e-01   3.4199004e-01  -2.6962747e+06
   2.1660554e-09  -1.3234900e-03   3.7919587e-01   3.4208709e-01  -2.6817399e+06
   2.1687229e-09  -1.3163557e-03   3.7909238e-01   3.4218363e-01  -2.6672835e+06
   2.1713905e-09  -1.3092599e-03   3.7898947e-01   3.4227969e-01  -2.6529051e+06
   2.1740580e-09  -1.3022023e-03   3.7888714e-01   3.4237524e-01  -2.6386041e+06
   2.1767256e-09  -1.2951827e-03   3.7878538e-01   3.4247031e-01  -2.6243803e+06
   2.1793931e-09  -1.2882010e-03   3.7868420e-01   3.4256489e-01  -2.6102332e+06
   2.1820607e-09  -1.2812570e-03   3.7858359e-01   3.4265898e-01  -2.5961624e+06
   2.1847282e-09  -1.2743503e-03   3.7848354e-01   3.4275259e-01  -2.5821674e+06
   2.1873958e-09  -1.2674809e-03   3.7838406e-01   3.4284571e-01  -2.5682480e+06
   2.1900634e-09  -1.2606485e-03   3.7828514e-01   3.4293836e-01  -2.5544035e+06
   2.1927309e-09  -1.2538530e-03   3.7818677e-01   3.4303053e-01  -2.5406337e+06
   2.1953985e-09  -1.2470941e-03   3.7808895e-01   3.4312222e-01  -2.5269382e+06
   2.1980660e-09  -1.2403716e-03   3.7799169e-01   3.4321344e-01  -2.5133165e+06
   2.2007336e-09  -1.2336854e-03   3.7789497e-01   3.4330420e-01  -2.4997683e+06
   2.2034011e-09  -1.2270352e-03   3.7779880e-01   3.4339448e-01  -2.4862931e+06
   2.2060687e-09  -1.2204208e-03   3.7770316e-01   3.4348430e-01  -2.4728906e+06
   2.2087362e-09  -1.2138421e-03   3.7760806e-01   3.4357366e-01  -2.4595603e+06
   2.2114038e-09  -1.2072989e-03   3.7751350e-01   3.4366255e-01  -2.4463019e+06
   2.2140714e-09  -1.2007910e-03   3.7741947e-01   3.4375099e-01  -2.4331150e+06
   2.2167389e-09  -1.1943181e-03   3.7732596e-01   3.4383897e-01  -2.4199992e+06
   2.2194065e-09  -1.1878801e-03   3.7723298e-01   3.4392649e-01  -2.4069541e+06
   2.2220740e-09  -1.1814768e-03   3.7714052e-01   3.4401357e-01  -2.3939794e+06
   2.2247416e-09  -1.1751081e-03   3.7704858e-01   3.4410019e-01  -2.3810746e+06
   2.2274091e-09  -1.1687736e-03   3.7695716e-01   3.4418637e-01  -2.3682394e+06
   2.2300767e-09  -1.1624733e-03   3.7686624e-01   3.4427210e-01  -2.3554734e+06
   2.2327442e-09  -1.1562070e-03   3.7677584e-01   3.4435739e-01  -2.3427762e+06
   2.2354118e-09  -1.1499745e-03   3.7668594e-01   3.4444223e-01  -2.3301475e+06
   2.2380794e-09  -1.1437755e-03   3.7659655e-01   3.4452664e-01  -2.3175869e+06
   2.2407469e-09  -1.1376100e-03   3.7650766e-01   3.4461062e-01  -2.3050939e+06
   2.2434145e-09  -1.1314777e-03   3.7641927e-01   3.4469415e-01  -2.2926684e+06
   2.2460820e-09  -1.1253785e-03   3.7633137e-01   3.4477726e-01  -2.2803098e+06
   2.2487496e-09  -1.1193121e-03   3.7624396e-01   3.4485993e-01  -2.2680179e+06
   2.2514171e-09  -1.1132784e-03   3.7615704e-01   3.4494218e-01  -2.2557922e+06
   2.2540847e-09  -1.1072773e-03   3.7607061e-01   3.4502400e-01  -2.2436325e+06
   2.2567523e-09  -1.1013085e-03   3.7598466e-01   3.4510540e-01  -2.2315383e+06
   2.2594198e-09  -1.0953719e-03   3.7589919e-01   3.4518638e-01  -2.2195093e+06
   2.2620874e-09  -1.0894673e-03   3.7581420e-01   3.4526694e-01  -2.2075452e+06
   2.2647549e-09  -1.0835945e-03   3.7572969e-01   3.4534708e-01  -2.1956456e+06
   2.2674225e-09  -1.0777534e-03   3.7564565e-01   3.4542680e-01  -2.1838101e+06
   2.2700900e-09  -1.0719437e-03   3.7556207e-01   3.4550611e-01  -2.1720384e+06
   2.2727576e-09  -1.0661654e-03   3.7547897e-01   3.4558501e-01  -2.1603302e+06
   2.2754251e-09  -1.0604182e-03   3.7539633e-01   3.4566350e-01  -2.1486851e+06
   2.2780927e-09  -1.0547020e-03   3.7531415e-01   3.4574159e-01  -2.1371028e+06
   2.2807603e-09  -1.0490166e-03   3.7523243e-01   3.4581926e-01  -2.1255830e+06
   2.2834278e-09  -1.0433619e-03   3.7515116e-01   3.4589654e-01  -2.1141252e+06
   2.2860954e-09  -1.0377377e-03   3.7507035e-01   3.4597341e-01  -2.1027292e+06
   2.2887629e-09  -1.0321437e-03   3.7498999e-01   3.4604989e-01  -2.0913947e+06
   2.2914305e-09  -1.0265799e-03   3.7491008e-01   3.4612597e-01  -2.0801212e+06
   2.2940980e-09  -1.0210461e-03   3.7483062e-01   3.4620165e-01  -2.0689086e+06
   2.2967656e-09  -1.0155422e-03   3.7475160e-01   3.4627694e-01  -2.0577564e+06
   2.2994331e-09  -1.0100679e-03   3.7467302e-01   3.4635184e-01  -2.0466643e+06
   2.3021007e-09  -1.0046231e-03   3.7459487e-01   3.4642635e-01  -2.0356320e+06
   2.3047683e-09  -9.9920765e-04   3.7451717e-01   3.4650047e-01  -2.0246591e+06
   2.3074358e-09  -9.9382140e-04   3.7443989e-01   3.4657421e-01  -2.0137455e+06
   2.3101034e-09  -9.8846419e-04   3.7436305e-01   3.4664756e-01  -2.0028906e+06
   2.3127709e-09  -9.8313586e-04   3.7428663e-01   3.4672053e-01  -1.9920943e+06
   2.3154385e-09  -9.7783624e-04   3.7421064e-01   3.4679312e-01  -1.9813562e+06
   2.3181060e-09  -9.7256520e-04   3.7413508e-01   3.4686534e-01  -1.9706760e+06
   2.3207736e-09  -9.6732256e-04   3.7405993e-01   3.4693717e-01  -1.9600533e+06
   2.3234411e-09  -9.6210819e-04   3.7398521e-01   3.4700864e-01  -1.9494880e+06
   2.3261087e-09  -9.5692192e-04   3.7391090e-01   3.4707973e-01  -1.9389795e+06
   2.3287763e-09  -9.5176361e-04   3.7383700e-01   3.4715045e-01  -1.9285277e+06
   2.3314438e-09  -9.4663311e-04   3.7376351e-01   3.4722081e-01  -1.9181323e+06
   2.3341114e-09  -9.4153026e-04   3.7369044e-01   3.4729080e-01  -1.9077929e+06
   2.3367789e-09  -9.3645492e-04   3.7361777e-01   3.4736042e-01  -1.8975092e+06
   2.3394465e-09  -9.3140693e-04   3.7354550e-01   3.4742968e-01  -1.8872810e+06
   2.3421140e-09  -9.2638615e-04   3.7347364e-01   3.4749858e-01  -1.8771079e+06
   2.3447816e-09  -9.2139244e-04   3.7340217e-01   3.4756712e-01  -1.8669897e+06
   2.3474491e-09  -9.1642565e-04   3.7333111e-01   3.4763530e-01  -1.8569260e+06
   2.3501167e-09  -9.1148563e-04   3.7326044e-01   3.4770313e-01  -1.8469165e+06
   2.3527843e-09  -9.0657224e-04   3.7319016e-01   3.4777060e-01  -1.8369610e+06
   2.3554518e-09  -9.0168533e-04   3.7312027e-01   3.4783772e-01  -1.8270592e+06
   2.3581194e-09  -8.9682476e-04   3.7305077e-01   3.4790449e-01  -1.8172108e+06
   2.3607869e-09  -8.9199040e-04   3.7298166e-01   3.4797091e-01  -1.8074154e+06
   2.3634545e-09  -8.8718209e-04   3.7291293e-01   3.4803699e-01  -1.7976729e+06
   2.3661220e-09  -8.8239970e-04   3.7284458e-01   3.4810272e-01  -1.7879828e+06
   2.3687896e-09  -8.7764310e-04   3.7277661e-01   3.4816811e-01  -1.7783450e+06
   2.3714572e-09  -8.7291213e-04   3.7270902e-01   3.4823315e-01  -1.7687592e+06
   2.3741247e-09  -8.6820666e-04   3.7264180e-01   3.4829786e-01  -1.7592250e+06
   2.3767923e-09  -8.6352655e-04   3.7257496e-01   3.4836223e-01  -1.7497422e+06
   2.3794598e-09  -8.5887168e-04   3.7250849e-01   3.4842626e-01  -1.7403105e+06
   2.3821274e-09  -8.5424189e-04   3.7244238e-01   3.4848996e-01  -1.7309297e+06
   2.3847949e-09  -8.4963706e-04   3.7237665e-01   3.4855332e-01  -1.7215995e+06
   2.3874625e-09  -8.4505706e-04   3.7231128e-01   3.4861636e-01  -1.7123195e+06
   2.3901300e-09  -8.4050174e-04   3.7224627e-01   3.4867906e-01  -1.7030896e+06
   2.3927976e-09  -8.3597097e-04   3.7218162e-01   3.4874143e-01  -1.6939094e+06
   2.3954652e-09  -8.3146463e-04   3.7211733e-01   3.4880348e-01  -1.6847787e+06
   2.3981327e-09  -8.2698257e-04   3.7205339e-01   3.4886521e-01  -1.6756972e+06
   2.4008003e-09  -8.2252468e-04   3.7198982e-01   3.4892661e-01  -1.6666647e+06
   2.4034678e-09  -8.1809082e-04   3.7192659e-01   3.4898769e-01  -1.6576808e+06
   2.4061354e-09  -8.1368086e-04   3.7186371e-01   3.4904845e-01  -1.6487454e+06
   2.4088029e-09  -8.0929466e-04   3.7180118e-01   3.4910889e-01  -1.6398582e+06
   2.4114705e-09  -8.0493212e-04   3.7173900e-01   3.4916902e-01  -1.6310188e+06
   2.4141380e-09  -8.0059308e-04   3.7167716e-01   3.4922883e-01  -1.6222272e+06
   2.4168056e-09  -7.9627744e-04   3.7161567e-01   3.4928833e-01  -1.6134829e+06
   2.4194732e-09  -7.9198506e-04   3.7155451e-01   3.4934752e-01  -1.6047857e+06
   2.4221407e-09  -7.8771581e-04   3.7149370e-01   3.4940639e-01  -1.5961354e+06
   2.4248083e-09  -7.8346958e-04   3.7143322e-01   3.4946496e-01  -1.5875317e+06
   2.4274758e-09  -7.7924623e-04   3.7137307e-01   3.4952322e-01  -1.5789745e+06
   2.4301434e-09  -7.7504566e-04   3.7131326e-01   3.4958118e-01  -1.5704633e+06
   2.4328109e-09  -7.7086772e-04   3.7125378e-01   3.4963883e-01  -1.5619980e+06
   2.4354785e-09  -7.6671231e-04   3.7119463e-01   3.4969618e-01  -1.5535784e+06
   2.4381460e-09  -7.6257929e-04   3.7113581e-01   3.4975323e-01  -1.5452041e+06
   2.4408136e-09  -7.5846855e-04   3.7107731e-01   3.4980998e-01  -1.5368750e+06
   2.4434812e-09  -7.5437997e-04   3.7101913e-01   3.4986643e-01  -1.5285908e+06
   2.4461487e-09  -7.5031343e-04   3.7096128e-01   3.4992259e-01  -1.5203512e+06
   2.4488163e-09  -7.4626881e-04   3.7090374e-01   3.4997845e-01  -1.5121561e+06
   2.4514838e-09  -7.4224599e-04   3.7084653e-01   3.5003402e-01  -1.5040051e+06
   2.4541514e-09  -7.3824485e-04   3.7078963e-01   3.5008929e-01  -1.4958980e+06
   2.4568189e-09  -7.3426528e-04   3.7073304e-01   3.5014428e-01  -1.4878347e+06
   2.4594865e-09  -7.3030717e-04   3.7067677e-01   3.5019898e-01  -1.4798148e+06
   2.4621541e-09  -7.2637039e-04   3.7062081e-01   3.5025339e-01  -1.4718382e+06
   2.4648216e-09  -7.2245483e-04   3.7056516e-01   3.5030751e-01  -1.4639045e+06
   2.4674892e-09  -7.1856037e-04   3.7050981e-01   3.5036135e-01  -1.4560136e+06
   2.4701567e-09  -7.1468691e-04   3.7045477e-01   3.5041491e-01  -1.4481653e+06
   2.4728243e-09  -7.1083433e-04   3.7040004e-01   3.5046819e-01  -1.4403592e+06
   2.4754918e-09  -7.0700251e-04   3.7034560e-01   3.5052118e-01  -1.4325952e+06
   2.4781594e-09  -7.0319135e-04   3.7029147e-01   3.5057390e-01  -1.4248731e+06
   2.4808269e-09  -6.9940073e-04   3.7023764e-01   3.5062634e-01  -1.4171926e+06
   2.4834945e-09  -6.9563054e-04   3.7018410e-01   3.5067851e-01  -1.4095535e+06
   2.4861621e-09  -6.9188068e-04   3.7013086e-01   3.5073040e-01  -1.4019556e+06
   2.4888296e-09  -6.8815103e-04   3.7007791e-01   3.5078202e-01  -1.3943986e+06
   2.4914972e-09  -6.8444148e-04   3.7002526e-01   3.5083336e-01  -1.3868823e+06
   2.4941647e-09  -6.8075193e-04   3.6997289e-01   3.5088444e-01  -1.3794066e+06
   2.4968323e-09  -6.7708227e-04   3.6992082e-01   3.5093525e-01  -1.3719712e+06
   2.4994998e-09  -6.7343239e-04   3.6986903e-01   3.5098579e-01  -1.3645758e+06
   2.5021674e-09  -6.6980218e-04   3.6981752e-01   3.5103606e-01  -1.3572203e+06
   2.5048349e-09  -6.6619154e-04   3.6976630e-01   3.5108607e-01  -1.3499045e+06
   2.5075025e-09  -6.6260036e-04   3.6971537e-01   3.5113582e-01  -1.3426281e+06
   2.5101701e-09  -6.5902854e-04   3.6966471e-01   3.5118531e-01  -1.3353909e+06
   2.5128376e-09  -6.5547597e-04   3.6961433e-01   3.5123453e-01  -1.3281927e+06
   2.5155052e-09  -6.5194256e-04   3.6956424e-01   3.5128350e-01  -1.3210333e+06
   2.5181727e-09  -6.4842819e-04   3.6951441e-01   3.5133220e-01  -1.3139125e+06
   2.5208403e-09  -6.4493276e-04   3.6946486e-01   3.5138065e-01  -1.3068301e+06
   2.5235078e-09  -6.4145617e-04   3.6941559e-01   3.5142885e-01  -1.2997859e+06
   2.5261754e-09  -6.3799833e-04   3.6936658e-01   3.5147679e-01  -1.2927796e+06
   2.5288429e-09  -6.3455912e-04   3.6931785e-01   3.5152448e-01  -1.2858111e+06
   2.5315105e-09  -6.3113845e-04   3.6926938e-01   3.5157192e-01  -1.2788802e+06
   2.5341781e-09  -6.2773622e-04   3.6922119e-01   3.5161911e-01  -1.2719866e+06
   2.5368456e-09  -6.2435233e-04   3.6917325e-01   3.5166605e-01  -1.2651302e+06
   2.5395132e-09  -6.2098668e-04   3.6912558e-01   3.5171274e-01  -1.2583107e+06
   2.5421807e-09  -6.1763917e-04   3.6907818e-01   3.5175919e-01  -1.2515280e+06
   2.5448483e-09  -6.1430971e-04   3.6903103e-01   3.5180539e-01  -1.2447819e+06
   2.5475158e-09  -6.1099819e-04   3.6898414e-01   3.5185134e-01  -1.2380721e+06
   2.5501834e-09  -6.0770452e-04   3.6893751e-01   3.5189706e-01  -1.2313985e+06
   2.5528510e-09  -6.0442861e-04   3.6889114e-01   3.5194253e-01  -1.2247608e+06
   2.5555185e-09  -6.0117035e-04   3.6884502e-01   3.5198777e-01  -1.2181590e+06
   2.5581861e-09  -5.9792966e-04   3.6879916e-01   3.5203276e-01  -1.2115927e+06
   2.5608536e-09  -5.9470644e-04   3.6875355e-01   3.5207752e-01  -1.2050618e+06
   2.5635212e-09  -5.9150059e-04   3.6870819e-01   3.5212204e-01  -1.1985661e+06
   2.5661887e-09  -5.8831202e-04   3.6866308e-01   3.5216633e-01  -1.1921054e+06
   2.5688563e-09  -5.8514064e-04   3.6861822e-01   3.5221038e-01  -1.1856796e+06
   2.5715238e-09  -5.8198635e-04   3.6857360e-01   3.5225420e-01  -1.1792883e+06
   2.5741914e-09  -5.7884907e-04   3.6852923e-01   3.5229779e-01  -1.1729316e+06
   2.5768590e-09  -5.7572870e-04   3.6848510e-01   3.5234115e-01  -1.1666091e+06
   2.5795265e-09  -5.7262514e-04   3.6844122e-01   3.5238428e-01  -1.1603206e+06
   2.5821941e-09  -5.6953832e-04   3.6839758e-01   3.5242718e-01  -1.1540661e+06
   2.5848616e-09  -5.6646814e-04   3.6835417e-01   3.5246986e-01  -1.1478453e+06
   2.5875292e-09  -5.6341450e-04   3.6831101e-01   3.5251231e-01  -1.1416580e+06
   2.5901967e-09  -5.6037733e-04   3.6826808e-01   3.5255454e-01  -1.1355041e+06
   2.5928643e-09  -5.5735652e-04   3.6822539e-01   3.5259654e-01  -1.1293833e+06
   2.5955318e-09  -5.5435200e-04   3.6818293e-01   3.5263832e-01  -1.1232955e+06
   2.5981994e-09  -5.5136368e-04   3.6814071e-01   3.5267988e-01  -1.1172406e+06
   2.6008670e-09  -5.4839146e-04   3.6809872e-01   3.5272122e-01  -1.1112182e+06
   2.6035345e-09  -5.4543527e-04   3.6805696e-01   3.5276234e-01  -1.1052284e+06
   2.6062021e-09  -5.4249501e-04   3.6801542e-01   3.5280325e-01  -1.0992708e+06
   2.6088696e-09  -5.3957060e-04   3.6797412e-01   3.5284394e-01  -1.0933453e+06
   2.6115372e-09  -5.3666195e-04   3.6793304e-01   3.5288441e-01  -1.0874518e+06
   2.6142047e-09  -5.3376898e-04   3.6789219e-01   3.5292467e-01  -1.0815900e+06
   2.6168723e-09  -5.3089161e-04   3.6785156e-01   3.5296472e-01  -1.0757598e+06
   2.6195398e-09  -5.2802974e-04   3.6781116e-01   3.5300455e-01  -1.0699611e+06
   2.6222074e-09  -5.2518330e-04   3.6777098e-01   3.5304418e-01  -1.0641936e+06
   2.6248750e-09  -5.2235221e-04   3.6773101e-01   3.5308359e-01  -1.0584572e+06
   2.6275425e-09  -5.1953638e-04   3.6769127e-01   3.5312280e-01  -1.0527517e+06
   2.6302101e-09  -5.1673572e-04   3.6765175e-01   3.5316179e-01  -1.0470770e+06
   2.6328776e-09  -5.1395016e-04   3.6761244e-01   3.5320059e-01  -1.0414329e+06
   2.6355452e-09  -5.1117962e-04   3.6757335e-01   3.5323917e-01  -1.0358191e+06
   2.6382127e-09  -5.0842401e-04   3.6753447e-01   3.5327756e-01  -1.0302357e+06
   2.6408803e-09  -5.0568325e-04   3.6749580e-01   3.5331574e-01  -1.0246823e+06
   2.6435478e-09  -5.0295727e-04   3.6745735e-01   3.5335371e-01  -1.0191589e+06
   2.6462154e-09  -5.0024598e-04   3.6741911e-01   3.5339149e-01  -1.0136652e+06
   2.6488830e-09  -4.9754931e-04   3.6738108e-01   3.5342907e-01  -1.0082012e+06
   2.6515505e-09  -4.9486717e-04   3.6734325e-01   3.5346644e-01  -1.0027666e+06
   2.6542181e-09  -4.9219949e-04   3.6730564e-01   3.5350362e-01  -9.9736126e+05
   2.6568856e-09  -4.8954619e-04   3.6726822e-01   3.5354060e-01  -9.9198509e+05
   2.6595532e-09  -4.8690720e-04   3.6723102e-01   3.5357739e-01  -9.8663790e+05
   2.6622207e-09  -4.8428243e-04   3.6719402e-01   3.5361398e-01  -9.8131953e+05
   2.6648883e-09  -4.8167180e-04   3.6715722e-01   3.5365038e-01  -9.7602982e+05
   2.6675559e-09  -4.7907525e-04   3.6712062e-01   3.5368658e-01  -9.7076863e+05
   2.6702234e-09  -4.7649270e-04   3.6708423e-01   3.5372260e-01  -9.6553579e+05
   2.6728910e-09  -4.7392407e-04   3.6704803e-01   3.5375842e-01  -9.6033116e+05
   2.6755585e-09  -4.7136928e-04   3.6701203e-01   3.5379405e-01  -9.5515458e+05
   2.6782261e-09  -4.6882826e-04   3.6697623e-01   3.5382950e-01  -9.5000591e+05
   2.6808936e-09  -4.6630094e-04   3.6694062e-01   3.5386475e-01  -9.4488499e+05
   2.6835612e-09  -4.6378725e-04   3.6690521e-01   3.5389982e-01  -9.3979166e+05
   2.6862287e-09  -4.6128710e-04   3.6687000e-01   3.5393470e-01  -9.3472580e+05
   2.6888963e-09  -4.5880043e-04   3.6683497e-01   3.5396940e-01  -9.2968723e+05
   2.6915639e-09  -4.5632717e-04   3.6680014e-01   3.5400391e-01  -9.2467583e+05
   2.6942314e-09  -4.5386724e-04   3.6676550e-01   3.5403825e-01  -9.1969144e+05
   2.6968990e-09  -4.5142056e-04   3.6673105e-01   3.5407239e-01  -9.1473391e+05
   2.6995665e-09  -4.4898708e-04   3.6669679e-01   3.5410636e-01  -9.0980310e+05
   2.7022341e-09  -4.4656671e-04   3.6666271e-01   3.5414015e-01  -9.0489888e+05
   2.7049016e-09  -4.4415939e-04   3.6662882e-01   3.5417376e-01  -9.0002108e+05
   2.7075692e-09  -4.4176505e-04   3.6659512e-01   3.5420719e-01  -8.9516958e+05
   2.7102367e-09  -4.3938361e-04   3.6656160e-01   3.5424044e-01  -8.9034423e+05
   2.7129043e-09  -4.3701501e-04   3.6652826e-01   3.5427352e-01  -8.8554488e+05
   2.7155719e-09  -4.3465918e-04   3.6649511e-01   3.5430642e-01  -8.8077141e+05
   2.7182394e-09  -4.3231605e-04   3.6646214e-01   3.5433914e-01  -8.7602366e+05
   2.7209070e-09  -4.2998555e-04   3.6642935e-01   3.5437169e-01  -8.7130151e+05
   2.7235745e-09  -4.2766761e-04   3.6639673e-01   3.5440407e-01  -8.6660481e+05
   2.7262421e-09  -4.2536216e-04   3.6636430e-01   3.5443628e-01  -8.6193342e+05
   2.7289096e-09  -4.2306914e-04   3.6633204e-01   3.5446832e-01  -8.5728721e+05
   2.7315772e-09  -4.2078849e-04   3.6629996e-01   3.5450018e-01  -8.5266605e+05
   2.7342447e-09  -4.1852012e-04   3.6626806e-01   3.5453188e-01  -8.4806979e+05
   2.7369123e-09  -4.1626399e-04   3.6623633e-01   3.5456341e-01  -8.4349831e+05
   2.7395799e-09  -4.1402001e-04   3.6620477e-01   3.5459477e-01  -8.3895147e+05
   2.7422474e-09  -4.1178813e-04   3.6617339e-01   3.5462597e-01  -8.3442914e+05
   2.7449150e-09  -4.0956829e-04   3.6614218e-01   3.5465699e-01  -8.2993118e+05
   2.7475825e-09  -4.0736040e-04   3.6611113e-01   3.5468786e-01  -8.2545747e+05
   2.7502501e-09  -4.0516442e-04   3.6608026e-01   3.5471856e-01  -8.2100787e+05
   2.7529176e-09  -4.0298028e-04   3.6604956e-01   3.5474910e-01  -8.1658225e+05
   2.7555852e-09  -4.0080791e-04   3.6601902e-01   3.5477947e-01  -8.1218049e+05
   2.7582528e-09  -3.9864725e-04   3.6598865e-01   3.5480968e-01  -8.0780245e+05
   2.7609203e-09  -3.9649824e-04   3.6595845e-01   3.5483974e-01  -8.0344802e+05
   2.7635879e-09  -3.9436081e-04   3.6592841e-01   3.5486963e-01  -7.9911705e+05
   2.7662554e-09  -3.9223490e-04   3.6589854e-01   3.5489936e-01  -7.9480943e+05
   2.7689230e-09  -3.9012046e-04   3.6586883e-01   3.5492894e-01  -7.9052502e+05
   2.7715905e-09  -3.8801741e-04   3.6583928e-01   3.5495836e-01  -7.8626371e+05
   2.7742581e-09  -3.8592570e-04   3.6580989e-01   3.5498762e-01  -7.8202537e+05
   2.7769256e-09  -3.8384526e-04   3.6578067e-01   3.5501673e-01  -7.7780988e+05
   2.7795932e-09  -3.8177604e-04   3.6575160e-01   3.5504568e-01  -7.7361710e+05
   2.7822608e-09  -3.7971797e-04   3.6572269e-01   3.5507448e-01  -7.6944693e+05
   2.7849283e-09  -3.7767099e-04   3.6569394e-01   3.5510313e-01  -7.6529923e+05
   2.7875959e-09  -3.7563505e-04   3.6566535e-01   3.5513162e-01  -7.6117389e+05
   2.7902634e-09  -3.7361009e-04   3.6563691e-01   3.5515996e-01  -7.5707078e+05
   2.7929310e-09  -3.7159604e-04   3.6560863e-01   3.5518815e-01  -7.5298979e+05
   2.7955985e-09  -3.6959284e-04   3.6558050e-01   3.5521619e-01  -7.4893080e+05
   2.7982661e-09  -3.6760045e-04   3.6555253e-01   3.5524408e-01  -7.4489369e+05
   2.8009336e-09  -3.6561879e-04   3.6552471e-01   3.5527183e-01  -7.4087833e+05
   2.8036012e-09  -3.6364782e-04   3.6549704e-01   3.5529942e-01  -7.3688462e+05
   2.8062688e-09  -3.6168747e-04   3.6546952e-01   3.5532687e-01  -7.3291244e+05
   2.8089363e-09  -3.5973769e-04   3.6544215e-01   3.5535417e-01  -7.2896167e+05
   2.8116039e-09  -3.5779842e-04   3.6541493e-01   3.5538133e-01  -7.2503219e+05
   2.8142714e-09  -3.5586960e-04   3.6538786e-01   3.5540834e-01  -7.2112389e+05
   2.8169390e-09  -3.5395118e-04   3.6536094e-01   3.5543521e-01  -7.1723666e+05
   2.8196065e-09  -3.5204310e-04   3.6533416e-01   3.5546194e-01  -7.1337038e+05
   2.8222741e-09  -3.5014531e-04   3.6530753e-01   3.5548852e-01  -7.0952494e+05
   2.8249416e-09  -3.4825775e-04   3.6528105e-01   3.5551496e-01  -7.0570023e+05
   2.8276092e-09  -3.4638036e-04   3.6525471e-01   3.5554126e-01  -7.0189614e+05
   2.8302768e-09  -3.4451309e-04   3.6522851e-01   3.5556742e-01  -6.9811255e+05
   2.8329443e-09  -3.4265589e-04   3.6520246e-01   3.5559345e-01  -6.9434935e+05
   2.8356119e-09  -3.4080870e-04   3.6517655e-01   3.5561933e-01  -6.9060644e+05
   2.8382794e-09  -3.3897146e-04   3.6515078e-01   3.5564508e-01  -6.8688370e+05
   2.8409470e-09  -3.3714413e-04   3.6512515e-01   3.5567068e-01  -6.8318103e+05
   2.8436145e-09  -3.3532665e-04   3.6509966e-01   3.5569616e-01  -6.7949831e+05
   2.8462821e-09  -3.3351897e-04   3.6507431e-01   3.5572149e-01  -6.7583545e+05
   2.8489496e-09  -3.3172103e-04   3.6504910e-01   3.5574669e-01  -6.7219233e+05
   2.8516172e-09  -3.2993279e-04   3.6502402e-01   3.5577176e-01  -6.6856885e+05
   2.8542848e-09  -3.2815418e-04   3.6499908e-01   3.5579669e-01  -6.6496489e+05
   2.8569523e-09  -3.2638516e-04   3.6497428e-01   3.5582150e-01  -6.6138037e+05
   2.8596199e-09  -3.2462568e-04   3.6494961e-01   3.5584616e-01  -6.5781516e+05
   2.8622874e-09  -3.2287568e-04   3.6492508e-01   3.5587070e-01  -6.5426917e+05
   2.8649550e-09  -3.2113511e-04   3.6490068e-01   3.5589511e-01  -6.5074230e+05
   2.8676225e-09  -3.1940393e-04   3.6487642e-01   3.5591938e-01  -6.4723443e+05
   2.8702901e-09  -3.1768208e-04   3.6485228e-01   3.5594353e-01  -6.4374548e+05
   2.8729577e-09  -3.1596951e-04   3.6482828e-01   3.5596755e-01  -6.4027533e+05
   2.8756252e-09  -3.1426617e-04   3.6480441e-01   3.5599144e-01  -6.3682388e+05
   2.8782928e-09  -3.1257202e-04   3.6478067e-01   3.5601520e-01  -6.3339104e+05
   2.8809603e-09  -3.1088700e-04   3.6475706e-01   3.5603884e-01  -6.2997670e+05
   2.8836279e-09  -3.0921106e-04   3.6473357e-01   3.5606235e-01  -6.2658077e+05
   2.8862954e-09  -3.0754415e-04   3.6471022e-01   3.5608573e-01  -6.2320314e+05
   2.8889630e-09  -3.0588623e-04   3.6468699e-01   3.5610899e-01  -6.1984371e+05
   2.8916305e-09  -3.0423725e-04   3.6466389e-01   3.5613213e-01  -6.1650240e+05
   2.8942981e-09  -3.0259715e-04   3.6464091e-01   3.5615514e-01  -6.1317909e+05
   2.8969657e-09  -3.0096590e-04   3.6461806e-01   3.5617803e-01  -6.0987370e+05
   2.8996332e-09  -2.9934344e-04   3.6459533e-01   3.5620080e-01  -6.0658612e+05
   2.9023008e-09  -2.9772973e-04   3.6457273e-01   3.5622345e-01  -6.0331627e+05
   2.9049683e-09  -2.9612471e-04   3.6455025e-01   3.5624597e-01  -6.0006404e+05
   2.9076359e-09  -2.9452835e-04   3.6452790e-01   3.5626838e-01  -5.9682934e+05
   2.9103034e-09  -2.9294059e-04   3.6450566e-01   3.5629066e-01  -5.9361208e+05
   2.9129710e-09  -2.9136140e-04   3.6448355e-01   3.5631283e-01  -5.9041215e+05
   2.9156385e-09  -2.8979071e-04   3.6446155e-01   3.5633488e-01  -5.8722948e+05
   2.9183061e-09  -2.8822849e-04   3.6443968e-01   3.5635681e-01  -5.8406396e+05
   2.9209737e-09  -2.8667469e-04   3.6441792e-01   3.5637863e-01  -5.8091551e+05
   2.9236412e-09  -2.8512927e-04   3.6439629e-01   3.5640032e-01  -5.7778402e+05
   2.9263088e-09  -2.8359218e-04   3.6437477e-01   3.5642191e-01  -5.7466942e+05
   2.9289763e-09  -2.8206338e-04   3.6435337e-01   3.5644337e-01  -5.7157160e+05
   2.9316439e-09  -2.8054281e-04   3.6433208e-01   3.5646473e-01  -5.6849048e+05
   2.9343114e-09  -2.7903045e-04   3.6431091e-01   3.5648596e-01  -5.6542597e+05
   2.9369790e-09  -2.7752623e-04   3.6428986e-01   3.5650709e-01  -5.6237797e+05
   2.9396465e-09  -2.7603013e-04   3.6426892e-01   3.5652810e-01  -5.5934641e+05
   2.9423141e-09  -2.7454209e-04   3.6424809e-01   3.5654900e-01  -5.5633119e+05
   2.9449817e-09  -2.7306207e-04   3.6422738e-01   3.5656979e-01  -5.5333222e+05
   2.9476492e-09  -2.7159003e-04   3.6420678e-01   3.5659047e-01  -5.5034941e+05
   2.9503168e-09  -2.7012592e-04   3.6418629e-01   3.5661103e-01  -5.4738269e+05
   2.9529843e-09  -2.6866971e-04   3.6416592e-01   3.5663149e-01  -5.4443195e+05
   2.9556519e-09  -2.6722134e-04   3.6414565e-01   3.5665184e-01  -5.4149712e+05
   2.9583194e-09  -2.6578079e-04   3.6412550e-01   3.5667208e-01  -5.3857811e+05
   2.9609870e-09  -2.6434800e-04   3.6410545e-01   3.5669221e-01  -5.3567483e+05
   2.9636546e-09  -2.6292293e-04   3.6408552e-01   3.5671223e-01  -5.3278721e+05
   2.9663221e-09  -2.6150554e-04   3.6406569e-01   3.5673215e-01  -5.2991514e+05
   2.9689897e-09  -2.6009580e-04   3.6404597e-01   3.5675196e-01  -5.2705856e+05
   2.9716572e-09  -2.5869365e-04   3.6402635e-01   3.5677167e-01  -5.2421738e+05
   2.9743248e-09  -2.5729907e-04   3.6400685e-01   3.5679127e-01  -5.2139151e+05
   2.9769923e-09  -2.5591200e-04   3.6398745e-01   3.5681076e-01  -5.1858087e+05
   2.9796599e-09  -2.5453241e-04   3.6396815e-01   3.5683015e-01  -5.1578539e+05
   2.9823274e-09  -2.5316025e-04   3.6394896e-01   3.5684944e-01  -5.1300497e+05
   2.9849950e-09  -2.5179549e-04   3.6392988e-01   3.5686862e-01  -5.1023954e+05
   2.9876626e-09  -2.5043809e-04   3.6391090e-01   3.5688770e-01  -5.0748901e+05
   2.9903301e-09  -2.4908801e-04   3.6389202e-01   3.5690668e-01  -5.0475332e+05
   2.9929977e-09  -2.4774520e-04   3.6387324e-01   3.5692556e-01  -5.0203236e+05
   2.9956652e-09  -2.4640964e-04   3.6385457e-01   3.5694434e-01  -4.9932608e+05
   2.9983328e-09  -2.4508127e-04   3.6383600e-01   3.5696302e-01  -4.9663438e+05
   3.0010003e-09  -2.4376006e-04   3.6381753e-01   3.5698159e-01  -4.9395719e+05
   3.0036679e-09  -2.4244598e-04   3.6379916e-01   3.5700007e-01  -4.9129443e+05
   3.0063354e-09  -2.4113897e-04   3.6378089e-01   3.5701845e-01  -4.8864603e+05
   3.0090030e-09  -2.3983902e-04   3.6376271e-01   3.5703673e-01  -4.8601190e+05
   3.0116706e-09  -2.3854607e-04   3.6374464e-01   3.5705492e-01  -4.8339197e+05
   3.0143381e-09  -2.3726009e-04   3.6372667e-01   3.5707300e-01  -4.8078616e+05
   3.0170057e-09  -2.3598105e-04   3.6370879e-01   3.5709099e-01  -4.7819440e+05
   3.0196732e-09  -2.3470890e-04   3.6369101e-01   3.5710888e-01  -4.7561661e+05
   3.0223408e-09  -2.3344360e-04   3.6367333e-01   3.5712668e-01  -4.7305271e+05
   3.0250083e-09  -2.3218513e-04   3.6365574e-01   3.5714438e-01  -4.7050263e+05
   3.0276759e-09  -2.3093344e-04   3.6363825e-01   3.5716199e-01  -4.6796630e+05
   3.0303434e-09  -2.2968850e-04   3.6362085e-01   3.5717951e-01  -4.6544364e+05
   3.0330110e-09  -2.2845027e-04   3.6360355e-01   3.5719693e-01  -4.6293458e+05
   3.0356786e-09  -2.2721871e-04   3.6358634e-01   3.5721425e-01  -4.6043904e+05
   3.0383461e-09  -2.2599380e-04   3.6356923e-01   3.5723149e-01  -4.5795696e+05
   3.0410137e-09  -2.2477549e-04   3.6355221e-01   3.5724863e-01  -4.5548825e+05
   3.0436812e-09  -2.2356374e-04   3.6353528e-01   3.5726568e-01  -4.5303286e+05
   3.0463488e-09  -2.2235853e-04   3.6351844e-01   3.5728264e-01  -4.5059069e+05
   3.0490163e-09  -2.2115981e-04   3.6350170e-01   3.5729951e-01  -4.4816169e+05
   3.0516839e-09  -2.1996756e-04   3.6348504e-01   3.5731629e-01  -4.4574579e+05
   3.0543515e-09  -2.1878173e-04   3.6346848e-01   3.5733297e-01  -4.4334290e+05
   3.0570190e-09  -2.1760229e-04   3.6345200e-01   3.5734957e-01  -4.4095297e+05
   3.0596866e-09  -2.1642922e-04   3.6343562e-01   3.5736608e-01  -4.3857592e+05
   3.0623541e-09  -2.1526246e-04   3.6341932e-01   3.5738251e-01  -4.3621169e+05
   3.0650217e-09  -2.1410200e-04   3.6340312e-01   3.5739884e-01  -4.3386020e+05
   3.0676892e-09  -2.1294779e-04   3.6338700e-01   3.5741509e-01  -4.3152138e+05
   3.0703568e-09  -2.1179980e-04   3.6337096e-01   3.5743125e-01  -4.2919517e+05
   3.0730243e-09  -2.1065801e-04   3.6335502e-01   3.5744732e-01  -4.2688150e+05
   3.0756919e-09  -2.0952236e-04   3.6333916e-01   3.5746331e-01  -4.2458030e+05
   3.0783595e-09  -2.0839284e-04   3.6332339e-01   3.5747921e-01  -4.2229151e+05
   3.0810270e-09  -2.0726941e-04   3.6330770e-01   3.5749503e-01  -4.2001505e+05
   3.0836946e-09  -2.0615204e-04   3.6329210e-01   3.5751076e-01  -4.1775087e+05
   3.0863621e-09  -2.0504068e-04   3.6327659e-01   3.5752641e-01  -4.1549889e+05
   3.0890297e-09  -2.0393532e-04   3.6326115e-01   3.5754197e-01  -4.1325905e+05
   3.0916972e-09  -2.0283592e-04   3.6324581e-01   3.5755745e-01  -4.1103128e+05
   3.0943648e-09  -2.0174244e-04   3.6323054e-01   3.5757285e-01  -4.0881552e+05
   3.0970323e-09  -2.0065486e-04   3.6321536e-01   3.5758817e-01  -4.0661170e+05
   3.0996999e-09  -1.9957314e-04   3.6320026e-01   3.5760340e-01  -4.0441976e+05
   3.1023675e-09  -1.9849726e-04   3.6318524e-01   3.5761855e-01  -4.0223964e+05
   3.1050350e-09  -1.9742717e-04   3.6317030e-01   3.5763362e-01  -4.0007127e+05
   3.1077026e-09  -1.9636285e-04   3.6315545e-01   3.5764861e-01  -3.9791459e+05
   3.1103701e-09  -1.9530427e-04   3.6314067e-01   3.5766352e-01  -3.9576954e+05
   3.1130377e-09  -1.9425139e-04   3.6312598e-01   3.5767835e-01  -3.9363604e+05
   3.1157052e-09  -1.9320419e-04   3.6311136e-01   3.5769310e-01  -3.9151405e+05
   3.1183728e-09  -1.9216264e-04   3.6309683e-01   3.5770778e-01  -3.8940350e+05
   3.1210403e-09  -1.9112670e-04   3.6308237e-01   3.5772237e-01  -3.8730432e+05
   3.1237079e-09  -1.9009635e-04   3.6306799e-01   3.5773689e-01  -3.8521646e+05
   3.1263755e-09  -1.8907155e-04   3.6305369e-01   3.5775132e-01  -3.8313985e+05
   3.1290430e-09  -1.8805227e-04   3.6303947e-01   3.5776568e-01  -3.8107444e+05
   3.1317106e-09  -1.8703849e-04   3.6302533e-01   3.5777997e-01  -3.7902016e+05
   3.1343781e-09  -1.8603017e-04   3.6301126e-01   3.5779417e-01  -3.7697695e+05
   3.1370457e-09  -1.8502729e-04   3.6299727e-01   3.5780830e-01  -3.7494476e+05
   3.1397132e-09  -1.8402982e-04   3.6298335e-01   3.5782236e-01  -3.7292352e+05
   3.1423808e-09  -1.8303772e-04   3.6296951e-01   3.5783634e-01  -3.7091317e+05
   3.1450483e-09  -1.8205097e-04   3.6295574e-01   3.5785024e-01  -3.6891367e+05
   3.1477159e-09  -1.8106954e-04   3.6294205e-01   3.5786407e-01  -3.6692494e+05
   3.1503835e-09  -1.8009340e-04   3.6292843e-01   3.5787783e-01  -3.6494693e+05
   3.1530510e-09  -1.7912252e-04   3.6291489e-01   3.5789151e-01  -3.6297958e+05
   3.1557186e-09  -1.7815688e-04   3.6290142e-01   3.5790512e-01  -3.6102284e+05
   3.1583861e-09  -1.7719644e-04   3.6288803e-01   3.5791866e-01  -3.5907665e+05
   3.1610537e-09  -1.7624118e-04   3.6287470e-01   3.5793212e-01  -3.5714094e+05
   3.1637212e-09  -1.7529107e-04   3.6286145e-01   3.5794552e-01  -3.5521567e+05
   3.1663888e-09  -1.7434608e-04   3.6284827e-01   3.5795884e-01  -3.5330078e+05
   3.1690564e-09  -1.7340619e-04   3.6283516e-01   3.5797208e-01  -3.5139622e+05
   3.1717239e-09  -1.7247136e-04   3.6282212e-01   3.5798526e-01  -3.4950191e+05
   3.1743915e-09  -1.7154157e-04   3.6280916e-01   3.5799837e-01  -3.4761782e+05
   3.1770590e-09  -1.7061679e-04   3.6279626e-01   3.5801141e-01  -3.4574389e+05
   3.1797266e-09  -1.6969700e-04   3.6278344e-01   3.5802437e-01  -3.4388005e+05
   3.1823941e-09  -1.6878217e-04   3.6277068e-01   3.5803727e-01  -3.4202627e+05
   3.1850617e-09  -1.6787227e-04   3.6275799e-01   3.5805010e-01  -3.4018247e+05
   3.1877292e-09  -1.6696727e-04   3.6274537e-01   3.5806286e-01  -3.3834862e+05
   3.1903968e-09  -1.6606716e-04   3.6273282e-01   3.5807555e-01  -3.3652465e+05
   3.1930644e-09  -1.6517189e-04   3.6272034e-01   3.5808817e-01  -3.3471051e+05
   3.1957319e-09  -1.6428145e-04   3.6270793e-01   3.5810073e-01  -3.3290615e+05
   3.1983995e-09  -1.6339581e-04   3.6269558e-01   3.5811322e-01  -3.3111152e+05
   3.2010670e-09  -1.6251495e-04   3.6268330e-01   3.5812564e-01  -3.2932656e+05
   3.2037346e-09  -1.6163883e-04   3.6267108e-01   3.5813800e-01  -3.2755123e+05
   3.2064021e-09  -1.6076744e-04   3.6265894e-01   3.5815028e-01  -3.2578546e+05
   3.2090697e-09  -1.5990074e-04   3.6264685e-01   3.5816251e-01  -3.2402921e+05
   3.2117372e-09  -1.5903872e-04   3.6263484e-01   3.5817466e-01  -3.2228243e+05
   3.2144048e-09  -1.5818135e-04   3.6262289e-01   3.5818676e-01  -3.2054507e+05
   3.2170724e-09  -1.5732859e-04   3.6261100e-01   3.5819878e-01  -3.1881707e+05
   3.2197399e-09  -1.5648043e-04   3.6259918e-01   3.5821075e-01  -3.1709838e+05
   3.2224075e-09  -1.5563685e-04   3.6258742e-01   3.5822265e-01  -3.1538896e+05
   3.2250750e-09  -1.5479781e-04   3.6257573e-01   3.5823448e-01  -3.1368876e+05
   3.2277426e-09  -1.5396330e-04   3.6256410e-01   3.5824625e-01  -3.1199772e+05
   3.2304101e-09  -1.5313328e-04   3.6255253e-01   3.5825796e-01  -3.1031579e+05
   3.2330777e-09  -1.5230774e-04   3.6254102e-01   3.5826961e-01  -3.0864293e+05
   3.2357452e-09  -1.5148665e-04   3.6252958e-01   3.5828119e-01  -3.0697909e+05
   3.2384128e-09  -1.5066998e-04   3.6251820e-01   3.5829271e-01  -3.0532422e+05
   3.2410804e-09  -1.4985772e-04   3.6250688e-01   3.5830417e-01  -3.0367827e+05
   3.2437479e-09  -1.4904984e-04   3.6249562e-01   3.5831557e-01  -3.0204119e+05
   3.2464155e-09  -1.4824631e-04   3.6248443e-01   3.5832690e-01  -3.0041294e+05
   3.2490830e-09  -1.4744711e-04   3.6247329e-01   3.5833818e-01  -2.9879346e+05
   3.2517506e-09  -1.4665223e-04   3.6246222e-01   3.5834940e-01  -2.9718271e+05
   3.2544181e-09  -1.4586162e-04   3.6245120e-01   3.5836055e-01  -2.9558065e+05
   3.2570857e-09  -1.4507528e-04   3.6244024e-01   3.5837165e-01  -2.9398722e+05
   3.2597533e-09  -1.4429318e-04   3.6242935e-01   3.5838268e-01  -2.9240238e+05
   3.2624208e-09  -1.4351529e-04   3.6241851e-01   3.5839366e-01  -2.9082608e+05
   3.2650884e-09  -1.4274160e-04   3.6240773e-01   3.5840458e-01  -2.8925828e+05
   3.2677559e-09  -1.4197208e-04   3.6239701e-01   3.5841544e-01  -2.8769894e+05
   3.2704235e-09  -1.4120671e-04   3.6238635e-01   3.5842624e-01  -2.8614799e+05
   3.2730910e-09  -1.4044546e-04   3.6237574e-01   3.5843698e-01  -2.8460541e+05
   3.2757586e-09  -1.3968832e-04   3.6236520e-01   3.5844767e-01  -2.8307115e+05
   3.2784261e-09  -1.3893525e-04   3.6235471e-01   3.5845829e-01  -2.8154515e+05
   3.2810937e-09  -1.3818625e-04   3.6234427e-01   3.5846886e-01  -2.8002738e+05
   3.2837613e-09  -1.3744129e-04   3.6233390e-01   3.5847938e-01  -2.7851779e+05
   3.2864288e-09  -1.3670034e-04   3.6232358e-01   3.5848984e-01  -2.7701634e+05
   3.2890964e-09  -1.3596339e-04   3.6231331e-01   3.5850024e-01  -2.7552299e+05
   3.2917639e-09  -1.3523040e-04   3.6230310e-01   3.5851059e-01  -2.7403768e+05
   3.2944315e-09  -1.3450137e-04   3.6229295e-01   3.5852088e-01  -2.7256038e+05
   3.2970990e-09  -1.3377627e-04   3.6228285e-01   3.5853111e-01  -2.7109104e+05
   3.2997666e-09  -1.3305508e-04   3.6227280e-01   3.5854129e-01  -2.6962963e+05
   3.3024341e-09  -1.3233778e-04   3.6226282e-01   3.5855142e-01  -2.6817609e+05
   3.3051017e-09  -1.3162434e-04   3.6225288e-01   3.5856149e-01  -2.6673039e+05
   3.3077693e-09  -1.3091475e-04   3.6224300e-01   3.5857151e-01  -2.6529248e+05
   3.3104368e-09  -1.3020899e-04   3.6223317e-01   3.5858147e-01  -2.6386232e+05
   3.3131044e-09  -1.2950703e-04   3.6222339e-01   3.5859138e-01  -2.6243987e+05
   3.3157719e-09  -1.2880885e-04   3.6221367e-01   3.5860124e-01  -2.6102509e+05
   3.3184395e-09  -1.2811444e-04   3.6220400e-01   3.5861104e-01  -2.5961793e+05
   3.3211070e-09  -1.2742377e-04   3.6219439e-01   3.5862079e-01  -2.5821836e+05
   3.3237746e-09  -1.2673683e-04   3.6218482e-01   3.5863049e-01  -2.5682634e+05
   3.3264421e-09  -1.2605358e-04   3.6217531e-01   3.5864014e-01  -2.5544182e+05
   3.3291097e-09  -1.2537402e-04   3.6216585e-01   3.5864974e-01  -2.5406476e+05
   3.3317773e-09  -1.2469813e-04   3.6215643e-01   3.5865928e-01  -2.5269513e+05
   3.3344448e-09  -1.2402588e-04   3.6214708e-01   3.5866877e-01  -2.5133288e+05
   3.3371124e-09  -1.2335725e-04   3.6213777e-01   3.5867822e-01  -2.4997797e+05
   3.3397799e-09  -1.2269222e-04   3.6212851e-01   3.5868761e-01  -2.4863036e+05
   3.3424475e-09  -1.2203079e-04   3.6211930e-01   3.5869695e-01  -2.4729002e+05
   3.3451150e-09  -1.2137291e-04   3.6211014e-01   3.5870624e-01  -2.4595691e+05
   3.3477826e-09  -1.2071859e-04   3.6210103e-01   3.5871548e-01  -2.4463098e+05
   3.3504502e-09  -1.2006779e-04   3.6209197e-01   3.5872467e-01  -2.4331220e+05
   3.3531177e-09  -1.1942050e-04   3.6208296e-01   3.5873381e-01  -2.4200053e+05
   3.3557853e-09  -1.1877670e-04   3.6207400e-01   3.5874290e-01  -2.4069593e+05
   3.3584528e-09  -1.1813637e-04   3.6206509e-01   3.5875195e-01  -2.3939836e+05
   3.3611204e-09  -1.1749949e-04   3.6205622e-01   3.5876094e-01  -2.3810779e+05
   3.3637879e-09  -1.1686604e-04   3.6204740e-01   3.5876989e-01  -2.3682417e+05
   3.3664555e-09  -1.1623601e-04   3.6203863e-01   3.5877879e-01  -2.3554747e+05
   3.3691230e-09  -1.1560938e-04   3.6202991e-01   3.5878764e-01  -2.3427766e+05
   3.3717906e-09  -1.1498612e-04   3.6202124e-01   3.5879644e-01  -2.3301469e+05
   3.3744582e-09  -1.1436623e-04   3.6201261e-01   3.5880520e-01  -2.3175853e+05
   3.3771257e-09  -1.1374967e-04   3.6200403e-01   3.5881391e-01  -2.3050914e+05
   3.3797933e-09  -1.1313644e-04   3.6199549e-01   3.5882257e-01  -2.2926648e+05
   3.3824608e-09  -1.1252652e-04   3.6198701e-01   3.5883119e-01  -2.2803053e+05
   3.3851284e-09  -1.1191988e-04   3.6197856e-01   3.5883976e-01  -2.2680123e+05
   3.3877959e-09  -1.1131652e-04   3.6197017e-01   3.5884828e-01  -2.2557857e+05
   3.3904635e-09  -1.1071640e-04   3.6196182e-01   3.5885676e-01  -2.2436249e+05
   3.3931310e-09  -1.1011952e-04   3.6195351e-01   3.5886519e-01  -2.2315297e+05
   3.3957986e-09  -1.0952586e-04   3.6194525e-01   3.5887358e-01  -2.2194997e+05
   3.3984662e-09  -1.0893540e-04   3.6193703e-01   3.5888192e-01  -2.2075346e+05
   3.4011337e-09  -1.0834813e-04   3.6192886e-01   3.5889022e-01  -2.1956339e+05
   3.4038013e-09  -1.0776402e-04   3.6192073e-01   3.5889847e-01  -2.1837974e+05
   3.4064688e-09  -1.0718305e-04   3.6191265e-01   3.5890668e-01  -2.1720247e+05
   3.4091364e-09  -1.0660522e-04   3.6190461e-01   3.5891485e-01  -2.1603155e+05
   3.4118039e-09  -1.0603051e-04   3.6189661e-01   3.5892297e-01  -2.1486694e+05
   3.4144715e-09  -1.0545889e-04   3.6188866e-01   3.5893104e-01  -2.1370860e+05
   3.4171390e-09  -1.0489035e-04   3.6188075e-01   3.5893908e-01  -2.1255651e+05
   3.4198066e-09  -1.0432488e-04   3.6187288e-01   3.5894707e-01  -2.1141064e+05
   3.4224742e-09  -1.0376246e-04   3.6186505e-01   3.5895502e-01  -2.1027093e+05
   3.4251417e-09  -1.0320307e-04   3.6185727e-01   3.5896292e-01  -2.0913738e+05
   3.4278093e-09  -1.0264670e-04   3.6184953e-01   3.5897078e-01  -2.0800993e+05
   3.4304768e-09  -1.0209332e-04   3.6184183e-01   3.5897860e-01  -2.0688856e+05
   3.4331444e-09  -1.0154293e-04   3.6183418e-01   3.5898638e-01  -2.0577324e+05
   3.4358119e-09  -1.0099550e-04   3.6182656e-01   3.5899412e-01  -2.0466392e+05
   3.4384795e-09  -1.0045103e-04   3.6181899e-01   3.5900181e-01  -2.0356059e+05
   3.4411470e-09  -9.9909492e-05   3.6181145e-01   3.5900947e-01  -2.0246321e+05
   3.4438146e-09  -9.9370873e-05   3.6180396e-01   3.5901708e-01  -2.0137174e+05
   3.4464822e-09  -9.8835158e-05   3.6179651e-01   3.5902465e-01  -2.0028615e+05
   3.4491497e-09  -9.8302330e-05   3.6178910e-01   3.5903218e-01  -1.9920642e+05
   3.4518173e-09  -9.7772375e-05   3.6178172e-01   3.5903967e-01  -1.9813251e+05
   3.4544848e-09  -9.7245277e-05   3.6177439e-01   3.5904712e-01  -1.9706439e+05
   3.4571524e-09  -9.6721020e-05   3.6176710e-01   3.5905453e-01  -1.9600202e+05
   3.4598199e-09  -9.6199590e-05   3.6175985e-01   3.5906190e-01  -1.9494538e+05
   3.4624875e-09  -9.5680970e-05   3.6175263e-01   3.5906923e-01  -1.9389444e+05
   3.4651551e-09  -9.5165147e-05   3.6174546e-01   3.5907652e-01  -1.9284916e+05
   3.4678226e-09  -9.4652104e-05   3.6173832e-01   3.5908378e-01  -1.9180952e+05
   3.4704902e-09  -9.4141827e-05   3.6173123e-01   3.5909099e-01  -1.9077548e+05
   3.4731577e-09  -9.3634301e-05   3.6172417e-01   3.5909816e-01  -1.8974702e+05
   3.4758253e-09  -9.3129511e-05   3.6171715e-01   3.5910530e-01  -1.8872410e+05
   3.4784928e-09  -9.2627442e-05   3.6171016e-01   3.5911240e-01  -1.8770670e+05
   3.4811604e-09  -9.2128080e-05   3.6170322e-01   3.5911946e-01  -1.8669478e+05
   3.4838279e-09  -9.1631410e-05   3.6169631e-01   3.5912648e-01  -1.8568831e+05
   3.4864955e-09  -9.1137417e-05   3.6168944e-01   3.5913346e-01  -1.8468727e+05
   3.4891631e-09  -9.0646087e-05   3.6168261e-01   3.5914041e-01  -1.8369163e+05
   3.4918306e-09  -9.0157407e-05   3.6167581e-01   3.5914732e-01  -1.8270135e+05
   3.4944982e-09  -8.9671360e-05   3.6166905e-01   3.5915419e-01  -1.8171641e+05
   3.4971657e-09  -8.9187934e-05   3.6166233e-01   3.5916102e-01  -1.8073678e+05
   3.4998333e-09  -8.8707114e-05   3.6165565e-01   3.5916782e-01  -1.7976244e+05
   3.5025008e-09  -8.8228886e-05   3.6164900e-01   3.5917458e-01  -1.7879334e+05
   3.5051684e-09  -8.7753236e-05   3.6164238e-01   3.5918131e-01  -1.7782947e+05
   3.5078359e-09  -8.7280151e-05   3.6163580e-01   3.5918800e-01  -1.7687080e+05
   3.5105035e-09  -8.6809616e-05   3.6162926e-01   3.5919465e-01  -1.7591729e+05
   3.5131711e-09  -8.6341617e-05   3.6162275e-01   3.5920127e-01  -1.7496892e+05
   3.5158386e-09  -8.5876141e-05   3.6161628e-01   3.5920785e-01  -1.7402567e+05
   3.5185062e-09  -8.5413175e-05   3.6160984e-01   3.5921440e-01  -1.7308750e+05
   3.5211737e-09  -8.4952705e-05   3.6160344e-01   3.5922091e-01  -1.7215438e+05
   3.5238413e-09  -8.4494717e-05   3.6159707e-01   3.5922738e-01  -1.7122630e+05
   3.5265088e-09  -8.4039198e-05   3.6159074e-01   3.5923383e-01  -1.7030322e+05
   3.5291764e-09  -8.3586134e-05   3.6158444e-01   3.5924023e-01  -1.6938512e+05
   3.5318439e-09  -8.3135513e-05   3.6157818e-01   3.5924660e-01  -1.6847197e+05
   3.5345115e-09  -8.2687322e-05   3.6157195e-01   3.5925294e-01  -1.6756374e+05
   3.5371791e-09  -8.2241546e-05   3.6156575e-01   3.5925925e-01  -1.6666040e+05
   3.5398466e-09  -8.1798174e-05   3.6155958e-01   3.5926552e-01  -1.6576194e+05
   3.5425142e-09  -8.1357192e-05   3.6155345e-01   3.5927175e-01  -1.6486831e+05
   3.5451817e-09  -8.0918587e-05   3.6154736e-01   3.5927796e-01  -1.6397951e+05
   3.5478493e-09  -8.0482347e-05   3.6154129e-01   3.5928413e-01  -1.6309550e+05
   3.5505168e-09  -8.0048458e-05   3.6153526e-01   3.5929026e-01  -1.6221625e+05
   3.5531844e-09  -7.9616909e-05   3.6152926e-01   3.5929637e-01  -1.6134174e+05
   3.5558520e-09  -7.9187686e-05   3.6152329e-01   3.5930244e-01  -1.6047195e+05
   3.5585195e-09  -7.8760777e-05   3.6151736e-01   3.5930847e-01  -1.5960684e+05
   3.5611871e-09  -7.8336169e-05   3.6151146e-01   3.5931448e-01  -1.5874640e+05
   3.5638546e-09  -7.7913851e-05   3.6150559e-01   3.5932045e-01  -1.5789060e+05
   3.5665222e-09  -7.7493809e-05   3.6149975e-01   3.5932639e-01  -1.5703941e+05
   3.5691897e-09  -7.7076031e-05   3.6149394e-01   3.5933230e-01  -1.5619281e+05
   3.5718573e-09  -7.6660506e-05   3.6148816e-01   3.5933818e-01  -1.5535077e+05
   3.5745248e-09  -7.6247221e-05   3.6148242e-01   3.5934403e-01  -1.5451328e+05
   3.5771924e-09  -7.5836164e-05   3.6147671e-01   3.5934984e-01  -1.5368029e+05
   3.5798600e-09  -7.5427323e-05   3.6147102e-01   3.5935563e-01  -1.5285180e+05
   3.5825275e-09  -7.5020686e-05   3.6146537e-01   3.5936138e-01  -1.5202777e+05
   3.5851951e-09  -7.4616241e-05   3.6145975e-01   3.5936710e-01  -1.5120819e+05
   3.5878626e-09  -7.4213977e-05   3.6145416e-01   3.5937279e-01  -1.5039302e+05
   3.5905302e-09  -7.3813881e-05   3.6144860e-01   3.5937845e-01  -1.4958225e+05
   3.5931977e-09  -7.3415942e-05   3.6144307e-01   3.5938408e-01  -1.4877585e+05
   3.5958653e-09  -7.3020148e-05   3.6143757e-01   3.5938968e-01  -1.4797380e+05
   3.5985328e-09  -7.2626488e-05   3.6143210e-01   3.5939525e-01  -1.4717607e+05
   3.6012004e-09  -7.2234951e-05   3.6142665e-01   3.5940078e-01  -1.4638264e+05
   3.6038680e-09  -7.1845524e-05   3.6142124e-01   3.5940629e-01  -1.4559349e+05
   3.6065355e-09  -7.1458196e-05   3.6141586e-01   3.5941177e-01  -1.4480859e+05
   3.6092031e-09  -7.1072957e-05   3.6141051e-01   3.5941722e-01  -1.4402792e+05
   3.6118706e-09  -7.0689794e-05   3.6140518e-01   3.5942264e-01  -1.4325147e+05
   3.6145382e-09  -7.0308697e-05   3.6139989e-01   3.5942804e-01  -1.4247919e+05
   3.6172057e-09  -6.9929655e-05   3.6139462e-01   3.5943340e-01  -1.4171108e+05
   3.6198733e-09  -6.9552655e-05   3.6138938e-01   3.5943873e-01  -1.4094711e+05
   3.6225408e-09  -6.9177689e-05   3.6138417e-01   3.5944404e-01  -1.4018726e+05
   3.6252084e-09  -6.8804744e-05   3.6137899e-01   3.5944931e-01  -1.3943151e+05
   3.6278760e-09  -6.8433809e-05   3.6137383e-01   3.5945456e-01  -1.3867983e+05
   3.6305435e-09  -6.8064874e-05   3.6136870e-01   3.5945978e-01  -1.3793220e+05
   3.6332111e-09  -6.7697928e-05   3.6136361e-01   3.5946498e-01  -1.3718861e+05
   3.6358786e-09  -6.7332960e-05   3.6135853e-01   3.5947014e-01  -1.3644902e+05
   3.6385462e-09  -6.6969960e-05   3.6135349e-01   3.5947528e-01  -1.3571342e+05
   3.6412137e-09  -6.6608916e-05   3.6134847e-01   3.5948038e-01  -1.3498178e+05
   3.6438813e-09  -6.6249819e-05   3.6134348e-01   3.5948547e-01  -1.3425409e+05
   3.6465488e-09  -6.5892658e-05   3.6133852e-01   3.5949052e-01  -1.3353032e+05
   3.6492164e-09  -6.5537423e-05   3.6133359e-01   3.5949555e-01  -1.3281045e+05
   3.6518840e-09  -6.5184102e-05   3.6132868e-01   3.5950055e-01  -1.3209446e+05
   3.6545515e-09  -6.4832686e-05   3.6132379e-01   3.5950552e-01  -1.3138234e+05
   3.6572191e-09  -6.4483165e-05   3.6131894e-01   3.5951046e-01  -1.3067405e+05
   3.6598866e-09  -6.4135528e-05   3.6131411e-01   3.5951538e-01  -1.2996958e+05
   3.6625542e-09  -6.3789765e-05   3.6130930e-01   3.5952028e-01  -1.2926891e+05
   3.6652217e-09  -6.3445866e-05   3.6130452e-01   3.5952514e-01  -1.2857201e+05
   3.6678893e-09  -6.3103821e-05   3.6129977e-01   3.5952998e-01  -1.2787888e+05
   3.6705569e-09  -6.2763620e-05   3.6129505e-01   3.5953480e-01  -1.2718947e+05
   3.6732244e-09  -6.2425253e-05   3.6129035e-01   3.5953959e-01  -1.2650379e+05
   3.6758920e-09  -6.2088711e-05   3.6128567e-01   3.5954435e-01  -1.2582180e+05
   3.6785595e-09  -6.1753982e-05   3.6128102e-01   3.5954909e-01  -1.2514349e+05
   3.6812271e-09  -6.1421058e-05   3.6127639e-01   3.5955380e-01  -1.2446883e+05
   3.6838946e-09  -6.1089929e-05   3.6127179e-01   3.5955848e-01  -1.2379782e+05
   3.6865622e-09  -6.0760585e-05   3.6126722e-01   3.5956315e-01  -1.2313041e+05
   3.6892297e-09  -6.0433017e-05   3.6126267e-01   3.5956778e-01  -1.2246661e+05
   3.6918973e-09  -6.0107214e-05   3.6125814e-01   3.5957239e-01  -1.2180639e+05
   3.6945649e-09  -5.9783168e-05   3.6125364e-01   3.5957698e-01  -1.2114972e+05
   3.6972324e-09  -5.9460869e-05   3.6124916e-01   3.5958154e-01  -1.2049660e+05
   3.6999000e-09  -5.9140307e-05   3.6124471e-01   3.5958608e-01  -1.1984699e+05
   3.7025675e-09  -5.8821473e-05   3.6124028e-01   3.5959059e-01  -1.1920089e+05
   3.7052351e-09  -5.8504359e-05   3.6123588e-01   3.5959508e-01  -1.1855827e+05
   3.7079026e-09  -5.8188954e-05   3.6123149e-01   3.5959954e-01  -1.1791912e+05
   3.7105702e-09  -5.7875249e-05   3.6122714e-01   3.5960398e-01  -1.1728341e+05
   3.7132377e-09  -5.7563235e-05   3.6122280e-01   3.5960840e-01  -1.1665112e+05
   3.7159053e-09  -5.7252904e-05   3.6121849e-01   3.5961279e-01  -1.1602225e+05
   3.7185729e-09  -5.6944245e-05   3.6121420e-01   3.5961716e-01  -1.1539677e+05
   3.7212404e-09  -5.6637251e-05   3.6120994e-01   3.5962151e-01  -1.1477465e+05
   3.7239080e-09  -5.6331911e-05   3.6120570e-01   3.5962583e-01  -1.1415590e+05
   3.7265755e-09  -5.6028218e-05   3.6120148e-01   3.5963013e-01  -1.1354047e+05
   3.7292431e-09  -5.5726162e-05   3.6119729e-01   3.5963440e-01  -1.1292837e+05
   3.7319106e-09  -5.5425734e-05   3.6119311e-01   3.5963866e-01  -1.1231956e+05
   3.7345782e-09  -5.5126926e-05   3.6118896e-01   3.5964288e-01  -1.1171404e+05
   3.7372457e-09  -5.4829729e-05   3.6118483e-01   3.5964709e-01  -1.1111178e+05
   3.7399133e-09  -5.4534134e-05   3.6118073e-01   3.5965128e-01  -1.1051277e+05
   3.7425809e-09  -5.4240132e-05   3.6117664e-01   3.5965544e-01  -1.0991699e+05
   3.7452484e-09  -5.3947716e-05   3.6117258e-01   3.5965958e-01  -1.0932442e+05
   3.7479160e-09  -5.3656876e-05   3.6116854e-01   3.5966369e-01  -1.0873504e+05
   3.7505835e-09  -5.3367604e-05   3.6116453e-01   3.5966779e-01  -1.0814884e+05
   3.7532511e-09  -5.3079891e-05   3.6116053e-01   3.5967186e-01  -1.0756580e+05
   3.7559186e-09  -5.2793729e-05   3.6115656e-01   3.5967591e-01  -1.0698591e+05
   3.7585862e-09  -5.2509111e-05   3.6115260e-01   3.5967994e-01  -1.0640914e+05
   3.7612538e-09  -5.2226026e-05   3.6114867e-01   3.5968395e-01  -1.0583548e+05
   3.7639213e-09  -5.1944468e-05   3.6114476e-01   3.5968794e-01  -1.0526491e+05
   3.7665889e-09  -5.1664427e-05   3.6114087e-01   3.5969190e-01  -1.0469742e+05
   3.7692564e-09  -5.1385897e-05   3.6113700e-01   3.5969584e-01  -1.0413298e+05
   3.7719240e-09  -5.1108867e-05   3.6113316e-01   3.5969977e-01  -1.0357159e+05
   3.7745915e-09  -5.0833332e-05   3.6112933e-01   3.5970367e-01  -1.0301323e+05
   3.7772591e-09  -5.0559282e-05   3.6112552e-01   3.5970755e-01  -1.0245788e+05
   3.7799266e-09  -5.0286709e-05   3.6112174e-01   3.5971141e-01  -1.0190552e+05
   3.7825942e-09  -5.0015605e-05   3.6111797e-01   3.5971524e-01  -1.0135614e+05
   3.7852618e-09  -4.9745964e-05   3.6111423e-01   3.5971906e-01  -1.0080972e+05
   3.7879293e-09  -4.9477775e-05   3.6111051e-01   3.5972286e-01  -1.0026624e+05
   3.7905969e-09  -4.9211033e-05   3.6110680e-01   3.5972664e-01  -9.9725697e+04
   3.7932644e-09  -4.8945729e-05   3.6110312e-01   3.5973039e-01  -9.9188067e+04
   3.7959320e-09  -4.8681855e-05   3.6109945e-01   3.5973413e-01  -9.8653334e+04
   3.7985995e-09  -4.8419403e-05   3.6109581e-01   3.5973784e-01  -9.8121485e+04
   3.8012671e-09  -4.8158367e-05   3.6109218e-01   3.5974154e-01  -9.7592503e+04
   3.8039346e-09  -4.7898737e-05   3.6108858e-01   3.5974522e-01  -9.7066372e+04
   3.8066022e-09  -4.7640508e-05   3.6108499e-01   3.5974887e-01  -9.6543078e+04
   3.8092698e-09  -4.7383670e-05   3.6108143e-01   3.5975251e-01  -9.6022605e+04
   3.8119373e-09  -4.7128217e-05   3.6107788e-01   3.5975613e-01  -9.5504938e+04
   3.8146049e-09  -4.6874141e-05   3.6107435e-01   3.5975972e-01  -9.4990061e+04
   3.8172724e-09  -4.6621435e-05   3.6107084e-01   3.5976330e-01  -9.4477960e+04
   3.8199400e-09  -4.6370092e-05   3.6106735e-01   3.5976686e-01  -9.3968620e+04
   3.8226075e-09  -4.6120103e-05   3.6106388e-01   3.5977040e-01  -9.3462025e+04
   3.8252751e-09  -4.5871462e-05   3.6106043e-01   3.5977392e-01  -9.2958162e+04
   3.8279426e-09  -4.5624162e-05   3.6105699e-01   3.5977742e-01  -9.2457015e+04
   3.8306102e-09  -4.5378195e-05   3.6105358e-01   3.5978091e-01  -9.1958570e+04
   3.8332778e-09  -4.5133553e-05   3.6105018e-01   3.5978437e-01  -9.1462811e+04
   3.8359453e-09  -4.4890231e-05   3.6104680e-01   3.5978782e-01  -9.0969726e+04
   3.8386129e-09  -4.4648221e-05   3.6104344e-01   3.5979124e-01  -9.0479298e+04
   3.8412804e-09  -4.4407515e-05   3.6104010e-01   3.5979465e-01  -8.9991514e+04
   3.8439480e-09  -4.4168106e-05   3.6103678e-01   3.5979804e-01  -8.9506360e+04
   3.8466155e-09  -4.3929989e-05   3.6103347e-01   3.5980142e-01  -8.9023822e+04
   3.8492831e-09  -4.3693155e-05   3.6103018e-01   3.5980477e-01  -8.8543885e+04
   3.8519507e-09  -4.3457598e-05   3.6102691e-01   3.5980810e-01  -8.8066535e+04
   3.8546182e-09  -4.3223311e-05   3.6102366e-01   3.5981142e-01  -8.7591758e+04
   3.8572858e-09  -4.2990287e-05   3.6102042e-01   3.5981472e-01  -8.7119541e+04
   3.8599533e-09  -4.2758519e-05   3.6101721e-01   3.5981800e-01  -8.6649870e+04
   3.8626209e-09  -4.2528001e-05   3.6101401e-01   3.5982127e-01  -8.6182731e+04
   3.8652884e-09  -4.2298725e-05   3.6101082e-01   3.5982452e-01  -8.5718110e+04
   3.8679560e-09  -4.2070686e-05   3.6100766e-01   3.5982775e-01  -8.5255994e+04
   3.8706235e-09  -4.1843876e-05   3.6100451e-01   3.5983096e-01  -8.4796369e+04
   3.8732911e-09  -4.1618288e-05   3.6100138e-01   3.5983415e-01  -8.4339221e+04
   3.8759587e-09  -4.1393917e-05   3.6099826e-01   3.5983733e-01  -8.3884539e+04
   3.8786262e-09  -4.1170755e-05   3.6099516e-01   3.5984049e-01  -8.3432307e+04
   3.8812938e-09  -4.0948797e-05   3.6099208e-01   3.5984363e-01  -8.2982514e+04
   3.8839613e-09  -4.0728035e-05   3.6098902e-01   3.5984676e-01  -8.2535145e+04
   3.8866289e-09  -4.0508463e-05   3.6098597e-01   3.5984987e-01  -8.2090188e+04
   3.8892964e-09  -4.0290075e-05   3.6098294e-01   3.5985296e-01  -8.1647630e+04
   3.8919640e-09  -4.0072864e-05   3.6097992e-01   3.5985604e-01  -8.1207458e+04
   3.8946315e-09  -3.9856825e-05   3.6097692e-01   3.5985910e-01  -8.0769658e+04
   3.8972991e-09  -3.9641950e-05   3.6097394e-01   3.5986214e-01  -8.0334219e+04
   3.8999667e-09  -3.9428233e-05   3.6097097e-01   3.5986517e-01  -7.9901127e+04
