   0.0000000e+00  -1.6782988e-01   6.2090825e+00   1.3221185e-05  -5.1748174e+08
   2.6675559e-12  -1.6645475e-01   6.1992431e+00   1.4691084e-05  -5.1366847e+08
   5.3351117e-12  -1.6508979e-01   6.1889751e+00   1.6310307e-05  -5.0985289e+08
   8.0026676e-12  -1.6373502e-01   6.1782663e+00   1.8092310e-05  -5.0603511e+08
   1.0670223e-11  -1.6239044e-01   6.1671046e+00   2.0051569e-05  -5.0221529e+08
   1.3337779e-11  -1.6105606e-01   6.1554778e+00   2.2203625e-05  -4.9839357e+08
   1.6005335e-11  -1.5973188e-01   6.1433742e+00   2.4565151e-05  -4.9457014e+08
   1.8672891e-11  -1.5841790e-01   6.1307820e+00   2.7154000e-05  -4.9074518e+08
   2.1340447e-11  -1.5711413e-01   6.1176898e+00   2.9989269e-05  -4.8691890e+08
   2.4008003e-11  -1.5582057e-01   6.1040863e+00   3.3091350e-05  -4.8309153e+08
   2.6675559e-11  -1.5453723e-01   6.0899606e+00   3.6481989e-05  -4.7926331e+08
   2.9343114e-11  -1.5326410e-01   6.0753022e+00   4.0184342e-05  -4.7543450e+08
   3.2010670e-11  -1.5200119e-01   6.0601008e+00   4.4223031e-05  -4.7160540e+08
   3.4678226e-11  -1.5074849e-01   6.0443466e+00   4.8624192e-05  -4.6777631e+08
   3.7345782e-11  -1.4950602e-01   6.0280304e+00   5.3415535e-05  -4.6394754e+08
   4.0013338e-11  -1.4827376e-01   6.0111434e+00   5.8626385e-05  -4.6011944e+08
   4.2680894e-11  -1.4705171e-01   5.9936773e+00   6.4287733e-05  -4.5629238e+08
   4.5348449e-11  -1.4583987e-01   5.9756244e+00   7.0432281e-05  -4.5246675e+08
   4.8016005e-11  -1.4463823e-01   5.9569777e+00   7.7094475e-05  -4.4864294e+08
   5.0683561e-11  -1.4344680e-01   5.9377308e+00   8.4310548e-05  -4.4482139e+08
   5.3351117e-11  -1.4226556e-01   5.9178781e+00   9.2118548e-05  -4.4100255e+08
   5.6018673e-11  -1.4109450e-01   5.8974146e+00   1.0055836e-04  -4.3718688e+08
   5.8686229e-11  -1.3993362e-01   5.8763362e+00   1.0967175e-04  -4.3337488e+08
   6.1353785e-11  -1.3878291e-01   5.8546395e+00   1.1950232e-04  -4.2956705e+08
   6.4021340e-11  -1.3764235e-01   5.8323221e+00   1.3009561e-04  -4.2576393e+08
   6.6688896e-11  -1.3651192e-01   5.8093824e+00   1.4149900e-04  -4.2196606e+08
   6.9356452e-11  -1.3539162e-01   5.7858197e+00   1.5376178e-04  -4.1817402e+08
   7.2024008e-11  -1.3428143e-01   5.7616340e+00   1.6693511e-04  -4.1438839e+08
   7.4691564e-11  -1.3318133e-01   5.7368267e+00   1.8107199e-04  -4.1060977e+08
   7.7359120e-11  -1.3209131e-01   5.7113997e+00   1.9622723e-04  -4.0683879e+08
   8.0026676e-11  -1.3101133e-01   5.6853562e+00   2.1245746e-04  -4.0307608e+08
   8.2694231e-11  -1.2994137e-01   5.6587002e+00   2.2982102e-04  -3.9932230e+08
   8.5361787e-11  -1.2888142e-01   5.6314367e+00   2.4837795e-04  -3.9557810e+08
   8.8029343e-11  -1.2783144e-01   5.6035718e+00   2.6818991e-04  -3.9184418e+08
   9.0696899e-11  -1.2679141e-01   5.5751123e+00   2.8932015e-04  -3.8812121e+08
   9.3364455e-11  -1.2576129e-01   5.5460664e+00   3.1183337e-04  -3.8440990e+08
   9.6032011e-11  -1.2474106e-01   5.5164430e+00   3.3579568e-04  -3.8071096e+08
   9.8699567e-11  -1.2373067e-01   5.4862518e+00   3.6127450e-04  -3.7702510e+08
   1.0136712e-10  -1.2273010e-01   5.4555039e+00   3.8833844e-04  -3.7335305e+08
   1.0403468e-10  -1.2173931e-01   5.4242108e+00   4.1705724e-04  -3.6969553e+08
   1.0670223e-10  -1.2075825e-01   5.3923852e+00   4.4750161e-04  -3.6605327e+08
   1.0936979e-10  -1.1978688e-01   5.3600406e+00   4.7974313e-04  -3.6242701e+08
   1.1203735e-10  -1.1882517e-01   5.3271912e+00   5.1385413e-04  -3.5881747e+08
   1.1470490e-10  -1.1787306e-01   5.2938522e+00   5.4990754e-04  -3.5522539e+08
   1.1737246e-10  -1.1693050e-01   5.2600393e+00   5.8797682e-04  -3.5165149e+08
   1.2004001e-10  -1.1599745e-01   5.2257690e+00   6.2813573e-04  -3.4809648e+08
   1.2270757e-10  -1.1507386e-01   5.1910586e+00   6.7045826e-04  -3.4456110e+08
   1.2537513e-10  -1.1415967e-01   5.1559259e+00   7.1501847e-04  -3.4104603e+08
   1.2804268e-10  -1.1325483e-01   5.1203890e+00   7.6189036e-04  -3.3755198e+08
   1.3071024e-10  -1.1235927e-01   5.0844670e+00   8.1114769e-04  -3.3407964e+08
   1.3337779e-10  -1.1147295e-01   5.0481791e+00   8.6286388e-04  -3.3062966e+08
   1.3604535e-10  -1.1059579e-01   5.0115451e+00   9.1711186e-04  -3.2720272e+08
   1.3871290e-10  -1.0972775e-01   4.9745849e+00   9.7396391e-04  -3.2379945e+08
   1.4138046e-10  -1.0886874e-01   4.9373189e+00   1.0334915e-03  -3.2042047e+08
   1.4404802e-10  -1.0801872e-01   4.8997678e+00   1.0957654e-03  -3.1706640e+08
   1.4671557e-10  -1.0717760e-01   4.8619523e+00   1.1608550e-03  -3.1373781e+08
   1.4938313e-10  -1.0634533e-01   4.8238933e+00   1.2288287e-03  -3.1043527e+08
   1.5205068e-10  -1.0552183e-01   4.7856118e+00   1.2997538e-03  -3.0715933e+08
   1.5471824e-10  -1.0470703e-01   4.7471288e+00   1.3736960e-03  -3.0391051e+08
   1.5738580e-10  -1.0390085e-01   4.7084653e+00   1.4507194e-03  -3.0068930e+08
   1.6005335e-10  -1.0310323e-01   4.6696422e+00   1.5308868e-03  -2.9749617e+08
   1.6272091e-10  -1.0231408e-01   4.6306803e+00   1.6142591e-03  -2.9433158e+08
   1.6538846e-10  -1.0153333e-01   4.5916002e+00   1.7008954e-03  -2.9119593e+08
   1.6805602e-10  -1.0076091e-01   4.5524223e+00   1.7908529e-03  -2.8808964e+08
   1.7072357e-10  -9.9996729e-02   4.5131668e+00   1.8841871e-03  -2.8501306e+08
   1.7339113e-10  -9.9240710e-02   4.4738535e+00   1.9809513e-03  -2.8196653e+08
   1.7605869e-10  -9.8492775e-02   4.4345019e+00   2.0811967e-03  -2.7895037e+08
   1.7872624e-10  -9.7752841e-02   4.3951313e+00   2.1849724e-03  -2.7596487e+08
   1.8139380e-10  -9.7020827e-02   4.3557604e+00   2.2923255e-03  -2.7301029e+08
   1.8406135e-10  -9.6296649e-02   4.3164075e+00   2.4033007e-03  -2.7008684e+08
   1.8672891e-10  -9.5580223e-02   4.2770906e+00   2.5179406e-03  -2.6719475e+08
   1.8939647e-10  -9.4871468e-02   4.2378271e+00   2.6362854e-03  -2.6433418e+08
   1.9206402e-10  -9.4170297e-02   4.1986338e+00   2.7583733e-03  -2.6150529e+08
   1.9473158e-10  -9.3476626e-02   4.1595273e+00   2.8842400e-03  -2.5870819e+08
   1.9739913e-10  -9.2790371e-02   4.1205233e+00   3.0139190e-03  -2.5594300e+08
   2.0006669e-10  -9.2111446e-02   4.0816374e+00   3.1474416e-03  -2.5320977e+08
   2.0273424e-10  -9.1439765e-02   4.0428841e+00   3.2848366e-03  -2.5050855e+08
   2.0540180e-10  -9.0775244e-02   4.0042778e+00   3.4261310e-03  -2.4783937e+08
   2.0806936e-10  -9.0117797e-02   3.9658322e+00   3.5713491e-03  -2.4520223e+08
   2.1073691e-10  -8.9467339e-02   3.9275603e+00   3.7205133e-03  -2.4259710e+08
   2.1340447e-10  -8.8823783e-02   3.8894746e+00   3.8736439e-03  -2.4002394e+08
   2.1607202e-10  -8.8187046e-02   3.8515870e+00   4.0307587e-03  -2.3748267e+08
   2.1873958e-10  -8.7557042e-02   3.8139090e+00   4.1918738e-03  -2.3497322e+08
   2.2140714e-10  -8.6933686e-02   3.7764513e+00   4.3570031e-03  -2.3249546e+08
   2.2407469e-10  -8.6316895e-02   3.7392242e+00   4.5261584e-03  -2.3004927e+08
   2.2674225e-10  -8.5706583e-02   3.7022372e+00   4.6993497e-03  -2.2763451e+08
   2.2940980e-10  -8.5102668e-02   3.6654996e+00   4.8765851e-03  -2.2525102e+08
   2.3207736e-10  -8.4505067e-02   3.6290198e+00   5.0578706e-03  -2.2289860e+08
   2.3474491e-10  -8.3913696e-02   3.5928059e+00   5.2432107e-03  -2.2057707e+08
   2.3741247e-10  -8.3328475e-02   3.5568654e+00   5.4326080e-03  -2.1828622e+08
   2.4008003e-10  -8.2749320e-02   3.5212052e+00   5.6260634e-03  -2.1602582e+08
   2.4274758e-10  -8.2176152e-02   3.4858319e+00   5.8235762e-03  -2.1379563e+08
   2.4541514e-10  -8.1608890e-02   3.4507515e+00   6.0251441e-03  -2.1159540e+08
   2.4808269e-10  -8.1047455e-02   3.4159694e+00   6.2307633e-03  -2.0942488e+08
   2.5075025e-10  -8.0491767e-02   3.3814908e+00   6.4404285e-03  -2.0728379e+08
   2.5341781e-10  -7.9941750e-02   3.3473201e+00   6.6541330e-03  -2.0517185e+08
   2.5608536e-10  -7.9397324e-02   3.3134617e+00   6.8718687e-03  -2.0308877e+08
   2.5875292e-10  -7.8858415e-02   3.2799192e+00   7.0936264e-03  -2.0103425e+08
   2.6142047e-10  -7.8324946e-02   3.2466960e+00   7.3193954e-03  -1.9900798e+08
   2.6408803e-10  -7.7796842e-02   3.2137950e+00   7.5491639e-03  -1.9700965e+08
   2.6675559e-10  -7.7274030e-02   3.1812189e+00   7.7829191e-03  -1.9503895e+08
   2.6942314e-10  -7.6756435e-02   3.1489698e+00   8.0206470e-03  -1.9309554e+08
   2.7209070e-10  -7.6243987e-02   3.1170497e+00   8.2623325e-03  -1.9117910e+08
   2.7475825e-10  -7.5736612e-02   3.0854600e+00   8.5079597e-03  -1.8928930e+08
   2.7742581e-10  -7.5234241e-02   3.0542021e+00   8.7575117e-03  -1.8742579e+08
   2.8009336e-10  -7.4736805e-02   3.0232768e+00   9.0109707e-03  -1.8558825e+08
   2.8276092e-10  -7.4244233e-02   2.9926847e+00   9.2683180e-03  -1.8377631e+08
   2.8542848e-10  -7.3756460e-02   2.9624263e+00   9.5295343e-03  -1.8198965e+08
   2.8809603e-10  -7.3273416e-02   2.9325017e+00   9.7945994e-03  -1.8022792e+08
   2.9076359e-10  -7.2795038e-02   2.9029107e+00   1.0063493e-02  -1.7849077e+08
   2.9343114e-10  -7.2321259e-02   2.8736529e+00   1.0336192e-02  -1.7677784e+08
   2.9609870e-10  -7.1852016e-02   2.8447278e+00   1.0612676e-02  -1.7508881e+08
   2.9876626e-10  -7.1387245e-02   2.8161346e+00   1.0892922e-02  -1.7342331e+08
   3.0143381e-10  -7.0926884e-02   2.7878721e+00   1.1176906e-02  -1.7178100e+08
   3.0410137e-10  -7.0470871e-02   2.7599394e+00   1.1464604e-02  -1.7016154e+08
   3.0676892e-10  -7.0019147e-02   2.7323349e+00   1.1755994e-02  -1.6856458e+08
   3.0943648e-10  -6.9571651e-02   2.7050573e+00   1.2051049e-02  -1.6698978e+08
   3.1210403e-10  -6.9128326e-02   2.6781047e+00   1.2349745e-02  -1.6543681e+08
   3.1477159e-10  -6.8689112e-02   2.6514754e+00   1.2652056e-02  -1.6390531e+08
   3.1743915e-10  -6.8253955e-02   2.6251675e+00   1.2957957e-02  -1.6239496e+08
   3.2010670e-10  -6.7822797e-02   2.5991788e+00   1.3267421e-02  -1.6090542e+08
   3.2277426e-10  -6.7395583e-02   2.5735071e+00   1.3580422e-02  -1.5943636e+08
   3.2544181e-10  -6.6972260e-02   2.5481502e+00   1.3896934e-02  -1.5798746e+08
   3.2810937e-10  -6.6552774e-02   2.5231057e+00   1.4216929e-02  -1.5655838e+08
   3.3077693e-10  -6.6137073e-02   2.4983710e+00   1.4540380e-02  -1.5514882e+08
   3.3344448e-10  -6.5725105e-02   2.4739436e+00   1.4867261e-02  -1.5375844e+08
   3.3611204e-10  -6.5316820e-02   2.4498209e+00   1.5197543e-02  -1.5238695e+08
   3.3877959e-10  -6.4912167e-02   2.4260001e+00   1.5531198e-02  -1.5103401e+08
   3.4144715e-10  -6.4511097e-02   2.4024784e+00   1.5868200e-02  -1.4969934e+08
   3.4411470e-10  -6.4113562e-02   2.3792530e+00   1.6208520e-02  -1.4838263e+08
   3.4678226e-10  -6.3719516e-02   2.3563210e+00   1.6552130e-02  -1.4708357e+08
   3.4944982e-10  -6.3328910e-02   2.3336795e+00   1.6899001e-02  -1.4580188e+08
   3.5211737e-10  -6.2941699e-02   2.3113255e+00   1.7249106e-02  -1.4453727e+08
   3.5478493e-10  -6.2557838e-02   2.2892559e+00   1.7602416e-02  -1.4328943e+08
   3.5745248e-10  -6.2177283e-02   2.2674678e+00   1.7958903e-02  -1.4205811e+08
   3.6012004e-10  -6.1799990e-02   2.2459581e+00   1.8318538e-02  -1.4084301e+08
   3.6278760e-10  -6.1425916e-02   2.2247236e+00   1.8681294e-02  -1.3964386e+08
   3.6545515e-10  -6.1055019e-02   2.2037613e+00   1.9047141e-02  -1.3846039e+08
   3.6812271e-10  -6.0687257e-02   2.1830680e+00   1.9416051e-02  -1.3729234e+08
   3.7079026e-10  -6.0322590e-02   2.1626407e+00   1.9787996e-02  -1.3613945e+08
   3.7345782e-10  -5.9960977e-02   2.1424761e+00   2.0162946e-02  -1.3500146e+08
   3.7612538e-10  -5.9602380e-02   2.1225711e+00   2.0540875e-02  -1.3387811e+08
   3.7879293e-10  -5.9246760e-02   2.1029227e+00   2.0921753e-02  -1.3276916e+08
   3.8146049e-10  -5.8894078e-02   2.0835275e+00   2.1305552e-02  -1.3167436e+08
   3.8412804e-10  -5.8544297e-02   2.0643826e+00   2.1692243e-02  -1.3059347e+08
   3.8679560e-10  -5.8197380e-02   2.0454847e+00   2.2081799e-02  -1.2952626e+08
   3.8946315e-10  -5.7853292e-02   2.0268308e+00   2.2474191e-02  -1.2847250e+08
   3.9213071e-10  -5.7511996e-02   2.0084177e+00   2.2869390e-02  -1.2743195e+08
   3.9479827e-10  -5.7173458e-02   1.9902424e+00   2.3267370e-02  -1.2640439e+08
   3.9746582e-10  -5.6837644e-02   1.9723016e+00   2.3668101e-02  -1.2538960e+08
   4.0013338e-10  -5.6504519e-02   1.9545925e+00   2.4071556e-02  -1.2438737e+08
   4.0280093e-10  -5.6174050e-02   1.9371119e+00   2.4477707e-02  -1.2339749e+08
   4.0546849e-10  -5.5846205e-02   1.9198568e+00   2.4886525e-02  -1.2241974e+08
   4.0813605e-10  -5.5520952e-02   1.9028242e+00   2.5297984e-02  -1.2145392e+08
   4.1080360e-10  -5.5198259e-02   1.8860111e+00   2.5712056e-02  -1.2049983e+08
   4.1347116e-10  -5.4878095e-02   1.8694146e+00   2.6128713e-02  -1.1955727e+08
   4.1613871e-10  -5.4560430e-02   1.8530316e+00   2.6547927e-02  -1.1862606e+08
   4.1880627e-10  -5.4245233e-02   1.8368594e+00   2.6969672e-02  -1.1770599e+08
   4.2147382e-10  -5.3932476e-02   1.8208950e+00   2.7393920e-02  -1.1679689e+08
   4.2414138e-10  -5.3622129e-02   1.8051355e+00   2.7820643e-02  -1.1589857e+08
   4.2680894e-10  -5.3314163e-02   1.7895781e+00   2.8249815e-02  -1.1501085e+08
   4.2947649e-10  -5.3008552e-02   1.7742200e+00   2.8681409e-02  -1.1413355e+08
   4.3214405e-10  -5.2705266e-02   1.7590585e+00   2.9115398e-02  -1.1326651e+08
   4.3481160e-10  -5.2404279e-02   1.7440908e+00   2.9551755e-02  -1.1240956e+08
   4.3747916e-10  -5.2105565e-02   1.7293141e+00   2.9990454e-02  -1.1156252e+08
   4.4014672e-10  -5.1809097e-02   1.7147258e+00   3.0431467e-02  -1.1072523e+08
   4.4281427e-10  -5.1514849e-02   1.7003233e+00   3.0874769e-02  -1.0989755e+08
   4.4548183e-10  -5.1222796e-02   1.6861039e+00   3.1320334e-02  -1.0907930e+08
   4.4814938e-10  -5.0932913e-02   1.6720650e+00   3.1768134e-02  -1.0827033e+08
   4.5081694e-10  -5.0645175e-02   1.6582040e+00   3.2218145e-02  -1.0747050e+08
   4.5348449e-10  -5.0359559e-02   1.6445185e+00   3.2670339e-02  -1.0667966e+08
   4.5615205e-10  -5.0076040e-02   1.6310059e+00   3.3124691e-02  -1.0589765e+08
   4.5881961e-10  -4.9794595e-02   1.6176638e+00   3.3581176e-02  -1.0512435e+08
   4.6148716e-10  -4.9515202e-02   1.6044897e+00   3.4039768e-02  -1.0435960e+08
   4.6415472e-10  -4.9237836e-02   1.5914812e+00   3.4500441e-02  -1.0360328e+08
   4.6682227e-10  -4.8962477e-02   1.5786360e+00   3.4963169e-02  -1.0285524e+08
   4.6948983e-10  -4.8689103e-02   1.5659517e+00   3.5427929e-02  -1.0211537e+08
   4.7215739e-10  -4.8417691e-02   1.5534260e+00   3.5894693e-02  -1.0138352e+08
   4.7482494e-10  -4.8148220e-02   1.5410566e+00   3.6363438e-02  -1.0065957e+08
   4.7749250e-10  -4.7880670e-02   1.5288412e+00   3.6834139e-02  -9.9943399e+07
   4.8016005e-10  -4.7615020e-02   1.5167777e+00   3.7306770e-02  -9.9234883e+07
   4.8282761e-10  -4.7351249e-02   1.5048639e+00   3.7781306e-02  -9.8533904e+07
   4.8549517e-10  -4.7089338e-02   1.4930977e+00   3.8257725e-02  -9.7840343e+07
   4.8816272e-10  -4.6829268e-02   1.4814768e+00   3.8736000e-02  -9.7154087e+07
   4.9083028e-10  -4.6571018e-02   1.4699991e+00   3.9216107e-02  -9.6475022e+07
   4.9349783e-10  -4.6314570e-02   1.4586628e+00   3.9698023e-02  -9.5803038e+07
   4.9616539e-10  -4.6059905e-02   1.4474656e+00   4.0181722e-02  -9.5138026e+07
   4.9883294e-10  -4.5807005e-02   1.4364056e+00   4.0667182e-02  -9.4479881e+07
   5.0150050e-10  -4.5555851e-02   1.4254809e+00   4.1154378e-02  -9.3828497e+07
   5.0416806e-10  -4.5306425e-02   1.4146894e+00   4.1643287e-02  -9.3183773e+07
   5.0683561e-10  -4.5058711e-02   1.4040293e+00   4.2133884e-02  -9.2545609e+07
   5.0950317e-10  -4.4812689e-02   1.3934986e+00   4.2626147e-02  -9.1913905e+07
   5.1217072e-10  -4.4568345e-02   1.3830955e+00   4.3120051e-02  -9.1288565e+07
   5.1483828e-10  -4.4325660e-02   1.3728182e+00   4.3615573e-02  -9.0669495e+07
   5.1750584e-10  -4.4084618e-02   1.3626649e+00   4.4112691e-02  -9.0056601e+07
   5.2017339e-10  -4.3845202e-02   1.3526337e+00   4.4611381e-02  -8.9449793e+07
   5.2284095e-10  -4.3607398e-02   1.3427230e+00   4.5111621e-02  -8.8848980e+07
   5.2550850e-10  -4.3371187e-02   1.3329310e+00   4.5613386e-02  -8.8254076e+07
   5.2817606e-10  -4.3136556e-02   1.3232560e+00   4.6116655e-02  -8.7664993e+07
   5.3084361e-10  -4.2903489e-02   1.3136963e+00   4.6621405e-02  -8.7081647e+07
   5.3351117e-10  -4.2671970e-02   1.3042504e+00   4.7127613e-02  -8.6503956e+07
   5.3617873e-10  -4.2441984e-02   1.2949164e+00   4.7635257e-02  -8.5931837e+07
   5.3884628e-10  -4.2213517e-02   1.2856930e+00   4.8144315e-02  -8.5365212e+07
   5.4151384e-10  -4.1986554e-02   1.2765784e+00   4.8654764e-02  -8.4804000e+07
   5.4418139e-10  -4.1761081e-02   1.2675712e+00   4.9166583e-02  -8.4248127e+07
   5.4684895e-10  -4.1537084e-02   1.2586698e+00   4.9679749e-02  -8.3697515e+07
   5.4951651e-10  -4.1314548e-02   1.2498727e+00   5.0194240e-02  -8.3152090e+07
   5.5218406e-10  -4.1093461e-02   1.2411785e+00   5.0710035e-02  -8.2611781e+07
   5.5485162e-10  -4.0873808e-02   1.2325856e+00   5.1227113e-02  -8.2076515e+07
   5.5751917e-10  -4.0655576e-02   1.2240927e+00   5.1745450e-02  -8.1546222e+07
   5.6018673e-10  -4.0438751e-02   1.2156983e+00   5.2265027e-02  -8.1020833e+07
   5.6285428e-10  -4.0223322e-02   1.2074011e+00   5.2785822e-02  -8.0500281e+07
   5.6552184e-10  -4.0009275e-02   1.1991996e+00   5.3307813e-02  -7.9984498e+07
   5.6818940e-10  -3.9796598e-02   1.1910926e+00   5.3830979e-02  -7.9473421e+07
   5.7085695e-10  -3.9585277e-02   1.1830787e+00   5.4355300e-02  -7.8966985e+07
   5.7352451e-10  -3.9375302e-02   1.1751567e+00   5.4880755e-02  -7.8465126e+07
   5.7619206e-10  -3.9166659e-02   1.1673251e+00   5.5407322e-02  -7.7967784e+07
   5.7885962e-10  -3.8959336e-02   1.1595828e+00   5.5934982e-02  -7.7474897e+07
   5.8152718e-10  -3.8753323e-02   1.1519285e+00   5.6463713e-02  -7.6986406e+07
   5.8419473e-10  -3.8548606e-02   1.1443611e+00   5.6993495e-02  -7.6502252e+07
   5.8686229e-10  -3.8345176e-02   1.1368792e+00   5.7524308e-02  -7.6022377e+07
   5.8952984e-10  -3.8143019e-02   1.1294817e+00   5.8056131e-02  -7.5546726e+07
   5.9219740e-10  -3.7942126e-02   1.1221674e+00   5.8588945e-02  -7.5075243e+07
   5.9486495e-10  -3.7742486e-02   1.1149353e+00   5.9122729e-02  -7.4607873e+07
   5.9753251e-10  -3.7544086e-02   1.1077841e+00   5.9657463e-02  -7.4144562e+07
   6.0020007e-10  -3.7346917e-02   1.1007127e+00   6.0193127e-02  -7.3685259e+07
   6.0286762e-10  -3.7150967e-02   1.0937201e+00   6.0729703e-02  -7.3229910e+07
   6.0553518e-10  -3.6956227e-02   1.0868051e+00   6.1267170e-02  -7.2778466e+07
   6.0820273e-10  -3.6762687e-02   1.0799667e+00   6.1805508e-02  -7.2330876e+07
   6.1087029e-10  -3.6570335e-02   1.0732039e+00   6.2344699e-02  -7.1887092e+07
   6.1353785e-10  -3.6379161e-02   1.0665156e+00   6.2884722e-02  -7.1447065e+07
   6.1620540e-10  -3.6189157e-02   1.0599009e+00   6.3425560e-02  -7.1010747e+07
   6.1887296e-10  -3.6000311e-02   1.0533586e+00   6.3967192e-02  -7.0578092e+07
   6.2154051e-10  -3.5812615e-02   1.0468879e+00   6.4509599e-02  -7.0149054e+07
   6.2420807e-10  -3.5626058e-02   1.0404877e+00   6.5052764e-02  -6.9723588e+07
   6.2687563e-10  -3.5440632e-02   1.0341572e+00   6.5596666e-02  -6.9301650e+07
   6.2954318e-10  -3.5256326e-02   1.0278953e+00   6.6141288e-02  -6.8883196e+07
   6.3221074e-10  -3.5073132e-02   1.0217012e+00   6.6686611e-02  -6.8468183e+07
   6.3487829e-10  -3.4891041e-02   1.0155739e+00   6.7232616e-02  -6.8056570e+07
   6.3754585e-10  -3.4710043e-02   1.0095126e+00   6.7779285e-02  -6.7648314e+07
   6.4021340e-10  -3.4530129e-02   1.0035163e+00   6.8326599e-02  -6.7243376e+07
   6.4288096e-10  -3.4351292e-02   9.9758427e-01   6.8874541e-02  -6.6841714e+07
   6.4554852e-10  -3.4173521e-02   9.9171557e-01   6.9423093e-02  -6.6443290e+07
   6.4821607e-10  -3.3996809e-02   9.8590937e-01   6.9972236e-02  -6.6048065e+07
   6.5088363e-10  -3.3821147e-02   9.8016486e-01   7.0521952e-02  -6.5656000e+07
   6.5355118e-10  -3.3646526e-02   9.7448122e-01   7.1072225e-02  -6.5267059e+07
   6.5621874e-10  -3.3472939e-02   9.6885764e-01   7.1623036e-02  -6.4881204e+07
   6.5888630e-10  -3.3300377e-02   9.6329333e-01   7.2174367e-02  -6.4498399e+07
   6.6155385e-10  -3.3128833e-02   9.5778753e-01   7.2726202e-02  -6.4118609e+07
   6.6422141e-10  -3.2958297e-02   9.5233945e-01   7.3278522e-02  -6.3741797e+07
   6.6688896e-10  -3.2788763e-02   9.4694835e-01   7.3831312e-02  -6.3367931e+07
   6.6955652e-10  -3.2620222e-02   9.4161349e-01   7.4384553e-02  -6.2996974e+07
   6.7222407e-10  -3.2452666e-02   9.3633413e-01   7.4938228e-02  -6.2628896e+07
   6.7489163e-10  -3.2286089e-02   9.3110956e-01   7.5492321e-02  -6.2263661e+07
   6.7755919e-10  -3.2120482e-02   9.2593906e-01   7.6046815e-02  -6.1901238e+07
   6.8022674e-10  -3.1955838e-02   9.2082194e-01   7.6601692e-02  -6.1541595e+07
   6.8289430e-10  -3.1792150e-02   9.1575750e-01   7.7156937e-02  -6.1184700e+07
   6.8556185e-10  -3.1629410e-02   9.1074508e-01   7.7712533e-02  -6.0830523e+07
   6.8822941e-10  -3.1467612e-02   9.0578400e-01   7.8268464e-02  -6.0479033e+07
   6.9089697e-10  -3.1306747e-02   9.0087361e-01   7.8824712e-02  -6.0130201e+07
   6.9356452e-10  -3.1146810e-02   8.9601326e-01   7.9381263e-02  -5.9783995e+07
   6.9623208e-10  -3.0987792e-02   8.9120231e-01   7.9938099e-02  -5.9440389e+07
   6.9889963e-10  -3.0829688e-02   8.8644013e-01   8.0495205e-02  -5.9099352e+07
   7.0156719e-10  -3.0672490e-02   8.8172611e-01   8.1052565e-02  -5.8760857e+07
   7.0423474e-10  -3.0516191e-02   8.7705964e-01   8.1610162e-02  -5.8424877e+07
   7.0690230e-10  -3.0360786e-02   8.7244012e-01   8.2167983e-02  -5.8091383e+07
   7.0956986e-10  -3.0206266e-02   8.6786695e-01   8.2726009e-02  -5.7760348e+07
   7.1223741e-10  -3.0052627e-02   8.6333955e-01   8.3284227e-02  -5.7431748e+07
   7.1490497e-10  -2.9899861e-02   8.5885736e-01   8.3842621e-02  -5.7105554e+07
   7.1757252e-10  -2.9747961e-02   8.5441980e-01   8.4401175e-02  -5.6781742e+07
   7.2024008e-10  -2.9596923e-02   8.5002631e-01   8.4959875e-02  -5.6460287e+07
   7.2290764e-10  -2.9446739e-02   8.4567636e-01   8.5518704e-02  -5.6141162e+07
   7.2557519e-10  -2.9297402e-02   8.4136940e-01   8.6077649e-02  -5.5824345e+07
   7.2824275e-10  -2.9148908e-02   8.3710489e-01   8.6636694e-02  -5.5509809e+07
   7.3091030e-10  -2.9001251e-02   8.3288232e-01   8.7195824e-02  -5.5197533e+07
   7.3357786e-10  -2.8854423e-02   8.2870116e-01   8.7755025e-02  -5.4887492e+07
   7.3624542e-10  -2.8708419e-02   8.2456090e-01   8.8314282e-02  -5.4579662e+07
   7.3891297e-10  -2.8563233e-02   8.2046105e-01   8.8873580e-02  -5.4274022e+07
   7.4158053e-10  -2.8418860e-02   8.1640111e-01   8.9432906e-02  -5.3970548e+07
   7.4424808e-10  -2.8275293e-02   8.1238059e-01   8.9992244e-02  -5.3669219e+07
   7.4691564e-10  -2.8132527e-02   8.0839902e-01   9.0551581e-02  -5.3370013e+07
   7.4958319e-10  -2.7990557e-02   8.0445591e-01   9.1110903e-02  -5.3072908e+07
   7.5225075e-10  -2.7849377e-02   8.0055080e-01   9.1670195e-02  -5.2777882e+07
   7.5491831e-10  -2.7708980e-02   7.9668324e-01   9.2229443e-02  -5.2484916e+07
   7.5758586e-10  -2.7569363e-02   7.9285277e-01   9.2788634e-02  -5.2193987e+07
   7.6025342e-10  -2.7430519e-02   7.8905894e-01   9.3347754e-02  -5.1905077e+07
   7.6292097e-10  -2.7292442e-02   7.8530131e-01   9.3906789e-02  -5.1618165e+07
   7.6558853e-10  -2.7155129e-02   7.8157945e-01   9.4465727e-02  -5.1333231e+07
   7.6825609e-10  -2.7018573e-02   7.7789294e-01   9.5024552e-02  -5.1050255e+07
   7.7092364e-10  -2.6882769e-02   7.7424134e-01   9.5583253e-02  -5.0769219e+07
   7.7359120e-10  -2.6747712e-02   7.7062425e-01   9.6141815e-02  -5.0490104e+07
   7.7625875e-10  -2.6613398e-02   7.6704126e-01   9.6700226e-02  -5.0212890e+07
   7.7892631e-10  -2.6479820e-02   7.6349196e-01   9.7258473e-02  -4.9937559e+07
   7.8159386e-10  -2.6346974e-02   7.5997595e-01   9.7816543e-02  -4.9664094e+07
   7.8426142e-10  -2.6214855e-02   7.5649284e-01   9.8374422e-02  -4.9392476e+07
   7.8692898e-10  -2.6083459e-02   7.5304225e-01   9.8932099e-02  -4.9122688e+07
   7.8959653e-10  -2.5952779e-02   7.4962379e-01   9.9489560e-02  -4.8854711e+07
   7.9226409e-10  -2.5822812e-02   7.4623709e-01   1.0004679e-01  -4.8588530e+07
   7.9493164e-10  -2.5693553e-02   7.4288178e-01   1.0060379e-01  -4.8324126e+07
   7.9759920e-10  -2.5564997e-02   7.3955749e-01   1.0116053e-01  -4.8061484e+07
   8.0026676e-10  -2.5437139e-02   7.3626386e-01   1.0171700e-01  -4.7800586e+07
   8.0293431e-10  -2.5309974e-02   7.3300053e-01   1.0227320e-01  -4.7541416e+07
   8.0560187e-10  -2.5183499e-02   7.2976717e-01   1.0282910e-01  -4.7283959e+07
   8.0826942e-10  -2.5057708e-02   7.2656341e-01   1.0338471e-01  -4.7028198e+07
   8.1093698e-10  -2.4932597e-02   7.2338892e-01   1.0394000e-01  -4.6774117e+07
   8.1360453e-10  -2.4808162e-02   7.2024337e-01   1.0449497e-01  -4.6521702e+07
   8.1627209e-10  -2.4684398e-02   7.1712642e-01   1.0504960e-01  -4.6270937e+07
   8.1893965e-10  -2.4561300e-02   7.1403774e-01   1.0560389e-01  -4.6021807e+07
   8.2160720e-10  -2.4438865e-02   7.1097702e-01   1.0615781e-01  -4.5774296e+07
   8.2427476e-10  -2.4317088e-02   7.0794393e-01   1.0671136e-01  -4.5528391e+07
   8.2694231e-10  -2.4195965e-02   7.0493817e-01   1.0726453e-01  -4.5284077e+07
   8.2960987e-10  -2.4075492e-02   7.0195942e-01   1.0781731e-01  -4.5041340e+07
   8.3227743e-10  -2.3955664e-02   6.9900738e-01   1.0836968e-01  -4.4800165e+07
   8.3494498e-10  -2.3836477e-02   6.9608174e-01   1.0892164e-01  -4.4560538e+07
   8.3761254e-10  -2.3717927e-02   6.9318222e-01   1.0947317e-01  -4.4322446e+07
   8.4028009e-10  -2.3600011e-02   6.9030851e-01   1.1002426e-01  -4.4085875e+07
   8.4294765e-10  -2.3482723e-02   6.8746033e-01   1.1057490e-01  -4.3850812e+07
   8.4561521e-10  -2.3366061e-02   6.8463740e-01   1.1112508e-01  -4.3617244e+07
   8.4828276e-10  -2.3250019e-02   6.8183943e-01   1.1167480e-01  -4.3385157e+07
   8.5095032e-10  -2.3134595e-02   6.7906615e-01   1.1222403e-01  -4.3154539e+07
   8.5361787e-10  -2.3019784e-02   6.7631728e-01   1.1277278e-01  -4.2925376e+07
   8.5628543e-10  -2.2905582e-02   6.7359256e-01   1.1332102e-01  -4.2697656e+07
   8.5895298e-10  -2.2791986e-02   6.7089171e-01   1.1386875e-01  -4.2471367e+07
   8.6162054e-10  -2.2678992e-02   6.6821447e-01   1.1441596e-01  -4.2246497e+07
   8.6428810e-10  -2.2566595e-02   6.6556059e-01   1.1496264e-01  -4.2023033e+07
   8.6695565e-10  -2.2454793e-02   6.6292981e-01   1.1550878e-01  -4.1800963e+07
   8.6962321e-10  -2.2343582e-02   6.6032188e-01   1.1605437e-01  -4.1580276e+07
   8.7229076e-10  -2.2232957e-02   6.5773654e-01   1.1659940e-01  -4.1360959e+07
   8.7495832e-10  -2.2122915e-02   6.5517356e-01   1.1714386e-01  -4.1143002e+07
   8.7762588e-10  -2.2013453e-02   6.5263269e-01   1.1768774e-01  -4.0926392e+07
   8.8029343e-10  -2.1904568e-02   6.5011369e-01   1.1823103e-01  -4.0711119e+07
   8.8296099e-10  -2.1796254e-02   6.4761632e-01   1.1877372e-01  -4.0497172e+07
   8.8562854e-10  -2.1688510e-02   6.4514035e-01   1.1931581e-01  -4.0284539e+07
   8.8829610e-10  -2.1581331e-02   6.4268556e-01   1.1985727e-01  -4.0073209e+07
   8.9096365e-10  -2.1474714e-02   6.4025171e-01   1.2039812e-01  -3.9863172e+07
   8.9363121e-10  -2.1368655e-02   6.3783858e-01   1.2093832e-01  -3.9654417e+07
   8.9629877e-10  -2.1263152e-02   6.3544595e-01   1.2147788e-01  -3.9446933e+07
   8.9896632e-10  -2.1158201e-02   6.3307361e-01   1.2201679e-01  -3.9240711e+07
   9.0163388e-10  -2.1053798e-02   6.3072133e-01   1.2255504e-01  -3.9035740e+07
   9.0430143e-10  -2.0949940e-02   6.2838890e-01   1.2309262e-01  -3.8832009e+07
   9.0696899e-10  -2.0846624e-02   6.2607611e-01   1.2362952e-01  -3.8629510e+07
   9.0963655e-10  -2.0743846e-02   6.2378276e-01   1.2416573e-01  -3.8428231e+07
   9.1230410e-10  -2.0641604e-02   6.2150864e-01   1.2470125e-01  -3.8228163e+07
   9.1497166e-10  -2.0539894e-02   6.1925356e-01   1.2523606e-01  -3.8029297e+07
   9.1763921e-10  -2.0438712e-02   6.1701730e-01   1.2577016e-01  -3.7831623e+07
   9.2030677e-10  -2.0338057e-02   6.1479967e-01   1.2630354e-01  -3.7635130e+07
   9.2297432e-10  -2.0237924e-02   6.1260049e-01   1.2683619e-01  -3.7439811e+07
   9.2564188e-10  -2.0138310e-02   6.1041955e-01   1.2736811e-01  -3.7245656e+07
   9.2830944e-10  -2.0039213e-02   6.0825667e-01   1.2789928e-01  -3.7052655e+07
   9.3097699e-10  -1.9940629e-02   6.0611166e-01   1.2842970e-01  -3.6860800e+07
   9.3364455e-10  -1.9842556e-02   6.0398433e-01   1.2895936e-01  -3.6670082e+07
   9.3631210e-10  -1.9744989e-02   6.0187451e-01   1.2948825e-01  -3.6480491e+07
   9.3897966e-10  -1.9647927e-02   5.9978201e-01   1.3001637e-01  -3.6292019e+07
   9.4164722e-10  -1.9551367e-02   5.9770666e-01   1.3054370e-01  -3.6104658e+07
   9.4431477e-10  -1.9455304e-02   5.9564828e-01   1.3107025e-01  -3.5918398e+07
   9.4698233e-10  -1.9359737e-02   5.9360669e-01   1.3159600e-01  -3.5733232e+07
   9.4964988e-10  -1.9264663e-02   5.9158173e-01   1.3212094e-01  -3.5549151e+07
   9.5231744e-10  -1.9170078e-02   5.8957322e-01   1.3264508e-01  -3.5366146e+07
   9.5498499e-10  -1.9075979e-02   5.8758101e-01   1.3316839e-01  -3.5184210e+07
   9.5765255e-10  -1.8982365e-02   5.8560492e-01   1.3369088e-01  -3.5003335e+07
   9.6032011e-10  -1.8889232e-02   5.8364479e-01   1.3421254e-01  -3.4823512e+07
   9.6298766e-10  -1.8796577e-02   5.8170046e-01   1.3473335e-01  -3.4644733e+07
   9.6565522e-10  -1.8704397e-02   5.7977177e-01   1.3525333e-01  -3.4466991e+07
   9.6832277e-10  -1.8612691e-02   5.7785856e-01   1.3577245e-01  -3.4290278e+07
   9.7099033e-10  -1.8521454e-02   5.7596069e-01   1.3629071e-01  -3.4114586e+07
   9.7365789e-10  -1.8430685e-02   5.7407799e-01   1.3680810e-01  -3.3939908e+07
   9.7632544e-10  -1.8340380e-02   5.7221032e-01   1.3732462e-01  -3.3766236e+07
   9.7899300e-10  -1.8250537e-02   5.7035752e-01   1.3784027e-01  -3.3593562e+07
   9.8166055e-10  -1.8161154e-02   5.6851944e-01   1.3835503e-01  -3.3421880e+07
   9.8432811e-10  -1.8072227e-02   5.6669595e-01   1.3886890e-01  -3.3251182e+07
   9.8699567e-10  -1.7983754e-02   5.6488690e-01   1.3938187e-01  -3.3081460e+07
   9.8966322e-10  -1.7895733e-02   5.6309214e-01   1.3989394e-01  -3.2912709e+07
   9.9233078e-10  -1.7808161e-02   5.6131154e-01   1.4040510e-01  -3.2744919e+07
   9.9499833e-10  -1.7721035e-02   5.5954495e-01   1.4091535e-01  -3.2578086e+07
   9.9766589e-10  -1.7634352e-02   5.5779224e-01   1.4142468e-01  -3.2412201e+07
   1.0003334e-09  -1.7548111e-02   5.5605328e-01   1.4193308e-01  -3.2247258e+07
   1.0030010e-09  -1.7462309e-02   5.5432792e-01   1.4244055e-01  -3.2083250e+07
   1.0056686e-09  -1.7376943e-02   5.5261603e-01   1.4294708e-01  -3.1920171e+07
   1.0083361e-09  -1.7292010e-02   5.5091750e-01   1.4345267e-01  -3.1758013e+07
   1.0110037e-09  -1.7207509e-02   5.4923217e-01   1.4395731e-01  -3.1596771e+07
   1.0136712e-09  -1.7123437e-02   5.4755994e-01   1.4446099e-01  -3.1436437e+07
   1.0163388e-09  -1.7039792e-02   5.4590067e-01   1.4496372e-01  -3.1277005e+07
   1.0190063e-09  -1.6956570e-02   5.4425423e-01   1.4546549e-01  -3.1118469e+07
   1.0216739e-09  -1.6873771e-02   5.4262051e-01   1.4596628e-01  -3.0960823e+07
   1.0243414e-09  -1.6791390e-02   5.4099938e-01   1.4646610e-01  -3.0804060e+07
   1.0270090e-09  -1.6709427e-02   5.3939072e-01   1.4696494e-01  -3.0648174e+07
   1.0296766e-09  -1.6627878e-02   5.3779441e-01   1.4746280e-01  -3.0493159e+07
   1.0323441e-09  -1.6546742e-02   5.3621034e-01   1.4795967e-01  -3.0339009e+07
   1.0350117e-09  -1.6466015e-02   5.3463838e-01   1.4845555e-01  -3.0185718e+07
   1.0376792e-09  -1.6385697e-02   5.3307843e-01   1.4895042e-01  -3.0033279e+07
   1.0403468e-09  -1.6305784e-02   5.3153036e-01   1.4944430e-01  -2.9881688e+07
   1.0430143e-09  -1.6226274e-02   5.2999408e-01   1.4993717e-01  -2.9730938e+07
   1.0456819e-09  -1.6147165e-02   5.2846946e-01   1.5042902e-01  -2.9581023e+07
   1.0483494e-09  -1.6068455e-02   5.2695639e-01   1.5091986e-01  -2.9431938e+07
   1.0510170e-09  -1.5990142e-02   5.2545478e-01   1.5140968e-01  -2.9283677e+07
   1.0536846e-09  -1.5912223e-02   5.2396450e-01   1.5189847e-01  -2.9136235e+07
   1.0563521e-09  -1.5834696e-02   5.2248546e-01   1.5238623e-01  -2.8989605e+07
   1.0590197e-09  -1.5757559e-02   5.2101755e-01   1.5287297e-01  -2.8843782e+07
   1.0616872e-09  -1.5680811e-02   5.1956066e-01   1.5335866e-01  -2.8698761e+07
   1.0643548e-09  -1.5604448e-02   5.1811470e-01   1.5384331e-01  -2.8554537e+07
   1.0670223e-09  -1.5528468e-02   5.1667956e-01   1.5432692e-01  -2.8411104e+07
   1.0696899e-09  -1.5452871e-02   5.1525515e-01   1.5480947e-01  -2.8268456e+07
   1.0723575e-09  -1.5377652e-02   5.1384135e-01   1.5529098e-01  -2.8126589e+07
   1.0750250e-09  -1.5302811e-02   5.1243809e-01   1.5577143e-01  -2.7985497e+07
   1.0776926e-09  -1.5228346e-02   5.1104525e-01   1.5625081e-01  -2.7845176e+07
   1.0803601e-09  -1.5154254e-02   5.0966274e-01   1.5672914e-01  -2.7705619e+07
   1.0830277e-09  -1.5080533e-02   5.0829047e-01   1.5720639e-01  -2.7566822e+07
   1.0856952e-09  -1.5007181e-02   5.0692835e-01   1.5768258e-01  -2.7428781e+07
   1.0883628e-09  -1.4934197e-02   5.0557628e-01   1.5815769e-01  -2.7291489e+07
   1.0910303e-09  -1.4861577e-02   5.0423417e-01   1.5863172e-01  -2.7154942e+07
   1.0936979e-09  -1.4789321e-02   5.0290193e-01   1.5910467e-01  -2.7019135e+07
   1.0963655e-09  -1.4717427e-02   5.0157948e-01   1.5957654e-01  -2.6884063e+07
   1.0990330e-09  -1.4645891e-02   5.0026671e-01   1.6004732e-01  -2.6749722e+07
   1.1017006e-09  -1.4574713e-02   4.9896355e-01   1.6051701e-01  -2.6616107e+07
   1.1043681e-09  -1.4503891e-02   4.9766991e-01   1.6098561e-01  -2.6483212e+07
   1.1070357e-09  -1.4433422e-02   4.9638570e-01   1.6145311e-01  -2.6351034e+07
   1.1097032e-09  -1.4363304e-02   4.9511084e-01   1.6191951e-01  -2.6219568e+07
   1.1123708e-09  -1.4293537e-02   4.9384524e-01   1.6238480e-01  -2.6088808e+07
   1.1150383e-09  -1.4224117e-02   4.9258883e-01   1.6284900e-01  -2.5958751e+07
   1.1177059e-09  -1.4155043e-02   4.9134152e-01   1.6331208e-01  -2.5829393e+07
   1.1203735e-09  -1.4086314e-02   4.9010322e-01   1.6377405e-01  -2.5700727e+07
   1.1230410e-09  -1.4017927e-02   4.8887387e-01   1.6423491e-01  -2.5572751e+07
   1.1257086e-09  -1.3949880e-02   4.8765337e-01   1.6469466e-01  -2.5445459e+07
   1.1283761e-09  -1.3882172e-02   4.8644165e-01   1.6515329e-01  -2.5318848e+07
   1.1310437e-09  -1.3814800e-02   4.8523864e-01   1.6561079e-01  -2.5192913e+07
   1.1337112e-09  -1.3747764e-02   4.8404426e-01   1.6606717e-01  -2.5067649e+07
   1.1363788e-09  -1.3681061e-02   4.8285843e-01   1.6652243e-01  -2.4943054e+07
   1.1390463e-09  -1.3614690e-02   4.8168107e-01   1.6697656e-01  -2.4819121e+07
   1.1417139e-09  -1.3548648e-02   4.8051211e-01   1.6742956e-01  -2.4695847e+07
   1.1443815e-09  -1.3482934e-02   4.7935149e-01   1.6788143e-01  -2.4573229e+07
   1.1470490e-09  -1.3417547e-02   4.7819912e-01   1.6833216e-01  -2.4451261e+07
   1.1497166e-09  -1.3352483e-02   4.7705493e-01   1.6878175e-01  -2.4329940e+07
   1.1523841e-09  -1.3287743e-02   4.7591885e-01   1.6923021e-01  -2.4209262e+07
   1.1550517e-09  -1.3223324e-02   4.7479082e-01   1.6967753e-01  -2.4089222e+07
   1.1577192e-09  -1.3159224e-02   4.7367076e-01   1.7012370e-01  -2.3969818e+07
   1.1603868e-09  -1.3095442e-02   4.7255860e-01   1.7056873e-01  -2.3851044e+07
   1.1630544e-09  -1.3031975e-02   4.7145428e-01   1.7101262e-01  -2.3732897e+07
   1.1657219e-09  -1.2968824e-02   4.7035773e-01   1.7145536e-01  -2.3615373e+07
   1.1683895e-09  -1.2905984e-02   4.6926888e-01   1.7189695e-01  -2.3498468e+07
   1.1710570e-09  -1.2843456e-02   4.6818767e-01   1.7233738e-01  -2.3382179e+07
   1.1737246e-09  -1.2781237e-02   4.6711402e-01   1.7277667e-01  -2.3266502e+07
   1.1763921e-09  -1.2719326e-02   4.6604788e-01   1.7321480e-01  -2.3151432e+07
   1.1790597e-09  -1.2657721e-02   4.6498918e-01   1.7365177e-01  -2.3036967e+07
   1.1817272e-09  -1.2596421e-02   4.6393786e-01   1.7408759e-01  -2.2923102e+07
   1.1843948e-09  -1.2535424e-02   4.6289386e-01   1.7452225e-01  -2.2809833e+07
   1.1870624e-09  -1.2474728e-02   4.6185710e-01   1.7495575e-01  -2.2697159e+07
   1.1897299e-09  -1.2414331e-02   4.6082754e-01   1.7538809e-01  -2.2585073e+07
   1.1923975e-09  -1.2354233e-02   4.5980511e-01   1.7581926e-01  -2.2473574e+07
   1.1950650e-09  -1.2294432e-02   4.5878976e-01   1.7624927e-01  -2.2362657e+07
   1.1977326e-09  -1.2234926e-02   4.5778141e-01   1.7667812e-01  -2.2252319e+07
   1.2004001e-09  -1.2175713e-02   4.5678002e-01   1.7710580e-01  -2.2142557e+07
   1.2030677e-09  -1.2116792e-02   4.5578552e-01   1.7753232e-01  -2.2033367e+07
   1.2057352e-09  -1.2058162e-02   4.5479786e-01   1.7795766e-01  -2.1924745e+07
   1.2084028e-09  -1.1999821e-02   4.5381697e-01   1.7838184e-01  -2.1816689e+07
   1.2110704e-09  -1.1941767e-02   4.5284281e-01   1.7880485e-01  -2.1709195e+07
   1.2137379e-09  -1.1883999e-02   4.5187532e-01   1.7922669e-01  -2.1602259e+07
   1.2164055e-09  -1.1826516e-02   4.5091444e-01   1.7964735e-01  -2.1495878e+07
   1.2190730e-09  -1.1769316e-02   4.4996012e-01   1.8006685e-01  -2.1390049e+07
   1.2217406e-09  -1.1712397e-02   4.4901230e-01   1.8048517e-01  -2.1284768e+07
   1.2244081e-09  -1.1655759e-02   4.4807092e-01   1.8090232e-01  -2.1180033e+07
   1.2270757e-09  -1.1599399e-02   4.4713595e-01   1.8131829e-01  -2.1075840e+07
   1.2297432e-09  -1.1543317e-02   4.4620732e-01   1.8173309e-01  -2.0972186e+07
   1.2324108e-09  -1.1487510e-02   4.4528497e-01   1.8214671e-01  -2.0869068e+07
   1.2350784e-09  -1.1431977e-02   4.4436887e-01   1.8255916e-01  -2.0766483e+07
   1.2377459e-09  -1.1376718e-02   4.4345896e-01   1.8297043e-01  -2.0664426e+07
   1.2404135e-09  -1.1321730e-02   4.4255518e-01   1.8338052e-01  -2.0562897e+07
   1.2430810e-09  -1.1267012e-02   4.4165749e-01   1.8378943e-01  -2.0461890e+07
   1.2457486e-09  -1.1212563e-02   4.4076584e-01   1.8419717e-01  -2.0361404e+07
   1.2484161e-09  -1.1158382e-02   4.3988018e-01   1.8460373e-01  -2.0261435e+07
   1.2510837e-09  -1.1104466e-02   4.3900046e-01   1.8500911e-01  -2.0161980e+07
   1.2537513e-09  -1.1050815e-02   4.3812664e-01   1.8541331e-01  -2.0063036e+07
   1.2564188e-09  -1.0997427e-02   4.3725866e-01   1.8581634e-01  -1.9964601e+07
   1.2590864e-09  -1.0944301e-02   4.3639647e-01   1.8621818e-01  -1.9866671e+07
   1.2617539e-09  -1.0891436e-02   4.3554004e-01   1.8661885e-01  -1.9769243e+07
   1.2644215e-09  -1.0838830e-02   4.3468931e-01   1.8701834e-01  -1.9672315e+07
   1.2670890e-09  -1.0786481e-02   4.3384424e-01   1.8741664e-01  -1.9575884e+07
   1.2697566e-09  -1.0734390e-02   4.3300478e-01   1.8781377e-01  -1.9479946e+07
   1.2724241e-09  -1.0682553e-02   4.3217089e-01   1.8820972e-01  -1.9384499e+07
   1.2750917e-09  -1.0630971e-02   4.3134253e-01   1.8860449e-01  -1.9289540e+07
   1.2777593e-09  -1.0579641e-02   4.3051965e-01   1.8899808e-01  -1.9195067e+07
   1.2804268e-09  -1.0528563e-02   4.2970220e-01   1.8939049e-01  -1.9101076e+07
   1.2830944e-09  -1.0477735e-02   4.2889015e-01   1.8978173e-01  -1.9007564e+07
   1.2857619e-09  -1.0427155e-02   4.2808345e-01   1.9017178e-01  -1.8914530e+07
   1.2884295e-09  -1.0376823e-02   4.2728206e-01   1.9056066e-01  -1.8821970e+07
   1.2910970e-09  -1.0326738e-02   4.2648593e-01   1.9094836e-01  -1.8729882e+07
   1.2937646e-09  -1.0276897e-02   4.2569503e-01   1.9133488e-01  -1.8638263e+07
   1.2964321e-09  -1.0227300e-02   4.2490931e-01   1.9172022e-01  -1.8547110e+07
   1.2990997e-09  -1.0177946e-02   4.2412873e-01   1.9210439e-01  -1.8456420e+07
   1.3017673e-09  -1.0128833e-02   4.2335326e-01   1.9248738e-01  -1.8366192e+07
   1.3044348e-09  -1.0079960e-02   4.2258285e-01   1.9286919e-01  -1.8276422e+07
   1.3071024e-09  -1.0031326e-02   4.2181747e-01   1.9324983e-01  -1.8187108e+07
   1.3097699e-09  -9.9829292e-03   4.2105706e-01   1.9362930e-01  -1.8098247e+07
   1.3124375e-09  -9.9347692e-03   4.2030161e-01   1.9400759e-01  -1.8009837e+07
   1.3151050e-09  -9.8868445e-03   4.1955106e-01   1.9438470e-01  -1.7921875e+07
   1.3177726e-09  -9.8391538e-03   4.1880537e-01   1.9476064e-01  -1.7834359e+07
   1.3204401e-09  -9.7916959e-03   4.1806452e-01   1.9513541e-01  -1.7747286e+07
   1.3231077e-09  -9.7444698e-03   4.1732846e-01   1.9550901e-01  -1.7660654e+07
   1.3257753e-09  -9.6974741e-03   4.1659716e-01   1.9588144e-01  -1.7574460e+07
   1.3284428e-09  -9.6507078e-03   4.1587058e-01   1.9625269e-01  -1.7488702e+07
   1.3311104e-09  -9.6041697e-03   4.1514868e-01   1.9662278e-01  -1.7403377e+07
   1.3337779e-09  -9.5578586e-03   4.1443143e-01   1.9699170e-01  -1.7318484e+07
   1.3364455e-09  -9.5117734e-03   4.1371879e-01   1.9735944e-01  -1.7234018e+07
   1.3391130e-09  -9.4659130e-03   4.1301073e-01   1.9772603e-01  -1.7149980e+07
   1.3417806e-09  -9.4202762e-03   4.1230720e-01   1.9809144e-01  -1.7066364e+07
   1.3444481e-09  -9.3748618e-03   4.1160819e-01   1.9845569e-01  -1.6983171e+07
   1.3471157e-09  -9.3296688e-03   4.1091364e-01   1.9881878e-01  -1.6900396e+07
   1.3497833e-09  -9.2846961e-03   4.1022354e-01   1.9918070e-01  -1.6818039e+07
   1.3524508e-09  -9.2399425e-03   4.0953784e-01   1.9954146e-01  -1.6736096e+07
   1.3551184e-09  -9.1954070e-03   4.0885651e-01   1.9990105e-01  -1.6654565e+07
   1.3577859e-09  -9.1510883e-03   4.0817951e-01   2.0025949e-01  -1.6573445e+07
   1.3604535e-09  -9.1069856e-03   4.0750683e-01   2.0061677e-01  -1.6492732e+07
   1.3631210e-09  -9.0630976e-03   4.0683841e-01   2.0097289e-01  -1.6412425e+07
   1.3657886e-09  -9.0194233e-03   4.0617424e-01   2.0132785e-01  -1.6332521e+07
   1.3684562e-09  -8.9759616e-03   4.0551427e-01   2.0168166e-01  -1.6253018e+07
   1.3711237e-09  -8.9327114e-03   4.0485848e-01   2.0203431e-01  -1.6173914e+07
   1.3737913e-09  -8.8896718e-03   4.0420684e-01   2.0238581e-01  -1.6095207e+07
   1.3764588e-09  -8.8468415e-03   4.0355931e-01   2.0273615e-01  -1.6016894e+07
   1.3791264e-09  -8.8042197e-03   4.0291586e-01   2.0308534e-01  -1.5938974e+07
   1.3817939e-09  -8.7618051e-03   4.0227647e-01   2.0343339e-01  -1.5861444e+07
   1.3844615e-09  -8.7195969e-03   4.0164110e-01   2.0378028e-01  -1.5784302e+07
   1.3871290e-09  -8.6775940e-03   4.0100972e-01   2.0412603e-01  -1.5707547e+07
   1.3897966e-09  -8.6357952e-03   4.0038230e-01   2.0447063e-01  -1.5631175e+07
   1.3924642e-09  -8.5941997e-03   3.9975882e-01   2.0481409e-01  -1.5555186e+07
   1.3951317e-09  -8.5528064e-03   3.9913925e-01   2.0515641e-01  -1.5479576e+07
   1.3977993e-09  -8.5116143e-03   3.9852355e-01   2.0549758e-01  -1.5404344e+07
   1.4004668e-09  -8.4706224e-03   3.9791169e-01   2.0583761e-01  -1.5329487e+07
   1.4031344e-09  -8.4298297e-03   3.9730366e-01   2.0617651e-01  -1.5255005e+07
   1.4058019e-09  -8.3892351e-03   3.9669942e-01   2.0651426e-01  -1.5180894e+07
   1.4084695e-09  -8.3488377e-03   3.9609894e-01   2.0685088e-01  -1.5107153e+07
   1.4111370e-09  -8.3086366e-03   3.9550219e-01   2.0718637e-01  -1.5033779e+07
   1.4138046e-09  -8.2686307e-03   3.9490915e-01   2.0752073e-01  -1.4960772e+07
   1.4164722e-09  -8.2288191e-03   3.9431979e-01   2.0785395e-01  -1.4888128e+07
   1.4191397e-09  -8.1892008e-03   3.9373409e-01   2.0818604e-01  -1.4815846e+07
   1.4218073e-09  -8.1497748e-03   3.9315201e-01   2.0851701e-01  -1.4743924e+07
   1.4244748e-09  -8.1105402e-03   3.9257354e-01   2.0884685e-01  -1.4672359e+07
   1.4271424e-09  -8.0714960e-03   3.9199864e-01   2.0917556e-01  -1.4601151e+07
   1.4298099e-09  -8.0326413e-03   3.9142728e-01   2.0950315e-01  -1.4530297e+07
   1.4324775e-09  -7.9939751e-03   3.9085945e-01   2.0982962e-01  -1.4459796e+07
   1.4351450e-09  -7.9554966e-03   3.9029512e-01   2.1015497e-01  -1.4389645e+07
   1.4378126e-09  -7.9172047e-03   3.8973426e-01   2.1047921e-01  -1.4319842e+07
   1.4404802e-09  -7.8790985e-03   3.8917685e-01   2.1080232e-01  -1.4250386e+07
   1.4431477e-09  -7.8411772e-03   3.8862285e-01   2.1112432e-01  -1.4181275e+07
   1.4458153e-09  -7.8034397e-03   3.8807226e-01   2.1144521e-01  -1.4112507e+07
   1.4484828e-09  -7.7658853e-03   3.8752504e-01   2.1176499e-01  -1.4044080e+07
   1.4511504e-09  -7.7285129e-03   3.8698117e-01   2.1208366e-01  -1.3975992e+07
   1.4538179e-09  -7.6913217e-03   3.8644062e-01   2.1240123e-01  -1.3908242e+07
   1.4564855e-09  -7.6543108e-03   3.8590337e-01   2.1271768e-01  -1.3840828e+07
   1.4591531e-09  -7.6174793e-03   3.8536940e-01   2.1303304e-01  -1.3773748e+07
   1.4618206e-09  -7.5808262e-03   3.8483869e-01   2.1334729e-01  -1.3707000e+07
   1.4644882e-09  -7.5443508e-03   3.8431120e-01   2.1366044e-01  -1.3640583e+07
   1.4671557e-09  -7.5080521e-03   3.8378692e-01   2.1397250e-01  -1.3574495e+07
   1.4698233e-09  -7.4719293e-03   3.8326583e-01   2.1428346e-01  -1.3508733e+07
   1.4724908e-09  -7.4359815e-03   3.8274790e-01   2.1459333e-01  -1.3443297e+07
   1.4751584e-09  -7.4002077e-03   3.8223311e-01   2.1490210e-01  -1.3378185e+07
   1.4778259e-09  -7.3646073e-03   3.8172144e-01   2.1520979e-01  -1.3313394e+07
   1.4804935e-09  -7.3291792e-03   3.8121287e-01   2.1551638e-01  -1.3248924e+07
   1.4831611e-09  -7.2939227e-03   3.8070737e-01   2.1582189e-01  -1.3184772e+07
   1.4858286e-09  -7.2588369e-03   3.8020492e-01   2.1612632e-01  -1.3120938e+07
   1.4884962e-09  -7.2239210e-03   3.7970550e-01   2.1642967e-01  -1.3057418e+07
   1.4911637e-09  -7.1891741e-03   3.7920909e-01   2.1673193e-01  -1.2994212e+07
   1.4938313e-09  -7.1545954e-03   3.7871567e-01   2.1703312e-01  -1.2931318e+07
   1.4964988e-09  -7.1201841e-03   3.7822522e-01   2.1733324e-01  -1.2868734e+07
   1.4991664e-09  -7.0859392e-03   3.7773771e-01   2.1763227e-01  -1.2806459e+07
   1.5018339e-09  -7.0518601e-03   3.7725313e-01   2.1793024e-01  -1.2744492e+07
   1.5045015e-09  -7.0179459e-03   3.7677146e-01   2.1822714e-01  -1.2682829e+07
   1.5071691e-09  -6.9841958e-03   3.7629267e-01   2.1852297e-01  -1.2621471e+07
   1.5098366e-09  -6.9506089e-03   3.7581675e-01   2.1881774e-01  -1.2560415e+07
   1.5125042e-09  -6.9171845e-03   3.7534367e-01   2.1911144e-01  -1.2499659e+07
   1.5151717e-09  -6.8839218e-03   3.7487342e-01   2.1940409e-01  -1.2439203e+07
   1.5178393e-09  -6.8508200e-03   3.7440597e-01   2.1969567e-01  -1.2379044e+07
   1.5205068e-09  -6.8178782e-03   3.7394131e-01   2.1998620e-01  -1.2319182e+07
   1.5231744e-09  -6.7850958e-03   3.7347942e-01   2.2027568e-01  -1.2259614e+07
   1.5258419e-09  -6.7524718e-03   3.7302028e-01   2.2056410e-01  -1.2200339e+07
   1.5285095e-09  -6.7200056e-03   3.7256387e-01   2.2085147e-01  -1.2141356e+07
   1.5311771e-09  -6.6876963e-03   3.7211017e-01   2.2113780e-01  -1.2082663e+07
   1.5338446e-09  -6.6555432e-03   3.7165916e-01   2.2142308e-01  -1.2024258e+07
   1.5365122e-09  -6.6235455e-03   3.7121082e-01   2.2170732e-01  -1.1966140e+07
   1.5391797e-09  -6.5917025e-03   3.7076514e-01   2.2199052e-01  -1.1908308e+07
   1.5418473e-09  -6.5600134e-03   3.7032210e-01   2.2227268e-01  -1.1850760e+07
   1.5445148e-09  -6.5284774e-03   3.6988168e-01   2.2255380e-01  -1.1793495e+07
   1.5471824e-09  -6.4970938e-03   3.6944386e-01   2.2283389e-01  -1.1736510e+07
   1.5498499e-09  -6.4658618e-03   3.6900862e-01   2.2311295e-01  -1.1679806e+07
   1.5525175e-09  -6.4347807e-03   3.6857595e-01   2.2339098e-01  -1.1623380e+07
   1.5551851e-09  -6.4038498e-03   3.6814582e-01   2.2366799e-01  -1.1567230e+07
   1.5578526e-09  -6.3730683e-03   3.6771823e-01   2.2394396e-01  -1.1511356e+07
   1.5605202e-09  -6.3424354e-03   3.6729315e-01   2.2421892e-01  -1.1455756e+07
   1.5631877e-09  -6.3119506e-03   3.6687057e-01   2.2449286e-01  -1.1400429e+07
   1.5658553e-09  -6.2816129e-03   3.6645047e-01   2.2476578e-01  -1.1345373e+07
   1.5685228e-09  -6.2514218e-03   3.6603283e-01   2.2503768e-01  -1.1290586e+07
   1.5711904e-09  -6.2213764e-03   3.6561764e-01   2.2530858e-01  -1.1236068e+07
   1.5738580e-09  -6.1914761e-03   3.6520488e-01   2.2557846e-01  -1.1181818e+07
   1.5765255e-09  -6.1617202e-03   3.6479454e-01   2.2584733e-01  -1.1127832e+07
   1.5791931e-09  -6.1321079e-03   3.6438659e-01   2.2611520e-01  -1.1074112e+07
   1.5818606e-09  -6.1026386e-03   3.6398102e-01   2.2638207e-01  -1.1020654e+07
   1.5845282e-09  -6.0733115e-03   3.6357782e-01   2.2664794e-01  -1.0967458e+07
   1.5871957e-09  -6.0441260e-03   3.6317697e-01   2.2691281e-01  -1.0914522e+07
   1.5898633e-09  -6.0150814e-03   3.6277846e-01   2.2717668e-01  -1.0861845e+07
   1.5925308e-09  -5.9861769e-03   3.6238226e-01   2.2743956e-01  -1.0809426e+07
   1.5951984e-09  -5.9574119e-03   3.6198837e-01   2.2770145e-01  -1.0757264e+07
   1.5978660e-09  -5.9287858e-03   3.6159676e-01   2.2796235e-01  -1.0705356e+07
   1.6005335e-09  -5.9002977e-03   3.6120743e-01   2.2822226e-01  -1.0653702e+07
   1.6032011e-09  -5.8719471e-03   3.6082035e-01   2.2848119e-01  -1.0602301e+07
   1.6058686e-09  -5.8437333e-03   3.6043552e-01   2.2873914e-01  -1.0551150e+07
   1.6085362e-09  -5.8156556e-03   3.6005291e-01   2.2899611e-01  -1.0500250e+07
   1.6112037e-09  -5.7877134e-03   3.5967252e-01   2.2925211e-01  -1.0449598e+07
   1.6138713e-09  -5.7599059e-03   3.5929433e-01   2.2950713e-01  -1.0399194e+07
   1.6165388e-09  -5.7322326e-03   3.5891832e-01   2.2976119e-01  -1.0349036e+07
   1.6192064e-09  -5.7046927e-03   3.5854448e-01   2.3001427e-01  -1.0299123e+07
   1.6218740e-09  -5.6772857e-03   3.5817279e-01   2.3026639e-01  -1.0249453e+07
   1.6245415e-09  -5.6500108e-03   3.5780325e-01   2.3051754e-01  -1.0200026e+07
   1.6272091e-09  -5.6228675e-03   3.5743583e-01   2.3076773e-01  -1.0150840e+07
   1.6298766e-09  -5.5958550e-03   3.5707053e-01   2.3101697e-01  -1.0101894e+07
   1.6325442e-09  -5.5689728e-03   3.5670732e-01   2.3126525e-01  -1.0053187e+07
   1.6352117e-09  -5.5422202e-03   3.5634621e-01   2.3151258e-01  -1.0004717e+07
   1.6378793e-09  -5.5155966e-03   3.5598716e-01   2.3175895e-01  -9.9564841e+06
   1.6405468e-09  -5.4891013e-03   3.5563017e-01   2.3200438e-01  -9.9084860e+06
   1.6432144e-09  -5.4627338e-03   3.5527523e-01   2.3224886e-01  -9.8607219e+06
   1.6458820e-09  -5.4364934e-03   3.5492231e-01   2.3249240e-01  -9.8131905e+06
   1.6485495e-09  -5.4103794e-03   3.5457142e-01   2.3273500e-01  -9.7658908e+06
   1.6512171e-09  -5.3843913e-03   3.5422253e-01   2.3297665e-01  -9.7188215e+06
   1.6538846e-09  -5.3585285e-03   3.5387563e-01   2.3321738e-01  -9.6719816e+06
   1.6565522e-09  -5.3327903e-03   3.5353072e-01   2.3345717e-01  -9.6253698e+06
   1.6592197e-09  -5.3071762e-03   3.5318777e-01   2.3369603e-01  -9.5789850e+06
   1.6618873e-09  -5.2816855e-03   3.5284677e-01   2.3393397e-01  -9.5328260e+06
   1.6645549e-09  -5.2563176e-03   3.5250772e-01   2.3417097e-01  -9.4868918e+06
   1.6672224e-09  -5.2310719e-03   3.5217059e-01   2.3440706e-01  -9.4411812e+06
   1.6698900e-09  -5.2059479e-03   3.5183538e-01   2.3464222e-01  -9.3956931e+06
   1.6725575e-09  -5.1809450e-03   3.5150207e-01   2.3487647e-01  -9.3504263e+06
   1.6752251e-09  -5.1560625e-03   3.5117066e-01   2.3510981e-01  -9.3053798e+06
   1.6778926e-09  -5.1312998e-03   3.5084112e-01   2.3534223e-01  -9.2605524e+06
   1.6805602e-09  -5.1066565e-03   3.5051345e-01   2.3557374e-01  -9.2159430e+06
   1.6832277e-09  -5.0821318e-03   3.5018764e-01   2.3580434e-01  -9.1715507e+06
   1.6858953e-09  -5.0577253e-03   3.4986367e-01   2.3603404e-01  -9.1273742e+06
   1.6885629e-09  -5.0334364e-03   3.4954154e-01   2.3626284e-01  -9.0834124e+06
   1.6912304e-09  -5.0092644e-03   3.4922122e-01   2.3649074e-01  -9.0396644e+06
   1.6938980e-09  -4.9852089e-03   3.4890271e-01   2.3671774e-01  -8.9961291e+06
   1.6965655e-09  -4.9612692e-03   3.4858600e-01   2.3694385e-01  -8.9528053e+06
   1.6992331e-09  -4.9374448e-03   3.4827107e-01   2.3716907e-01  -8.9096921e+06
   1.7019006e-09  -4.9137351e-03   3.4795792e-01   2.3739339e-01  -8.8667883e+06
   1.7045682e-09  -4.8901396e-03   3.4764653e-01   2.3761683e-01  -8.8240930e+06
   1.7072357e-09  -4.8666577e-03   3.4733690e-01   2.3783939e-01  -8.7816050e+06
   1.7099033e-09  -4.8432889e-03   3.4702900e-01   2.3806107e-01  -8.7393235e+06
   1.7125709e-09  -4.8200326e-03   3.4672284e-01   2.3828187e-01  -8.6972472e+06
   1.7152384e-09  -4.7968882e-03   3.4641839e-01   2.3850179e-01  -8.6553753e+06
   1.7179060e-09  -4.7738553e-03   3.4611565e-01   2.3872084e-01  -8.6137066e+06
   1.7205735e-09  -4.7509333e-03   3.4581461e-01   2.3893901e-01  -8.5722402e+06
   1.7232411e-09  -4.7281216e-03   3.4551525e-01   2.3915632e-01  -8.5309751e+06
   1.7259086e-09  -4.7054197e-03   3.4521757e-01   2.3937277e-01  -8.4899102e+06
   1.7285762e-09  -4.6828271e-03   3.4492155e-01   2.3958835e-01  -8.4490447e+06
   1.7312437e-09  -4.6603432e-03   3.4462719e-01   2.3980307e-01  -8.4083774e+06
   1.7339113e-09  -4.6379676e-03   3.4433448e-01   2.4001693e-01  -8.3679073e+06
   1.7365789e-09  -4.6156996e-03   3.4404340e-01   2.4022994e-01  -8.3276336e+06
   1.7392464e-09  -4.5935389e-03   3.4375394e-01   2.4044210e-01  -8.2875553e+06
   1.7419140e-09  -4.5714848e-03   3.4346610e-01   2.4065341e-01  -8.2476713e+06
   1.7445815e-09  -4.5495368e-03   3.4317986e-01   2.4086387e-01  -8.2079807e+06
   1.7472491e-09  -4.5276944e-03   3.4289521e-01   2.4107348e-01  -8.1684826e+06
   1.7499166e-09  -4.5059571e-03   3.4261215e-01   2.4128225e-01  -8.1291759e+06
   1.7525842e-09  -4.4843245e-03   3.4233066e-01   2.4149019e-01  -8.0900598e+06
   1.7552518e-09  -4.4627959e-03   3.4205073e-01   2.4169728e-01  -8.0511333e+06
   1.7579193e-09  -4.4413709e-03   3.4177236e-01   2.4190355e-01  -8.0123954e+06
   1.7605869e-09  -4.4200490e-03   3.4149554e-01   2.4210898e-01  -7.9738452e+06
   1.7632544e-09  -4.3988297e-03   3.4122024e-01   2.4231358e-01  -7.9354819e+06
   1.7659220e-09  -4.3777125e-03   3.4094648e-01   2.4251735e-01  -7.8973044e+06
   1.7685895e-09  -4.3566969e-03   3.4067423e-01   2.4272031e-01  -7.8593118e+06
   1.7712571e-09  -4.3357824e-03   3.4040349e-01   2.4292244e-01  -7.8215033e+06
   1.7739246e-09  -4.3149684e-03   3.4013424e-01   2.4312375e-01  -7.7838779e+06
   1.7765922e-09  -4.2942546e-03   3.3986649e-01   2.4332425e-01  -7.7464348e+06
   1.7792598e-09  -4.2736405e-03   3.3960021e-01   2.4352393e-01  -7.7091729e+06
   1.7819273e-09  -4.2531255e-03   3.3933540e-01   2.4372280e-01  -7.6720915e+06
   1.7845949e-09  -4.2327092e-03   3.3907206e-01   2.4392086e-01  -7.6351895e+06
   1.7872624e-09  -4.2123911e-03   3.3881016e-01   2.4411812e-01  -7.5984663e+06
   1.7899300e-09  -4.1921707e-03   3.3854971e-01   2.4431458e-01  -7.5619207e+06
   1.7925975e-09  -4.1720475e-03   3.3829069e-01   2.4451023e-01  -7.5255521e+06
   1.7952651e-09  -4.1520212e-03   3.3803310e-01   2.4470509e-01  -7.4893595e+06
   1.7979326e-09  -4.1320911e-03   3.3777693e-01   2.4489915e-01  -7.4533420e+06
   1.8006002e-09  -4.1122569e-03   3.3752216e-01   2.4509242e-01  -7.4174987e+06
   1.8032678e-09  -4.0925181e-03   3.3726879e-01   2.4528490e-01  -7.3818289e+06
   1.8059353e-09  -4.0728742e-03   3.3701681e-01   2.4547660e-01  -7.3463317e+06
   1.8086029e-09  -4.0533248e-03   3.3676622e-01   2.4566750e-01  -7.3110062e+06
   1.8112704e-09  -4.0338693e-03   3.3651700e-01   2.4585763e-01  -7.2758515e+06
   1.8139380e-09  -4.0145075e-03   3.3626914e-01   2.4604697e-01  -7.2408669e+06
   1.8166055e-09  -3.9952387e-03   3.3602265e-01   2.4623554e-01  -7.2060514e+06
   1.8192731e-09  -3.9760625e-03   3.3577750e-01   2.4642334e-01  -7.1714043e+06
   1.8219406e-09  -3.9569786e-03   3.3553369e-01   2.4661036e-01  -7.1369248e+06
   1.8246082e-09  -3.9379864e-03   3.3529122e-01   2.4679661e-01  -7.1026119e+06
   1.8272758e-09  -3.9190856e-03   3.3505007e-01   2.4698209e-01  -7.0684649e+06
   1.8299433e-09  -3.9002755e-03   3.3481023e-01   2.4716682e-01  -7.0344830e+06
   1.8326109e-09  -3.8815560e-03   3.3457171e-01   2.4735077e-01  -7.0006653e+06
   1.8352784e-09  -3.8629264e-03   3.3433448e-01   2.4753397e-01  -6.9670111e+06
   1.8379460e-09  -3.8443864e-03   3.3409855e-01   2.4771642e-01  -6.9335195e+06
   1.8406135e-09  -3.8259355e-03   3.3386391e-01   2.4789811e-01  -6.9001898e+06
   1.8432811e-09  -3.8075733e-03   3.3363054e-01   2.4807904e-01  -6.8670211e+06
   1.8459486e-09  -3.7892993e-03   3.3339844e-01   2.4825923e-01  -6.8340127e+06
   1.8486162e-09  -3.7711132e-03   3.3316760e-01   2.4843868e-01  -6.8011637e+06
   1.8512838e-09  -3.7530145e-03   3.3293802e-01   2.4861737e-01  -6.7684735e+06
   1.8539513e-09  -3.7350028e-03   3.3270969e-01   2.4879533e-01  -6.7359411e+06
   1.8566189e-09  -3.7170777e-03   3.3248259e-01   2.4897255e-01  -6.7035659e+06
   1.8592864e-09  -3.6992387e-03   3.3225673e-01   2.4914903e-01  -6.6713470e+06
   1.8619540e-09  -3.6814855e-03   3.3203209e-01   2.4932478e-01  -6.6392838e+06
   1.8646215e-09  -3.6638176e-03   3.3180867e-01   2.4949979e-01  -6.6073754e+06
   1.8672891e-09  -3.6462346e-03   3.3158646e-01   2.4967408e-01  -6.5756210e+06
   1.8699567e-09  -3.6287361e-03   3.3136545e-01   2.4984764e-01  -6.5440200e+06
   1.8726242e-09  -3.6113217e-03   3.3114564e-01   2.5002048e-01  -6.5125716e+06
   1.8752918e-09  -3.5939910e-03   3.3092702e-01   2.5019259e-01  -6.4812749e+06
   1.8779593e-09  -3.5767436e-03   3.3070957e-01   2.5036399e-01  -6.4501294e+06
   1.8806269e-09  -3.5595790e-03   3.3049331e-01   2.5053467e-01  -6.4191342e+06
   1.8832944e-09  -3.5424970e-03   3.3027821e-01   2.5070464e-01  -6.3882886e+06
   1.8859620e-09  -3.5254970e-03   3.3006427e-01   2.5087390e-01  -6.3575919e+06
   1.8886295e-09  -3.5085787e-03   3.2985148e-01   2.5104244e-01  -6.3270433e+06
   1.8912971e-09  -3.4917417e-03   3.2963984e-01   2.5121028e-01  -6.2966421e+06
   1.8939647e-09  -3.4749856e-03   3.2942935e-01   2.5137742e-01  -6.2663877e+06
   1.8966322e-09  -3.4583100e-03   3.2921998e-01   2.5154385e-01  -6.2362792e+06
   1.8992998e-09  -3.4417145e-03   3.2901174e-01   2.5170959e-01  -6.2063160e+06
   1.9019673e-09  -3.4251988e-03   3.2880463e-01   2.5187463e-01  -6.1764973e+06
   1.9046349e-09  -3.4087624e-03   3.2859862e-01   2.5203898e-01  -6.1468225e+06
   1.9073024e-09  -3.3924050e-03   3.2839372e-01   2.5220263e-01  -6.1172908e+06
   1.9099700e-09  -3.3761262e-03   3.2818993e-01   2.5236559e-01  -6.0879016e+06
   1.9126375e-09  -3.3599255e-03   3.2798722e-01   2.5252787e-01  -6.0586542e+06
   1.9153051e-09  -3.3438028e-03   3.2778561e-01   2.5268947e-01  -6.0295478e+06
   1.9179727e-09  -3.3277574e-03   3.2758507e-01   2.5285038e-01  -6.0005818e+06
   1.9206402e-09  -3.3117892e-03   3.2738561e-01   2.5301061e-01  -5.9717554e+06
   1.9233078e-09  -3.2958976e-03   3.2718722e-01   2.5317017e-01  -5.9430681e+06
   1.9259753e-09  -3.2800824e-03   3.2698989e-01   2.5332905e-01  -5.9145191e+06
   1.9286429e-09  -3.2643432e-03   3.2679362e-01   2.5348726e-01  -5.8861077e+06
   1.9313104e-09  -3.2486796e-03   3.2659839e-01   2.5364480e-01  -5.8578333e+06
   1.9339780e-09  -3.2330912e-03   3.2640421e-01   2.5380167e-01  -5.8296953e+06
   1.9366455e-09  -3.2175777e-03   3.2621107e-01   2.5395788e-01  -5.8016928e+06
   1.9393131e-09  -3.2021387e-03   3.2601896e-01   2.5411342e-01  -5.7738254e+06
   1.9419807e-09  -3.1867739e-03   3.2582787e-01   2.5426831e-01  -5.7460923e+06
   1.9446482e-09  -3.1714829e-03   3.2563781e-01   2.5442254e-01  -5.7184929e+06
   1.9473158e-09  -3.1562653e-03   3.2544876e-01   2.5457611e-01  -5.6910265e+06
   1.9499833e-09  -3.1411208e-03   3.2526071e-01   2.5472903e-01  -5.6636924e+06
   1.9526509e-09  -3.1260491e-03   3.2507367e-01   2.5488130e-01  -5.6364901e+06
   1.9553184e-09  -3.1110497e-03   3.2488762e-01   2.5503292e-01  -5.6094189e+06
   1.9579860e-09  -3.0961224e-03   3.2470257e-01   2.5518389e-01  -5.5824781e+06
   1.9606536e-09  -3.0812668e-03   3.2451849e-01   2.5533422e-01  -5.5556672e+06
   1.9633211e-09  -3.0664825e-03   3.2433540e-01   2.5548391e-01  -5.5289854e+06
   1.9659887e-09  -3.0517692e-03   3.2415328e-01   2.5563297e-01  -5.5024322e+06
   1.9686562e-09  -3.0371266e-03   3.2397213e-01   2.5578138e-01  -5.4760069e+06
   1.9713238e-09  -3.0225543e-03   3.2379194e-01   2.5592916e-01  -5.4497089e+06
   1.9739913e-09  -3.0080520e-03   3.2361270e-01   2.5607631e-01  -5.4235375e+06
   1.9766589e-09  -2.9936193e-03   3.2343442e-01   2.5622283e-01  -5.3974923e+06
   1.9793264e-09  -2.9792559e-03   3.2325708e-01   2.5636873e-01  -5.3715725e+06
   1.9819940e-09  -2.9649616e-03   3.2308068e-01   2.5651400e-01  -5.3457776e+06
   1.9846616e-09  -2.9507358e-03   3.2290522e-01   2.5665864e-01  -5.3201069e+06
   1.9873291e-09  -2.9365784e-03   3.2273068e-01   2.5680267e-01  -5.2945598e+06
   1.9899967e-09  -2.9224890e-03   3.2255707e-01   2.5694608e-01  -5.2691358e+06
   1.9926642e-09  -2.9084672e-03   3.2238438e-01   2.5708887e-01  -5.2438342e+06
   1.9953318e-09  -2.8945127e-03   3.2221260e-01   2.5723105e-01  -5.2186544e+06
   1.9979993e-09  -2.8806253e-03   3.2204173e-01   2.5737262e-01  -5.1935959e+06
   2.0006669e-09  -2.8668045e-03   3.2187176e-01   2.5751358e-01  -5.1686580e+06
   2.0033344e-09  -2.8530501e-03   3.2170269e-01   2.5765393e-01  -5.1438402e+06
   2.0060020e-09  -2.8393617e-03   3.2153451e-01   2.5779368e-01  -5.1191419e+06
   2.0086696e-09  -2.8257391e-03   3.2136722e-01   2.5793283e-01  -5.0945626e+06
   2.0113371e-09  -2.8121819e-03   3.2120081e-01   2.5807138e-01  -5.0701015e+06
   2.0140047e-09  -2.7986897e-03   3.2103528e-01   2.5820933e-01  -5.0457582e+06
   2.0166722e-09  -2.7852624e-03   3.2087062e-01   2.5834669e-01  -5.0215321e+06
   2.0193398e-09  -2.7718995e-03   3.2070683e-01   2.5848346e-01  -4.9974226e+06
   2.0220073e-09  -2.7586008e-03   3.2054390e-01   2.5861963e-01  -4.9734291e+06
   2.0246749e-09  -2.7453659e-03   3.2038183e-01   2.5875522e-01  -4.9495512e+06
   2.0273424e-09  -2.7321946e-03   3.2022061e-01   2.5889022e-01  -4.9257882e+06
   2.0300100e-09  -2.7190865e-03   3.2006024e-01   2.5902463e-01  -4.9021395e+06
   2.0326776e-09  -2.7060413e-03   3.1990071e-01   2.5915847e-01  -4.8786046e+06
   2.0353451e-09  -2.6930588e-03   3.1974202e-01   2.5929172e-01  -4.8551831e+06
   2.0380127e-09  -2.6801386e-03   3.1958416e-01   2.5942440e-01  -4.8318742e+06
   2.0406802e-09  -2.6672804e-03   3.1942713e-01   2.5955650e-01  -4.8086775e+06
   2.0433478e-09  -2.6544839e-03   3.1927092e-01   2.5968803e-01  -4.7855924e+06
   2.0460153e-09  -2.6417489e-03   3.1911554e-01   2.5981899e-01  -4.7626184e+06
   2.0486829e-09  -2.6290750e-03   3.1896097e-01   2.5994938e-01  -4.7397549e+06
   2.0513505e-09  -2.6164620e-03   3.1880721e-01   2.6007921e-01  -4.7170015e+06
   2.0540180e-09  -2.6039095e-03   3.1865425e-01   2.6020847e-01  -4.6943575e+06
   2.0566856e-09  -2.5914173e-03   3.1850210e-01   2.6033717e-01  -4.6718225e+06
   2.0593531e-09  -2.5789850e-03   3.1835074e-01   2.6046531e-01  -4.6493958e+06
   2.0620207e-09  -2.5666124e-03   3.1820017e-01   2.6059289e-01  -4.6270771e+06
   2.0646882e-09  -2.5542992e-03   3.1805039e-01   2.6071992e-01  -4.6048657e+06
   2.0673558e-09  -2.5420452e-03   3.1790140e-01   2.6084640e-01  -4.5827612e+06
   2.0700233e-09  -2.5298499e-03   3.1775318e-01   2.6097232e-01  -4.5607630e+06
   2.0726909e-09  -2.5177132e-03   3.1760574e-01   2.6109769e-01  -4.5388707e+06
   2.0753585e-09  -2.5056347e-03   3.1745907e-01   2.6122252e-01  -4.5170836e+06
   2.0780260e-09  -2.4936142e-03   3.1731316e-01   2.6134680e-01  -4.4954013e+06
   2.0806936e-09  -2.4816514e-03   3.1716801e-01   2.6147054e-01  -4.4738233e+06
   2.0833611e-09  -2.4697461e-03   3.1702363e-01   2.6159374e-01  -4.4523491e+06
   2.0860287e-09  -2.4578979e-03   3.1687999e-01   2.6171640e-01  -4.4309782e+06
   2.0886962e-09  -2.4461065e-03   3.1673710e-01   2.6183853e-01  -4.4097100e+06
   2.0913638e-09  -2.4343718e-03   3.1659496e-01   2.6196012e-01  -4.3885441e+06
   2.0940313e-09  -2.4226933e-03   3.1645356e-01   2.6208118e-01  -4.3674801e+06
   2.0966989e-09  -2.4110710e-03   3.1631289e-01   2.6220171e-01  -4.3465173e+06
   2.0993665e-09  -2.3995044e-03   3.1617295e-01   2.6232171e-01  -4.3256553e+06
   2.1020340e-09  -2.3879933e-03   3.1603375e-01   2.6244119e-01  -4.3048936e+06
   2.1047016e-09  -2.3765375e-03   3.1589526e-01   2.6256014e-01  -4.2842317e+06
   2.1073691e-09  -2.3651367e-03   3.1575750e-01   2.6267857e-01  -4.2636692e+06
   2.1100367e-09  -2.3537905e-03   3.1562045e-01   2.6279648e-01  -4.2432056e+06
   2.1127042e-09  -2.3424989e-03   3.1548412e-01   2.6291387e-01  -4.2228403e+06
   2.1153718e-09  -2.3312614e-03   3.1534849e-01   2.6303075e-01  -4.2025730e+06
   2.1180393e-09  -2.3200779e-03   3.1521357e-01   2.6314712e-01  -4.1824031e+06
   2.1207069e-09  -2.3089480e-03   3.1507934e-01   2.6326297e-01  -4.1623302e+06
   2.1233745e-09  -2.2978716e-03   3.1494582e-01   2.6337831e-01  -4.1423537e+06
   2.1260420e-09  -2.2868483e-03   3.1481298e-01   2.6349315e-01  -4.1224733e+06
   2.1287096e-09  -2.2758779e-03   3.1468083e-01   2.6360748e-01  -4.1026885e+06
   2.1313771e-09  -2.2649602e-03   3.1454937e-01   2.6372131e-01  -4.0829988e+06
   2.1340447e-09  -2.2540949e-03   3.1441859e-01   2.6383463e-01  -4.0634037e+06
   2.1367122e-09  -2.2432817e-03   3.1428849e-01   2.6394746e-01  -4.0439028e+06
   2.1393798e-09  -2.2325204e-03   3.1415905e-01   2.6405979e-01  -4.0244957e+06
   2.1420473e-09  -2.2218107e-03   3.1403029e-01   2.6417162e-01  -4.0051818e+06
   2.1447149e-09  -2.2111525e-03   3.1390220e-01   2.6428296e-01  -3.9859608e+06
   2.1473825e-09  -2.2005454e-03   3.1377476e-01   2.6439381e-01  -3.9668321e+06
   2.1500500e-09  -2.1899892e-03   3.1364799e-01   2.6450417e-01  -3.9477954e+06
   2.1527176e-09  -2.1794837e-03   3.1352187e-01   2.6461404e-01  -3.9288502e+06
   2.1553851e-09  -2.1690285e-03   3.1339640e-01   2.6472343e-01  -3.9099960e+06
   2.1580527e-09  -2.1586236e-03   3.1327158e-01   2.6483233e-01  -3.8912324e+06
   2.1607202e-09  -2.1482686e-03   3.1314740e-01   2.6494076e-01  -3.8725590e+06
   2.1633878e-09  -2.1379632e-03   3.1302387e-01   2.6504870e-01  -3.8539754e+06
   2.1660554e-09  -2.1277074e-03   3.1290097e-01   2.6515616e-01  -3.8354810e+06
   2.1687229e-09  -2.1175007e-03   3.1277871e-01   2.6526315e-01  -3.8170755e+06
   2.1713905e-09  -2.1073430e-03   3.1265707e-01   2.6536966e-01  -3.7987585e+06
   2.1740580e-09  -2.0972341e-03   3.1253606e-01   2.6547570e-01  -3.7805295e+06
   2.1767256e-09  -2.0871737e-03   3.1241568e-01   2.6558128e-01  -3.7623881e+06
   2.1793931e-09  -2.0771615e-03   3.1229591e-01   2.6568638e-01  -3.7443338e+06
   2.1820607e-09  -2.0671974e-03   3.1217676e-01   2.6579102e-01  -3.7263663e+06
   2.1847282e-09  -2.0572811e-03   3.1205823e-01   2.6589519e-01  -3.7084851e+06
   2.1873958e-09  -2.0474124e-03   3.1194030e-01   2.6599890e-01  -3.6906898e+06
   2.1900634e-09  -2.0375911e-03   3.1182298e-01   2.6610215e-01  -3.6729801e+06
   2.1927309e-09  -2.0278169e-03   3.1170627e-01   2.6620494e-01  -3.6553554e+06
   2.1953985e-09  -2.0180896e-03   3.1159015e-01   2.6630727e-01  -3.6378154e+06
   2.1980660e-09  -2.0084089e-03   3.1147463e-01   2.6640915e-01  -3.6203597e+06
   2.2007336e-09  -1.9987747e-03   3.1135970e-01   2.6651058e-01  -3.6029878e+06
   2.2034011e-09  -1.9891868e-03   3.1124537e-01   2.6661155e-01  -3.5856994e+06
   2.2060687e-09  -1.9796448e-03   3.1113162e-01   2.6671208e-01  -3.5684940e+06
   2.2087362e-09  -1.9701486e-03   3.1101845e-01   2.6681215e-01  -3.5513713e+06
   2.2114038e-09  -1.9606980e-03   3.1090586e-01   2.6691179e-01  -3.5343308e+06
   2.2140714e-09  -1.9512928e-03   3.1079385e-01   2.6701097e-01  -3.5173722e+06
   2.2167389e-09  -1.9419326e-03   3.1068242e-01   2.6710972e-01  -3.5004951e+06
   2.2194065e-09  -1.9326174e-03   3.1057156e-01   2.6720802e-01  -3.4836990e+06
   2.2220740e-09  -1.9233469e-03   3.1046126e-01   2.6730589e-01  -3.4669836e+06
   2.2247416e-09  -1.9141209e-03   3.1035153e-01   2.6740332e-01  -3.4503485e+06
   2.2274091e-09  -1.9049391e-03   3.1024236e-01   2.6750031e-01  -3.4337933e+06
   2.2300767e-09  -1.8958014e-03   3.1013375e-01   2.6759687e-01  -3.4173177e+06
   2.2327442e-09  -1.8867075e-03   3.1002570e-01   2.6769300e-01  -3.4009211e+06
   2.2354118e-09  -1.8776573e-03   3.0991819e-01   2.6778870e-01  -3.3846033e+06
   2.2380794e-09  -1.8686504e-03   3.0981124e-01   2.6788397e-01  -3.3683639e+06
   2.2407469e-09  -1.8596868e-03   3.0970484e-01   2.6797882e-01  -3.3522025e+06
   2.2434145e-09  -1.8507663e-03   3.0959897e-01   2.6807324e-01  -3.3361187e+06
   2.2460820e-09  -1.8418885e-03   3.0949365e-01   2.6816724e-01  -3.3201122e+06
   2.2487496e-09  -1.8330533e-03   3.0938887e-01   2.6826081e-01  -3.3041825e+06
   2.2514171e-09  -1.8242605e-03   3.0928462e-01   2.6835397e-01  -3.2883293e+06
   2.2540847e-09  -1.8155098e-03   3.0918091e-01   2.6844671e-01  -3.2725523e+06
   2.2567523e-09  -1.8068012e-03   3.0907772e-01   2.6853904e-01  -3.2568510e+06
   2.2594198e-09  -1.7981344e-03   3.0897506e-01   2.6863095e-01  -3.2412251e+06
   2.2620874e-09  -1.7895091e-03   3.0887292e-01   2.6872245e-01  -3.2256743e+06
   2.2647549e-09  -1.7809252e-03   3.0877131e-01   2.6881354e-01  -3.2101981e+06
   2.2674225e-09  -1.7723825e-03   3.0867021e-01   2.6890422e-01  -3.1947963e+06
   2.2700900e-09  -1.7638808e-03   3.0856963e-01   2.6899449e-01  -3.1794684e+06
   2.2727576e-09  -1.7554199e-03   3.0846955e-01   2.6908436e-01  -3.1642141e+06
   2.2754251e-09  -1.7469995e-03   3.0836999e-01   2.6917382e-01  -3.1490331e+06
   2.2780927e-09  -1.7386196e-03   3.0827094e-01   2.6926289e-01  -3.1339250e+06
   2.2807603e-09  -1.7302799e-03   3.0817239e-01   2.6935155e-01  -3.1188894e+06
   2.2834278e-09  -1.7219802e-03   3.0807434e-01   2.6943981e-01  -3.1039260e+06
   2.2860954e-09  -1.7137203e-03   3.0797679e-01   2.6952767e-01  -3.0890345e+06
   2.2887629e-09  -1.7055000e-03   3.0787974e-01   2.6961515e-01  -3.0742145e+06
   2.2914305e-09  -1.6973191e-03   3.0778318e-01   2.6970222e-01  -3.0594656e+06
   2.2940980e-09  -1.6891776e-03   3.0768711e-01   2.6978891e-01  -3.0447875e+06
   2.2967656e-09  -1.6810750e-03   3.0759153e-01   2.6987520e-01  -3.0301800e+06
   2.2994331e-09  -1.6730114e-03   3.0749643e-01   2.6996111e-01  -3.0156425e+06
   2.3021007e-09  -1.6649864e-03   3.0740182e-01   2.7004662e-01  -3.0011749e+06
   2.3047683e-09  -1.6570000e-03   3.0730769e-01   2.7013176e-01  -2.9867767e+06
   2.3074358e-09  -1.6490518e-03   3.0721403e-01   2.7021651e-01  -2.9724476e+06
   2.3101034e-09  -1.6411418e-03   3.0712085e-01   2.7030087e-01  -2.9581873e+06
   2.3127709e-09  -1.6332697e-03   3.0702815e-01   2.7038486e-01  -2.9439955e+06
   2.3154385e-09  -1.6254354e-03   3.0693591e-01   2.7046846e-01  -2.9298719e+06
   2.3181060e-09  -1.6176387e-03   3.0684414e-01   2.7055169e-01  -2.9158160e+06
   2.3207736e-09  -1.6098794e-03   3.0675284e-01   2.7063455e-01  -2.9018276e+06
   2.3234411e-09  -1.6021573e-03   3.0666200e-01   2.7071703e-01  -2.8879064e+06
   2.3261087e-09  -1.5944722e-03   3.0657162e-01   2.7079913e-01  -2.8740520e+06
   2.3287763e-09  -1.5868241e-03   3.0648170e-01   2.7088087e-01  -2.8602641e+06
   2.3314438e-09  -1.5792126e-03   3.0639223e-01   2.7096223e-01  -2.8465424e+06
   2.3341114e-09  -1.5716376e-03   3.0630322e-01   2.7104323e-01  -2.8328866e+06
   2.3367789e-09  -1.5640990e-03   3.0621465e-01   2.7112386e-01  -2.8192963e+06
   2.3394465e-09  -1.5565965e-03   3.0612654e-01   2.7120413e-01  -2.8057712e+06
   2.3421140e-09  -1.5491301e-03   3.0603887e-01   2.7128403e-01  -2.7923111e+06
   2.3447816e-09  -1.5416994e-03   3.0595164e-01   2.7136357e-01  -2.7789156e+06
   2.3474491e-09  -1.5343044e-03   3.0586486e-01   2.7144276e-01  -2.7655844e+06
   2.3501167e-09  -1.5269449e-03   3.0577851e-01   2.7152158e-01  -2.7523172e+06
   2.3527843e-09  -1.5196206e-03   3.0569260e-01   2.7160004e-01  -2.7391137e+06
   2.3554518e-09  -1.5123315e-03   3.0560712e-01   2.7167815e-01  -2.7259736e+06
   2.3581194e-09  -1.5050774e-03   3.0552208e-01   2.7175591e-01  -2.7128965e+06
   2.3607869e-09  -1.4978581e-03   3.0543747e-01   2.7183331e-01  -2.6998822e+06
   2.3634545e-09  -1.4906734e-03   3.0535328e-01   2.7191036e-01  -2.6869304e+06
   2.3661220e-09  -1.4835232e-03   3.0526952e-01   2.7198706e-01  -2.6740407e+06
   2.3687896e-09  -1.4764073e-03   3.0518618e-01   2.7206342e-01  -2.6612129e+06
   2.3714572e-09  -1.4693255e-03   3.0510326e-01   2.7213942e-01  -2.6484467e+06
   2.3741247e-09  -1.4622777e-03   3.0502076e-01   2.7221508e-01  -2.6357417e+06
   2.3767923e-09  -1.4552637e-03   3.0493867e-01   2.7229040e-01  -2.6230978e+06
   2.3794598e-09  -1.4482833e-03   3.0485700e-01   2.7236538e-01  -2.6105145e+06
   2.3821274e-09  -1.4413364e-03   3.0477574e-01   2.7244001e-01  -2.5979916e+06
   2.3847949e-09  -1.4344229e-03   3.0469489e-01   2.7251431e-01  -2.5855288e+06
   2.3874625e-09  -1.4275425e-03   3.0461445e-01   2.7258827e-01  -2.5731259e+06
   2.3901300e-09  -1.4206951e-03   3.0453441e-01   2.7266189e-01  -2.5607824e+06
   2.3927976e-09  -1.4138806e-03   3.0445478e-01   2.7273517e-01  -2.5484982e+06
   2.3954652e-09  -1.4070988e-03   3.0437554e-01   2.7280813e-01  -2.5362730e+06
   2.3981327e-09  -1.4003495e-03   3.0429671e-01   2.7288075e-01  -2.5241064e+06
   2.4008003e-09  -1.3936325e-03   3.0421827e-01   2.7295304e-01  -2.5119982e+06
   2.4034678e-09  -1.3869478e-03   3.0414023e-01   2.7302500e-01  -2.4999482e+06
   2.4061354e-09  -1.3802952e-03   3.0406258e-01   2.7309663e-01  -2.4879559e+06
   2.4088029e-09  -1.3736745e-03   3.0398532e-01   2.7316794e-01  -2.4760213e+06
   2.4114705e-09  -1.3670855e-03   3.0390845e-01   2.7323892e-01  -2.4641438e+06
   2.4141380e-09  -1.3605281e-03   3.0383196e-01   2.7330958e-01  -2.4523234e+06
   2.4168056e-09  -1.3540022e-03   3.0375586e-01   2.7337991e-01  -2.4405598e+06
   2.4194732e-09  -1.3475076e-03   3.0368014e-01   2.7344993e-01  -2.4288525e+06
   2.4221407e-09  -1.3410442e-03   3.0360481e-01   2.7351962e-01  -2.4172015e+06
   2.4248083e-09  -1.3346117e-03   3.0352985e-01   2.7358900e-01  -2.4056064e+06
   2.4274758e-09  -1.3282101e-03   3.0345526e-01   2.7365806e-01  -2.3940669e+06
   2.4301434e-09  -1.3218393e-03   3.0338106e-01   2.7372680e-01  -2.3825828e+06
   2.4328109e-09  -1.3154989e-03   3.0330722e-01   2.7379523e-01  -2.3711538e+06
   2.4354785e-09  -1.3091890e-03   3.0323375e-01   2.7386335e-01  -2.3597796e+06
   2.4381460e-09  -1.3029094e-03   3.0316066e-01   2.7393116e-01  -2.3484601e+06
   2.4408136e-09  -1.2966599e-03   3.0308793e-01   2.7399866e-01  -2.3371948e+06
   2.4434812e-09  -1.2904404e-03   3.0301556e-01   2.7406584e-01  -2.3259836e+06
   2.4461487e-09  -1.2842507e-03   3.0294356e-01   2.7413273e-01  -2.3148262e+06
   2.4488163e-09  -1.2780906e-03   3.0287192e-01   2.7419930e-01  -2.3037224e+06
   2.4514838e-09  -1.2719602e-03   3.0280063e-01   2.7426557e-01  -2.2926718e+06
   2.4541514e-09  -1.2658591e-03   3.0272971e-01   2.7433154e-01  -2.2816743e+06
   2.4568189e-09  -1.2597873e-03   3.0265914e-01   2.7439721e-01  -2.2707295e+06
   2.4594865e-09  -1.2537447e-03   3.0258892e-01   2.7446257e-01  -2.2598373e+06
   2.4621541e-09  -1.2477310e-03   3.0251906e-01   2.7452764e-01  -2.2489973e+06
   2.4648216e-09  -1.2417462e-03   3.0244954e-01   2.7459240e-01  -2.2382093e+06
   2.4674892e-09  -1.2357900e-03   3.0238038e-01   2.7465687e-01  -2.2274731e+06
   2.4701567e-09  -1.2298625e-03   3.0231155e-01   2.7472105e-01  -2.2167884e+06
   2.4728243e-09  -1.2239634e-03   3.0224308e-01   2.7478493e-01  -2.2061550e+06
   2.4754918e-09  -1.2180925e-03   3.0217494e-01   2.7484852e-01  -2.1955726e+06
   2.4781594e-09  -1.2122499e-03   3.0210715e-01   2.7491182e-01  -2.1850410e+06
   2.4808269e-09  -1.2064353e-03   3.0203970e-01   2.7497482e-01  -2.1745599e+06
   2.4834945e-09  -1.2006485e-03   3.0197258e-01   2.7503754e-01  -2.1641291e+06
   2.4861621e-09  -1.1948895e-03   3.0190580e-01   2.7509997e-01  -2.1537483e+06
   2.4888296e-09  -1.1891582e-03   3.0183935e-01   2.7516212e-01  -2.1434174e+06
   2.4914972e-09  -1.1834543e-03   3.0177323e-01   2.7522397e-01  -2.1331360e+06
   2.4941647e-09  -1.1777778e-03   3.0170745e-01   2.7528555e-01  -2.1229040e+06
   2.4968323e-09  -1.1721285e-03   3.0164199e-01   2.7534684e-01  -2.1127210e+06
   2.4994998e-09  -1.1665063e-03   3.0157686e-01   2.7540785e-01  -2.1025870e+06
   2.5021674e-09  -1.1609111e-03   3.0151206e-01   2.7546858e-01  -2.0925015e+06
   2.5048349e-09  -1.1553427e-03   3.0144758e-01   2.7552903e-01  -2.0824644e+06
   2.5075025e-09  -1.1498010e-03   3.0138342e-01   2.7558920e-01  -2.0724755e+06
   2.5101701e-09  -1.1442860e-03   3.0131958e-01   2.7564910e-01  -2.0625345e+06
   2.5128376e-09  -1.1387973e-03   3.0125606e-01   2.7570872e-01  -2.0526412e+06
   2.5155052e-09  -1.1333350e-03   3.0119286e-01   2.7576807e-01  -2.0427954e+06
   2.5181727e-09  -1.1278989e-03   3.0112997e-01   2.7582714e-01  -2.0329968e+06
   2.5208403e-09  -1.1224889e-03   3.0106739e-01   2.7588594e-01  -2.0232452e+06
   2.5235078e-09  -1.1171048e-03   3.0100513e-01   2.7594447e-01  -2.0135405e+06
   2.5261754e-09  -1.1117466e-03   3.0094318e-01   2.7600273e-01  -2.0038822e+06
   2.5288429e-09  -1.1064140e-03   3.0088153e-01   2.7606073e-01  -1.9942703e+06
   2.5315105e-09  -1.1011070e-03   3.0082020e-01   2.7611845e-01  -1.9847046e+06
   2.5341781e-09  -1.0958255e-03   3.0075917e-01   2.7617591e-01  -1.9751847e+06
   2.5368456e-09  -1.0905693e-03   3.0069844e-01   2.7623311e-01  -1.9657105e+06
   2.5395132e-09  -1.0853384e-03   3.0063801e-01   2.7629004e-01  -1.9562817e+06
   2.5421807e-09  -1.0801325e-03   3.0057789e-01   2.7634671e-01  -1.9468982e+06
   2.5448483e-09  -1.0749516e-03   3.0051807e-01   2.7640312e-01  -1.9375597e+06
   2.5475158e-09  -1.0697955e-03   3.0045854e-01   2.7645927e-01  -1.9282660e+06
   2.5501834e-09  -1.0646642e-03   3.0039931e-01   2.7651516e-01  -1.9190169e+06
   2.5528510e-09  -1.0595575e-03   3.0034037e-01   2.7657079e-01  -1.9098122e+06
   2.5555185e-09  -1.0544752e-03   3.0028173e-01   2.7662617e-01  -1.9006516e+06
   2.5581861e-09  -1.0494174e-03   3.0022338e-01   2.7668129e-01  -1.8915350e+06
   2.5608536e-09  -1.0443838e-03   3.0016532e-01   2.7673615e-01  -1.8824621e+06
   2.5635212e-09  -1.0393744e-03   3.0010755e-01   2.7679077e-01  -1.8734328e+06
   2.5661887e-09  -1.0343890e-03   3.0005006e-01   2.7684513e-01  -1.8644467e+06
   2.5688563e-09  -1.0294275e-03   2.9999287e-01   2.7689924e-01  -1.8555038e+06
   2.5715238e-09  -1.0244898e-03   2.9993595e-01   2.7695310e-01  -1.8466037e+06
   2.5741914e-09  -1.0195757e-03   2.9987932e-01   2.7700671e-01  -1.8377464e+06
   2.5768590e-09  -1.0146853e-03   2.9982297e-01   2.7706007e-01  -1.8289316e+06
   2.5795265e-09  -1.0098183e-03   2.9976690e-01   2.7711319e-01  -1.8201590e+06
   2.5821941e-09  -1.0049747e-03   2.9971111e-01   2.7716606e-01  -1.8114286e+06
   2.5848616e-09  -1.0001543e-03   2.9965559e-01   2.7721868e-01  -1.8027400e+06
   2.5875292e-09  -9.9535696e-04   2.9960035e-01   2.7727107e-01  -1.7940931e+06
   2.5901967e-09  -9.9058268e-04   2.9954539e-01   2.7732321e-01  -1.7854877e+06
   2.5928643e-09  -9.8583130e-04   2.9949070e-01   2.7737511e-01  -1.7769235e+06
   2.5955318e-09  -9.8110271e-04   2.9943628e-01   2.7742677e-01  -1.7684005e+06
   2.5981994e-09  -9.7639681e-04   2.9938213e-01   2.7747819e-01  -1.7599183e+06
   2.6008670e-09  -9.7171347e-04   2.9932824e-01   2.7752937e-01  -1.7514768e+06
   2.6035345e-09  -9.6705260e-04   2.9927463e-01   2.7758032e-01  -1.7430758e+06
   2.6062021e-09  -9.6241408e-04   2.9922128e-01   2.7763103e-01  -1.7347152e+06
   2.6088696e-09  -9.5779781e-04   2.9916820e-01   2.7768150e-01  -1.7263946e+06
   2.6115372e-09  -9.5320368e-04   2.9911537e-01   2.7773175e-01  -1.7181139e+06
   2.6142047e-09  -9.4863159e-04   2.9906282e-01   2.7778176e-01  -1.7098730e+06
   2.6168723e-09  -9.4408143e-04   2.9901052e-01   2.7783153e-01  -1.7016716e+06
   2.6195398e-09  -9.3955310e-04   2.9895848e-01   2.7788108e-01  -1.6935096e+06
   2.6222074e-09  -9.3504648e-04   2.9890670e-01   2.7793040e-01  -1.6853867e+06
   2.6248750e-09  -9.3056148e-04   2.9885517e-01   2.7797949e-01  -1.6773027e+06
   2.6275425e-09  -9.2609800e-04   2.9880390e-01   2.7802835e-01  -1.6692576e+06
   2.6302101e-09  -9.2165592e-04   2.9875288e-01   2.7807698e-01  -1.6612510e+06
   2.6328776e-09  -9.1723515e-04   2.9870212e-01   2.7812539e-01  -1.6532828e+06
   2.6355452e-09  -9.1283558e-04   2.9865161e-01   2.7817358e-01  -1.6453529e+06
   2.6382127e-09  -9.0845711e-04   2.9860135e-01   2.7822154e-01  -1.6374610e+06
   2.6408803e-09  -9.0409965e-04   2.9855133e-01   2.7826928e-01  -1.6296070e+06
   2.6435478e-09  -8.9976309e-04   2.9850157e-01   2.7831679e-01  -1.6217906e+06
   2.6462154e-09  -8.9544732e-04   2.9845205e-01   2.7836409e-01  -1.6140118e+06
   2.6488830e-09  -8.9115226e-04   2.9840277e-01   2.7841117e-01  -1.6062702e+06
   2.6515505e-09  -8.8687780e-04   2.9835374e-01   2.7845803e-01  -1.5985658e+06
   2.6542181e-09  -8.8262384e-04   2.9830496e-01   2.7850467e-01  -1.5908983e+06
   2.6568856e-09  -8.7839028e-04   2.9825641e-01   2.7855109e-01  -1.5832677e+06
   2.6595532e-09  -8.7417703e-04   2.9820810e-01   2.7859730e-01  -1.5756736e+06
   2.6622207e-09  -8.6998399e-04   2.9816003e-01   2.7864330e-01  -1.5681160e+06
   2.6648883e-09  -8.6581106e-04   2.9811220e-01   2.7868908e-01  -1.5605946e+06
   2.6675559e-09  -8.6165815e-04   2.9806461e-01   2.7873465e-01  -1.5531092e+06
   2.6702234e-09  -8.5752516e-04   2.9801725e-01   2.7878000e-01  -1.5456598e+06
   2.6728910e-09  -8.5341199e-04   2.9797013e-01   2.7882515e-01  -1.5382462e+06
   2.6755585e-09  -8.4931854e-04   2.9792323e-01   2.7887008e-01  -1.5308681e+06
   2.6782261e-09  -8.4524473e-04   2.9787657e-01   2.7891481e-01  -1.5235253e+06
   2.6808936e-09  -8.4119047e-04   2.9783014e-01   2.7895933e-01  -1.5162178e+06
   2.6835612e-09  -8.3715564e-04   2.9778394e-01   2.7900364e-01  -1.5089454e+06
   2.6862287e-09  -8.3314017e-04   2.9773797e-01   2.7904775e-01  -1.5017078e+06
   2.6888963e-09  -8.2914396e-04   2.9769222e-01   2.7909165e-01  -1.4945050e+06
   2.6915639e-09  -8.2516692e-04   2.9764670e-01   2.7913534e-01  -1.4873367e+06
   2.6942314e-09  -8.2120895e-04   2.9760141e-01   2.7917884e-01  -1.4802028e+06
   2.6968990e-09  -8.1726997e-04   2.9755634e-01   2.7922213e-01  -1.4731031e+06
   2.6995665e-09  -8.1334988e-04   2.9751149e-01   2.7926521e-01  -1.4660375e+06
   2.7022341e-09  -8.0944860e-04   2.9746686e-01   2.7930810e-01  -1.4590057e+06
   2.7049016e-09  -8.0556602e-04   2.9742245e-01   2.7935079e-01  -1.4520077e+06
   2.7075692e-09  -8.0170207e-04   2.9737826e-01   2.7939328e-01  -1.4450433e+06
   2.7102367e-09  -7.9785665e-04   2.9733429e-01   2.7943557e-01  -1.4381122e+06
   2.7129043e-09  -7.9402967e-04   2.9729054e-01   2.7947767e-01  -1.4312144e+06
   2.7155719e-09  -7.9022106e-04   2.9724700e-01   2.7951957e-01  -1.4243497e+06
   2.7182394e-09  -7.8643070e-04   2.9720368e-01   2.7956127e-01  -1.4175180e+06
   2.7209070e-09  -7.8265853e-04   2.9716057e-01   2.7960278e-01  -1.4107190e+06
   2.7235745e-09  -7.7890445e-04   2.9711767e-01   2.7964410e-01  -1.4039526e+06
   2.7262421e-09  -7.7516838e-04   2.9707498e-01   2.7968522e-01  -1.3972186e+06
   2.7289096e-09  -7.7145023e-04   2.9703251e-01   2.7972615e-01  -1.3905170e+06
   2.7315772e-09  -7.6774991e-04   2.9699024e-01   2.7976689e-01  -1.3838475e+06
   2.7342447e-09  -7.6406734e-04   2.9694818e-01   2.7980744e-01  -1.3772100e+06
   2.7369123e-09  -7.6040243e-04   2.9690633e-01   2.7984780e-01  -1.3706043e+06
   2.7395799e-09  -7.5675510e-04   2.9686469e-01   2.7988798e-01  -1.3640303e+06
   2.7422474e-09  -7.5312527e-04   2.9682325e-01   2.7992796e-01  -1.3574879e+06
   2.7449150e-09  -7.4951284e-04   2.9678201e-01   2.7996776e-01  -1.3509768e+06
   2.7475825e-09  -7.4591775e-04   2.9674098e-01   2.8000738e-01  -1.3444970e+06
   2.7502501e-09  -7.4233989e-04   2.9670015e-01   2.8004680e-01  -1.3380482e+06
   2.7529176e-09  -7.3877920e-04   2.9665952e-01   2.8008605e-01  -1.3316304e+06
   2.7555852e-09  -7.3523558e-04   2.9661909e-01   2.8012511e-01  -1.3252434e+06
   2.7582528e-09  -7.3170896e-04   2.9657885e-01   2.8016399e-01  -1.3188869e+06
   2.7609203e-09  -7.2819926e-04   2.9653882e-01   2.8020269e-01  -1.3125610e+06
   2.7635879e-09  -7.2470639e-04   2.9649898e-01   2.8024120e-01  -1.3062655e+06
   2.7662554e-09  -7.2123027e-04   2.9645934e-01   2.8027954e-01  -1.3000001e+06
   2.7689230e-09  -7.1777083e-04   2.9641990e-01   2.8031770e-01  -1.2937648e+06
   2.7715905e-09  -7.1432798e-04   2.9638065e-01   2.8035568e-01  -1.2875593e+06
   2.7742581e-09  -7.1090164e-04   2.9634159e-01   2.8039348e-01  -1.2813837e+06
   2.7769256e-09  -7.0749174e-04   2.9630272e-01   2.8043111e-01  -1.2752377e+06
   2.7795932e-09  -7.0409819e-04   2.9626405e-01   2.8046856e-01  -1.2691211e+06
   2.7822608e-09  -7.0072092e-04   2.9622556e-01   2.8050583e-01  -1.2630339e+06
   2.7849283e-09  -6.9735985e-04   2.9618727e-01   2.8054293e-01  -1.2569759e+06
   2.7875959e-09  -6.9401490e-04   2.9614916e-01   2.8057986e-01  -1.2509469e+06
   2.7902634e-09  -6.9068599e-04   2.9611124e-01   2.8061661e-01  -1.2449469e+06
   2.7929310e-09  -6.8737305e-04   2.9607350e-01   2.8065319e-01  -1.2389756e+06
   2.7955985e-09  -6.8407600e-04   2.9603595e-01   2.8068961e-01  -1.2330330e+06
   2.7982661e-09  -6.8079476e-04   2.9599859e-01   2.8072585e-01  -1.2271189e+06
   2.8009336e-09  -6.7752926e-04   2.9596141e-01   2.8076192e-01  -1.2212331e+06
   2.8036012e-09  -6.7427942e-04   2.9592441e-01   2.8079782e-01  -1.2153756e+06
   2.8062688e-09  -6.7104517e-04   2.9588759e-01   2.8083355e-01  -1.2095462e+06
   2.8089363e-09  -6.6782644e-04   2.9585096e-01   2.8086912e-01  -1.2037447e+06
   2.8116039e-09  -6.6462314e-04   2.9581450e-01   2.8090452e-01  -1.1979710e+06
   2.8142714e-09  -6.6143521e-04   2.9577822e-01   2.8093976e-01  -1.1922251e+06
   2.8169390e-09  -6.5826256e-04   2.9574212e-01   2.8097483e-01  -1.1865067e+06
   2.8196065e-09  -6.5510514e-04   2.9570620e-01   2.8100973e-01  -1.1808158e+06
   2.8222741e-09  -6.5196286e-04   2.9567045e-01   2.8104448e-01  -1.1751521e+06
   2.8249416e-09  -6.4883565e-04   2.9563488e-01   2.8107906e-01  -1.1695156e+06
   2.8276092e-09  -6.4572344e-04   2.9559949e-01   2.8111347e-01  -1.1639061e+06
   2.8302768e-09  -6.4262616e-04   2.9556427e-01   2.8114773e-01  -1.1583236e+06
   2.8329443e-09  -6.3954373e-04   2.9552922e-01   2.8118183e-01  -1.1527678e+06
   2.8356119e-09  -6.3647609e-04   2.9549434e-01   2.8121576e-01  -1.1472386e+06
   2.8382794e-09  -6.3342316e-04   2.9545963e-01   2.8124954e-01  -1.1417360e+06
   2.8409470e-09  -6.3038487e-04   2.9542510e-01   2.8128316e-01  -1.1362598e+06
   2.8436145e-09  -6.2736116e-04   2.9539073e-01   2.8131662e-01  -1.1308099e+06
   2.8462821e-09  -6.2435195e-04   2.9535653e-01   2.8134992e-01  -1.1253860e+06
   2.8489496e-09  -6.2135717e-04   2.9532250e-01   2.8138307e-01  -1.1199882e+06
   2.8516172e-09  -6.1837676e-04   2.9528863e-01   2.8141607e-01  -1.1146163e+06
   2.8542848e-09  -6.1541064e-04   2.9525494e-01   2.8144890e-01  -1.1092702e+06
   2.8569523e-09  -6.1245875e-04   2.9522140e-01   2.8148159e-01  -1.1039497e+06
   2.8596199e-09  -6.0952102e-04   2.9518803e-01   2.8151412e-01  -1.0986547e+06
   2.8622874e-09  -6.0659737e-04   2.9515483e-01   2.8154650e-01  -1.0933851e+06
   2.8649550e-09  -6.0368776e-04   2.9512179e-01   2.8157872e-01  -1.0881408e+06
   2.8676225e-09  -6.0079209e-04   2.9508891e-01   2.8161080e-01  -1.0829216e+06
   2.8702901e-09  -5.9791032e-04   2.9505619e-01   2.8164272e-01  -1.0777275e+06
   2.8729577e-09  -5.9504236e-04   2.9502363e-01   2.8167450e-01  -1.0725583e+06
   2.8756252e-09  -5.9218817e-04   2.9499123e-01   2.8170613e-01  -1.0674138e+06
   2.8782928e-09  -5.8934766e-04   2.9495898e-01   2.8173760e-01  -1.0622941e+06
   2.8809603e-09  -5.8652078e-04   2.9492690e-01   2.8176893e-01  -1.0571989e+06
   2.8836279e-09  -5.8370746e-04   2.9489497e-01   2.8180011e-01  -1.0521281e+06
   2.8862954e-09  -5.8090763e-04   2.9486320e-01   2.8183115e-01  -1.0470817e+06
   2.8889630e-09  -5.7812122e-04   2.9483159e-01   2.8186204e-01  -1.0420595e+06
   2.8916305e-09  -5.7534819e-04   2.9480013e-01   2.8189279e-01  -1.0370613e+06
   2.8942981e-09  -5.7258845e-04   2.9476882e-01   2.8192339e-01  -1.0320872e+06
   2.8969657e-09  -5.6984195e-04   2.9473767e-01   2.8195384e-01  -1.0271368e+06
   2.8996332e-09  -5.6710863e-04   2.9470667e-01   2.8198416e-01  -1.0222103e+06
   2.9023008e-09  -5.6438841e-04   2.9467582e-01   2.8201433e-01  -1.0173073e+06
   2.9049683e-09  -5.6168125e-04   2.9464512e-01   2.8204436e-01  -1.0124279e+06
   2.9076359e-09  -5.5898706e-04   2.9461458e-01   2.8207425e-01  -1.0075719e+06
   2.9103034e-09  -5.5630580e-04   2.9458418e-01   2.8210400e-01  -1.0027392e+06
   2.9129710e-09  -5.5363740e-04   2.9455393e-01   2.8213361e-01  -9.9792960e+05
   2.9156385e-09  -5.5098180e-04   2.9452383e-01   2.8216307e-01  -9.9314312e+05
   2.9183061e-09  -5.4833893e-04   2.9449387e-01   2.8219241e-01  -9.8837959e+05
   2.9209737e-09  -5.4570875e-04   2.9446406e-01   2.8222160e-01  -9.8363891e+05
   2.9236412e-09  -5.4309117e-04   2.9443440e-01   2.8225065e-01  -9.7892097e+05
   2.9263088e-09  -5.4048615e-04   2.9440488e-01   2.8227957e-01  -9.7422565e+05
   2.9289763e-09  -5.3789363e-04   2.9437551e-01   2.8230836e-01  -9.6955286e+05
   2.9316439e-09  -5.3531354e-04   2.9434628e-01   2.8233700e-01  -9.6490248e+05
   2.9343114e-09  -5.3274583e-04   2.9431719e-01   2.8236552e-01  -9.6027440e+05
   2.9369790e-09  -5.3019043e-04   2.9428825e-01   2.8239390e-01  -9.5566852e+05
   2.9396465e-09  -5.2764729e-04   2.9425945e-01   2.8242214e-01  -9.5108473e+05
   2.9423141e-09  -5.2511635e-04   2.9423078e-01   2.8245025e-01  -9.4652292e+05
   2.9449817e-09  -5.2259755e-04   2.9420226e-01   2.8247823e-01  -9.4198300e+05
   2.9476492e-09  -5.2009082e-04   2.9417388e-01   2.8250608e-01  -9.3746485e+05
   2.9503168e-09  -5.1759612e-04   2.9414563e-01   2.8253380e-01  -9.3296837e+05
   2.9529843e-09  -5.1511339e-04   2.9411753e-01   2.8256139e-01  -9.2849345e+05
   2.9556519e-09  -5.1264257e-04   2.9408956e-01   2.8258884e-01  -9.2404000e+05
   2.9583194e-09  -5.1018359e-04   2.9406172e-01   2.8261617e-01  -9.1960791e+05
   2.9609870e-09  -5.0773641e-04   2.9403403e-01   2.8264337e-01  -9.1519708e+05
   2.9636546e-09  -5.0530097e-04   2.9400647e-01   2.8267044e-01  -9.1080740e+05
   2.9663221e-09  -5.0287721e-04   2.9397904e-01   2.8269738e-01  -9.0643877e+05
   2.9689897e-09  -5.0046508e-04   2.9395174e-01   2.8272420e-01  -9.0209110e+05
   2.9716572e-09  -4.9806451e-04   2.9392458e-01   2.8275089e-01  -8.9776428e+05
   2.9743248e-09  -4.9567546e-04   2.9389756e-01   2.8277746e-01  -8.9345821e+05
   2.9769923e-09  -4.9329787e-04   2.9387066e-01   2.8280390e-01  -8.8917280e+05
   2.9796599e-09  -4.9093168e-04   2.9384390e-01   2.8283021e-01  -8.8490794e+05
   2.9823274e-09  -4.8857684e-04   2.9381726e-01   2.8285640e-01  -8.8066353e+05
   2.9849950e-09  -4.8623329e-04   2.9379076e-01   2.8288247e-01  -8.7643948e+05
   2.9876626e-09  -4.8390099e-04   2.9376439e-01   2.8290841e-01  -8.7223569e+05
   2.9903301e-09  -4.8157987e-04   2.9373814e-01   2.8293424e-01  -8.6805207e+05
   2.9929977e-09  -4.7926989e-04   2.9371202e-01   2.8295994e-01  -8.6388850e+05
   2.9956652e-09  -4.7697098e-04   2.9368603e-01   2.8298552e-01  -8.5974491e+05
   2.9983328e-09  -4.7468311e-04   2.9366017e-01   2.8301098e-01  -8.5562119e+05
   3.0010003e-09  -4.7240620e-04   2.9363443e-01   2.8303632e-01  -8.5151725e+05
   3.0036679e-09  -4.7014022e-04   2.9360882e-01   2.8306153e-01  -8.4743300e+05
   3.0063354e-09  -4.6788510e-04   2.9358333e-01   2.8308664e-01  -8.4336833e+05
   3.0090030e-09  -4.6564081e-04   2.9355797e-01   2.8311162e-01  -8.3932316e+05
   3.0116706e-09  -4.6340727e-04   2.9353273e-01   2.8313648e-01  -8.3529738e+05
   3.0143381e-09  -4.6118445e-04   2.9350761e-01   2.8316123e-01  -8.3129092e+05
   3.0170057e-09  -4.5897229e-04   2.9348262e-01   2.8318586e-01  -8.2730367e+05
   3.0196732e-09  -4.5677074e-04   2.9345775e-01   2.8321037e-01  -8.2333555e+05
   3.0223408e-09  -4.5457976e-04   2.9343300e-01   2.8323477e-01  -8.1938646e+05
   3.0250083e-09  -4.5239928e-04   2.9340837e-01   2.8325906e-01  -8.1545631e+05
   3.0276759e-09  -4.5022925e-04   2.9338386e-01   2.8328323e-01  -8.1154501e+05
   3.0303434e-09  -4.4806964e-04   2.9335947e-01   2.8330728e-01  -8.0765246e+05
   3.0330110e-09  -4.4592039e-04   2.9333519e-01   2.8333122e-01  -8.0377859e+05
   3.0356786e-09  -4.4378144e-04   2.9331104e-01   2.8335505e-01  -7.9992330e+05
   3.0383461e-09  -4.4165275e-04   2.9328700e-01   2.8337877e-01  -7.9608650e+05
   3.0410137e-09  -4.3953428e-04   2.9326309e-01   2.8340237e-01  -7.9226810e+05
   3.0436812e-09  -4.3742596e-04   2.9323928e-01   2.8342586e-01  -7.8846801e+05
   3.0463488e-09  -4.3532776e-04   2.9321560e-01   2.8344925e-01  -7.8468615e+05
   3.0490163e-09  -4.3323962e-04   2.9319203e-01   2.8347252e-01  -7.8092243e+05
   3.0516839e-09  -4.3116150e-04   2.9316857e-01   2.8349568e-01  -7.7717676e+05
   3.0543515e-09  -4.2909334e-04   2.9314523e-01   2.8351873e-01  -7.7344906e+05
   3.0570190e-09  -4.2703511e-04   2.9312200e-01   2.8354167e-01  -7.6973923e+05
   3.0596866e-09  -4.2498674e-04   2.9309888e-01   2.8356451e-01  -7.6604720e+05
   3.0623541e-09  -4.2294821e-04   2.9307588e-01   2.8358724e-01  -7.6237287e+05
   3.0650217e-09  -4.2091944e-04   2.9305299e-01   2.8360986e-01  -7.5871617e+05
   3.0676892e-09  -4.1890041e-04   2.9303021e-01   2.8363237e-01  -7.5507701e+05
   3.0703568e-09  -4.1689107e-04   2.9300754e-01   2.8365478e-01  -7.5145530e+05
   3.0730243e-09  -4.1489136e-04   2.9298498e-01   2.8367708e-01  -7.4785096e+05
   3.0756919e-09  -4.1290124e-04   2.9296254e-01   2.8369927e-01  -7.4426390e+05
   3.0783595e-09  -4.1092067e-04   2.9294020e-01   2.8372136e-01  -7.4069405e+05
   3.0810270e-09  -4.0894960e-04   2.9291797e-01   2.8374335e-01  -7.3714133e+05
   3.0836946e-09  -4.0698799e-04   2.9289584e-01   2.8376523e-01  -7.3360564e+05
   3.0863621e-09  -4.0503578e-04   2.9287383e-01   2.8378701e-01  -7.3008691e+05
   3.0890297e-09  -4.0309293e-04   2.9285192e-01   2.8380868e-01  -7.2658506e+05
   3.0916972e-09  -4.0115941e-04   2.9283012e-01   2.8383026e-01  -7.2310000e+05
   3.0943648e-09  -3.9923516e-04   2.9280842e-01   2.8385173e-01  -7.1963166e+05
   3.0970323e-09  -3.9732013e-04   2.9278684e-01   2.8387310e-01  -7.1617995e+05
   3.0996999e-09  -3.9541430e-04   2.9276535e-01   2.8389437e-01  -7.1274480e+05
   3.1023675e-09  -3.9351760e-04   2.9274397e-01   2.8391554e-01  -7.0932613e+05
   3.1050350e-09  -3.9163000e-04   2.9272270e-01   2.8393660e-01  -7.0592385e+05
   3.1077026e-09  -3.8975146e-04   2.9270152e-01   2.8395757e-01  -7.0253788e+05
   3.1103701e-09  -3.8788193e-04   2.9268045e-01   2.8397844e-01  -6.9916816e+05
   3.1130377e-09  -3.8602136e-04   2.9265949e-01   2.8399921e-01  -6.9581460e+05
   3.1157052e-09  -3.8416972e-04   2.9263862e-01   2.8401989e-01  -6.9247713e+05
   3.1183728e-09  -3.8232696e-04   2.9261786e-01   2.8404046e-01  -6.8915566e+05
   3.1210403e-09  -3.8049303e-04   2.9259719e-01   2.8406094e-01  -6.8585012e+05
   3.1237079e-09  -3.7866791e-04   2.9257663e-01   2.8408132e-01  -6.8256044e+05
   3.1263755e-09  -3.7685154e-04   2.9255617e-01   2.8410160e-01  -6.7928653e+05
   3.1290430e-09  -3.7504388e-04   2.9253581e-01   2.8412179e-01  -6.7602833e+05
   3.1317106e-09  -3.7324489e-04   2.9251554e-01   2.8414188e-01  -6.7278575e+05
   3.1343781e-09  -3.7145453e-04   2.9249538e-01   2.8416188e-01  -6.6955872e+05
   3.1370457e-09  -3.6967276e-04   2.9247531e-01   2.8418178e-01  -6.6634718e+05
   3.1397132e-09  -3.6789953e-04   2.9245534e-01   2.8420159e-01  -6.6315103e+05
   3.1423808e-09  -3.6613481e-04   2.9243547e-01   2.8422131e-01  -6.5997022e+05
   3.1450483e-09  -3.6437855e-04   2.9241569e-01   2.8424093e-01  -6.5680466e+05
   3.1477159e-09  -3.6263072e-04   2.9239601e-01   2.8426046e-01  -6.5365428e+05
   3.1503835e-09  -3.6089127e-04   2.9237642e-01   2.8427989e-01  -6.5051902e+05
   3.1530510e-09  -3.5916016e-04   2.9235693e-01   2.8429924e-01  -6.4739879e+05
   3.1557186e-09  -3.5743736e-04   2.9233754e-01   2.8431849e-01  -6.4429353e+05
   3.1583861e-09  -3.5572282e-04   2.9231824e-01   2.8433765e-01  -6.4120316e+05
   3.1610537e-09  -3.5401651e-04   2.9229903e-01   2.8435672e-01  -6.3812761e+05
   3.1637212e-09  -3.5231837e-04   2.9227992e-01   2.8437570e-01  -6.3506681e+05
   3.1663888e-09  -3.5062839e-04   2.9226090e-01   2.8439460e-01  -6.3202070e+05
   3.1690564e-09  -3.4894651e-04   2.9224197e-01   2.8441340e-01  -6.2898919e+05
   3.1717239e-09  -3.4727269e-04   2.9222313e-01   2.8443211e-01  -6.2597222e+05
   3.1743915e-09  -3.4560691e-04   2.9220439e-01   2.8445073e-01  -6.2296973e+05
   3.1770590e-09  -3.4394912e-04   2.9218573e-01   2.8446927e-01  -6.1998163e+05
   3.1797266e-09  -3.4229927e-04   2.9216717e-01   2.8448771e-01  -6.1700786e+05
   3.1823941e-09  -3.4065734e-04   2.9214869e-01   2.8450608e-01  -6.1404836e+05
   3.1850617e-09  -3.3902329e-04   2.9213031e-01   2.8452435e-01  -6.1110305e+05
   3.1877292e-09  -3.3739707e-04   2.9211202e-01   2.8454253e-01  -6.0817187e+05
   3.1903968e-09  -3.3577866e-04   2.9209381e-01   2.8456064e-01  -6.0525475e+05
   3.1930644e-09  -3.3416801e-04   2.9207569e-01   2.8457865e-01  -6.0235162e+05
   3.1957319e-09  -3.3256508e-04   2.9205766e-01   2.8459658e-01  -5.9946241e+05
   3.1983995e-09  -3.3096984e-04   2.9203972e-01   2.8461442e-01  -5.9658706e+05
   3.2010670e-09  -3.2938225e-04   2.9202187e-01   2.8463218e-01  -5.9372550e+05
   3.2037346e-09  -3.2780228e-04   2.9200410e-01   2.8464986e-01  -5.9087767e+05
   3.2064021e-09  -3.2622988e-04   2.9198642e-01   2.8466745e-01  -5.8804349e+05
   3.2090697e-09  -3.2466503e-04   2.9196882e-01   2.8468496e-01  -5.8522291e+05
   3.2117372e-09  -3.2310769e-04   2.9195131e-01   2.8470238e-01  -5.8241586e+05
   3.2144048e-09  -3.2155781e-04   2.9193388e-01   2.8471973e-01  -5.7962227e+05
   3.2170724e-09  -3.2001537e-04   2.9191654e-01   2.8473699e-01  -5.7684208e+05
   3.2197399e-09  -3.1848032e-04   2.9189928e-01   2.8475417e-01  -5.7407522e+05
   3.2224075e-09  -3.1695264e-04   2.9188211e-01   2.8477126e-01  -5.7132163e+05
   3.2250750e-09  -3.1543229e-04   2.9186502e-01   2.8478828e-01  -5.6858125e+05
   3.2277426e-09  -3.1391923e-04   2.9184801e-01   2.8480522e-01  -5.6585401e+05
   3.2304101e-09  -3.1241342e-04   2.9183109e-01   2.8482207e-01  -5.6313986e+05
   3.2330777e-09  -3.1091484e-04   2.9181424e-01   2.8483885e-01  -5.6043872e+05
   3.2357452e-09  -3.0942345e-04   2.9179748e-01   2.8485554e-01  -5.5775054e+05
   3.2384128e-09  -3.0793921e-04   2.9178080e-01   2.8487216e-01  -5.5507525e+05
   3.2410804e-09  -3.0646209e-04   2.9176420e-01   2.8488870e-01  -5.5241279e+05
   3.2437479e-09  -3.0499206e-04   2.9174768e-01   2.8490516e-01  -5.4976310e+05
   3.2464155e-09  -3.0352907e-04   2.9173125e-01   2.8492154e-01  -5.4712612e+05
   3.2490830e-09  -3.0207310e-04   2.9171489e-01   2.8493784e-01  -5.4450179e+05
   3.2517506e-09  -3.0062412e-04   2.9169861e-01   2.8495407e-01  -5.4189004e+05
   3.2544181e-09  -2.9918209e-04   2.9168241e-01   2.8497022e-01  -5.3929082e+05
   3.2570857e-09  -2.9774697e-04   2.9166628e-01   2.8498629e-01  -5.3670407e+05
   3.2597533e-09  -2.9631874e-04   2.9165024e-01   2.8500228e-01  -5.3412973e+05
   3.2624208e-09  -2.9489736e-04   2.9163427e-01   2.8501820e-01  -5.3156773e+05
   3.2650884e-09  -2.9348279e-04   2.9161838e-01   2.8503405e-01  -5.2901802e+05
   3.2677559e-09  -2.9207501e-04   2.9160257e-01   2.8504982e-01  -5.2648054e+05
   3.2704235e-09  -2.9067399e-04   2.9158684e-01   2.8506551e-01  -5.2395522e+05
   3.2730910e-09  -2.8927968e-04   2.9157118e-01   2.8508113e-01  -5.2144203e+05
   3.2757586e-09  -2.8789206e-04   2.9155560e-01   2.8509668e-01  -5.1894088e+05
   3.2784261e-09  -2.8651110e-04   2.9154009e-01   2.8511215e-01  -5.1645173e+05
   3.2810937e-09  -2.8513676e-04   2.9152465e-01   2.8512755e-01  -5.1397452e+05
   3.2837613e-09  -2.8376901e-04   2.9150930e-01   2.8514288e-01  -5.1150919e+05
   3.2864288e-09  -2.8240783e-04   2.9149401e-01   2.8515813e-01  -5.0905569e+05
   3.2890964e-09  -2.8105317e-04   2.9147880e-01   2.8517331e-01  -5.0661395e+05
   3.2917639e-09  -2.7970501e-04   2.9146367e-01   2.8518842e-01  -5.0418393e+05
   3.2944315e-09  -2.7836332e-04   2.9144861e-01   2.8520346e-01  -5.0176556e+05
   3.2970990e-09  -2.7702806e-04   2.9143362e-01   2.8521842e-01  -4.9935879e+05
   3.2997666e-09  -2.7569921e-04   2.9141870e-01   2.8523332e-01  -4.9696356e+05
   3.3024341e-09  -2.7437673e-04   2.9140386e-01   2.8524814e-01  -4.9457982e+05
   3.3051017e-09  -2.7306059e-04   2.9138908e-01   2.8526289e-01  -4.9220751e+05
   3.3077693e-09  -2.7175077e-04   2.9137438e-01   2.8527758e-01  -4.8984658e+05
   3.3104368e-09  -2.7044723e-04   2.9135975e-01   2.8529219e-01  -4.8749698e+05
   3.3131044e-09  -2.6914994e-04   2.9134519e-01   2.8530673e-01  -4.8515865e+05
   3.3157719e-09  -2.6785888e-04   2.9133070e-01   2.8532121e-01  -4.8283153e+05
   3.3184395e-09  -2.6657401e-04   2.9131629e-01   2.8533561e-01  -4.8051557e+05
   3.3211070e-09  -2.6529530e-04   2.9130194e-01   2.8534995e-01  -4.7821072e+05
   3.3237746e-09  -2.6402272e-04   2.9128766e-01   2.8536422e-01  -4.7591692e+05
   3.3264421e-09  -2.6275625e-04   2.9127345e-01   2.8537842e-01  -4.7363413e+05
   3.3291097e-09  -2.6149585e-04   2.9125931e-01   2.8539256e-01  -4.7136228e+05
   3.3317773e-09  -2.6024150e-04   2.9124523e-01   2.8540663e-01  -4.6910134e+05
   3.3344448e-09  -2.5899317e-04   2.9123123e-01   2.8542063e-01  -4.6685123e+05
   3.3371124e-09  -2.5775082e-04   2.9121729e-01   2.8543456e-01  -4.6461192e+05
   3.3397799e-09  -2.5651443e-04   2.9120342e-01   2.8544843e-01  -4.6238335e+05
   3.3424475e-09  -2.5528398e-04   2.9118962e-01   2.8546223e-01  -4.6016547e+05
   3.3451150e-09  -2.5405942e-04   2.9117589e-01   2.8547596e-01  -4.5795822e+05
   3.3477826e-09  -2.5284074e-04   2.9116222e-01   2.8548964e-01  -4.5576156e+05
   3.3504502e-09  -2.5162790e-04   2.9114861e-01   2.8550324e-01  -4.5357544e+05
   3.3531177e-09  -2.5042088e-04   2.9113508e-01   2.8551678e-01  -4.5139980e+05
   3.3557853e-09  -2.4921966e-04   2.9112161e-01   2.8553026e-01  -4.4923460e+05
   3.3584528e-09  -2.4802419e-04   2.9110820e-01   2.8554367e-01  -4.4707979e+05
   3.3611204e-09  -2.4683446e-04   2.9109486e-01   2.8555702e-01  -4.4493530e+05
   3.3637879e-09  -2.4565043e-04   2.9108158e-01   2.8557031e-01  -4.4280111e+05
   3.3664555e-09  -2.4447208e-04   2.9106837e-01   2.8558353e-01  -4.4067715e+05
   3.3691230e-09  -2.4329939e-04   2.9105522e-01   2.8559669e-01  -4.3856338e+05
   3.3717906e-09  -2.4213232e-04   2.9104213e-01   2.8560979e-01  -4.3645974e+05
   3.3744582e-09  -2.4097085e-04   2.9102911e-01   2.8562282e-01  -4.3436620e+05
   3.3771257e-09  -2.3981495e-04   2.9101615e-01   2.8563579e-01  -4.3228269e+05
   3.3797933e-09  -2.3866459e-04   2.9100326e-01   2.8564870e-01  -4.3020918e+05
   3.3824608e-09  -2.3751975e-04   2.9099042e-01   2.8566155e-01  -4.2814562e+05
   3.3851284e-09  -2.3638040e-04   2.9097765e-01   2.8567434e-01  -4.2609195e+05
   3.3877959e-09  -2.3524652e-04   2.9096494e-01   2.8568707e-01  -4.2404813e+05
   3.3904635e-09  -2.3411808e-04   2.9095229e-01   2.8569974e-01  -4.2201412e+05
   3.3931310e-09  -2.3299505e-04   2.9093971e-01   2.8571234e-01  -4.1998986e+05
   3.3957986e-09  -2.3187740e-04   2.9092718e-01   2.8572489e-01  -4.1797531e+05
   3.3984662e-09  -2.3076512e-04   2.9091471e-01   2.8573738e-01  -4.1597042e+05
   3.4011337e-09  -2.2965817e-04   2.9090231e-01   2.8574981e-01  -4.1397515e+05
   3.4038013e-09  -2.2855654e-04   2.9088996e-01   2.8576217e-01  -4.1198945e+05
   3.4064688e-09  -2.2746018e-04   2.9087768e-01   2.8577448e-01  -4.1001328e+05
   3.4091364e-09  -2.2636909e-04   2.9086545e-01   2.8578674e-01  -4.0804658e+05
   3.4118039e-09  -2.2528323e-04   2.9085328e-01   2.8579893e-01  -4.0608931e+05
   3.4144715e-09  -2.2420257e-04   2.9084118e-01   2.8581106e-01  -4.0414143e+05
   3.4171390e-09  -2.2312710e-04   2.9082913e-01   2.8582314e-01  -4.0220290e+05
   3.4198066e-09  -2.2205679e-04   2.9081713e-01   2.8583516e-01  -4.0027366e+05
   3.4224742e-09  -2.2099162e-04   2.9080520e-01   2.8584712e-01  -3.9835368e+05
   3.4251417e-09  -2.1993155e-04   2.9079332e-01   2.8585903e-01  -3.9644290e+05
   3.4278093e-09  -2.1887657e-04   2.9078150e-01   2.8587088e-01  -3.9454129e+05
   3.4304768e-09  -2.1782664e-04   2.9076974e-01   2.8588267e-01  -3.9264881e+05
   3.4331444e-09  -2.1678176e-04   2.9075804e-01   2.8589441e-01  -3.9076539e+05
   3.4358119e-09  -2.1574188e-04   2.9074639e-01   2.8590609e-01  -3.8889101e+05
   3.4384795e-09  -2.1470700e-04   2.9073480e-01   2.8591771e-01  -3.8702563e+05
   3.4411470e-09  -2.1367708e-04   2.9072326e-01   2.8592928e-01  -3.8516919e+05
   3.4438146e-09  -2.1265209e-04   2.9071178e-01   2.8594080e-01  -3.8332165e+05
   3.4464822e-09  -2.1163203e-04   2.9070036e-01   2.8595226e-01  -3.8148297e+05
   3.4491497e-09  -2.1061685e-04   2.9068899e-01   2.8596366e-01  -3.7965312e+05
   3.4518173e-09  -2.0960655e-04   2.9067767e-01   2.8597501e-01  -3.7783204e+05
   3.4544848e-09  -2.0860109e-04   2.9066641e-01   2.8598631e-01  -3.7601969e+05
   3.4571524e-09  -2.0760046e-04   2.9065521e-01   2.8599755e-01  -3.7421604e+05
   3.4598199e-09  -2.0660463e-04   2.9064406e-01   2.8600874e-01  -3.7242104e+05
   3.4624875e-09  -2.0561357e-04   2.9063296e-01   2.8601988e-01  -3.7063464e+05
   3.4651551e-09  -2.0462726e-04   2.9062192e-01   2.8603096e-01  -3.6885682e+05
   3.4678226e-09  -2.0364569e-04   2.9061093e-01   2.8604200e-01  -3.6708752e+05
   3.4704902e-09  -2.0266882e-04   2.9059999e-01   2.8605297e-01  -3.6532671e+05
   3.4731577e-09  -2.0169665e-04   2.9058911e-01   2.8606390e-01  -3.6357435e+05
   3.4758253e-09  -2.0072913e-04   2.9057827e-01   2.8607477e-01  -3.6183039e+05
   3.4784928e-09  -1.9976625e-04   2.9056749e-01   2.8608560e-01  -3.6009479e+05
   3.4811604e-09  -1.9880800e-04   2.9055677e-01   2.8609637e-01  -3.5836752e+05
   3.4838279e-09  -1.9785434e-04   2.9054609e-01   2.8610708e-01  -3.5664854e+05
   3.4864955e-09  -1.9690525e-04   2.9053547e-01   2.8611775e-01  -3.5493780e+05
   3.4891631e-09  -1.9596072e-04   2.9052489e-01   2.8612837e-01  -3.5323526e+05
   3.4918306e-09  -1.9502072e-04   2.9051437e-01   2.8613894e-01  -3.5154089e+05
   3.4944982e-09  -1.9408522e-04   2.9050390e-01   2.8614945e-01  -3.4985465e+05
   3.4971657e-09  -1.9315422e-04   2.9049348e-01   2.8615992e-01  -3.4817650e+05
   3.4998333e-09  -1.9222768e-04   2.9048311e-01   2.8617034e-01  -3.4650639e+05
   3.5025008e-09  -1.9130558e-04   2.9047279e-01   2.8618070e-01  -3.4484430e+05
   3.5051684e-09  -1.9038791e-04   2.9046252e-01   2.8619102e-01  -3.4319017e+05
   3.5078359e-09  -1.8947464e-04   2.9045230e-01   2.8620129e-01  -3.4154398e+05
   3.5105035e-09  -1.8856574e-04   2.9044213e-01   2.8621151e-01  -3.3990569e+05
   3.5131711e-09  -1.8766121e-04   2.9043201e-01   2.8622168e-01  -3.3827526e+05
   3.5158386e-09  -1.8676102e-04   2.9042193e-01   2.8623180e-01  -3.3665264e+05
   3.5185062e-09  -1.8586515e-04   2.9041191e-01   2.8624188e-01  -3.3503781e+05
   3.5211737e-09  -1.8497357e-04   2.9040193e-01   2.8625190e-01  -3.3343072e+05
   3.5238413e-09  -1.8408627e-04   2.9039201e-01   2.8626188e-01  -3.3183134e+05
   3.5265088e-09  -1.8320323e-04   2.9038213e-01   2.8627181e-01  -3.3023964e+05
   3.5291764e-09  -1.8232442e-04   2.9037229e-01   2.8628169e-01  -3.2865556e+05
   3.5318439e-09  -1.8144982e-04   2.9036251e-01   2.8629153e-01  -3.2707909e+05
   3.5345115e-09  -1.8057943e-04   2.9035277e-01   2.8630132e-01  -3.2551018e+05
   3.5371791e-09  -1.7971320e-04   2.9034308e-01   2.8631106e-01  -3.2394879e+05
   3.5398466e-09  -1.7885113e-04   2.9033344e-01   2.8632076e-01  -3.2239489e+05
   3.5425142e-09  -1.7799320e-04   2.9032384e-01   2.8633041e-01  -3.2084844e+05
   3.5451817e-09  -1.7713938e-04   2.9031429e-01   2.8634001e-01  -3.1930942e+05
   3.5478493e-09  -1.7628966e-04   2.9030478e-01   2.8634957e-01  -3.1777777e+05
   3.5505168e-09  -1.7544402e-04   2.9029532e-01   2.8635909e-01  -3.1625347e+05
   3.5531844e-09  -1.7460243e-04   2.9028591e-01   2.8636855e-01  -3.1473648e+05
   3.5558520e-09  -1.7376487e-04   2.9027654e-01   2.8637798e-01  -3.1322677e+05
   3.5585195e-09  -1.7293134e-04   2.9026722e-01   2.8638735e-01  -3.1172430e+05
   3.5611871e-09  -1.7210180e-04   2.9025794e-01   2.8639669e-01  -3.1022903e+05
   3.5638546e-09  -1.7127624e-04   2.9024871e-01   2.8640597e-01  -3.0874094e+05
   3.5665222e-09  -1.7045464e-04   2.9023952e-01   2.8641522e-01  -3.0725998e+05
   3.5691897e-09  -1.6963699e-04   2.9023038e-01   2.8642442e-01  -3.0578613e+05
   3.5718573e-09  -1.6882325e-04   2.9022128e-01   2.8643357e-01  -3.0431935e+05
   3.5745248e-09  -1.6801342e-04   2.9021222e-01   2.8644269e-01  -3.0285960e+05
   3.5771924e-09  -1.6720747e-04   2.9020321e-01   2.8645176e-01  -3.0140686e+05
   3.5798600e-09  -1.6640539e-04   2.9019424e-01   2.8646078e-01  -2.9996108e+05
   3.5825275e-09  -1.6560716e-04   2.9018532e-01   2.8646976e-01  -2.9852224e+05
   3.5851951e-09  -1.6481275e-04   2.9017643e-01   2.8647870e-01  -2.9709030e+05
   3.5878626e-09  -1.6402216e-04   2.9016759e-01   2.8648760e-01  -2.9566522e+05
   3.5905302e-09  -1.6323535e-04   2.9015880e-01   2.8649646e-01  -2.9424699e+05
   3.5931977e-09  -1.6245233e-04   2.9015004e-01   2.8650527e-01  -2.9283555e+05
   3.5958653e-09  -1.6167305e-04   2.9014133e-01   2.8651404e-01  -2.9143089e+05
   3.5985328e-09  -1.6089752e-04   2.9013266e-01   2.8652277e-01  -2.9003296e+05
   3.6012004e-09  -1.6012570e-04   2.9012403e-01   2.8653146e-01  -2.8864173e+05
   3.6038680e-09  -1.5935759e-04   2.9011544e-01   2.8654010e-01  -2.8725719e+05
   3.6065355e-09  -1.5859317e-04   2.9010690e-01   2.8654871e-01  -2.8587928e+05
   3.6092031e-09  -1.5783240e-04   2.9009839e-01   2.8655727e-01  -2.8450798e+05
   3.6118706e-09  -1.5707529e-04   2.9008993e-01   2.8656579e-01  -2.8314326e+05
   3.6145382e-09  -1.5632181e-04   2.9008151e-01   2.8657427e-01  -2.8178508e+05
   3.6172057e-09  -1.5557195e-04   2.9007313e-01   2.8658272e-01  -2.8043342e+05
   3.6198733e-09  -1.5482568e-04   2.9006479e-01   2.8659112e-01  -2.7908824e+05
   3.6225408e-09  -1.5408299e-04   2.9005648e-01   2.8659948e-01  -2.7774951e+05
   3.6252084e-09  -1.5334386e-04   2.9004822e-01   2.8660780e-01  -2.7641721e+05
   3.6278760e-09  -1.5260828e-04   2.9004000e-01   2.8661608e-01  -2.7509129e+05
   3.6305435e-09  -1.5187623e-04   2.9003182e-01   2.8662432e-01  -2.7377174e+05
   3.6332111e-09  -1.5114769e-04   2.9002368e-01   2.8663253e-01  -2.7245851e+05
   3.6358786e-09  -1.5042264e-04   2.9001558e-01   2.8664069e-01  -2.7115159e+05
   3.6385462e-09  -1.4970107e-04   2.9000751e-01   2.8664881e-01  -2.6985093e+05
   3.6412137e-09  -1.4898296e-04   2.8999949e-01   2.8665690e-01  -2.6855651e+05
   3.6438813e-09  -1.4826830e-04   2.8999150e-01   2.8666495e-01  -2.6726830e+05
   3.6465488e-09  -1.4755707e-04   2.8998355e-01   2.8667296e-01  -2.6598627e+05
   3.6492164e-09  -1.4684924e-04   2.8997564e-01   2.8668093e-01  -2.6471038e+05
   3.6518840e-09  -1.4614481e-04   2.8996777e-01   2.8668886e-01  -2.6344062e+05
   3.6545515e-09  -1.4544377e-04   2.8995994e-01   2.8669675e-01  -2.6217695e+05
   3.6572191e-09  -1.4474608e-04   2.8995214e-01   2.8670461e-01  -2.6091934e+05
   3.6598866e-09  -1.4405174e-04   2.8994439e-01   2.8671243e-01  -2.5966776e+05
   3.6625542e-09  -1.4336073e-04   2.8993667e-01   2.8672021e-01  -2.5842218e+05
   3.6652217e-09  -1.4267304e-04   2.8992898e-01   2.8672796e-01  -2.5718258e+05
   3.6678893e-09  -1.4198864e-04   2.8992134e-01   2.8673567e-01  -2.5594893e+05
   3.6705569e-09  -1.4130753e-04   2.8991373e-01   2.8674334e-01  -2.5472119e+05
   3.6732244e-09  -1.4062968e-04   2.8990615e-01   2.8675097e-01  -2.5349934e+05
   3.6758920e-09  -1.3995509e-04   2.8989862e-01   2.8675857e-01  -2.5228335e+05
   3.6785595e-09  -1.3928373e-04   2.8989112e-01   2.8676613e-01  -2.5107319e+05
   3.6812271e-09  -1.3861559e-04   2.8988365e-01   2.8677366e-01  -2.4986884e+05
   3.6838946e-09  -1.3795066e-04   2.8987623e-01   2.8678115e-01  -2.4867027e+05
   3.6865622e-09  -1.3728892e-04   2.8986884e-01   2.8678860e-01  -2.4747744e+05
   3.6892297e-09  -1.3663035e-04   2.8986148e-01   2.8679602e-01  -2.4629034e+05
   3.6918973e-09  -1.3597494e-04   2.8985416e-01   2.8680341e-01  -2.4510893e+05
   3.6945649e-09  -1.3532267e-04   2.8984687e-01   2.8681075e-01  -2.4393318e+05
   3.6972324e-09  -1.3467353e-04   2.8983962e-01   2.8681807e-01  -2.4276308e+05
   3.6999000e-09  -1.3402751e-04   2.8983241e-01   2.8682535e-01  -2.4159859e+05
   3.7025675e-09  -1.3338458e-04   2.8982523e-01   2.8683259e-01  -2.4043968e+05
   3.7052351e-09  -1.3274474e-04   2.8981808e-01   2.8683980e-01  -2.3928634e+05
   3.7079026e-09  -1.3210797e-04   2.8981097e-01   2.8684697e-01  -2.3813852e+05
   3.7105702e-09  -1.3147425e-04   2.8980389e-01   2.8685411e-01  -2.3699621e+05
   3.7132377e-09  -1.3084358e-04   2.8979685e-01   2.8686122e-01  -2.3585938e+05
   3.7159053e-09  -1.3021592e-04   2.8978984e-01   2.8686829e-01  -2.3472800e+05
   3.7185729e-09  -1.2959128e-04   2.8978286e-01   2.8687533e-01  -2.3360205e+05
   3.7212404e-09  -1.2896964e-04   2.8977592e-01   2.8688233e-01  -2.3248150e+05
   3.7239080e-09  -1.2835097e-04   2.8976901e-01   2.8688931e-01  -2.3136633e+05
   3.7265755e-09  -1.2773528e-04   2.8976214e-01   2.8689624e-01  -2.3025650e+05
   3.7292431e-09  -1.2712254e-04   2.8975529e-01   2.8690315e-01  -2.2915200e+05
   3.7319106e-09  -1.2651273e-04   2.8974849e-01   2.8691002e-01  -2.2805279e+05
   3.7345782e-09  -1.2590585e-04   2.8974171e-01   2.8691686e-01  -2.2695886e+05
   3.7372457e-09  -1.2530189e-04   2.8973497e-01   2.8692367e-01  -2.2587018e+05
   3.7399133e-09  -1.2470082e-04   2.8972825e-01   2.8693044e-01  -2.2478671e+05
   3.7425809e-09  -1.2410263e-04   2.8972158e-01   2.8693718e-01  -2.2370845e+05
   3.7452484e-09  -1.2350731e-04   2.8971493e-01   2.8694389e-01  -2.2263535e+05
   3.7479160e-09  -1.2291485e-04   2.8970831e-01   2.8695057e-01  -2.2156741e+05
   3.7505835e-09  -1.2232523e-04   2.8970173e-01   2.8695721e-01  -2.2050458e+05
   3.7532511e-09  -1.2173844e-04   2.8969518e-01   2.8696383e-01  -2.1944685e+05
   3.7559186e-09  -1.2115447e-04   2.8968866e-01   2.8697041e-01  -2.1839420e+05
   3.7585862e-09  -1.2057329e-04   2.8968217e-01   2.8697696e-01  -2.1734660e+05
   3.7612538e-09  -1.1999490e-04   2.8967572e-01   2.8698348e-01  -2.1630402e+05
   3.7639213e-09  -1.1941929e-04   2.8966929e-01   2.8698997e-01  -2.1526644e+05
   3.7665889e-09  -1.1884644e-04   2.8966290e-01   2.8699643e-01  -2.1423384e+05
   3.7692564e-09  -1.1827633e-04   2.8965653e-01   2.8700285e-01  -2.1320619e+05
   3.7719240e-09  -1.1770896e-04   2.8965020e-01   2.8700925e-01  -2.1218347e+05
   3.7745915e-09  -1.1714432e-04   2.8964389e-01   2.8701561e-01  -2.1116566e+05
   3.7772591e-09  -1.1658238e-04   2.8963762e-01   2.8702195e-01  -2.1015273e+05
   3.7799266e-09  -1.1602313e-04   2.8963138e-01   2.8702825e-01  -2.0914465e+05
   3.7825942e-09  -1.1546657e-04   2.8962517e-01   2.8703453e-01  -2.0814141e+05
   3.7852618e-09  -1.1491268e-04   2.8961899e-01   2.8704077e-01  -2.0714299e+05
   3.7879293e-09  -1.1436144e-04   2.8961283e-01   2.8704699e-01  -2.0614935e+05
   3.7905969e-09  -1.1381285e-04   2.8960671e-01   2.8705317e-01  -2.0516048e+05
   3.7932644e-09  -1.1326690e-04   2.8960062e-01   2.8705933e-01  -2.0417636e+05
   3.7959320e-09  -1.1272356e-04   2.8959455e-01   2.8706545e-01  -2.0319695e+05
   3.7985995e-09  -1.1218282e-04   2.8958852e-01   2.8707155e-01  -2.0222224e+05
   3.8012671e-09  -1.1164468e-04   2.8958251e-01   2.8707762e-01  -2.0125221e+05
   3.8039346e-09  -1.1110912e-04   2.8957654e-01   2.8708366e-01  -2.0028683e+05
   3.8066022e-09  -1.1057613e-04   2.8957059e-01   2.8708967e-01  -1.9932608e+05
   3.8092698e-09  -1.1004570e-04   2.8956467e-01   2.8709565e-01  -1.9836994e+05
   3.8119373e-09  -1.0951781e-04   2.8955878e-01   2.8710160e-01  -1.9741838e+05
   3.8146049e-09  -1.0899246e-04   2.8955291e-01   2.8710753e-01  -1.9647139e+05
   3.8172724e-09  -1.0846962e-04   2.8954708e-01   2.8711342e-01  -1.9552894e+05
   3.8199400e-09  -1.0794929e-04   2.8954127e-01   2.8711929e-01  -1.9459101e+05
   3.8226075e-09  -1.0743146e-04   2.8953550e-01   2.8712513e-01  -1.9365758e+05
   3.8252751e-09  -1.0691611e-04   2.8952975e-01   2.8713094e-01  -1.9272863e+05
   3.8279426e-09  -1.0640323e-04   2.8952402e-01   2.8713672e-01  -1.9180414e+05
   3.8306102e-09  -1.0589282e-04   2.8951833e-01   2.8714248e-01  -1.9088407e+05
   3.8332778e-09  -1.0538485e-04   2.8951266e-01   2.8714821e-01  -1.8996843e+05
   3.8359453e-09  -1.0487932e-04   2.8950702e-01   2.8715391e-01  -1.8905717e+05
   3.8386129e-09  -1.0437621e-04   2.8950141e-01   2.8715958e-01  -1.8815028e+05
   3.8412804e-09  -1.0387552e-04   2.8949582e-01   2.8716523e-01  -1.8724775e+05
   3.8439480e-09  -1.0337723e-04   2.8949026e-01   2.8717085e-01  -1.8634954e+05
   3.8466155e-09  -1.0288133e-04   2.8948473e-01   2.8717644e-01  -1.8545565e+05
   3.8492831e-09  -1.0238781e-04   2.8947922e-01   2.8718201e-01  -1.8456604e+05
   3.8519507e-09  -1.0189665e-04   2.8947374e-01   2.8718755e-01  -1.8368069e+05
   3.8546182e-09  -1.0140785e-04   2.8946829e-01   2.8719306e-01  -1.8279960e+05
   3.8572858e-09  -1.0092140e-04   2.8946286e-01   2.8719855e-01  -1.8192273e+05
   3.8599533e-09  -1.0043728e-04   2.8945746e-01   2.8720401e-01  -1.8105006e+05
   3.8626209e-09  -9.9955481e-05   2.8945209e-01   2.8720945e-01  -1.8018159e+05
   3.8652884e-09  -9.9475994e-05   2.8944674e-01   2.8721486e-01  -1.7931727e+05
   3.8679560e-09  -9.8998807e-05   2.8944141e-01   2.8722024e-01  -1.7845711e+05
   3.8706235e-09  -9.8523909e-05   2.8943612e-01   2.8722560e-01  -1.7760107e+05
   3.8732911e-09  -9.8051289e-05   2.8943084e-01   2.8723093e-01  -1.7674913e+05
   3.8759587e-09  -9.7580936e-05   2.8942560e-01   2.8723623e-01  -1.7590129e+05
   3.8786262e-09  -9.7112839e-05   2.8942038e-01   2.8724151e-01  -1.7505751e+05
   3.8812938e-09  -9.6646988e-05   2.8941518e-01   2.8724677e-01  -1.7421777e+05
   3.8839613e-09  -9.6183371e-05   2.8941001e-01   2.8725200e-01  -1.7338207e+05
   3.8866289e-09  -9.5721978e-05   2.8940486e-01   2.8725721e-01  -1.7255037e+05
   3.8892964e-09  -9.5262799e-05   2.8939974e-01   2.8726239e-01  -1.7172266e+05
   3.8919640e-09  -9.4805822e-05   2.8939464e-01   2.8726754e-01  -1.7089893e+05
   3.8946315e-09  -9.4351037e-05   2.8938957e-01   2.8727267e-01  -1.7007914e+05
   3.8972991e-09  -9.3898434e-05   2.8938452e-01   2.8727778e-01  -1.6926329e+05
   3.8999667e-09  -9.3448001e-05   2.8937950e-01   2.8728286e-01  -1.6845135e+05
