   0.0000000e+00  -1.7227080e-01   6.2047097e+00   9.3515797e-06  -5.1736226e+08
   2.6675559e-12  -1.7089601e-01   6.1946475e+00   1.0390603e-05  -5.1354637e+08
   5.3351117e-12  -1.6953141e-01   6.1841481e+00   1.1535074e-05  -5.0972813e+08
   8.0026676e-12  -1.6817700e-01   6.1731990e+00   1.2794482e-05  -5.0590767e+08
   1.0670223e-11  -1.6683278e-01   6.1617880e+00   1.4179028e-05  -5.0208513e+08
   1.3337779e-11  -1.6549877e-01   6.1499029e+00   1.5699666e-05  -4.9826068e+08
   1.6005335e-11  -1.6417497e-01   6.1375318e+00   1.7368142e-05  -4.9443449e+08
   1.8672891e-11  -1.6286138e-01   6.1246629e+00   1.9197033e-05  -4.9060676e+08
   2.1340447e-11  -1.6155801e-01   6.1112845e+00   2.1199787e-05  -4.8677772e+08
   2.4008003e-11  -1.6026485e-01   6.0973855e+00   2.3390760e-05  -4.8294758e+08
   2.6675559e-11  -1.5898192e-01   6.0829548e+00   2.5785260e-05  -4.7911660e+08
   2.9343114e-11  -1.5770922e-01   6.0679819e+00   2.8399582e-05  -4.7528505e+08
   3.2010670e-11  -1.5644673e-01   6.0524565e+00   3.1251044e-05  -4.7145323e+08
   3.4678226e-11  -1.5519448e-01   6.0363690e+00   3.4358031e-05  -4.6762144e+08
   3.7345782e-11  -1.5395244e-01   6.0197100e+00   3.7740022e-05  -4.6379002e+08
   4.0013338e-11  -1.5272063e-01   6.0024708e+00   4.1417631e-05  -4.5995931e+08
   4.2680894e-11  -1.5149904e-01   5.9846432e+00   4.5412634e-05  -4.5612971e+08
   4.5348449e-11  -1.5028767e-01   5.9662197e+00   4.9747999e-05  -4.5230159e+08
   4.8016005e-11  -1.4908651e-01   5.9471933e+00   5.4447917e-05  -4.4847538e+08
   5.0683561e-11  -1.4789556e-01   5.9275580e+00   5.9537820e-05  -4.4465151e+08
   5.3351117e-11  -1.4671480e-01   5.9073081e+00   6.5044409e-05  -4.4083044e+08
   5.6018673e-11  -1.4554424e-01   5.8864390e+00   7.0995663e-05  -4.3701265e+08
   5.8686229e-11  -1.4438386e-01   5.8649467e+00   7.7420859e-05  -4.3319865e+08
   6.1353785e-11  -1.4323364e-01   5.8428283e+00   8.4350578e-05  -4.2938896e+08
   6.4021340e-11  -1.4209359e-01   5.8200815e+00   9.1816713e-05  -4.2558411e+08
   6.6688896e-11  -1.4096368e-01   5.7967050e+00   9.9852463e-05  -4.2178467e+08
   6.9356452e-11  -1.3984390e-01   5.7726985e+00   1.0849233e-04  -4.1799121e+08
   7.2024008e-11  -1.3873424e-01   5.7480625e+00   1.1777213e-04  -4.1420434e+08
   7.4691564e-11  -1.3763466e-01   5.7227985e+00   1.2772892e-04  -4.1042467e+08
   7.7359120e-11  -1.3654516e-01   5.6969091e+00   1.3840106e-04  -4.0665284e+08
   8.0026676e-11  -1.3546571e-01   5.6703977e+00   1.4982811e-04  -4.0288950e+08
   8.2694231e-11  -1.3439629e-01   5.6432689e+00   1.6205084e-04  -3.9913529e+08
   8.5361787e-11  -1.3333687e-01   5.6155282e+00   1.7511118e-04  -3.9539092e+08
   8.8029343e-11  -1.3228743e-01   5.5871820e+00   1.8905220e-04  -3.9165706e+08
   9.0696899e-11  -1.3124793e-01   5.5582379e+00   2.0391800e-04  -3.8793441e+08
   9.3364455e-11  -1.3021834e-01   5.5287043e+00   2.1975374e-04  -3.8422369e+08
   9.6032011e-11  -1.2919864e-01   5.4985907e+00   2.3660549e-04  -3.8052562e+08
   9.8699567e-11  -1.2818878e-01   5.4679076e+00   2.5452024e-04  -3.7684091e+08
   1.0136712e-10  -1.2718874e-01   5.4366663e+00   2.7354580e-04  -3.7317032e+08
   1.0403468e-10  -1.2619846e-01   5.4048790e+00   2.9373072e-04  -3.6951456e+08
   1.0670223e-10  -1.2521792e-01   5.3725591e+00   3.1512419e-04  -3.6587439e+08
   1.0936979e-10  -1.2424706e-01   5.3397204e+00   3.3777604e-04  -3.6225053e+08
   1.1203735e-10  -1.2328585e-01   5.3063779e+00   3.6173654e-04  -3.5864374e+08
   1.1470490e-10  -1.2233424e-01   5.2725471e+00   3.8705640e-04  -3.5505474e+08
   1.1737246e-10  -1.2139217e-01   5.2382445e+00   4.1378664e-04  -3.5148428e+08
   1.2004001e-10  -1.2045959e-01   5.2034871e+00   4.4197849e-04  -3.4793307e+08
   1.2270757e-10  -1.1953647e-01   5.1682925e+00   4.7168332e-04  -3.4440183e+08
   1.2537513e-10  -1.1862273e-01   5.1326792e+00   5.0295252e-04  -3.4089128e+08
   1.2804268e-10  -1.1771833e-01   5.0966659e+00   5.3583740e-04  -3.3740212e+08
   1.3071024e-10  -1.1682320e-01   5.0602721e+00   5.7038913e-04  -3.3393504e+08
   1.3337779e-10  -1.1593729e-01   5.0235174e+00   6.0665858e-04  -3.3049071e+08
   1.3604535e-10  -1.1506054e-01   4.9864221e+00   6.4469628e-04  -3.2706978e+08
   1.3871290e-10  -1.1419287e-01   4.9490066e+00   6.8455231e-04  -3.2367291e+08
   1.4138046e-10  -1.1333423e-01   4.9112918e+00   7.2627617e-04  -3.2030071e+08
   1.4404802e-10  -1.1248455e-01   4.8732987e+00   7.6991675e-04  -3.1695380e+08
   1.4671557e-10  -1.1164376e-01   4.8350483e+00   8.1552220e-04  -3.1363275e+08
   1.4938313e-10  -1.1081179e-01   4.7965620e+00   8.6313984e-04  -3.1033813e+08
   1.5205068e-10  -1.0998857e-01   4.7578610e+00   9.1281612e-04  -3.0707048e+08
   1.5471824e-10  -1.0917403e-01   4.7189667e+00   9.6459652e-04  -3.0383033e+08
   1.5738580e-10  -1.0836809e-01   4.6799004e+00   1.0185254e-03  -3.0061815e+08
   1.6005335e-10  -1.0757067e-01   4.6406832e+00   1.0746462e-03  -2.9743442e+08
   1.6272091e-10  -1.0678171e-01   4.6013361e+00   1.1330010e-03  -2.9427959e+08
   1.6538846e-10  -1.0600112e-01   4.5618800e+00   1.1936306e-03  -2.9115405e+08
   1.6805602e-10  -1.0522883e-01   4.5223354e+00   1.2565748e-03  -2.8805822e+08
   1.7072357e-10  -1.0446475e-01   4.4827227e+00   1.3218717e-03  -2.8499244e+08
   1.7339113e-10  -1.0370880e-01   4.4430618e+00   1.3895582e-03  -2.8195705e+08
   1.7605869e-10  -1.0296091e-01   4.4033724e+00   1.4596699e-03  -2.7895235e+08
   1.7872624e-10  -1.0222098e-01   4.3636737e+00   1.5322408e-03  -2.7597863e+08
   1.8139380e-10  -1.0148894e-01   4.3239846e+00   1.6073034e-03  -2.7303612e+08
   1.8406135e-10  -1.0076471e-01   4.2843235e+00   1.6848887e-03  -2.7012507e+08
   1.8672891e-10  -1.0004820e-01   4.2447082e+00   1.7650263e-03  -2.6724565e+08
   1.8939647e-10  -9.9339315e-02   4.2051562e+00   1.8477442e-03  -2.6439803e+08
   1.9206402e-10  -9.8637985e-02   4.1656843e+00   1.9330688e-03  -2.6158237e+08
   1.9473158e-10  -9.7944119e-02   4.1263091e+00   2.0210251e-03  -2.5879876e+08
   1.9739913e-10  -9.7257631e-02   4.0870462e+00   2.1116363e-03  -2.5604730e+08
   2.0006669e-10  -9.6578436e-02   4.0479110e+00   2.2049244e-03  -2.5332804e+08
   2.0273424e-10  -9.5906448e-02   4.0089181e+00   2.3009096e-03  -2.5064103e+08
   2.0540180e-10  -9.5241580e-02   3.9700817e+00   2.3996108e-03  -2.4798628e+08
   2.0806936e-10  -9.4583748e-02   3.9314154e+00   2.5010451e-03  -2.4536377e+08
   2.1073691e-10  -9.3932864e-02   3.8929320e+00   2.6052285e-03  -2.4277347e+08
   2.1340447e-10  -9.3288843e-02   3.8546439e+00   2.7121753e-03  -2.4021532e+08
   2.1607202e-10  -9.2651600e-02   3.8165630e+00   2.8218983e-03  -2.3768924e+08
   2.1873958e-10  -9.2021048e-02   3.7787004e+00   2.9344091e-03  -2.3519514e+08
   2.2140714e-10  -9.1397104e-02   3.7410667e+00   3.0497179e-03  -2.3273289e+08
   2.2407469e-10  -9.0779681e-02   3.7036720e+00   3.1678334e-03  -2.3030235e+08
   2.2674225e-10  -9.0168696e-02   3.6665258e+00   3.2887631e-03  -2.2790338e+08
   2.2940980e-10  -8.9564065e-02   3.6296369e+00   3.4125132e-03  -2.2553579e+08
   2.3207736e-10  -8.8965705e-02   3.5930138e+00   3.5390886e-03  -2.2319939e+08
   2.3474491e-10  -8.8373532e-02   3.5566642e+00   3.6684932e-03  -2.2089399e+08
   2.3741247e-10  -8.7787464e-02   3.5205955e+00   3.8007294e-03  -2.1861935e+08
   2.4008003e-10  -8.7207420e-02   3.4848144e+00   3.9357988e-03  -2.1637526e+08
   2.4274758e-10  -8.6633318e-02   3.4493272e+00   4.0737017e-03  -2.1416145e+08
   2.4541514e-10  -8.6065078e-02   3.4141397e+00   4.2144374e-03  -2.1197767e+08
   2.4808269e-10  -8.5502620e-02   3.3792573e+00   4.3580042e-03  -2.0982365e+08
   2.5075025e-10  -8.4945866e-02   3.3446846e+00   4.5043994e-03  -2.0769912e+08
   2.5341781e-10  -8.4394737e-02   3.3104262e+00   4.6536195e-03  -2.0560377e+08
   2.5608536e-10  -8.3849155e-02   3.2764861e+00   4.8056598e-03  -2.0353732e+08
   2.5875292e-10  -8.3309045e-02   3.2428676e+00   4.9605151e-03  -2.0149945e+08
   2.6142047e-10  -8.2774330e-02   3.2095741e+00   5.1181791e-03  -1.9948986e+08
   2.6408803e-10  -8.2244936e-02   3.1766083e+00   5.2786449e-03  -1.9750822e+08
   2.6675559e-10  -8.1720788e-02   3.1439725e+00   5.4419048e-03  -1.9555421e+08
   2.6942314e-10  -8.1201813e-02   3.1116687e+00   5.6079502e-03  -1.9362749e+08
   2.7209070e-10  -8.0687939e-02   3.0796987e+00   5.7767722e-03  -1.9172774e+08
   2.7475825e-10  -8.0179094e-02   3.0480638e+00   5.9483609e-03  -1.8985461e+08
   2.7742581e-10  -7.9675208e-02   3.0167651e+00   6.1227060e-03  -1.8800775e+08
   2.8009336e-10  -7.9176212e-02   2.9858033e+00   6.2997965e-03  -1.8618683e+08
   2.8276092e-10  -7.8682036e-02   2.9551788e+00   6.4796210e-03  -1.8439150e+08
   2.8542848e-10  -7.8192613e-02   2.9248919e+00   6.6621676e-03  -1.8262140e+08
   2.8809603e-10  -7.7707877e-02   2.8949426e+00   6.8474236e-03  -1.8087620e+08
   2.9076359e-10  -7.7227761e-02   2.8653304e+00   7.0353762e-03  -1.7915552e+08
   2.9343114e-10  -7.6752200e-02   2.8360549e+00   7.2260119e-03  -1.7745904e+08
   2.9609870e-10  -7.6281130e-02   2.8071153e+00   7.4193171e-03  -1.7578638e+08
   2.9876626e-10  -7.5814489e-02   2.7785106e+00   7.6152777e-03  -1.7413722e+08
   3.0143381e-10  -7.5352214e-02   2.7502398e+00   7.8138790e-03  -1.7251118e+08
   3.0410137e-10  -7.4894244e-02   2.7223015e+00   8.0151062e-03  -1.7090793e+08
   3.0676892e-10  -7.4440519e-02   2.6946942e+00   8.2189443e-03  -1.6932711e+08
   3.0943648e-10  -7.3990979e-02   2.6674162e+00   8.4253779e-03  -1.6776839e+08
   3.1210403e-10  -7.3545566e-02   2.6404657e+00   8.6343912e-03  -1.6623142e+08
   3.1477159e-10  -7.3104223e-02   2.6138408e+00   8.8459683e-03  -1.6471586e+08
   3.1743915e-10  -7.2666893e-02   2.5875395e+00   9.0600931e-03  -1.6322136e+08
   3.2010670e-10  -7.2233520e-02   2.5615594e+00   9.2767492e-03  -1.6174761e+08
   3.2277426e-10  -7.1804049e-02   2.5358983e+00   9.4959201e-03  -1.6029425e+08
   3.2544181e-10  -7.1378426e-02   2.5105538e+00   9.7175891e-03  -1.5886097e+08
   3.2810937e-10  -7.0956599e-02   2.4855235e+00   9.9417393e-03  -1.5744743e+08
   3.3077693e-10  -7.0538515e-02   2.4608046e+00   1.0168354e-02  -1.5605331e+08
   3.3344448e-10  -7.0124123e-02   2.4363945e+00   1.0397415e-02  -1.5467831e+08
   3.3611204e-10  -6.9713372e-02   2.4122905e+00   1.0628906e-02  -1.5332209e+08
   3.3877959e-10  -6.9306213e-02   2.3884898e+00   1.0862810e-02  -1.5198434e+08
   3.4144715e-10  -6.8902597e-02   2.3649895e+00   1.1099108e-02  -1.5066477e+08
   3.4411470e-10  -6.8502475e-02   2.3417867e+00   1.1337784e-02  -1.4936307e+08
   3.4678226e-10  -6.8105801e-02   2.3188784e+00   1.1578820e-02  -1.4807893e+08
   3.4944982e-10  -6.7712528e-02   2.2962616e+00   1.1822197e-02  -1.4681206e+08
   3.5211737e-10  -6.7322611e-02   2.2739332e+00   1.2067899e-02  -1.4556218e+08
   3.5478493e-10  -6.6936004e-02   2.2518902e+00   1.2315908e-02  -1.4432898e+08
   3.5745248e-10  -6.6552663e-02   2.2301294e+00   1.2566206e-02  -1.4311220e+08
   3.6012004e-10  -6.6172546e-02   2.2086478e+00   1.2818774e-02  -1.4191154e+08
   3.6278760e-10  -6.5795610e-02   2.1874421e+00   1.3073596e-02  -1.4072675e+08
   3.6545515e-10  -6.5421811e-02   2.1665093e+00   1.3330653e-02  -1.3955754e+08
   3.6812271e-10  -6.5051111e-02   2.1458460e+00   1.3589928e-02  -1.3840365e+08
   3.7079026e-10  -6.4683467e-02   2.1254492e+00   1.3851402e-02  -1.3726482e+08
   3.7345782e-10  -6.4318840e-02   2.1053156e+00   1.4115058e-02  -1.3614080e+08
   3.7612538e-10  -6.3957191e-02   2.0854421e+00   1.4380877e-02  -1.3503132e+08
   3.7879293e-10  -6.3598482e-02   2.0658254e+00   1.4648843e-02  -1.3393615e+08
   3.8146049e-10  -6.3242675e-02   2.0464625e+00   1.4918937e-02  -1.3285503e+08
   3.8412804e-10  -6.2889732e-02   2.0273500e+00   1.5191142e-02  -1.3178773e+08
   3.8679560e-10  -6.2539617e-02   2.0084848e+00   1.5465439e-02  -1.3073400e+08
   3.8946315e-10  -6.2192295e-02   1.9898637e+00   1.5741811e-02  -1.2969363e+08
   3.9213071e-10  -6.1847729e-02   1.9714837e+00   1.6020241e-02  -1.2866637e+08
   3.9479827e-10  -6.1505886e-02   1.9533416e+00   1.6300710e-02  -1.2765202e+08
   3.9746582e-10  -6.1166730e-02   1.9354342e+00   1.6583202e-02  -1.2665034e+08
   4.0013338e-10  -6.0830230e-02   1.9177585e+00   1.6867698e-02  -1.2566111e+08
   4.0280093e-10  -6.0496351e-02   1.9003113e+00   1.7154181e-02  -1.2468414e+08
   4.0546849e-10  -6.0165061e-02   1.8830897e+00   1.7442634e-02  -1.2371921e+08
   4.0813605e-10  -5.9836329e-02   1.8660905e+00   1.7733039e-02  -1.2276612e+08
   4.1080360e-10  -5.9510123e-02   1.8493108e+00   1.8025379e-02  -1.2182466e+08
   4.1347116e-10  -5.9186413e-02   1.8327477e+00   1.8319636e-02  -1.2089464e+08
   4.1613871e-10  -5.8865168e-02   1.8163980e+00   1.8615794e-02  -1.1997587e+08
   4.1880627e-10  -5.8546358e-02   1.8002589e+00   1.8913835e-02  -1.1906815e+08
   4.2147382e-10  -5.8229955e-02   1.7843276e+00   1.9213742e-02  -1.1817131e+08
   4.2414138e-10  -5.7915929e-02   1.7686010e+00   1.9515498e-02  -1.1728515e+08
   4.2680894e-10  -5.7604253e-02   1.7530764e+00   1.9819085e-02  -1.1640951e+08
   4.2947649e-10  -5.7294897e-02   1.7377509e+00   2.0124488e-02  -1.1554420e+08
   4.3214405e-10  -5.6987837e-02   1.7226218e+00   2.0431689e-02  -1.1468905e+08
   4.3481160e-10  -5.6683043e-02   1.7076862e+00   2.0740672e-02  -1.1384390e+08
   4.3747916e-10  -5.6380490e-02   1.6929415e+00   2.1051419e-02  -1.1300857e+08
   4.4014672e-10  -5.6080152e-02   1.6783850e+00   2.1363914e-02  -1.1218291e+08
   4.4281427e-10  -5.5782004e-02   1.6640139e+00   2.1678141e-02  -1.1136676e+08
   4.4548183e-10  -5.5486020e-02   1.6498257e+00   2.1994082e-02  -1.1055996e+08
   4.4814938e-10  -5.5192175e-02   1.6358178e+00   2.2311722e-02  -1.0976235e+08
   4.5081694e-10  -5.4900445e-02   1.6219875e+00   2.2631043e-02  -1.0897379e+08
   4.5348449e-10  -5.4610807e-02   1.6083324e+00   2.2952030e-02  -1.0819413e+08
   4.5615205e-10  -5.4323236e-02   1.5948499e+00   2.3274667e-02  -1.0742322e+08
   4.5881961e-10  -5.4037710e-02   1.5815375e+00   2.3598937e-02  -1.0666093e+08
   4.6148716e-10  -5.3754205e-02   1.5683929e+00   2.3924823e-02  -1.0590711e+08
   4.6415472e-10  -5.3472700e-02   1.5554135e+00   2.4252311e-02  -1.0516163e+08
   4.6682227e-10  -5.3193173e-02   1.5425971e+00   2.4581383e-02  -1.0442435e+08
   4.6948983e-10  -5.2915600e-02   1.5299413e+00   2.4912025e-02  -1.0369515e+08
   4.7215739e-10  -5.2639963e-02   1.5174437e+00   2.5244219e-02  -1.0297389e+08
   4.7482494e-10  -5.2366238e-02   1.5051021e+00   2.5577951e-02  -1.0226045e+08
   4.7749250e-10  -5.2094406e-02   1.4929142e+00   2.5913205e-02  -1.0155470e+08
   4.8016005e-10  -5.1824446e-02   1.4808778e+00   2.6249964e-02  -1.0085653e+08
   4.8282761e-10  -5.1556338e-02   1.4689907e+00   2.6588214e-02  -1.0016581e+08
   4.8549517e-10  -5.1290063e-02   1.4572508e+00   2.6927938e-02  -9.9482425e+07
   4.8816272e-10  -5.1025600e-02   1.4456559e+00   2.7269122e-02  -9.8806266e+07
   4.9083028e-10  -5.0762932e-02   1.4342040e+00   2.7611750e-02  -9.8137219e+07
   4.9349783e-10  -5.0502039e-02   1.4228929e+00   2.7955806e-02  -9.7475173e+07
   4.9616539e-10  -5.0242902e-02   1.4117206e+00   2.8301275e-02  -9.6820019e+07
   4.9883294e-10  -4.9985504e-02   1.4006852e+00   2.8648143e-02  -9.6171654e+07
   5.0150050e-10  -4.9729826e-02   1.3897846e+00   2.8996394e-02  -9.5529971e+07
   5.0416806e-10  -4.9475851e-02   1.3790169e+00   2.9346012e-02  -9.4894870e+07
   5.0683561e-10  -4.9223561e-02   1.3683802e+00   2.9696983e-02  -9.4266251e+07
   5.0950317e-10  -4.8972939e-02   1.3578725e+00   3.0049293e-02  -9.3644016e+07
   5.1217072e-10  -4.8723968e-02   1.3474921e+00   3.0402925e-02  -9.3028068e+07
   5.1483828e-10  -4.8476632e-02   1.3372371e+00   3.0757865e-02  -9.2418313e+07
   5.1750584e-10  -4.8230915e-02   1.3271057e+00   3.1114099e-02  -9.1814659e+07
   5.2017339e-10  -4.7986799e-02   1.3170961e+00   3.1471612e-02  -9.1217014e+07
   5.2284095e-10  -4.7744269e-02   1.3072065e+00   3.1830389e-02  -9.0625291e+07
   5.2550850e-10  -4.7503310e-02   1.2974353e+00   3.2190415e-02  -9.0039400e+07
   5.2817606e-10  -4.7263906e-02   1.2877807e+00   3.2551677e-02  -8.9459258e+07
   5.3084361e-10  -4.7026042e-02   1.2782410e+00   3.2914159e-02  -8.8884778e+07
   5.3351117e-10  -4.6789703e-02   1.2688147e+00   3.3277847e-02  -8.8315880e+07
   5.3617873e-10  -4.6554873e-02   1.2595001e+00   3.3642727e-02  -8.7752481e+07
   5.3884628e-10  -4.6321539e-02   1.2502955e+00   3.4008785e-02  -8.7194502e+07
   5.4151384e-10  -4.6089687e-02   1.2411995e+00   3.4376006e-02  -8.6641865e+07
   5.4418139e-10  -4.5859301e-02   1.2322104e+00   3.4744377e-02  -8.6094494e+07
   5.4684895e-10  -4.5630368e-02   1.2233268e+00   3.5113882e-02  -8.5552314e+07
   5.4951651e-10  -4.5402875e-02   1.2145472e+00   3.5484509e-02  -8.5015249e+07
   5.5218406e-10  -4.5176808e-02   1.2058700e+00   3.5856243e-02  -8.4483229e+07
   5.5485162e-10  -4.4952153e-02   1.1972939e+00   3.6229070e-02  -8.3956182e+07
   5.5751917e-10  -4.4728897e-02   1.1888173e+00   3.6602977e-02  -8.3434037e+07
   5.6018673e-10  -4.4507027e-02   1.1804389e+00   3.6977950e-02  -8.2916728e+07
   5.6285428e-10  -4.4286531e-02   1.1721573e+00   3.7353974e-02  -8.2404185e+07
   5.6552184e-10  -4.4067396e-02   1.1639712e+00   3.7731036e-02  -8.1896343e+07
   5.6818940e-10  -4.3849609e-02   1.1558791e+00   3.8109123e-02  -8.1393137e+07
   5.7085695e-10  -4.3633158e-02   1.1478798e+00   3.8488222e-02  -8.0894504e+07
   5.7352451e-10  -4.3418031e-02   1.1399720e+00   3.8868317e-02  -8.0400381e+07
   5.7619206e-10  -4.3204216e-02   1.1321543e+00   3.9249397e-02  -7.9910706e+07
   5.7885962e-10  -4.2991702e-02   1.1244256e+00   3.9631448e-02  -7.9425419e+07
   5.8152718e-10  -4.2780476e-02   1.1167845e+00   4.0014456e-02  -7.8944460e+07
   5.8419473e-10  -4.2570528e-02   1.1092299e+00   4.0398408e-02  -7.8467773e+07
   5.8686229e-10  -4.2361845e-02   1.1017605e+00   4.0783291e-02  -7.7995298e+07
   5.8952984e-10  -4.2154417e-02   1.0943753e+00   4.1169091e-02  -7.7526980e+07
   5.9219740e-10  -4.1948232e-02   1.0870729e+00   4.1555797e-02  -7.7062764e+07
   5.9486495e-10  -4.1743281e-02   1.0798523e+00   4.1943394e-02  -7.6602596e+07
   5.9753251e-10  -4.1539551e-02   1.0727123e+00   4.2331869e-02  -7.6146422e+07
   6.0020007e-10  -4.1337034e-02   1.0656518e+00   4.2721210e-02  -7.5694190e+07
   6.0286762e-10  -4.1135717e-02   1.0586698e+00   4.3111404e-02  -7.5245849e+07
   6.0553518e-10  -4.0935591e-02   1.0517651e+00   4.3502437e-02  -7.4801347e+07
   6.0820273e-10  -4.0736645e-02   1.0449366e+00   4.3894298e-02  -7.4360636e+07
   6.1087029e-10  -4.0538870e-02   1.0381835e+00   4.4286973e-02  -7.3923666e+07
   6.1353785e-10  -4.0342256e-02   1.0315045e+00   4.4680450e-02  -7.3490390e+07
   6.1620540e-10  -4.0146793e-02   1.0248988e+00   4.5074716e-02  -7.3060760e+07
   6.1887296e-10  -3.9952470e-02   1.0183652e+00   4.5469759e-02  -7.2634729e+07
   6.2154051e-10  -3.9759280e-02   1.0119029e+00   4.5865566e-02  -7.2212254e+07
   6.2420807e-10  -3.9567211e-02   1.0055109e+00   4.6262124e-02  -7.1793287e+07
   6.2687563e-10  -3.9376256e-02   9.9918816e-01   4.6659421e-02  -7.1377786e+07
   6.2954318e-10  -3.9186404e-02   9.9293382e-01   4.7057446e-02  -7.0965708e+07
   6.3221074e-10  -3.8997647e-02   9.8674694e-01   4.7456184e-02  -7.0557009e+07
   6.3487829e-10  -3.8809976e-02   9.8062661e-01   4.7855626e-02  -7.0151648e+07
   6.3754585e-10  -3.8623381e-02   9.7457196e-01   4.8255757e-02  -6.9749583e+07
   6.4021340e-10  -3.8437855e-02   9.6858208e-01   4.8656566e-02  -6.9350774e+07
   6.4288096e-10  -3.8253388e-02   9.6265614e-01   4.9058042e-02  -6.8955182e+07
   6.4554852e-10  -3.8069972e-02   9.5679326e-01   4.9460171e-02  -6.8562767e+07
   6.4821607e-10  -3.7887599e-02   9.5099262e-01   4.9862942e-02  -6.8173491e+07
   6.5088363e-10  -3.7706260e-02   9.4525339e-01   5.0266343e-02  -6.7787316e+07
   6.5355118e-10  -3.7525947e-02   9.3957476e-01   5.0670363e-02  -6.7404204e+07
   6.5621874e-10  -3.7346652e-02   9.3395592e-01   5.1074989e-02  -6.7024118e+07
   6.5888630e-10  -3.7168366e-02   9.2839610e-01   5.1480209e-02  -6.6647024e+07
   6.6155385e-10  -3.6991083e-02   9.2289451e-01   5.1886012e-02  -6.6272885e+07
   6.6422141e-10  -3.6814793e-02   9.1745040e-01   5.2292387e-02  -6.5901667e+07
   6.6688896e-10  -3.6639490e-02   9.1206300e-01   5.2699321e-02  -6.5533335e+07
   6.6955652e-10  -3.6465166e-02   9.0673159e-01   5.3106803e-02  -6.5167855e+07
   6.7222407e-10  -3.6291813e-02   9.0145543e-01   5.3514822e-02  -6.4805194e+07
   6.7489163e-10  -3.6119424e-02   8.9623381e-01   5.3923366e-02  -6.4445320e+07
   6.7755919e-10  -3.5947990e-02   8.9106601e-01   5.4332424e-02  -6.4088200e+07
   6.8022674e-10  -3.5777506e-02   8.8595135e-01   5.4741985e-02  -6.3733802e+07
   6.8289430e-10  -3.5607964e-02   8.8088913e-01   5.5152036e-02  -6.3382096e+07
   6.8556185e-10  -3.5439356e-02   8.7587868e-01   5.5562568e-02  -6.3033050e+07
   6.8822941e-10  -3.5271675e-02   8.7091935e-01   5.5973568e-02  -6.2686635e+07
   6.9089697e-10  -3.5104915e-02   8.6601046e-01   5.6385026e-02  -6.2342820e+07
   6.9356452e-10  -3.4939069e-02   8.6115138e-01   5.6796931e-02  -6.2001577e+07
   6.9623208e-10  -3.4774130e-02   8.5634148e-01   5.7209271e-02  -6.1662876e+07
   6.9889963e-10  -3.4610091e-02   8.5158012e-01   5.7622036e-02  -6.1326690e+07
   7.0156719e-10  -3.4446945e-02   8.4686669e-01   5.8035214e-02  -6.0992990e+07
   7.0423474e-10  -3.4284686e-02   8.4220059e-01   5.8448795e-02  -6.0661748e+07
   7.0690230e-10  -3.4123308e-02   8.3758121e-01   5.8862769e-02  -6.0332938e+07
   7.0956986e-10  -3.3962803e-02   8.3300797e-01   5.9277123e-02  -6.0006533e+07
   7.1223741e-10  -3.3803166e-02   8.2848029e-01   5.9691848e-02  -5.9682507e+07
   7.1490497e-10  -3.3644390e-02   8.2399760e-01   6.0106934e-02  -5.9360833e+07
   7.1757252e-10  -3.3486469e-02   8.1955933e-01   6.0522368e-02  -5.9041486e+07
   7.2024008e-10  -3.3329397e-02   8.1516492e-01   6.0938141e-02  -5.8724442e+07
   7.2290764e-10  -3.3173168e-02   8.1081384e-01   6.1354243e-02  -5.8409675e+07
   7.2557519e-10  -3.3017775e-02   8.0650554e-01   6.1770662e-02  -5.8097161e+07
   7.2824275e-10  -3.2863212e-02   8.0223950e-01   6.2187389e-02  -5.7786876e+07
   7.3091030e-10  -3.2709475e-02   7.9801519e-01   6.2604414e-02  -5.7478797e+07
   7.3357786e-10  -3.2556556e-02   7.9383209e-01   6.3021724e-02  -5.7172899e+07
   7.3624542e-10  -3.2404451e-02   7.8968971e-01   6.3439312e-02  -5.6869161e+07
   7.3891297e-10  -3.2253153e-02   7.8558753e-01   6.3857166e-02  -5.6567559e+07
   7.4158053e-10  -3.2102656e-02   7.8152507e-01   6.4275277e-02  -5.6268071e+07
   7.4424808e-10  -3.1952956e-02   7.7750184e-01   6.4693633e-02  -5.5970676e+07
   7.4691564e-10  -3.1804046e-02   7.7351736e-01   6.5112227e-02  -5.5675351e+07
   7.4958319e-10  -3.1655921e-02   7.6957117e-01   6.5531046e-02  -5.5382075e+07
   7.5225075e-10  -3.1508576e-02   7.6566279e-01   6.5950082e-02  -5.5090828e+07
   7.5491831e-10  -3.1362005e-02   7.6179177e-01   6.6369324e-02  -5.4801588e+07
   7.5758586e-10  -3.1216203e-02   7.5795766e-01   6.6788763e-02  -5.4514335e+07
   7.6025342e-10  -3.1071164e-02   7.5416002e-01   6.7208389e-02  -5.4229049e+07
   7.6292097e-10  -3.0926884e-02   7.5039840e-01   6.7628192e-02  -5.3945710e+07
   7.6558853e-10  -3.0783357e-02   7.4667237e-01   6.8048163e-02  -5.3664298e+07
   7.6825609e-10  -3.0640578e-02   7.4298152e-01   6.8468292e-02  -5.3384795e+07
   7.7092364e-10  -3.0498543e-02   7.3932541e-01   6.8888570e-02  -5.3107181e+07
   7.7359120e-10  -3.0357245e-02   7.3570363e-01   6.9308986e-02  -5.2831437e+07
   7.7625875e-10  -3.0216681e-02   7.3211579e-01   6.9729532e-02  -5.2557545e+07
   7.7892631e-10  -3.0076844e-02   7.2856147e-01   7.0150199e-02  -5.2285487e+07
   7.8159386e-10  -2.9937731e-02   7.2504028e-01   7.0570976e-02  -5.2015244e+07
   7.8426142e-10  -2.9799336e-02   7.2155182e-01   7.0991854e-02  -5.1746799e+07
   7.8692898e-10  -2.9661655e-02   7.1809572e-01   7.1412826e-02  -5.1480135e+07
   7.8959653e-10  -2.9524683e-02   7.1467160e-01   7.1833880e-02  -5.1215234e+07
   7.9226409e-10  -2.9388416e-02   7.1127907e-01   7.2255008e-02  -5.0952079e+07
   7.9493164e-10  -2.9252848e-02   7.0791778e-01   7.2676202e-02  -5.0690653e+07
   7.9759920e-10  -2.9117975e-02   7.0458735e-01   7.3097451e-02  -5.0430940e+07
   8.0026676e-10  -2.8983792e-02   7.0128744e-01   7.3518747e-02  -5.0172924e+07
   8.0293431e-10  -2.8850296e-02   6.9801767e-01   7.3940082e-02  -4.9916588e+07
   8.0560187e-10  -2.8717481e-02   6.9477772e-01   7.4361446e-02  -4.9661916e+07
   8.0826942e-10  -2.8585343e-02   6.9156722e-01   7.4782830e-02  -4.9408893e+07
   8.1093698e-10  -2.8453878e-02   6.8838585e-01   7.5204226e-02  -4.9157504e+07
   8.1360453e-10  -2.8323082e-02   6.8523326e-01   7.5625625e-02  -4.8907732e+07
   8.1627209e-10  -2.8192949e-02   6.8210914e-01   7.6047018e-02  -4.8659564e+07
   8.1893965e-10  -2.8063477e-02   6.7901315e-01   7.6468397e-02  -4.8412983e+07
   8.2160720e-10  -2.7934660e-02   6.7594497e-01   7.6889754e-02  -4.8167976e+07
   8.2427476e-10  -2.7806495e-02   6.7290429e-01   7.7311079e-02  -4.7924528e+07
   8.2694231e-10  -2.7678977e-02   6.6989079e-01   7.7732364e-02  -4.7682624e+07
   8.2960987e-10  -2.7552102e-02   6.6690417e-01   7.8153602e-02  -4.7442251e+07
   8.3227743e-10  -2.7425866e-02   6.6394413e-01   7.8574783e-02  -4.7203394e+07
   8.3494498e-10  -2.7300266e-02   6.6101035e-01   7.8995899e-02  -4.6966040e+07
   8.3761254e-10  -2.7175296e-02   6.5810256e-01   7.9416942e-02  -4.6730176e+07
   8.4028009e-10  -2.7050954e-02   6.5522045e-01   7.9837905e-02  -4.6495787e+07
   8.4294765e-10  -2.6927235e-02   6.5236375e-01   8.0258778e-02  -4.6262861e+07
   8.4561521e-10  -2.6804136e-02   6.4953216e-01   8.0679553e-02  -4.6031385e+07
   8.4828276e-10  -2.6681652e-02   6.4672541e-01   8.1100224e-02  -4.5801345e+07
   8.5095032e-10  -2.6559780e-02   6.4394321e-01   8.1520781e-02  -4.5572729e+07
   8.5361787e-10  -2.6438516e-02   6.4118531e-01   8.1941218e-02  -4.5345525e+07
   8.5628543e-10  -2.6317856e-02   6.3845143e-01   8.2361525e-02  -4.5119720e+07
   8.5895298e-10  -2.6197796e-02   6.3574131e-01   8.2781695e-02  -4.4895301e+07
   8.6162054e-10  -2.6078333e-02   6.3305467e-01   8.3201721e-02  -4.4672257e+07
   8.6428810e-10  -2.5959464e-02   6.3039128e-01   8.3621594e-02  -4.4450576e+07
   8.6695565e-10  -2.5841184e-02   6.2775087e-01   8.4041308e-02  -4.4230246e+07
   8.6962321e-10  -2.5723490e-02   6.2513318e-01   8.4460854e-02  -4.4011255e+07
   8.7229076e-10  -2.5606378e-02   6.2253799e-01   8.4880225e-02  -4.3793592e+07
   8.7495832e-10  -2.5489845e-02   6.1996503e-01   8.5299413e-02  -4.3577245e+07
   8.7762588e-10  -2.5373888e-02   6.1741406e-01   8.5718412e-02  -4.3362203e+07
   8.8029343e-10  -2.5258502e-02   6.1488486e-01   8.6137213e-02  -4.3148455e+07
   8.8296099e-10  -2.5143685e-02   6.1237718e-01   8.6555809e-02  -4.2935990e+07
   8.8562854e-10  -2.5029433e-02   6.0989079e-01   8.6974193e-02  -4.2724798e+07
   8.8829610e-10  -2.4915743e-02   6.0742547e-01   8.7392358e-02  -4.2514867e+07
   8.9096365e-10  -2.4802611e-02   6.0498099e-01   8.7810297e-02  -4.2306187e+07
   8.9363121e-10  -2.4690034e-02   6.0255712e-01   8.8228002e-02  -4.2098748e+07
   8.9629877e-10  -2.4578009e-02   6.0015364e-01   8.8645466e-02  -4.1892539e+07
   8.9896632e-10  -2.4466532e-02   5.9777035e-01   8.9062683e-02  -4.1687550e+07
   9.0163388e-10  -2.4355600e-02   5.9540701e-01   8.9479645e-02  -4.1483771e+07
   9.0430143e-10  -2.4245211e-02   5.9306343e-01   8.9896345e-02  -4.1281192e+07
   9.0696899e-10  -2.4135360e-02   5.9073940e-01   9.0312777e-02  -4.1079803e+07
   9.0963655e-10  -2.4026045e-02   5.8843470e-01   9.0728934e-02  -4.0879595e+07
   9.1230410e-10  -2.3917262e-02   5.8614913e-01   9.1144809e-02  -4.0680557e+07
   9.1497166e-10  -2.3809008e-02   5.8388249e-01   9.1560394e-02  -4.0482681e+07
   9.1763921e-10  -2.3701281e-02   5.8163459e-01   9.1975685e-02  -4.0285957e+07
   9.2030677e-10  -2.3594078e-02   5.7940523e-01   9.2390673e-02  -4.0090376e+07
   9.2297432e-10  -2.3487394e-02   5.7719421e-01   9.2805352e-02  -3.9895928e+07
   9.2564188e-10  -2.3381228e-02   5.7500135e-01   9.3219717e-02  -3.9702604e+07
   9.2830944e-10  -2.3275575e-02   5.7282645e-01   9.3633760e-02  -3.9510397e+07
   9.3097699e-10  -2.3170435e-02   5.7066933e-01   9.4047474e-02  -3.9319295e+07
   9.3364455e-10  -2.3065802e-02   5.6852981e-01   9.4460855e-02  -3.9129292e+07
   9.3631210e-10  -2.2961675e-02   5.6640770e-01   9.4873894e-02  -3.8940378e+07
   9.3897966e-10  -2.2858050e-02   5.6430283e-01   9.5286587e-02  -3.8752544e+07
   9.4164722e-10  -2.2754925e-02   5.6221502e-01   9.5698926e-02  -3.8565783e+07
   9.4431477e-10  -2.2652296e-02   5.6014409e-01   9.6110906e-02  -3.8380085e+07
   9.4698233e-10  -2.2550162e-02   5.5808987e-01   9.6522520e-02  -3.8195444e+07
   9.4964988e-10  -2.2448519e-02   5.5605219e-01   9.6933763e-02  -3.8011849e+07
   9.5231744e-10  -2.2347364e-02   5.5403089e-01   9.7344628e-02  -3.7829294e+07
   9.5498499e-10  -2.2246694e-02   5.5202579e-01   9.7755110e-02  -3.7647770e+07
   9.5765255e-10  -2.2146508e-02   5.5003673e-01   9.8165202e-02  -3.7467269e+07
   9.6032011e-10  -2.2046802e-02   5.4806356e-01   9.8574899e-02  -3.7287784e+07
   9.6298766e-10  -2.1947573e-02   5.4610610e-01   9.8984194e-02  -3.7109307e+07
   9.6565522e-10  -2.1848819e-02   5.4416421e-01   9.9393083e-02  -3.6931830e+07
   9.6832277e-10  -2.1750537e-02   5.4223772e-01   9.9801559e-02  -3.6755346e+07
   9.7099033e-10  -2.1652724e-02   5.4032649e-01   1.0020962e-01  -3.6579846e+07
   9.7365789e-10  -2.1555378e-02   5.3843035e-01   1.0061725e-01  -3.6405324e+07
   9.7632544e-10  -2.1458497e-02   5.3654917e-01   1.0102445e-01  -3.6231773e+07
   9.7899300e-10  -2.1362077e-02   5.3468278e-01   1.0143122e-01  -3.6059185e+07
   9.8166055e-10  -2.1266116e-02   5.3283105e-01   1.0183755e-01  -3.5887552e+07
   9.8432811e-10  -2.1170612e-02   5.3099383e-01   1.0224343e-01  -3.5716868e+07
   9.8699567e-10  -2.1075562e-02   5.2917097e-01   1.0264886e-01  -3.5547127e+07
   9.8966322e-10  -2.0980964e-02   5.2736234e-01   1.0305384e-01  -3.5378320e+07
   9.9233078e-10  -2.0886814e-02   5.2556779e-01   1.0345835e-01  -3.5210440e+07
   9.9499833e-10  -2.0793111e-02   5.2378718e-01   1.0386240e-01  -3.5043483e+07
   9.9766589e-10  -2.0699853e-02   5.2202039e-01   1.0426597e-01  -3.4877439e+07
   1.0003334e-09  -2.0607036e-02   5.2026726e-01   1.0466906e-01  -3.4712303e+07
   1.0030010e-09  -2.0514658e-02   5.1852768e-01   1.0507168e-01  -3.4548069e+07
   1.0056686e-09  -2.0422717e-02   5.1680151e-01   1.0547380e-01  -3.4384729e+07
   1.0083361e-09  -2.0331211e-02   5.1508862e-01   1.0587543e-01  -3.4222277e+07
   1.0110037e-09  -2.0240137e-02   5.1338887e-01   1.0627657e-01  -3.4060707e+07
   1.0136712e-09  -2.0149493e-02   5.1170215e-01   1.0667720e-01  -3.3900013e+07
   1.0163388e-09  -2.0059276e-02   5.1002833e-01   1.0707732e-01  -3.3740188e+07
   1.0190063e-09  -1.9969484e-02   5.0836728e-01   1.0747694e-01  -3.3581225e+07
   1.0216739e-09  -1.9880116e-02   5.0671888e-01   1.0787603e-01  -3.3423120e+07
   1.0243414e-09  -1.9791168e-02   5.0508301e-01   1.0827460e-01  -3.3265866e+07
   1.0270090e-09  -1.9702638e-02   5.0345956e-01   1.0867265e-01  -3.3109456e+07
   1.0296766e-09  -1.9614524e-02   5.0184839e-01   1.0907017e-01  -3.2953885e+07
   1.0323441e-09  -1.9526825e-02   5.0024940e-01   1.0946715e-01  -3.2799147e+07
   1.0350117e-09  -1.9439537e-02   4.9866246e-01   1.0986359e-01  -3.2645236e+07
   1.0376792e-09  -1.9352658e-02   4.9708747e-01   1.1025948e-01  -3.2492147e+07
   1.0403468e-09  -1.9266187e-02   4.9552432e-01   1.1065483e-01  -3.2339873e+07
   1.0430143e-09  -1.9180121e-02   4.9397288e-01   1.1104962e-01  -3.2188410e+07
   1.0456819e-09  -1.9094457e-02   4.9243305e-01   1.1144386e-01  -3.2037750e+07
   1.0483494e-09  -1.9009195e-02   4.9090473e-01   1.1183753e-01  -3.1887890e+07
   1.0510170e-09  -1.8924331e-02   4.8938779e-01   1.1223064e-01  -3.1738823e+07
   1.0536846e-09  -1.8839864e-02   4.8788214e-01   1.1262317e-01  -3.1590544e+07
   1.0563521e-09  -1.8755792e-02   4.8638768e-01   1.1301513e-01  -3.1443047e+07
   1.0590197e-09  -1.8672111e-02   4.8490429e-01   1.1340652e-01  -3.1296327e+07
   1.0616872e-09  -1.8588822e-02   4.8343187e-01   1.1379732e-01  -3.1150380e+07
   1.0643548e-09  -1.8505920e-02   4.8197033e-01   1.1418753e-01  -3.1005199e+07
   1.0670223e-09  -1.8423405e-02   4.8051955e-01   1.1457715e-01  -3.0860780e+07
   1.0696899e-09  -1.8341274e-02   4.7907945e-01   1.1496617e-01  -3.0717117e+07
   1.0723575e-09  -1.8259525e-02   4.7764992e-01   1.1535460e-01  -3.0574205e+07
   1.0750250e-09  -1.8178156e-02   4.7623087e-01   1.1574243e-01  -3.0432039e+07
   1.0776926e-09  -1.8097166e-02   4.7482220e-01   1.1612964e-01  -3.0290615e+07
   1.0803601e-09  -1.8016552e-02   4.7342381e-01   1.1651625e-01  -3.0149927e+07
   1.0830277e-09  -1.7936312e-02   4.7203561e-01   1.1690224e-01  -3.0009971e+07
   1.0856952e-09  -1.7856445e-02   4.7065751e-01   1.1728762e-01  -2.9870741e+07
   1.0883628e-09  -1.7776948e-02   4.6928942e-01   1.1767237e-01  -2.9732233e+07
   1.0910303e-09  -1.7697820e-02   4.6793124e-01   1.1805650e-01  -2.9594442e+07
   1.0936979e-09  -1.7619058e-02   4.6658288e-01   1.1844000e-01  -2.9457363e+07
   1.0963655e-09  -1.7540661e-02   4.6524427e-01   1.1882287e-01  -2.9320992e+07
   1.0990330e-09  -1.7462626e-02   4.6391530e-01   1.1920510e-01  -2.9185324e+07
   1.1017006e-09  -1.7384953e-02   4.6259589e-01   1.1958669e-01  -2.9050354e+07
   1.1043681e-09  -1.7307639e-02   4.6128596e-01   1.1996764e-01  -2.8916078e+07
   1.1070357e-09  -1.7230682e-02   4.5998541e-01   1.2034795e-01  -2.8782492e+07
   1.1097032e-09  -1.7154081e-02   4.5869418e-01   1.2072760e-01  -2.8649590e+07
   1.1123708e-09  -1.7077833e-02   4.5741216e-01   1.2110660e-01  -2.8517369e+07
   1.1150383e-09  -1.7001937e-02   4.5613929e-01   1.2148495e-01  -2.8385824e+07
   1.1177059e-09  -1.6926391e-02   4.5487548e-01   1.2186264e-01  -2.8254951e+07
   1.1203735e-09  -1.6851193e-02   4.5362064e-01   1.2223967e-01  -2.8124746e+07
   1.1230410e-09  -1.6776342e-02   4.5237471e-01   1.2261603e-01  -2.7995203e+07
   1.1257086e-09  -1.6701835e-02   4.5113760e-01   1.2299172e-01  -2.7866320e+07
   1.1283761e-09  -1.6627671e-02   4.4990922e-01   1.2336674e-01  -2.7738091e+07
   1.1310437e-09  -1.6553849e-02   4.4868952e-01   1.2374109e-01  -2.7610514e+07
   1.1337112e-09  -1.6480366e-02   4.4747840e-01   1.2411476e-01  -2.7483582e+07
   1.1363788e-09  -1.6407220e-02   4.4627580e-01   1.2448774e-01  -2.7357293e+07
   1.1390463e-09  -1.6334411e-02   4.4508164e-01   1.2486005e-01  -2.7231643e+07
   1.1417139e-09  -1.6261936e-02   4.4389584e-01   1.2523167e-01  -2.7106627e+07
   1.1443815e-09  -1.6189793e-02   4.4271834e-01   1.2560260e-01  -2.6982242e+07
   1.1470490e-09  -1.6117982e-02   4.4154906e-01   1.2597284e-01  -2.6858483e+07
   1.1497166e-09  -1.6046500e-02   4.4038792e-01   1.2634239e-01  -2.6735347e+07
   1.1523841e-09  -1.5975346e-02   4.3923487e-01   1.2671124e-01  -2.6612829e+07
   1.1550517e-09  -1.5904517e-02   4.3808982e-01   1.2707939e-01  -2.6490927e+07
   1.1577192e-09  -1.5834013e-02   4.3695271e-01   1.2744684e-01  -2.6369635e+07
   1.1603868e-09  -1.5763832e-02   4.3582348e-01   1.2781358e-01  -2.6248951e+07
   1.1630544e-09  -1.5693971e-02   4.3470205e-01   1.2817961e-01  -2.6128871e+07
   1.1657219e-09  -1.5624431e-02   4.3358835e-01   1.2854494e-01  -2.6009390e+07
   1.1683895e-09  -1.5555208e-02   4.3248232e-01   1.2890955e-01  -2.5890506e+07
   1.1710570e-09  -1.5486302e-02   4.3138390e-01   1.2927345e-01  -2.5772214e+07
   1.1737246e-09  -1.5417710e-02   4.3029302e-01   1.2963663e-01  -2.5654512e+07
   1.1763921e-09  -1.5349431e-02   4.2920962e-01   1.2999910e-01  -2.5537395e+07
   1.1790597e-09  -1.5281465e-02   4.2813362e-01   1.3036084e-01  -2.5420859e+07
   1.1817272e-09  -1.5213808e-02   4.2706498e-01   1.3072185e-01  -2.5304902e+07
   1.1843948e-09  -1.5146460e-02   4.2600362e-01   1.3108215e-01  -2.5189520e+07
   1.1870624e-09  -1.5079419e-02   4.2494948e-01   1.3144171e-01  -2.5074709e+07
   1.1897299e-09  -1.5012683e-02   4.2390251e-01   1.3180054e-01  -2.4960467e+07
   1.1923975e-09  -1.4946251e-02   4.2286265e-01   1.3215864e-01  -2.4846788e+07
   1.1950650e-09  -1.4880122e-02   4.2182982e-01   1.3251600e-01  -2.4733671e+07
   1.1977326e-09  -1.4814294e-02   4.2080399e-01   1.3287263e-01  -2.4621112e+07
   1.2004001e-09  -1.4748765e-02   4.1978508e-01   1.3322852e-01  -2.4509108e+07
   1.2030677e-09  -1.4683535e-02   4.1877304e-01   1.3358367e-01  -2.4397654e+07
   1.2057352e-09  -1.4618601e-02   4.1776781e-01   1.3393807e-01  -2.4286749e+07
   1.2084028e-09  -1.4553962e-02   4.1676933e-01   1.3429173e-01  -2.4176388e+07
   1.2110704e-09  -1.4489617e-02   4.1577755e-01   1.3464465e-01  -2.4066568e+07
   1.2137379e-09  -1.4425564e-02   4.1479242e-01   1.3499681e-01  -2.3957287e+07
   1.2164055e-09  -1.4361801e-02   4.1381388e-01   1.3534823e-01  -2.3848542e+07
   1.2190730e-09  -1.4298329e-02   4.1284186e-01   1.3569889e-01  -2.3740328e+07
   1.2217406e-09  -1.4235144e-02   4.1187633e-01   1.3604880e-01  -2.3632643e+07
   1.2244081e-09  -1.4172245e-02   4.1091723e-01   1.3639796e-01  -2.3525483e+07
   1.2270757e-09  -1.4109632e-02   4.0996449e-01   1.3674635e-01  -2.3418847e+07
   1.2297432e-09  -1.4047303e-02   4.0901808e-01   1.3709399e-01  -2.3312730e+07
   1.2324108e-09  -1.3985256e-02   4.0807794e-01   1.3744087e-01  -2.3207130e+07
   1.2350784e-09  -1.3923490e-02   4.0714402e-01   1.3778698e-01  -2.3102043e+07
   1.2377459e-09  -1.3862004e-02   4.0621626e-01   1.3813233e-01  -2.2997468e+07
   1.2404135e-09  -1.3800795e-02   4.0529463e-01   1.3847692e-01  -2.2893400e+07
   1.2430810e-09  -1.3739864e-02   4.0437906e-01   1.3882074e-01  -2.2789837e+07
   1.2457486e-09  -1.3679209e-02   4.0346951e-01   1.3916379e-01  -2.2686775e+07
   1.2484161e-09  -1.3618828e-02   4.0256593e-01   1.3950607e-01  -2.2584213e+07
   1.2510837e-09  -1.3558719e-02   4.0166827e-01   1.3984758e-01  -2.2482147e+07
   1.2537513e-09  -1.3498882e-02   4.0077648e-01   1.4018832e-01  -2.2380575e+07
   1.2564188e-09  -1.3439316e-02   3.9989053e-01   1.4052828e-01  -2.2279492e+07
   1.2590864e-09  -1.3380019e-02   3.9901035e-01   1.4086747e-01  -2.2178898e+07
   1.2617539e-09  -1.3320989e-02   3.9813590e-01   1.4120589e-01  -2.2078789e+07
   1.2644215e-09  -1.3262225e-02   3.9726715e-01   1.4154352e-01  -2.1979162e+07
   1.2670890e-09  -1.3203727e-02   3.9640403e-01   1.4188038e-01  -2.1880014e+07
   1.2697566e-09  -1.3145493e-02   3.9554652e-01   1.4221646e-01  -2.1781344e+07
   1.2724241e-09  -1.3087521e-02   3.9469455e-01   1.4255175e-01  -2.1683147e+07
   1.2750917e-09  -1.3029810e-02   3.9384810e-01   1.4288627e-01  -2.1585422e+07
   1.2777593e-09  -1.2972360e-02   3.9300710e-01   1.4322000e-01  -2.1488166e+07
   1.2804268e-09  -1.2915168e-02   3.9217154e-01   1.4355294e-01  -2.1391375e+07
   1.2830944e-09  -1.2858234e-02   3.9134134e-01   1.4388510e-01  -2.1295049e+07
   1.2857619e-09  -1.2801557e-02   3.9051649e-01   1.4421648e-01  -2.1199183e+07
   1.2884295e-09  -1.2745134e-02   3.8969693e-01   1.4454706e-01  -2.1103776e+07
   1.2910970e-09  -1.2688965e-02   3.8888262e-01   1.4487686e-01  -2.1008825e+07
   1.2937646e-09  -1.2633049e-02   3.8807353e-01   1.4520587e-01  -2.0914327e+07
   1.2964321e-09  -1.2577385e-02   3.8726960e-01   1.4553409e-01  -2.0820280e+07
   1.2990997e-09  -1.2521971e-02   3.8647081e-01   1.4586152e-01  -2.0726681e+07
   1.3017673e-09  -1.2466805e-02   3.8567710e-01   1.4618815e-01  -2.0633528e+07
   1.3044348e-09  -1.2411888e-02   3.8488845e-01   1.4651399e-01  -2.0540819e+07
   1.3071024e-09  -1.2357218e-02   3.8410481e-01   1.4683904e-01  -2.0448550e+07
   1.3097699e-09  -1.2302793e-02   3.8332614e-01   1.4716330e-01  -2.0356720e+07
   1.3124375e-09  -1.2248612e-02   3.8255240e-01   1.4748676e-01  -2.0265327e+07
   1.3151050e-09  -1.2194674e-02   3.8178356e-01   1.4780942e-01  -2.0174366e+07
   1.3177726e-09  -1.2140979e-02   3.8101958e-01   1.4813129e-01  -2.0083838e+07
   1.3204401e-09  -1.2087525e-02   3.8026042e-01   1.4845236e-01  -1.9993738e+07
   1.3231077e-09  -1.2034310e-02   3.7950604e-01   1.4877263e-01  -1.9904065e+07
   1.3257753e-09  -1.1981334e-02   3.7875641e-01   1.4909211e-01  -1.9814816e+07
   1.3284428e-09  -1.1928596e-02   3.7801148e-01   1.4941078e-01  -1.9725990e+07
   1.3311104e-09  -1.1876093e-02   3.7727124e-01   1.4972866e-01  -1.9637583e+07
   1.3337779e-09  -1.1823827e-02   3.7653563e-01   1.5004573e-01  -1.9549594e+07
   1.3364455e-09  -1.1771794e-02   3.7580462e-01   1.5036201e-01  -1.9462020e+07
   1.3391130e-09  -1.1719994e-02   3.7507818e-01   1.5067748e-01  -1.9374859e+07
   1.3417806e-09  -1.1668427e-02   3.7435628e-01   1.5099215e-01  -1.9288109e+07
   1.3444481e-09  -1.1617090e-02   3.7363887e-01   1.5130603e-01  -1.9201767e+07
   1.3471157e-09  -1.1565983e-02   3.7292593e-01   1.5161909e-01  -1.9115832e+07
   1.3497833e-09  -1.1515105e-02   3.7221742e-01   1.5193136e-01  -1.9030301e+07
   1.3524508e-09  -1.1464454e-02   3.7151330e-01   1.5224282e-01  -1.8945172e+07
   1.3551184e-09  -1.1414030e-02   3.7081355e-01   1.5255348e-01  -1.8860443e+07
   1.3577859e-09  -1.1363831e-02   3.7011814e-01   1.5286334e-01  -1.8776111e+07
   1.3604535e-09  -1.1313857e-02   3.6942702e-01   1.5317239e-01  -1.8692176e+07
   1.3631210e-09  -1.1264106e-02   3.6874016e-01   1.5348064e-01  -1.8608633e+07
   1.3657886e-09  -1.1214578e-02   3.6805755e-01   1.5378808e-01  -1.8525483e+07
   1.3684562e-09  -1.1165270e-02   3.6737913e-01   1.5409472e-01  -1.8442722e+07
   1.3711237e-09  -1.1116183e-02   3.6670489e-01   1.5440055e-01  -1.8360348e+07
   1.3737913e-09  -1.1067316e-02   3.6603479e-01   1.5470558e-01  -1.8278359e+07
   1.3764588e-09  -1.1018666e-02   3.6536880e-01   1.5500980e-01  -1.8196754e+07
   1.3791264e-09  -1.0970234e-02   3.6470688e-01   1.5531322e-01  -1.8115529e+07
   1.3817939e-09  -1.0922018e-02   3.6404902e-01   1.5561583e-01  -1.8034684e+07
   1.3844615e-09  -1.0874017e-02   3.6339518e-01   1.5591764e-01  -1.7954217e+07
   1.3871290e-09  -1.0826230e-02   3.6274532e-01   1.5621864e-01  -1.7874124e+07
   1.3897966e-09  -1.0778656e-02   3.6209943e-01   1.5651884e-01  -1.7794405e+07
   1.3924642e-09  -1.0731294e-02   3.6145746e-01   1.5681823e-01  -1.7715057e+07
   1.3951317e-09  -1.0684144e-02   3.6081940e-01   1.5711681e-01  -1.7636079e+07
   1.3977993e-09  -1.0637204e-02   3.6018521e-01   1.5741459e-01  -1.7557468e+07
   1.4004668e-09  -1.0590473e-02   3.5955487e-01   1.5771156e-01  -1.7479222e+07
   1.4031344e-09  -1.0543950e-02   3.5892834e-01   1.5800773e-01  -1.7401340e+07
   1.4058019e-09  -1.0497635e-02   3.5830560e-01   1.5830309e-01  -1.7323820e+07
   1.4084695e-09  -1.0451525e-02   3.5768662e-01   1.5859765e-01  -1.7246660e+07
   1.4111370e-09  -1.0405622e-02   3.5707138e-01   1.5889140e-01  -1.7169858e+07
   1.4138046e-09  -1.0359922e-02   3.5645984e-01   1.5918435e-01  -1.7093412e+07
   1.4164722e-09  -1.0314426e-02   3.5585199e-01   1.5947649e-01  -1.7017320e+07
   1.4191397e-09  -1.0269133e-02   3.5524778e-01   1.5976783e-01  -1.6941581e+07
   1.4218073e-09  -1.0224041e-02   3.5464721e-01   1.6005836e-01  -1.6866192e+07
   1.4244748e-09  -1.0179150e-02   3.5405023e-01   1.6034809e-01  -1.6791153e+07
   1.4271424e-09  -1.0134458e-02   3.5345683e-01   1.6063701e-01  -1.6716460e+07
   1.4298099e-09  -1.0089965e-02   3.5286698e-01   1.6092513e-01  -1.6642113e+07
   1.4324775e-09  -1.0045670e-02   3.5228065e-01   1.6121245e-01  -1.6568109e+07
   1.4351450e-09  -1.0001572e-02   3.5169782e-01   1.6149896e-01  -1.6494448e+07
   1.4378126e-09  -9.9576706e-03   3.5111846e-01   1.6178467e-01  -1.6421126e+07
   1.4404802e-09  -9.9139638e-03   3.5054255e-01   1.6206958e-01  -1.6348142e+07
   1.4431477e-09  -9.8704513e-03   3.4997006e-01   1.6235369e-01  -1.6275495e+07
   1.4458153e-09  -9.8271322e-03   3.4940098e-01   1.6263699e-01  -1.6203183e+07
   1.4484828e-09  -9.7840054e-03   3.4883526e-01   1.6291950e-01  -1.6131204e+07
   1.4511504e-09  -9.7410703e-03   3.4827290e-01   1.6320120e-01  -1.6059556e+07
   1.4538179e-09  -9.6983258e-03   3.4771387e-01   1.6348210e-01  -1.5988239e+07
   1.4564855e-09  -9.6557712e-03   3.4715814e-01   1.6376220e-01  -1.5917249e+07
   1.4591531e-09  -9.6134054e-03   3.4660568e-01   1.6404150e-01  -1.5846586e+07
   1.4618206e-09  -9.5712278e-03   3.4605649e-01   1.6432000e-01  -1.5776247e+07
   1.4644882e-09  -9.5292373e-03   3.4551053e-01   1.6459770e-01  -1.5706232e+07
   1.4671557e-09  -9.4874332e-03   3.4496778e-01   1.6487461e-01  -1.5636538e+07
   1.4698233e-09  -9.4458146e-03   3.4442822e-01   1.6515072e-01  -1.5567164e+07
   1.4724908e-09  -9.4043806e-03   3.4389183e-01   1.6542603e-01  -1.5498109e+07
   1.4751584e-09  -9.3631303e-03   3.4335858e-01   1.6570054e-01  -1.5429370e+07
   1.4778259e-09  -9.3220631e-03   3.4282845e-01   1.6597425e-01  -1.5360946e+07
   1.4804935e-09  -9.2811779e-03   3.4230142e-01   1.6624718e-01  -1.5292836e+07
   1.4831611e-09  -9.2404740e-03   3.4177748e-01   1.6651930e-01  -1.5225037e+07
   1.4858286e-09  -9.1999506e-03   3.4125658e-01   1.6679064e-01  -1.5157550e+07
   1.4884962e-09  -9.1596067e-03   3.4073873e-01   1.6706117e-01  -1.5090370e+07
   1.4911637e-09  -9.1194417e-03   3.4022389e-01   1.6733092e-01  -1.5023499e+07
   1.4938313e-09  -9.0794547e-03   3.3971204e-01   1.6759987e-01  -1.4956933e+07
   1.4964988e-09  -9.0396448e-03   3.3920317e-01   1.6786803e-01  -1.4890671e+07
   1.4991664e-09  -9.0000112e-03   3.3869725e-01   1.6813541e-01  -1.4824712e+07
   1.5018339e-09  -8.9605532e-03   3.3819426e-01   1.6840199e-01  -1.4759054e+07
   1.5045015e-09  -8.9212700e-03   3.3769418e-01   1.6866778e-01  -1.4693696e+07
   1.5071691e-09  -8.8821607e-03   3.3719700e-01   1.6893278e-01  -1.4628636e+07
   1.5098366e-09  -8.8432245e-03   3.3670268e-01   1.6919699e-01  -1.4563873e+07
   1.5125042e-09  -8.8044608e-03   3.3621122e-01   1.6946042e-01  -1.4499405e+07
   1.5151717e-09  -8.7658686e-03   3.3572259e-01   1.6972306e-01  -1.4435231e+07
   1.5178393e-09  -8.7274472e-03   3.3523678e-01   1.6998492e-01  -1.4371349e+07
   1.5205068e-09  -8.6891958e-03   3.3475376e-01   1.7024599e-01  -1.4307758e+07
   1.5231744e-09  -8.6511136e-03   3.3427351e-01   1.7050627e-01  -1.4244457e+07
   1.5258419e-09  -8.6132000e-03   3.3379602e-01   1.7076577e-01  -1.4181444e+07
   1.5285095e-09  -8.5754540e-03   3.3332127e-01   1.7102449e-01  -1.4118718e+07
   1.5311771e-09  -8.5378750e-03   3.3284924e-01   1.7128243e-01  -1.4056276e+07
   1.5338446e-09  -8.5004622e-03   3.3237991e-01   1.7153959e-01  -1.3994119e+07
   1.5365122e-09  -8.4632148e-03   3.3191326e-01   1.7179597e-01  -1.3932244e+07
   1.5391797e-09  -8.4261321e-03   3.3144927e-01   1.7205157e-01  -1.3870650e+07
   1.5418473e-09  -8.3892134e-03   3.3098793e-01   1.7230639e-01  -1.3809336e+07
   1.5445148e-09  -8.3524578e-03   3.3052922e-01   1.7256043e-01  -1.3748300e+07
   1.5471824e-09  -8.3158647e-03   3.3007311e-01   1.7281370e-01  -1.3687541e+07
   1.5498499e-09  -8.2794332e-03   3.2961960e-01   1.7306620e-01  -1.3627058e+07
   1.5525175e-09  -8.2431628e-03   3.2916867e-01   1.7331791e-01  -1.3566849e+07
   1.5551851e-09  -8.2070526e-03   3.2872030e-01   1.7356886e-01  -1.3506913e+07
   1.5578526e-09  -8.1711019e-03   3.2827446e-01   1.7381903e-01  -1.3447248e+07
   1.5605202e-09  -8.1353100e-03   3.2783115e-01   1.7406844e-01  -1.3387854e+07
   1.5631877e-09  -8.0996762e-03   3.2739035e-01   1.7431707e-01  -1.3328728e+07
   1.5658553e-09  -8.0641998e-03   3.2695203e-01   1.7456493e-01  -1.3269871e+07
   1.5685228e-09  -8.0288800e-03   3.2651619e-01   1.7481202e-01  -1.3211280e+07
   1.5711904e-09  -7.9937162e-03   3.2608281e-01   1.7505835e-01  -1.3152953e+07
   1.5738580e-09  -7.9587075e-03   3.2565187e-01   1.7530391e-01  -1.3094891e+07
   1.5765255e-09  -7.9238535e-03   3.2522335e-01   1.7554871e-01  -1.3037091e+07
   1.5791931e-09  -7.8891532e-03   3.2479725e-01   1.7579274e-01  -1.2979552e+07
   1.5818606e-09  -7.8546061e-03   3.2437353e-01   1.7603601e-01  -1.2922274e+07
   1.5845282e-09  -7.8202115e-03   3.2395220e-01   1.7627852e-01  -1.2865254e+07
   1.5871957e-09  -7.7859686e-03   3.2353322e-01   1.7652026e-01  -1.2808491e+07
   1.5898633e-09  -7.7518768e-03   3.2311659e-01   1.7676125e-01  -1.2751985e+07
   1.5925308e-09  -7.7179354e-03   3.2270229e-01   1.7700148e-01  -1.2695734e+07
   1.5951984e-09  -7.6841437e-03   3.2229031e-01   1.7724095e-01  -1.2639736e+07
   1.5978660e-09  -7.6505010e-03   3.2188062e-01   1.7747967e-01  -1.2583991e+07
   1.6005335e-09  -7.6170067e-03   3.2147322e-01   1.7771763e-01  -1.2528497e+07
   1.6032011e-09  -7.5836601e-03   3.2106809e-01   1.7795483e-01  -1.2473254e+07
   1.6058686e-09  -7.5504606e-03   3.2066522e-01   1.7819129e-01  -1.2418259e+07
   1.6085362e-09  -7.5174074e-03   3.2026458e-01   1.7842699e-01  -1.2363513e+07
   1.6112037e-09  -7.4844999e-03   3.1986618e-01   1.7866194e-01  -1.2309012e+07
   1.6138713e-09  -7.4517375e-03   3.1946998e-01   1.7889614e-01  -1.2254757e+07
   1.6165388e-09  -7.4191195e-03   3.1907598e-01   1.7912960e-01  -1.2200747e+07
   1.6192064e-09  -7.3866452e-03   3.1868416e-01   1.7936230e-01  -1.2146979e+07
   1.6218740e-09  -7.3543140e-03   3.1829451e-01   1.7959427e-01  -1.2093453e+07
   1.6245415e-09  -7.3221253e-03   3.1790702e-01   1.7982548e-01  -1.2040168e+07
   1.6272091e-09  -7.2900785e-03   3.1752166e-01   1.8005596e-01  -1.1987122e+07
   1.6298766e-09  -7.2581728e-03   3.1713844e-01   1.8028569e-01  -1.1934315e+07
   1.6325442e-09  -7.2264076e-03   3.1675732e-01   1.8051468e-01  -1.1881746e+07
   1.6352117e-09  -7.1947824e-03   3.1637831e-01   1.8074294e-01  -1.1829412e+07
   1.6378793e-09  -7.1632965e-03   3.1600138e-01   1.8097045e-01  -1.1777313e+07
   1.6405468e-09  -7.1319492e-03   3.1562652e-01   1.8119723e-01  -1.1725449e+07
   1.6432144e-09  -7.1007400e-03   3.1525373e-01   1.8142327e-01  -1.1673817e+07
   1.6458820e-09  -7.0696681e-03   3.1488298e-01   1.8164858e-01  -1.1622417e+07
   1.6485495e-09  -7.0387331e-03   3.1451426e-01   1.8187316e-01  -1.1571247e+07
   1.6512171e-09  -7.0079343e-03   3.1414756e-01   1.8209700e-01  -1.1520307e+07
   1.6538846e-09  -6.9772711e-03   3.1378287e-01   1.8232012e-01  -1.1469596e+07
   1.6565522e-09  -6.9467428e-03   3.1342017e-01   1.8254250e-01  -1.1419111e+07
   1.6592197e-09  -6.9163490e-03   3.1305946e-01   1.8276416e-01  -1.1368853e+07
   1.6618873e-09  -6.8860888e-03   3.1270071e-01   1.8298509e-01  -1.1318821e+07
   1.6645549e-09  -6.8559619e-03   3.1234392e-01   1.8320530e-01  -1.1269012e+07
   1.6672224e-09  -6.8259675e-03   3.1198908e-01   1.8342478e-01  -1.1219427e+07
   1.6698900e-09  -6.7961051e-03   3.1163617e-01   1.8364354e-01  -1.1170063e+07
   1.6725575e-09  -6.7663740e-03   3.1128517e-01   1.8386158e-01  -1.1120921e+07
   1.6752251e-09  -6.7367738e-03   3.1093609e-01   1.8407890e-01  -1.1071998e+07
   1.6778926e-09  -6.7073038e-03   3.1058890e-01   1.8429551e-01  -1.1023295e+07
   1.6805602e-09  -6.6779634e-03   3.1024359e-01   1.8451139e-01  -1.0974809e+07
   1.6832277e-09  -6.6487521e-03   3.0990016e-01   1.8472656e-01  -1.0926540e+07
   1.6858953e-09  -6.6196692e-03   3.0955858e-01   1.8494102e-01  -1.0878487e+07
   1.6885629e-09  -6.5907142e-03   3.0921885e-01   1.8515476e-01  -1.0830649e+07
   1.6912304e-09  -6.5618866e-03   3.0888096e-01   1.8536780e-01  -1.0783025e+07
   1.6938980e-09  -6.5331857e-03   3.0854490e-01   1.8558012e-01  -1.0735614e+07
   1.6965655e-09  -6.5046110e-03   3.0821065e-01   1.8579174e-01  -1.0688414e+07
   1.6992331e-09  -6.4761619e-03   3.0787820e-01   1.8600265e-01  -1.0641425e+07
   1.7019006e-09  -6.4478379e-03   3.0754754e-01   1.8621285e-01  -1.0594646e+07
   1.7045682e-09  -6.4196384e-03   3.0721866e-01   1.8642235e-01  -1.0548076e+07
   1.7072357e-09  -6.3915629e-03   3.0689156e-01   1.8663115e-01  -1.0501714e+07
   1.7099033e-09  -6.3636107e-03   3.0656621e-01   1.8683924e-01  -1.0455559e+07
   1.7125709e-09  -6.3357814e-03   3.0624260e-01   1.8704664e-01  -1.0409610e+07
   1.7152384e-09  -6.3080744e-03   3.0592074e-01   1.8725334e-01  -1.0363865e+07
   1.7179060e-09  -6.2804892e-03   3.0560059e-01   1.8745934e-01  -1.0318325e+07
   1.7205735e-09  -6.2530251e-03   3.0528217e-01   1.8766464e-01  -1.0272988e+07
   1.7232411e-09  -6.2256818e-03   3.0496545e-01   1.8786926e-01  -1.0227853e+07
   1.7259086e-09  -6.1984585e-03   3.0465042e-01   1.8807318e-01  -1.0182919e+07
   1.7285762e-09  -6.1713549e-03   3.0433707e-01   1.8827641e-01  -1.0138186e+07
   1.7312437e-09  -6.1443703e-03   3.0402540e-01   1.8847895e-01  -1.0093651e+07
   1.7339113e-09  -6.1175042e-03   3.0371539e-01   1.8868080e-01  -1.0049316e+07
   1.7365789e-09  -6.0907562e-03   3.0340703e-01   1.8888197e-01  -1.0005177e+07
   1.7392464e-09  -6.0641256e-03   3.0310032e-01   1.8908245e-01  -9.9612358e+06
   1.7419140e-09  -6.0376120e-03   3.0279524e-01   1.8928225e-01  -9.9174897e+06
   1.7445815e-09  -6.0112149e-03   3.0249178e-01   1.8948136e-01  -9.8739384e+06
   1.7472491e-09  -5.9849336e-03   3.0218993e-01   1.8967980e-01  -9.8305810e+06
   1.7499166e-09  -5.9587678e-03   3.0188969e-01   1.8987756e-01  -9.7874166e+06
   1.7525842e-09  -5.9327168e-03   3.0159103e-01   1.9007464e-01  -9.7444442e+06
   1.7552518e-09  -5.9067802e-03   3.0129396e-01   1.9027104e-01  -9.7016629e+06
   1.7579193e-09  -5.8809575e-03   3.0099847e-01   1.9046677e-01  -9.6590720e+06
   1.7605869e-09  -5.8552481e-03   3.0070454e-01   1.9066183e-01  -9.6166705e+06
   1.7632544e-09  -5.8296516e-03   3.0041216e-01   1.9085621e-01  -9.5744575e+06
   1.7659220e-09  -5.8041675e-03   3.0012133e-01   1.9104993e-01  -9.5324322e+06
   1.7685895e-09  -5.7787952e-03   2.9983203e-01   1.9124298e-01  -9.4905936e+06
   1.7712571e-09  -5.7535342e-03   2.9954426e-01   1.9143536e-01  -9.4489410e+06
   1.7739246e-09  -5.7283842e-03   2.9925801e-01   1.9162708e-01  -9.4074735e+06
   1.7765922e-09  -5.7033445e-03   2.9897326e-01   1.9181813e-01  -9.3661903e+06
   1.7792598e-09  -5.6784147e-03   2.9869002e-01   1.9200852e-01  -9.3250904e+06
   1.7819273e-09  -5.6535942e-03   2.9840826e-01   1.9219826e-01  -9.2841730e+06
   1.7845949e-09  -5.6288827e-03   2.9812799e-01   1.9238733e-01  -9.2434373e+06
   1.7872624e-09  -5.6042796e-03   2.9784918e-01   1.9257574e-01  -9.2028825e+06
   1.7899300e-09  -5.5797845e-03   2.9757184e-01   1.9276350e-01  -9.1625077e+06
   1.7925975e-09  -5.5553968e-03   2.9729596e-01   1.9295061e-01  -9.1223121e+06
   1.7952651e-09  -5.5311161e-03   2.9702152e-01   1.9313706e-01  -9.0822949e+06
   1.7979326e-09  -5.5069419e-03   2.9674852e-01   1.9332287e-01  -9.0424553e+06
   1.8006002e-09  -5.4828737e-03   2.9647694e-01   1.9350802e-01  -9.0027924e+06
   1.8032678e-09  -5.4589112e-03   2.9620679e-01   1.9369252e-01  -8.9633054e+06
   1.8059353e-09  -5.4350537e-03   2.9593805e-01   1.9387638e-01  -8.9239936e+06
   1.8086029e-09  -5.4113008e-03   2.9567071e-01   1.9405960e-01  -8.8848560e+06
   1.8112704e-09  -5.3876521e-03   2.9540476e-01   1.9424217e-01  -8.8458920e+06
   1.8139380e-09  -5.3641072e-03   2.9514021e-01   1.9442410e-01  -8.8071007e+06
   1.8166055e-09  -5.3406654e-03   2.9487703e-01   1.9460539e-01  -8.7684814e+06
   1.8192731e-09  -5.3173265e-03   2.9461522e-01   1.9478604e-01  -8.7300332e+06
   1.8219406e-09  -5.2940899e-03   2.9435477e-01   1.9496606e-01  -8.6917554e+06
   1.8246082e-09  -5.2709552e-03   2.9409568e-01   1.9514544e-01  -8.6536472e+06
   1.8272758e-09  -5.2479219e-03   2.9383793e-01   1.9532418e-01  -8.6157078e+06
   1.8299433e-09  -5.2249896e-03   2.9358152e-01   1.9550230e-01  -8.5779364e+06
   1.8326109e-09  -5.2021578e-03   2.9332644e-01   1.9567978e-01  -8.5403323e+06
   1.8352784e-09  -5.1794262e-03   2.9307268e-01   1.9585664e-01  -8.5028948e+06
   1.8379460e-09  -5.1567941e-03   2.9282024e-01   1.9603287e-01  -8.4656230e+06
   1.8406135e-09  -5.1342613e-03   2.9256911e-01   1.9620847e-01  -8.4285161e+06
   1.8432811e-09  -5.1118272e-03   2.9231927e-01   1.9638345e-01  -8.3915736e+06
   1.8459486e-09  -5.0894915e-03   2.9207073e-01   1.9655781e-01  -8.3547945e+06
   1.8486162e-09  -5.0672536e-03   2.9182346e-01   1.9673154e-01  -8.3181782e+06
   1.8512838e-09  -5.0451133e-03   2.9157748e-01   1.9690466e-01  -8.2817238e+06
   1.8539513e-09  -5.0230699e-03   2.9133277e-01   1.9707716e-01  -8.2454308e+06
   1.8566189e-09  -5.0011232e-03   2.9108931e-01   1.9724904e-01  -8.2092983e+06
   1.8592864e-09  -4.9792726e-03   2.9084711e-01   1.9742031e-01  -8.1733256e+06
   1.8619540e-09  -4.9575177e-03   2.9060616e-01   1.9759097e-01  -8.1375120e+06
   1.8646215e-09  -4.9358582e-03   2.9036645e-01   1.9776102e-01  -8.1018567e+06
   1.8672891e-09  -4.9142936e-03   2.9012797e-01   1.9793045e-01  -8.0663591e+06
   1.8699567e-09  -4.8928235e-03   2.8989071e-01   1.9809928e-01  -8.0310184e+06
   1.8726242e-09  -4.8714474e-03   2.8965468e-01   1.9826751e-01  -7.9958340e+06
   1.8752918e-09  -4.8501650e-03   2.8941985e-01   1.9843512e-01  -7.9608050e+06
   1.8779593e-09  -4.8289758e-03   2.8918623e-01   1.9860214e-01  -7.9259308e+06
   1.8806269e-09  -4.8078795e-03   2.8895380e-01   1.9876855e-01  -7.8912108e+06
   1.8832944e-09  -4.7868755e-03   2.8872257e-01   1.9893437e-01  -7.8566441e+06
   1.8859620e-09  -4.7659636e-03   2.8849252e-01   1.9909958e-01  -7.8222301e+06
   1.8886295e-09  -4.7451432e-03   2.8826365e-01   1.9926420e-01  -7.7879681e+06
   1.8912971e-09  -4.7244141e-03   2.8803594e-01   1.9942823e-01  -7.7538575e+06
   1.8939647e-09  -4.7037757e-03   2.8780940e-01   1.9959166e-01  -7.7198974e+06
   1.8966322e-09  -4.6832278e-03   2.8758402e-01   1.9975450e-01  -7.6860874e+06
   1.8992998e-09  -4.6627698e-03   2.8735978e-01   1.9991675e-01  -7.6524266e+06
   1.9019673e-09  -4.6424014e-03   2.8713669e-01   2.0007841e-01  -7.6189144e+06
   1.9046349e-09  -4.6221222e-03   2.8691474e-01   2.0023948e-01  -7.5855501e+06
   1.9073024e-09  -4.6019319e-03   2.8669391e-01   2.0039997e-01  -7.5523331e+06
   1.9099700e-09  -4.5818299e-03   2.8647421e-01   2.0055988e-01  -7.5192627e+06
   1.9126375e-09  -4.5618160e-03   2.8625562e-01   2.0071920e-01  -7.4863382e+06
   1.9153051e-09  -4.5418897e-03   2.8603815e-01   2.0087795e-01  -7.4535590e+06
   1.9179727e-09  -4.5220506e-03   2.8582178e-01   2.0103611e-01  -7.4209244e+06
   1.9206402e-09  -4.5022984e-03   2.8560651e-01   2.0119370e-01  -7.3884338e+06
   1.9233078e-09  -4.4826327e-03   2.8539233e-01   2.0135071e-01  -7.3560865e+06
   1.9259753e-09  -4.4630530e-03   2.8517924e-01   2.0150715e-01  -7.3238818e+06
   1.9286429e-09  -4.4435591e-03   2.8496723e-01   2.0166302e-01  -7.2918192e+06
   1.9313104e-09  -4.4241506e-03   2.8475629e-01   2.0181831e-01  -7.2598980e+06
   1.9339780e-09  -4.4048270e-03   2.8454641e-01   2.0197304e-01  -7.2281175e+06
   1.9366455e-09  -4.3855880e-03   2.8433760e-01   2.0212720e-01  -7.1964771e+06
   1.9393131e-09  -4.3664332e-03   2.8412985e-01   2.0228079e-01  -7.1649762e+06
   1.9419807e-09  -4.3473622e-03   2.8392314e-01   2.0243382e-01  -7.1336141e+06
   1.9446482e-09  -4.3283748e-03   2.8371748e-01   2.0258629e-01  -7.1023903e+06
   1.9473158e-09  -4.3094704e-03   2.8351285e-01   2.0273820e-01  -7.0713041e+06
   1.9499833e-09  -4.2906488e-03   2.8330926e-01   2.0288955e-01  -7.0403548e+06
   1.9526509e-09  -4.2719095e-03   2.8310669e-01   2.0304033e-01  -7.0095420e+06
   1.9553184e-09  -4.2532523e-03   2.8290514e-01   2.0319057e-01  -6.9788649e+06
   1.9579860e-09  -4.2346767e-03   2.8270461e-01   2.0334025e-01  -6.9483229e+06
   1.9606536e-09  -4.2161824e-03   2.8250508e-01   2.0348937e-01  -6.9179155e+06
   1.9633211e-09  -4.1977691e-03   2.8230656e-01   2.0363795e-01  -6.8876420e+06
   1.9659887e-09  -4.1794363e-03   2.8210904e-01   2.0378597e-01  -6.8575018e+06
   1.9686562e-09  -4.1611837e-03   2.8191250e-01   2.0393345e-01  -6.8274944e+06
   1.9713238e-09  -4.1430110e-03   2.8171696e-01   2.0408038e-01  -6.7976191e+06
   1.9739913e-09  -4.1249179e-03   2.8152239e-01   2.0422677e-01  -6.7678754e+06
   1.9766589e-09  -4.1069039e-03   2.8132880e-01   2.0437261e-01  -6.7382626e+06
   1.9793264e-09  -4.0889687e-03   2.8113618e-01   2.0451791e-01  -6.7087802e+06
   1.9819940e-09  -4.0711120e-03   2.8094452e-01   2.0466268e-01  -6.6794275e+06
   1.9846616e-09  -4.0533334e-03   2.8075383e-01   2.0480690e-01  -6.6502041e+06
   1.9873291e-09  -4.0356326e-03   2.8056408e-01   2.0495059e-01  -6.6211093e+06
   1.9899967e-09  -4.0180093e-03   2.8037529e-01   2.0509374e-01  -6.5921425e+06
   1.9926642e-09  -4.0004630e-03   2.8018744e-01   2.0523635e-01  -6.5633032e+06
   1.9953318e-09  -3.9829935e-03   2.8000052e-01   2.0537844e-01  -6.5345908e+06
   1.9979993e-09  -3.9656005e-03   2.7981454e-01   2.0552000e-01  -6.5060047e+06
   2.0006669e-09  -3.9482835e-03   2.7962949e-01   2.0566102e-01  -6.4775444e+06
   2.0033344e-09  -3.9310423e-03   2.7944535e-01   2.0580152e-01  -6.4492093e+06
   2.0060020e-09  -3.9138764e-03   2.7926214e-01   2.0594150e-01  -6.4209988e+06
   2.0086696e-09  -3.8967857e-03   2.7907984e-01   2.0608095e-01  -6.3929125e+06
   2.0113371e-09  -3.8797698e-03   2.7889844e-01   2.0621987e-01  -6.3649496e+06
   2.0140047e-09  -3.8628282e-03   2.7871795e-01   2.0635828e-01  -6.3371098e+06
   2.0166722e-09  -3.8459608e-03   2.7853836e-01   2.0649617e-01  -6.3093923e+06
   2.0193398e-09  -3.8291671e-03   2.7835965e-01   2.0663354e-01  -6.2817967e+06
   2.0220073e-09  -3.8124469e-03   2.7818184e-01   2.0677039e-01  -6.2543225e+06
   2.0246749e-09  -3.7957998e-03   2.7800490e-01   2.0690673e-01  -6.2269691e+06
   2.0273424e-09  -3.7792255e-03   2.7782885e-01   2.0704256e-01  -6.1997359e+06
   2.0300100e-09  -3.7627238e-03   2.7765366e-01   2.0717787e-01  -6.1726224e+06
   2.0326776e-09  -3.7462941e-03   2.7747935e-01   2.0731268e-01  -6.1456281e+06
   2.0353451e-09  -3.7299364e-03   2.7730590e-01   2.0744697e-01  -6.1187525e+06
   2.0380127e-09  -3.7136501e-03   2.7713330e-01   2.0758076e-01  -6.0919950e+06
   2.0406802e-09  -3.6974351e-03   2.7696156e-01   2.0771405e-01  -6.0653550e+06
   2.0433478e-09  -3.6812910e-03   2.7679067e-01   2.0784683e-01  -6.0388322e+06
   2.0460153e-09  -3.6652175e-03   2.7662063e-01   2.0797911e-01  -6.0124259e+06
   2.0486829e-09  -3.6492142e-03   2.7645142e-01   2.0811089e-01  -5.9861356e+06
   2.0513505e-09  -3.6332810e-03   2.7628305e-01   2.0824217e-01  -5.9599608e+06
   2.0540180e-09  -3.6174174e-03   2.7611551e-01   2.0837295e-01  -5.9339010e+06
   2.0566856e-09  -3.6016232e-03   2.7594880e-01   2.0850324e-01  -5.9079557e+06
   2.0593531e-09  -3.5858980e-03   2.7578291e-01   2.0863304e-01  -5.8821243e+06
   2.0620207e-09  -3.5702416e-03   2.7561784e-01   2.0876234e-01  -5.8564065e+06
   2.0646882e-09  -3.5546536e-03   2.7545357e-01   2.0889115e-01  -5.8308015e+06
   2.0673558e-09  -3.5391338e-03   2.7529012e-01   2.0901947e-01  -5.8053091e+06
   2.0700233e-09  -3.5236819e-03   2.7512747e-01   2.0914730e-01  -5.7799285e+06
   2.0726909e-09  -3.5082975e-03   2.7496563e-01   2.0927465e-01  -5.7546595e+06
   2.0753585e-09  -3.4929804e-03   2.7480457e-01   2.0940151e-01  -5.7295014e+06
   2.0780260e-09  -3.4777302e-03   2.7464431e-01   2.0952789e-01  -5.7044537e+06
   2.0806936e-09  -3.4625467e-03   2.7448483e-01   2.0965378e-01  -5.6795161e+06
   2.0833611e-09  -3.4474295e-03   2.7432614e-01   2.0977920e-01  -5.6546879e+06
   2.0860287e-09  -3.4323785e-03   2.7416823e-01   2.0990414e-01  -5.6299687e+06
   2.0886962e-09  -3.4173933e-03   2.7401109e-01   2.1002860e-01  -5.6053580e+06
   2.0913638e-09  -3.4024735e-03   2.7385472e-01   2.1015258e-01  -5.5808554e+06
   2.0940313e-09  -3.3876190e-03   2.7369911e-01   2.1027609e-01  -5.5564603e+06
   2.0966989e-09  -3.3728294e-03   2.7354427e-01   2.1039913e-01  -5.5321722e+06
   2.0993665e-09  -3.3581044e-03   2.7339019e-01   2.1052170e-01  -5.5079908e+06
   2.1020340e-09  -3.3434439e-03   2.7323686e-01   2.1064379e-01  -5.4839155e+06
   2.1047016e-09  -3.3288474e-03   2.7308427e-01   2.1076542e-01  -5.4599458e+06
   2.1073691e-09  -3.3143147e-03   2.7293244e-01   2.1088659e-01  -5.4360813e+06
   2.1100367e-09  -3.2998455e-03   2.7278134e-01   2.1100728e-01  -5.4123216e+06
   2.1127042e-09  -3.2854395e-03   2.7263099e-01   2.1112752e-01  -5.3886660e+06
   2.1153718e-09  -3.2710966e-03   2.7248136e-01   2.1124729e-01  -5.3651143e+06
   2.1180393e-09  -3.2568163e-03   2.7233247e-01   2.1136660e-01  -5.3416659e+06
   2.1207069e-09  -3.2425984e-03   2.7218430e-01   2.1148545e-01  -5.3183203e+06
   2.1233745e-09  -3.2284426e-03   2.7203686e-01   2.1160385e-01  -5.2950772e+06
   2.1260420e-09  -3.2143488e-03   2.7189013e-01   2.1172179e-01  -5.2719360e+06
   2.1287096e-09  -3.2003165e-03   2.7174412e-01   2.1183928e-01  -5.2488963e+06
   2.1313771e-09  -3.1863455e-03   2.7159881e-01   2.1195631e-01  -5.2259577e+06
   2.1340447e-09  -3.1724356e-03   2.7145422e-01   2.1207289e-01  -5.2031197e+06
   2.1367122e-09  -3.1585865e-03   2.7131032e-01   2.1218902e-01  -5.1803818e+06
   2.1393798e-09  -3.1447979e-03   2.7116713e-01   2.1230470e-01  -5.1577436e+06
   2.1420473e-09  -3.1310696e-03   2.7102463e-01   2.1241994e-01  -5.1352047e+06
   2.1447149e-09  -3.1174013e-03   2.7088283e-01   2.1253472e-01  -5.1127647e+06
   2.1473825e-09  -3.1037926e-03   2.7074171e-01   2.1264907e-01  -5.0904230e+06
   2.1500500e-09  -3.0902435e-03   2.7060127e-01   2.1276297e-01  -5.0681793e+06
   2.1527176e-09  -3.0767536e-03   2.7046152e-01   2.1287643e-01  -5.0460331e+06
   2.1553851e-09  -3.0633226e-03   2.7032245e-01   2.1298946e-01  -5.0239840e+06
   2.1580527e-09  -3.0499503e-03   2.7018404e-01   2.1310204e-01  -5.0020316e+06
   2.1607202e-09  -3.0366364e-03   2.7004631e-01   2.1321419e-01  -4.9801754e+06
   2.1633878e-09  -3.0233807e-03   2.6990925e-01   2.1332590e-01  -4.9584150e+06
   2.1660554e-09  -3.0101829e-03   2.6977285e-01   2.1343718e-01  -4.9367500e+06
   2.1687229e-09  -2.9970428e-03   2.6963710e-01   2.1354802e-01  -4.9151799e+06
   2.1713905e-09  -2.9839601e-03   2.6950202e-01   2.1365844e-01  -4.8937044e+06
   2.1740580e-09  -2.9709345e-03   2.6936758e-01   2.1376842e-01  -4.8723230e+06
   2.1767256e-09  -2.9579659e-03   2.6923380e-01   2.1387798e-01  -4.8510353e+06
   2.1793931e-09  -2.9450539e-03   2.6910066e-01   2.1398711e-01  -4.8298409e+06
   2.1820607e-09  -2.9321984e-03   2.6896817e-01   2.1409581e-01  -4.8087394e+06
   2.1847282e-09  -2.9193990e-03   2.6883631e-01   2.1420410e-01  -4.7877304e+06
   2.1873958e-09  -2.9066555e-03   2.6870509e-01   2.1431196e-01  -4.7668134e+06
   2.1900634e-09  -2.8939677e-03   2.6857450e-01   2.1441939e-01  -4.7459880e+06
   2.1927309e-09  -2.8813353e-03   2.6844454e-01   2.1452641e-01  -4.7252539e+06
   2.1953985e-09  -2.8687582e-03   2.6831521e-01   2.1463301e-01  -4.7046107e+06
   2.1980660e-09  -2.8562359e-03   2.6818649e-01   2.1473920e-01  -4.6840579e+06
   2.2007336e-09  -2.8437684e-03   2.6805840e-01   2.1484497e-01  -4.6635951e+06
   2.2034011e-09  -2.8313553e-03   2.6793093e-01   2.1495032e-01  -4.6432219e+06
   2.2060687e-09  -2.8189965e-03   2.6780406e-01   2.1505527e-01  -4.6229381e+06
   2.2087362e-09  -2.8066917e-03   2.6767781e-01   2.1515980e-01  -4.6027430e+06
   2.2114038e-09  -2.7944406e-03   2.6755216e-01   2.1526392e-01  -4.5826364e+06
   2.2140714e-09  -2.7822430e-03   2.6742712e-01   2.1536764e-01  -4.5626179e+06
   2.2167389e-09  -2.7700987e-03   2.6730268e-01   2.1547094e-01  -4.5426871e+06
   2.2194065e-09  -2.7580075e-03   2.6717883e-01   2.1557385e-01  -4.5228436e+06
   2.2220740e-09  -2.7459690e-03   2.6705558e-01   2.1567634e-01  -4.5030869e+06
   2.2247416e-09  -2.7339832e-03   2.6693292e-01   2.1577844e-01  -4.4834168e+06
   2.2274091e-09  -2.7220497e-03   2.6681084e-01   2.1588014e-01  -4.4638329e+06
   2.2300767e-09  -2.7101683e-03   2.6668936e-01   2.1598143e-01  -4.4443346e+06
   2.2327442e-09  -2.6983389e-03   2.6656845e-01   2.1608233e-01  -4.4249218e+06
   2.2354118e-09  -2.6865611e-03   2.6644812e-01   2.1618283e-01  -4.4055940e+06
   2.2380794e-09  -2.6748348e-03   2.6632837e-01   2.1628293e-01  -4.3863508e+06
   2.2407469e-09  -2.6631596e-03   2.6620919e-01   2.1638264e-01  -4.3671919e+06
   2.2434145e-09  -2.6515355e-03   2.6609058e-01   2.1648196e-01  -4.3481168e+06
   2.2460820e-09  -2.6399622e-03   2.6597254e-01   2.1658088e-01  -4.3291253e+06
   2.2487496e-09  -2.6284393e-03   2.6585506e-01   2.1667942e-01  -4.3102169e+06
   2.2514171e-09  -2.6169669e-03   2.6573814e-01   2.1677757e-01  -4.2913913e+06
   2.2540847e-09  -2.6055445e-03   2.6562178e-01   2.1687532e-01  -4.2726481e+06
   2.2567523e-09  -2.5941720e-03   2.6550598e-01   2.1697270e-01  -4.2539869e+06
   2.2594198e-09  -2.5828492e-03   2.6539072e-01   2.1706969e-01  -4.2354075e+06
   2.2620874e-09  -2.5715758e-03   2.6527602e-01   2.1716629e-01  -4.2169094e+06
   2.2647549e-09  -2.5603517e-03   2.6516186e-01   2.1726251e-01  -4.1984922e+06
   2.2674225e-09  -2.5491766e-03   2.6504825e-01   2.1735836e-01  -4.1801557e+06
   2.2700900e-09  -2.5380503e-03   2.6493518e-01   2.1745382e-01  -4.1618994e+06
   2.2727576e-09  -2.5269726e-03   2.6482265e-01   2.1754890e-01  -4.1437230e+06
   2.2754251e-09  -2.5159433e-03   2.6471065e-01   2.1764361e-01  -4.1256262e+06
   2.2780927e-09  -2.5049622e-03   2.6459919e-01   2.1773794e-01  -4.1076085e+06
   2.2807603e-09  -2.4940290e-03   2.6448826e-01   2.1783190e-01  -4.0896698e+06
   2.2834278e-09  -2.4831435e-03   2.6437785e-01   2.1792549e-01  -4.0718095e+06
   2.2860954e-09  -2.4723056e-03   2.6426797e-01   2.1801870e-01  -4.0540274e+06
   2.2887629e-09  -2.4615150e-03   2.6415861e-01   2.1811155e-01  -4.0363231e+06
   2.2914305e-09  -2.4507716e-03   2.6404977e-01   2.1820402e-01  -4.0186963e+06
   2.2940980e-09  -2.4400750e-03   2.6394144e-01   2.1829613e-01  -4.0011466e+06
   2.2967656e-09  -2.4294252e-03   2.6383364e-01   2.1838787e-01  -3.9836737e+06
   2.2994331e-09  -2.4188219e-03   2.6372634e-01   2.1847925e-01  -3.9662772e+06
   2.3021007e-09  -2.4082649e-03   2.6361955e-01   2.1857026e-01  -3.9489569e+06
   2.3047683e-09  -2.3977539e-03   2.6351327e-01   2.1866091e-01  -3.9317123e+06
   2.3074358e-09  -2.3872889e-03   2.6340749e-01   2.1875120e-01  -3.9145432e+06
   2.3101034e-09  -2.3768696e-03   2.6330221e-01   2.1884113e-01  -3.8974492e+06
   2.3127709e-09  -2.3664958e-03   2.6319743e-01   2.1893071e-01  -3.8804300e+06
   2.3154385e-09  -2.3561673e-03   2.6309315e-01   2.1901992e-01  -3.8634853e+06
   2.3181060e-09  -2.3458839e-03   2.6298936e-01   2.1910878e-01  -3.8466146e+06
   2.3207736e-09  -2.3356454e-03   2.6288606e-01   2.1919728e-01  -3.8298178e+06
   2.3234411e-09  -2.3254516e-03   2.6278325e-01   2.1928544e-01  -3.8130945e+06
   2.3261087e-09  -2.3153023e-03   2.6268092e-01   2.1937323e-01  -3.7964443e+06
   2.3287763e-09  -2.3051973e-03   2.6257908e-01   2.1946068e-01  -3.7798669e+06
   2.3314438e-09  -2.2951365e-03   2.6247772e-01   2.1954778e-01  -3.7633621e+06
   2.3341114e-09  -2.2851195e-03   2.6237684e-01   2.1963453e-01  -3.7469294e+06
   2.3367789e-09  -2.2751464e-03   2.6227644e-01   2.1972094e-01  -3.7305687e+06
   2.3394465e-09  -2.2652167e-03   2.6217651e-01   2.1980699e-01  -3.7142795e+06
   2.3421140e-09  -2.2553305e-03   2.6207705e-01   2.1989271e-01  -3.6980615e+06
   2.3447816e-09  -2.2454873e-03   2.6197806e-01   2.1997808e-01  -3.6819144e+06
   2.3474491e-09  -2.2356872e-03   2.6187954e-01   2.2006310e-01  -3.6658380e+06
   2.3501167e-09  -2.2259299e-03   2.6178148e-01   2.2014779e-01  -3.6498319e+06
   2.3527843e-09  -2.2162151e-03   2.6168388e-01   2.2023214e-01  -3.6338958e+06
   2.3554518e-09  -2.2065428e-03   2.6158675e-01   2.2031615e-01  -3.6180294e+06
   2.3581194e-09  -2.1969127e-03   2.6149007e-01   2.2039982e-01  -3.6022323e+06
   2.3607869e-09  -2.1873247e-03   2.6139384e-01   2.2048316e-01  -3.5865044e+06
   2.3634545e-09  -2.1777785e-03   2.6129807e-01   2.2056616e-01  -3.5708452e+06
   2.3661220e-09  -2.1682740e-03   2.6120275e-01   2.2064883e-01  -3.5552545e+06
   2.3687896e-09  -2.1588110e-03   2.6110788e-01   2.2073116e-01  -3.5397319e+06
   2.3714572e-09  -2.1493894e-03   2.6101345e-01   2.2081317e-01  -3.5242773e+06
   2.3741247e-09  -2.1400088e-03   2.6091947e-01   2.2089484e-01  -3.5088902e+06
   2.3767923e-09  -2.1306692e-03   2.6082593e-01   2.2097619e-01  -3.4935704e+06
   2.3794598e-09  -2.1213704e-03   2.6073283e-01   2.2105721e-01  -3.4783176e+06
   2.3821274e-09  -2.1121122e-03   2.6064016e-01   2.2113790e-01  -3.4631314e+06
   2.3847949e-09  -2.1028944e-03   2.6054794e-01   2.2121827e-01  -3.4480117e+06
   2.3874625e-09  -2.0937168e-03   2.6045614e-01   2.2129832e-01  -3.4329581e+06
   2.3901300e-09  -2.0845794e-03   2.6036477e-01   2.2137804e-01  -3.4179702e+06
   2.3927976e-09  -2.0754818e-03   2.6027384e-01   2.2145744e-01  -3.4030479e+06
   2.3954652e-09  -2.0664239e-03   2.6018332e-01   2.2153652e-01  -3.3881909e+06
   2.3981327e-09  -2.0574056e-03   2.6009324e-01   2.2161528e-01  -3.3733988e+06
   2.4008003e-09  -2.0484266e-03   2.6000357e-01   2.2169372e-01  -3.3586713e+06
   2.4034678e-09  -2.0394869e-03   2.5991433e-01   2.2177185e-01  -3.3440083e+06
   2.4061354e-09  -2.0305861e-03   2.5982550e-01   2.2184966e-01  -3.3294093e+06
   2.4088029e-09  -2.0217243e-03   2.5973709e-01   2.2192716e-01  -3.3148742e+06
   2.4114705e-09  -2.0129011e-03   2.5964909e-01   2.2200434e-01  -3.3004026e+06
   2.4141380e-09  -2.0041164e-03   2.5956151e-01   2.2208121e-01  -3.2859942e+06
   2.4168056e-09  -1.9953701e-03   2.5947433e-01   2.2215777e-01  -3.2716489e+06
   2.4194732e-09  -1.9866620e-03   2.5938757e-01   2.2223402e-01  -3.2573662e+06
   2.4221407e-09  -1.9779919e-03   2.5930120e-01   2.2230996e-01  -3.2431460e+06
   2.4248083e-09  -1.9693596e-03   2.5921524e-01   2.2238560e-01  -3.2289879e+06
   2.4274758e-09  -1.9607651e-03   2.5912969e-01   2.2246093e-01  -3.2148917e+06
   2.4301434e-09  -1.9522080e-03   2.5904453e-01   2.2253595e-01  -3.2008571e+06
   2.4328109e-09  -1.9436883e-03   2.5895977e-01   2.2261067e-01  -3.1868838e+06
   2.4354785e-09  -1.9352058e-03   2.5887540e-01   2.2268509e-01  -3.1729717e+06
   2.4381460e-09  -1.9267603e-03   2.5879143e-01   2.2275920e-01  -3.1591203e+06
   2.4408136e-09  -1.9183517e-03   2.5870785e-01   2.2283301e-01  -3.1453295e+06
   2.4434812e-09  -1.9099798e-03   2.5862467e-01   2.2290653e-01  -3.1315989e+06
   2.4461487e-09  -1.9016444e-03   2.5854186e-01   2.2297974e-01  -3.1179283e+06
   2.4488163e-09  -1.8933455e-03   2.5845945e-01   2.2305266e-01  -3.1043175e+06
   2.4514838e-09  -1.8850827e-03   2.5837742e-01   2.2312528e-01  -3.0907662e+06
   2.4541514e-09  -1.8768561e-03   2.5829577e-01   2.2319761e-01  -3.0772741e+06
   2.4568189e-09  -1.8686653e-03   2.5821450e-01   2.2326964e-01  -3.0638409e+06
   2.4594865e-09  -1.8605103e-03   2.5813361e-01   2.2334139e-01  -3.0504665e+06
   2.4621541e-09  -1.8523909e-03   2.5805310e-01   2.2341283e-01  -3.0371505e+06
   2.4648216e-09  -1.8443069e-03   2.5797296e-01   2.2348399e-01  -3.0238926e+06
   2.4674892e-09  -1.8362583e-03   2.5789319e-01   2.2355486e-01  -3.0106928e+06
   2.4701567e-09  -1.8282447e-03   2.5781379e-01   2.2362544e-01  -2.9975505e+06
   2.4728243e-09  -1.8202662e-03   2.5773477e-01   2.2369573e-01  -2.9844658e+06
   2.4754918e-09  -1.8123224e-03   2.5765611e-01   2.2376574e-01  -2.9714382e+06
   2.4781594e-09  -1.8044134e-03   2.5757782e-01   2.2383546e-01  -2.9584675e+06
   2.4808269e-09  -1.7965388e-03   2.5749989e-01   2.2390489e-01  -2.9455535e+06
   2.4834945e-09  -1.7886987e-03   2.5742232e-01   2.2397405e-01  -2.9326959e+06
   2.4861621e-09  -1.7808927e-03   2.5734511e-01   2.2404292e-01  -2.9198945e+06
   2.4888296e-09  -1.7731209e-03   2.5726826e-01   2.2411151e-01  -2.9071490e+06
   2.4914972e-09  -1.7653829e-03   2.5719177e-01   2.2417982e-01  -2.8944592e+06
   2.4941647e-09  -1.7576788e-03   2.5711563e-01   2.2424785e-01  -2.8818249e+06
   2.4968323e-09  -1.7500082e-03   2.5703985e-01   2.2431561e-01  -2.8692457e+06
   2.4994998e-09  -1.7423712e-03   2.5696441e-01   2.2438308e-01  -2.8567215e+06
   2.5021674e-09  -1.7347675e-03   2.5688933e-01   2.2445028e-01  -2.8442521e+06
   2.5048349e-09  -1.7271969e-03   2.5681460e-01   2.2451721e-01  -2.8318371e+06
   2.5075025e-09  -1.7196595e-03   2.5674021e-01   2.2458386e-01  -2.8194763e+06
   2.5101701e-09  -1.7121549e-03   2.5666616e-01   2.2465024e-01  -2.8071695e+06
   2.5128376e-09  -1.7046831e-03   2.5659246e-01   2.2471635e-01  -2.7949166e+06
   2.5155052e-09  -1.6972438e-03   2.5651910e-01   2.2478219e-01  -2.7827171e+06
   2.5181727e-09  -1.6898371e-03   2.5644608e-01   2.2484776e-01  -2.7705709e+06
   2.5208403e-09  -1.6824627e-03   2.5637340e-01   2.2491306e-01  -2.7584778e+06
   2.5235078e-09  -1.6751205e-03   2.5630105e-01   2.2497809e-01  -2.7464375e+06
   2.5261754e-09  -1.6678103e-03   2.5622904e-01   2.2504286e-01  -2.7344499e+06
   2.5288429e-09  -1.6605320e-03   2.5615736e-01   2.2510736e-01  -2.7225145e+06
   2.5315105e-09  -1.6532855e-03   2.5608601e-01   2.2517160e-01  -2.7106314e+06
   2.5341781e-09  -1.6460707e-03   2.5601500e-01   2.2523557e-01  -2.6988001e+06
   2.5368456e-09  -1.6388873e-03   2.5594431e-01   2.2529928e-01  -2.6870205e+06
   2.5395132e-09  -1.6317353e-03   2.5587395e-01   2.2536273e-01  -2.6752924e+06
   2.5421807e-09  -1.6246145e-03   2.5580391e-01   2.2542592e-01  -2.6636155e+06
   2.5448483e-09  -1.6175247e-03   2.5573419e-01   2.2548885e-01  -2.6519895e+06
   2.5475158e-09  -1.6104659e-03   2.5566480e-01   2.2555152e-01  -2.6404144e+06
   2.5501834e-09  -1.6034380e-03   2.5559573e-01   2.2561393e-01  -2.6288899e+06
   2.5528510e-09  -1.5964407e-03   2.5552698e-01   2.2567609e-01  -2.6174156e+06
   2.5555185e-09  -1.5894739e-03   2.5545854e-01   2.2573799e-01  -2.6059915e+06
   2.5581861e-09  -1.5825376e-03   2.5539042e-01   2.2579964e-01  -2.5946173e+06
   2.5608536e-09  -1.5756315e-03   2.5532261e-01   2.2586104e-01  -2.5832928e+06
   2.5635212e-09  -1.5687556e-03   2.5525512e-01   2.2592218e-01  -2.5720177e+06
   2.5661887e-09  -1.5619096e-03   2.5518794e-01   2.2598307e-01  -2.5607919e+06
   2.5688563e-09  -1.5550936e-03   2.5512106e-01   2.2604371e-01  -2.5496151e+06
   2.5715238e-09  -1.5483073e-03   2.5505450e-01   2.2610410e-01  -2.5384871e+06
   2.5741914e-09  -1.5415506e-03   2.5498824e-01   2.2616424e-01  -2.5274078e+06
   2.5768590e-09  -1.5348234e-03   2.5492228e-01   2.2622414e-01  -2.5163768e+06
   2.5795265e-09  -1.5281256e-03   2.5485664e-01   2.2628378e-01  -2.5053940e+06
   2.5821941e-09  -1.5214570e-03   2.5479129e-01   2.2634318e-01  -2.4944591e+06
   2.5848616e-09  -1.5148175e-03   2.5472624e-01   2.2640234e-01  -2.4835720e+06
   2.5875292e-09  -1.5082070e-03   2.5466149e-01   2.2646125e-01  -2.4727325e+06
   2.5901967e-09  -1.5016254e-03   2.5459704e-01   2.2651992e-01  -2.4619403e+06
   2.5928643e-09  -1.4950725e-03   2.5453289e-01   2.2657835e-01  -2.4511952e+06
   2.5955318e-09  -1.4885481e-03   2.5446903e-01   2.2663654e-01  -2.4404971e+06
   2.5981994e-09  -1.4820523e-03   2.5440547e-01   2.2669449e-01  -2.4298456e+06
   2.6008670e-09  -1.4755848e-03   2.5434219e-01   2.2675219e-01  -2.4192407e+06
   2.6035345e-09  -1.4691455e-03   2.5427921e-01   2.2680966e-01  -2.4086821e+06
   2.6062021e-09  -1.4627343e-03   2.5421652e-01   2.2686690e-01  -2.3981696e+06
   2.6088696e-09  -1.4563511e-03   2.5415411e-01   2.2692389e-01  -2.3877031e+06
   2.6115372e-09  -1.4499958e-03   2.5409199e-01   2.2698065e-01  -2.3772822e+06
   2.6142047e-09  -1.4436682e-03   2.5403016e-01   2.2703718e-01  -2.3669068e+06
   2.6168723e-09  -1.4373682e-03   2.5396861e-01   2.2709347e-01  -2.3565767e+06
   2.6195398e-09  -1.4310957e-03   2.5390734e-01   2.2714953e-01  -2.3462918e+06
   2.6222074e-09  -1.4248506e-03   2.5384636e-01   2.2720536e-01  -2.3360518e+06
   2.6248750e-09  -1.4186328e-03   2.5378565e-01   2.2726095e-01  -2.3258564e+06
   2.6275425e-09  -1.4124421e-03   2.5372522e-01   2.2731632e-01  -2.3157056e+06
   2.6302101e-09  -1.4062784e-03   2.5366507e-01   2.2737146e-01  -2.3055991e+06
   2.6328776e-09  -1.4001416e-03   2.5360520e-01   2.2742637e-01  -2.2955368e+06
   2.6355452e-09  -1.3940315e-03   2.5354559e-01   2.2748105e-01  -2.2855184e+06
   2.6382127e-09  -1.3879482e-03   2.5348627e-01   2.2753550e-01  -2.2755437e+06
   2.6408803e-09  -1.3818914e-03   2.5342721e-01   2.2758973e-01  -2.2656126e+06
   2.6435478e-09  -1.3758610e-03   2.5336843e-01   2.2764374e-01  -2.2557248e+06
   2.6462154e-09  -1.3698570e-03   2.5330991e-01   2.2769752e-01  -2.2458803e+06
   2.6488830e-09  -1.3638791e-03   2.5325166e-01   2.2775108e-01  -2.2360787e+06
   2.6515505e-09  -1.3579274e-03   2.5319368e-01   2.2780442e-01  -2.2263199e+06
   2.6542181e-09  -1.3520016e-03   2.5313596e-01   2.2785753e-01  -2.2166037e+06
   2.6568856e-09  -1.3461017e-03   2.5307851e-01   2.2791043e-01  -2.2069299e+06
   2.6595532e-09  -1.3402275e-03   2.5302132e-01   2.2796310e-01  -2.1972984e+06
   2.6622207e-09  -1.3343790e-03   2.5296439e-01   2.2801556e-01  -2.1877089e+06
   2.6648883e-09  -1.3285560e-03   2.5290772e-01   2.2806780e-01  -2.1781613e+06
   2.6675559e-09  -1.3227584e-03   2.5285131e-01   2.2811982e-01  -2.1686554e+06
   2.6702234e-09  -1.3169861e-03   2.5279516e-01   2.2817163e-01  -2.1591910e+06
   2.6728910e-09  -1.3112390e-03   2.5273927e-01   2.2822322e-01  -2.1497679e+06
   2.6755585e-09  -1.3055169e-03   2.5268363e-01   2.2827459e-01  -2.1403860e+06
   2.6782261e-09  -1.2998199e-03   2.5262824e-01   2.2832576e-01  -2.1310450e+06
   2.6808936e-09  -1.2941477e-03   2.5257311e-01   2.2837671e-01  -2.1217448e+06
   2.6835612e-09  -1.2885003e-03   2.5251823e-01   2.2842745e-01  -2.1124852e+06
   2.6862287e-09  -1.2828775e-03   2.5246360e-01   2.2847797e-01  -2.1032660e+06
   2.6888963e-09  -1.2772792e-03   2.5240922e-01   2.2852829e-01  -2.0940871e+06
   2.6915639e-09  -1.2717054e-03   2.5235509e-01   2.2857840e-01  -2.0849483e+06
   2.6942314e-09  -1.2661559e-03   2.5230120e-01   2.2862830e-01  -2.0758493e+06
   2.6968990e-09  -1.2606307e-03   2.5224756e-01   2.2867799e-01  -2.0667901e+06
   2.6995665e-09  -1.2551295e-03   2.5219417e-01   2.2872748e-01  -2.0577704e+06
   2.7022341e-09  -1.2496523e-03   2.5214101e-01   2.2877676e-01  -2.0487901e+06
   2.7049016e-09  -1.2441991e-03   2.5208811e-01   2.2882583e-01  -2.0398490e+06
   2.7075692e-09  -1.2387696e-03   2.5203544e-01   2.2887470e-01  -2.0309470e+06
   2.7102367e-09  -1.2333639e-03   2.5198301e-01   2.2892337e-01  -2.0220838e+06
   2.7129043e-09  -1.2279817e-03   2.5193082e-01   2.2897183e-01  -2.0132593e+06
   2.7155719e-09  -1.2226230e-03   2.5187887e-01   2.2902009e-01  -2.0044733e+06
   2.7182394e-09  -1.2172877e-03   2.5182715e-01   2.2906815e-01  -1.9957257e+06
   2.7209070e-09  -1.2119757e-03   2.5177567e-01   2.2911601e-01  -1.9870163e+06
   2.7235745e-09  -1.2066869e-03   2.5172443e-01   2.2916367e-01  -1.9783449e+06
   2.7262421e-09  -1.2014212e-03   2.5167342e-01   2.2921113e-01  -1.9697113e+06
   2.7289096e-09  -1.1961784e-03   2.5162264e-01   2.2925839e-01  -1.9611154e+06
   2.7315772e-09  -1.1909585e-03   2.5157209e-01   2.2930546e-01  -1.9525571e+06
   2.7342447e-09  -1.1857614e-03   2.5152177e-01   2.2935233e-01  -1.9440361e+06
   2.7369123e-09  -1.1805870e-03   2.5147168e-01   2.2939900e-01  -1.9355523e+06
   2.7395799e-09  -1.1754351e-03   2.5142182e-01   2.2944548e-01  -1.9271056e+06
   2.7422474e-09  -1.1703057e-03   2.5137219e-01   2.2949177e-01  -1.9186957e+06
   2.7449150e-09  -1.1651988e-03   2.5132278e-01   2.2953786e-01  -1.9103226e+06
   2.7475825e-09  -1.1601141e-03   2.5127359e-01   2.2958376e-01  -1.9019860e+06
   2.7502501e-09  -1.1550516e-03   2.5122463e-01   2.2962947e-01  -1.8936857e+06
   2.7529176e-09  -1.1500112e-03   2.5117589e-01   2.2967498e-01  -1.8854217e+06
   2.7555852e-09  -1.1449927e-03   2.5112737e-01   2.2972031e-01  -1.8771938e+06
   2.7582528e-09  -1.1399962e-03   2.5107908e-01   2.2976545e-01  -1.8690018e+06
   2.7609203e-09  -1.1350215e-03   2.5103100e-01   2.2981039e-01  -1.8608456e+06
   2.7635879e-09  -1.1300685e-03   2.5098314e-01   2.2985515e-01  -1.8527250e+06
   2.7662554e-09  -1.1251371e-03   2.5093550e-01   2.2989973e-01  -1.8446398e+06
   2.7689230e-09  -1.1202273e-03   2.5088807e-01   2.2994411e-01  -1.8365899e+06
   2.7715905e-09  -1.1153388e-03   2.5084086e-01   2.2998831e-01  -1.8285752e+06
   2.7742581e-09  -1.1104717e-03   2.5079387e-01   2.3003233e-01  -1.8205954e+06
   2.7769256e-09  -1.1056259e-03   2.5074708e-01   2.3007616e-01  -1.8126505e+06
   2.7795932e-09  -1.1008011e-03   2.5070051e-01   2.3011981e-01  -1.8047402e+06
   2.7822608e-09  -1.0959975e-03   2.5065415e-01   2.3016327e-01  -1.7968645e+06
   2.7849283e-09  -1.0912148e-03   2.5060800e-01   2.3020655e-01  -1.7890231e+06
   2.7875959e-09  -1.0864529e-03   2.5056206e-01   2.3024966e-01  -1.7812160e+06
   2.7902634e-09  -1.0817119e-03   2.5051633e-01   2.3029258e-01  -1.7734430e+06
   2.7929310e-09  -1.0769915e-03   2.5047081e-01   2.3033532e-01  -1.7657039e+06
   2.7955985e-09  -1.0722918e-03   2.5042549e-01   2.3037788e-01  -1.7579985e+06
   2.7982661e-09  -1.0676125e-03   2.5038038e-01   2.3042026e-01  -1.7503268e+06
   2.8009336e-09  -1.0629537e-03   2.5033547e-01   2.3046247e-01  -1.7426886e+06
   2.8036012e-09  -1.0583152e-03   2.5029076e-01   2.3050450e-01  -1.7350837e+06
   2.8062688e-09  -1.0536969e-03   2.5024626e-01   2.3054635e-01  -1.7275121e+06
   2.8089363e-09  -1.0490988e-03   2.5020196e-01   2.3058803e-01  -1.7199734e+06
   2.8116039e-09  -1.0445207e-03   2.5015786e-01   2.3062953e-01  -1.7124677e+06
   2.8142714e-09  -1.0399627e-03   2.5011396e-01   2.3067086e-01  -1.7049948e+06
   2.8169390e-09  -1.0354245e-03   2.5007026e-01   2.3071201e-01  -1.6975544e+06
   2.8196065e-09  -1.0309061e-03   2.5002675e-01   2.3075299e-01  -1.6901465e+06
   2.8222741e-09  -1.0264075e-03   2.4998345e-01   2.3079380e-01  -1.6827710e+06
   2.8249416e-09  -1.0219285e-03   2.4994033e-01   2.3083444e-01  -1.6754277e+06
   2.8276092e-09  -1.0174690e-03   2.4989742e-01   2.3087491e-01  -1.6681164e+06
   2.8302768e-09  -1.0130290e-03   2.4985470e-01   2.3091520e-01  -1.6608370e+06
   2.8329443e-09  -1.0086083e-03   2.4981217e-01   2.3095533e-01  -1.6535894e+06
   2.8356119e-09  -1.0042070e-03   2.4976983e-01   2.3099529e-01  -1.6463734e+06
   2.8382794e-09  -9.9982484e-04   2.4972768e-01   2.3103508e-01  -1.6391889e+06
   2.8409470e-09  -9.9546182e-04   2.4968573e-01   2.3107470e-01  -1.6320358e+06
   2.8436145e-09  -9.9111784e-04   2.4964396e-01   2.3111416e-01  -1.6249139e+06
   2.8462821e-09  -9.8679282e-04   2.4960239e-01   2.3115345e-01  -1.6178231e+06
   2.8489496e-09  -9.8248667e-04   2.4956100e-01   2.3119258e-01  -1.6107632e+06
   2.8516172e-09  -9.7819931e-04   2.4951980e-01   2.3123154e-01  -1.6037341e+06
   2.8542848e-09  -9.7393066e-04   2.4947878e-01   2.3127034e-01  -1.5967358e+06
   2.8569523e-09  -9.6968063e-04   2.4943795e-01   2.3130897e-01  -1.5897679e+06
   2.8596199e-09  -9.6544916e-04   2.4939730e-01   2.3134745e-01  -1.5828305e+06
   2.8622874e-09  -9.6123615e-04   2.4935684e-01   2.3138575e-01  -1.5759234e+06
   2.8649550e-09  -9.5704152e-04   2.4931656e-01   2.3142390e-01  -1.5690464e+06
   2.8676225e-09  -9.5286520e-04   2.4927646e-01   2.3146189e-01  -1.5621994e+06
   2.8702901e-09  -9.4870710e-04   2.4923654e-01   2.3149972e-01  -1.5553823e+06
   2.8729577e-09  -9.4456715e-04   2.4919681e-01   2.3153739e-01  -1.5485949e+06
   2.8756252e-09  -9.4044526e-04   2.4915725e-01   2.3157490e-01  -1.5418372e+06
   2.8782928e-09  -9.3634136e-04   2.4911787e-01   2.3161225e-01  -1.5351090e+06
   2.8809603e-09  -9.3225537e-04   2.4907867e-01   2.3164944e-01  -1.5284101e+06
   2.8836279e-09  -9.2818721e-04   2.4903964e-01   2.3168648e-01  -1.5217405e+06
   2.8862954e-09  -9.2413680e-04   2.4900079e-01   2.3172336e-01  -1.5151000e+06
   2.8889630e-09  -9.2010407e-04   2.4896212e-01   2.3176009e-01  -1.5084884e+06
   2.8916305e-09  -9.1608893e-04   2.4892362e-01   2.3179666e-01  -1.5019058e+06
   2.8942981e-09  -9.1209132e-04   2.4888529e-01   2.3183308e-01  -1.4953518e+06
   2.8969657e-09  -9.0811115e-04   2.4884714e-01   2.3186934e-01  -1.4888265e+06
   2.8996332e-09  -9.0414835e-04   2.4880916e-01   2.3190545e-01  -1.4823296e+06
   2.9023008e-09  -9.0020284e-04   2.4877135e-01   2.3194141e-01  -1.4758611e+06
   2.9049683e-09  -8.9627455e-04   2.4873371e-01   2.3197721e-01  -1.4694208e+06
   2.9076359e-09  -8.9236340e-04   2.4869623e-01   2.3201287e-01  -1.4630086e+06
   2.9103034e-09  -8.8846931e-04   2.4865893e-01   2.3204837e-01  -1.4566244e+06
   2.9129710e-09  -8.8459222e-04   2.4862180e-01   2.3208373e-01  -1.4502681e+06
   2.9156385e-09  -8.8073205e-04   2.4858483e-01   2.3211893e-01  -1.4439395e+06
   2.9183061e-09  -8.7688873e-04   2.4854803e-01   2.3215399e-01  -1.4376385e+06
   2.9209737e-09  -8.7306217e-04   2.4851140e-01   2.3218890e-01  -1.4313650e+06
   2.9236412e-09  -8.6925232e-04   2.4847493e-01   2.3222366e-01  -1.4251189e+06
   2.9263088e-09  -8.6545908e-04   2.4843862e-01   2.3225828e-01  -1.4189001e+06
   2.9289763e-09  -8.6168240e-04   2.4840248e-01   2.3229274e-01  -1.4127084e+06
   2.9316439e-09  -8.5792220e-04   2.4836650e-01   2.3232707e-01  -1.4065437e+06
   2.9343114e-09  -8.5417841e-04   2.4833068e-01   2.3236124e-01  -1.4004060e+06
   2.9369790e-09  -8.5045096e-04   2.4829502e-01   2.3239528e-01  -1.3942950e+06
   2.9396465e-09  -8.4673977e-04   2.4825953e-01   2.3242917e-01  -1.3882107e+06
   2.9423141e-09  -8.4304478e-04   2.4822419e-01   2.3246291e-01  -1.3821529e+06
   2.9449817e-09  -8.3936591e-04   2.4818901e-01   2.3249651e-01  -1.3761216e+06
   2.9476492e-09  -8.3570309e-04   2.4815399e-01   2.3252997e-01  -1.3701166e+06
   2.9503168e-09  -8.3205626e-04   2.4811913e-01   2.3256329e-01  -1.3641378e+06
   2.9529843e-09  -8.2842534e-04   2.4808442e-01   2.3259647e-01  -1.3581851e+06
   2.9556519e-09  -8.2481027e-04   2.4804987e-01   2.3262951e-01  -1.3522584e+06
   2.9583194e-09  -8.2121097e-04   2.4801548e-01   2.3266241e-01  -1.3463575e+06
   2.9609870e-09  -8.1762737e-04   2.4798123e-01   2.3269517e-01  -1.3404824e+06
   2.9636546e-09  -8.1405942e-04   2.4794715e-01   2.3272779e-01  -1.3346329e+06
   2.9663221e-09  -8.1050703e-04   2.4791321e-01   2.3276027e-01  -1.3288090e+06
   2.9689897e-09  -8.0697015e-04   2.4787943e-01   2.3279261e-01  -1.3230104e+06
   2.9716572e-09  -8.0344869e-04   2.4784580e-01   2.3282482e-01  -1.3172372e+06
   2.9743248e-09  -7.9994261e-04   2.4781232e-01   2.3285689e-01  -1.3114892e+06
   2.9769923e-09  -7.9645183e-04   2.4777900e-01   2.3288883e-01  -1.3057662e+06
   2.9796599e-09  -7.9297627e-04   2.4774582e-01   2.3292063e-01  -1.3000683e+06
   2.9823274e-09  -7.8951589e-04   2.4771279e-01   2.3295229e-01  -1.2943952e+06
   2.9849950e-09  -7.8607060e-04   2.4767991e-01   2.3298382e-01  -1.2887468e+06
   2.9876626e-09  -7.8264035e-04   2.4764717e-01   2.3301522e-01  -1.2831231e+06
   2.9903301e-09  -7.7922507e-04   2.4761458e-01   2.3304649e-01  -1.2775240e+06
   2.9929977e-09  -7.7582469e-04   2.4758214e-01   2.3307762e-01  -1.2719493e+06
   2.9956652e-09  -7.7243914e-04   2.4754985e-01   2.3310862e-01  -1.2663989e+06
   2.9983328e-09  -7.6906837e-04   2.4751770e-01   2.3313949e-01  -1.2608727e+06
   3.0010003e-09  -7.6571231e-04   2.4748569e-01   2.3317022e-01  -1.2553706e+06
   3.0036679e-09  -7.6237090e-04   2.4745383e-01   2.3320083e-01  -1.2498926e+06
   3.0063354e-09  -7.5904407e-04   2.4742211e-01   2.3323131e-01  -1.2444385e+06
   3.0090030e-09  -7.5573175e-04   2.4739053e-01   2.3326166e-01  -1.2390081e+06
   3.0116706e-09  -7.5243389e-04   2.4735909e-01   2.3329188e-01  -1.2336015e+06
   3.0143381e-09  -7.4915041e-04   2.4732780e-01   2.3332197e-01  -1.2282184e+06
   3.0170057e-09  -7.4588127e-04   2.4729664e-01   2.3335193e-01  -1.2228589e+06
   3.0196732e-09  -7.4262639e-04   2.4726562e-01   2.3338177e-01  -1.2175227e+06
   3.0223408e-09  -7.3938572e-04   2.4723475e-01   2.3341148e-01  -1.2122098e+06
   3.0250083e-09  -7.3615918e-04   2.4720401e-01   2.3344106e-01  -1.2069201e+06
   3.0276759e-09  -7.3294673e-04   2.4717341e-01   2.3347052e-01  -1.2016535e+06
   3.0303434e-09  -7.2974829e-04   2.4714294e-01   2.3349985e-01  -1.1964099e+06
   3.0330110e-09  -7.2656381e-04   2.4711262e-01   2.3352906e-01  -1.1911892e+06
   3.0356786e-09  -7.2339323e-04   2.4708242e-01   2.3355814e-01  -1.1859912e+06
   3.0383461e-09  -7.2023648e-04   2.4705237e-01   2.3358710e-01  -1.1808159e+06
   3.0410137e-09  -7.1709350e-04   2.4702244e-01   2.3361594e-01  -1.1756632e+06
   3.0436812e-09  -7.1396425e-04   2.4699266e-01   2.3364465e-01  -1.1705330e+06
   3.0463488e-09  -7.1084864e-04   2.4696300e-01   2.3367325e-01  -1.1654252e+06
   3.0490163e-09  -7.0774663e-04   2.4693348e-01   2.3370172e-01  -1.1603396e+06
   3.0516839e-09  -7.0465816e-04   2.4690409e-01   2.3373007e-01  -1.1552763e+06
   3.0543515e-09  -7.0158317e-04   2.4687483e-01   2.3375830e-01  -1.1502351e+06
   3.0570190e-09  -6.9852159e-04   2.4684570e-01   2.3378641e-01  -1.1452158e+06
   3.0596866e-09  -6.9547337e-04   2.4681671e-01   2.3381440e-01  -1.1402185e+06
   3.0623541e-09  -6.9243846e-04   2.4678784e-01   2.3384227e-01  -1.1352429e+06
   3.0650217e-09  -6.8941678e-04   2.4675910e-01   2.3387002e-01  -1.1302891e+06
   3.0676892e-09  -6.8640830e-04   2.4673049e-01   2.3389766e-01  -1.1253569e+06
   3.0703568e-09  -6.8341294e-04   2.4670201e-01   2.3392517e-01  -1.1204462e+06
   3.0730243e-09  -6.8043065e-04   2.4667365e-01   2.3395257e-01  -1.1155570e+06
   3.0756919e-09  -6.7746138e-04   2.4664542e-01   2.3397986e-01  -1.1106890e+06
   3.0783595e-09  -6.7450506e-04   2.4661732e-01   2.3400702e-01  -1.1058424e+06
   3.0810270e-09  -6.7156164e-04   2.4658934e-01   2.3403408e-01  -1.1010168e+06
   3.0836946e-09  -6.6863107e-04   2.4656149e-01   2.3406101e-01  -1.0962124e+06
   3.0863621e-09  -6.6571328e-04   2.4653377e-01   2.3408783e-01  -1.0914289e+06
   3.0890297e-09  -6.6280823e-04   2.4650616e-01   2.3411454e-01  -1.0866662e+06
   3.0916972e-09  -6.5991585e-04   2.4647868e-01   2.3414114e-01  -1.0819244e+06
   3.0943648e-09  -6.5703610e-04   2.4645133e-01   2.3416762e-01  -1.0772032e+06
   3.0970323e-09  -6.5416891e-04   2.4642409e-01   2.3419398e-01  -1.0725027e+06
   3.0996999e-09  -6.5131423e-04   2.4639698e-01   2.3422024e-01  -1.0678226e+06
   3.1023675e-09  -6.4847201e-04   2.4636999e-01   2.3424638e-01  -1.0631630e+06
   3.1050350e-09  -6.4564219e-04   2.4634311e-01   2.3427242e-01  -1.0585237e+06
   3.1077026e-09  -6.4282472e-04   2.4631636e-01   2.3429834e-01  -1.0539047e+06
   3.1103701e-09  -6.4001955e-04   2.4628973e-01   2.3432415e-01  -1.0493058e+06
   3.1130377e-09  -6.3722661e-04   2.4626322e-01   2.3434985e-01  -1.0447270e+06
   3.1157052e-09  -6.3444587e-04   2.4623682e-01   2.3437544e-01  -1.0401681e+06
   3.1183728e-09  -6.3167725e-04   2.4621054e-01   2.3440092e-01  -1.0356292e+06
   3.1210403e-09  -6.2892072e-04   2.4618438e-01   2.3442630e-01  -1.0311100e+06
   3.1237079e-09  -6.2617622e-04   2.4615834e-01   2.3445156e-01  -1.0266106e+06
   3.1263755e-09  -6.2344369e-04   2.4613241e-01   2.3447672e-01  -1.0221308e+06
   3.1290430e-09  -6.2072309e-04   2.4610660e-01   2.3450177e-01  -1.0176706e+06
   3.1317106e-09  -6.1801436e-04   2.4608091e-01   2.3452671e-01  -1.0132298e+06
   3.1343781e-09  -6.1531744e-04   2.4605532e-01   2.3455155e-01  -1.0088084e+06
   3.1370457e-09  -6.1263230e-04   2.4602986e-01   2.3457628e-01  -1.0044063e+06
   3.1397132e-09  -6.0995887e-04   2.4600450e-01   2.3460091e-01  -1.0000234e+06
   3.1423808e-09  -6.0729711e-04   2.4597926e-01   2.3462543e-01  -9.9565967e+05
   3.1450483e-09  -6.0464697e-04   2.4595413e-01   2.3464985e-01  -9.9131494e+05
   3.1477159e-09  -6.0200839e-04   2.4592912e-01   2.3467416e-01  -9.8698917e+05
   3.1503835e-09  -5.9938132e-04   2.4590421e-01   2.3469837e-01  -9.8268228e+05
   3.1530510e-09  -5.9676572e-04   2.4587942e-01   2.3472247e-01  -9.7839419e+05
   3.1557186e-09  -5.9416153e-04   2.4585473e-01   2.3474647e-01  -9.7412480e+05
   3.1583861e-09  -5.9156870e-04   2.4583016e-01   2.3477037e-01  -9.6987405e+05
   3.1610537e-09  -5.8898719e-04   2.4580570e-01   2.3479417e-01  -9.6564184e+05
   3.1637212e-09  -5.8641694e-04   2.4578134e-01   2.3481787e-01  -9.6142810e+05
   3.1663888e-09  -5.8385791e-04   2.4575710e-01   2.3484146e-01  -9.5723275e+05
   3.1690564e-09  -5.8131004e-04   2.4573296e-01   2.3486496e-01  -9.5305570e+05
   3.1717239e-09  -5.7877330e-04   2.4570893e-01   2.3488835e-01  -9.4889688e+05
   3.1743915e-09  -5.7624762e-04   2.4568500e-01   2.3491164e-01  -9.4475621e+05
   3.1770590e-09  -5.7373296e-04   2.4566119e-01   2.3493484e-01  -9.4063361e+05
   3.1797266e-09  -5.7122928e-04   2.4563747e-01   2.3495793e-01  -9.3652900e+05
   3.1823941e-09  -5.6873652e-04   2.4561387e-01   2.3498093e-01  -9.3244230e+05
   3.1850617e-09  -5.6625464e-04   2.4559037e-01   2.3500383e-01  -9.2837343e+05
   3.1877292e-09  -5.6378359e-04   2.4556697e-01   2.3502663e-01  -9.2432231e+05
   3.1903968e-09  -5.6132332e-04   2.4554368e-01   2.3504933e-01  -9.2028888e+05
   3.1930644e-09  -5.5887379e-04   2.4552049e-01   2.3507194e-01  -9.1627304e+05
   3.1957319e-09  -5.5643495e-04   2.4549741e-01   2.3509445e-01  -9.1227472e+05
   3.1983995e-09  -5.5400675e-04   2.4547443e-01   2.3511686e-01  -9.0829386e+05
   3.2010670e-09  -5.5158914e-04   2.4545155e-01   2.3513918e-01  -9.0433036e+05
   3.2037346e-09  -5.4918209e-04   2.4542877e-01   2.3516140e-01  -9.0038416e+05
   3.2064021e-09  -5.4678554e-04   2.4540609e-01   2.3518353e-01  -8.9645518e+05
   3.2090697e-09  -5.4439944e-04   2.4538352e-01   2.3520556e-01  -8.9254334e+05
   3.2117372e-09  -5.4202376e-04   2.4536104e-01   2.3522750e-01  -8.8864858e+05
   3.2144048e-09  -5.3965845e-04   2.4533867e-01   2.3524934e-01  -8.8477080e+05
   3.2170724e-09  -5.3730345e-04   2.4531639e-01   2.3527109e-01  -8.8090995e+05
   3.2197399e-09  -5.3495873e-04   2.4529421e-01   2.3529275e-01  -8.7706595e+05
   3.2224075e-09  -5.3262425e-04   2.4527213e-01   2.3531431e-01  -8.7323872e+05
   3.2250750e-09  -5.3029995e-04   2.4525015e-01   2.3533579e-01  -8.6942819e+05
   3.2277426e-09  -5.2798579e-04   2.4522827e-01   2.3535717e-01  -8.6563428e+05
   3.2304101e-09  -5.2568174e-04   2.4520649e-01   2.3537846e-01  -8.6185694e+05
   3.2330777e-09  -5.2338773e-04   2.4518480e-01   2.3539965e-01  -8.5809607e+05
   3.2357452e-09  -5.2110374e-04   2.4516321e-01   2.3542076e-01  -8.5435162e+05
   3.2384128e-09  -5.1882971e-04   2.4514171e-01   2.3544178e-01  -8.5062350e+05
   3.2410804e-09  -5.1656561e-04   2.4512031e-01   2.3546271e-01  -8.4691165e+05
   3.2437479e-09  -5.1431138e-04   2.4509901e-01   2.3548354e-01  -8.4321600e+05
   3.2464155e-09  -5.1206699e-04   2.4507780e-01   2.3550429e-01  -8.3953648e+05
   3.2490830e-09  -5.0983240e-04   2.4505668e-01   2.3552495e-01  -8.3587301e+05
   3.2517506e-09  -5.0760756e-04   2.4503566e-01   2.3554552e-01  -8.3222552e+05
   3.2544181e-09  -5.0539242e-04   2.4501473e-01   2.3556601e-01  -8.2859395e+05
   3.2570857e-09  -5.0318695e-04   2.4499389e-01   2.3558640e-01  -8.2497823e+05
   3.2597533e-09  -5.0099111e-04   2.4497315e-01   2.3560671e-01  -8.2137829e+05
   3.2624208e-09  -4.9880484e-04   2.4495250e-01   2.3562693e-01  -8.1779405e+05
   3.2650884e-09  -4.9662812e-04   2.4493194e-01   2.3564706e-01  -8.1422546e+05
   3.2677559e-09  -4.9446090e-04   2.4491147e-01   2.3566711e-01  -8.1067244e+05
   3.2704235e-09  -4.9230313e-04   2.4489109e-01   2.3568707e-01  -8.0713491e+05
   3.2730910e-09  -4.9015478e-04   2.4487081e-01   2.3570695e-01  -8.0361283e+05
   3.2757586e-09  -4.8801580e-04   2.4485061e-01   2.3572674e-01  -8.0010612e+05
   3.2784261e-09  -4.8588616e-04   2.4483050e-01   2.3574645e-01  -7.9661470e+05
   3.2810937e-09  -4.8376581e-04   2.4481049e-01   2.3576607e-01  -7.9313852e+05
   3.2837613e-09  -4.8165471e-04   2.4479056e-01   2.3578561e-01  -7.8967751e+05
   3.2864288e-09  -4.7955283e-04   2.4477072e-01   2.3580506e-01  -7.8623160e+05
   3.2890964e-09  -4.7746012e-04   2.4475096e-01   2.3582443e-01  -7.8280073e+05
   3.2917639e-09  -4.7537653e-04   2.4473130e-01   2.3584372e-01  -7.7938483e+05
   3.2944315e-09  -4.7330204e-04   2.4471172e-01   2.3586293e-01  -7.7598383e+05
   3.2970990e-09  -4.7123661e-04   2.4469223e-01   2.3588205e-01  -7.7259768e+05
   3.2997666e-09  -4.6918018e-04   2.4467283e-01   2.3590109e-01  -7.6922630e+05
   3.3024341e-09  -4.6713273e-04   2.4465351e-01   2.3592005e-01  -7.6586963e+05
   3.3051017e-09  -4.6509422e-04   2.4463428e-01   2.3593893e-01  -7.6252761e+05
   3.3077693e-09  -4.6306460e-04   2.4461513e-01   2.3595772e-01  -7.5920017e+05
   3.3104368e-09  -4.6104383e-04   2.4459607e-01   2.3597644e-01  -7.5588725e+05
   3.3131044e-09  -4.5903189e-04   2.4457709e-01   2.3599508e-01  -7.5258878e+05
   3.3157719e-09  -4.5702872e-04   2.4455820e-01   2.3601363e-01  -7.4930471e+05
   3.3184395e-09  -4.5503430e-04   2.4453939e-01   2.3603211e-01  -7.4603497e+05
   3.3211070e-09  -4.5304857e-04   2.4452066e-01   2.3605050e-01  -7.4277950e+05
   3.3237746e-09  -4.5107152e-04   2.4450202e-01   2.3606882e-01  -7.3953823e+05
   3.3264421e-09  -4.4910309e-04   2.4448346e-01   2.3608706e-01  -7.3631110e+05
   3.3291097e-09  -4.4714325e-04   2.4446498e-01   2.3610522e-01  -7.3309806e+05
   3.3317773e-09  -4.4519196e-04   2.4444659e-01   2.3612331e-01  -7.2989904e+05
   3.3344448e-09  -4.4324918e-04   2.4442827e-01   2.3614131e-01  -7.2671397e+05
   3.3371124e-09  -4.4131489e-04   2.4441004e-01   2.3615924e-01  -7.2354281e+05
   3.3397799e-09  -4.3938903e-04   2.4439189e-01   2.3617709e-01  -7.2038548e+05
   3.3424475e-09  -4.3747158e-04   2.4437381e-01   2.3619487e-01  -7.1724193e+05
   3.3451150e-09  -4.3556250e-04   2.4435582e-01   2.3621256e-01  -7.1411209e+05
   3.3477826e-09  -4.3366175e-04   2.4433791e-01   2.3623019e-01  -7.1099591e+05
   3.3504502e-09  -4.3176929e-04   2.4432008e-01   2.3624773e-01  -7.0789333e+05
   3.3531177e-09  -4.2988509e-04   2.4430232e-01   2.3626520e-01  -7.0480429e+05
   3.3557853e-09  -4.2800911e-04   2.4428465e-01   2.3628260e-01  -7.0172873e+05
   3.3584528e-09  -4.2614131e-04   2.4426705e-01   2.3629992e-01  -6.9866658e+05
   3.3611204e-09  -4.2428167e-04   2.4424953e-01   2.3631717e-01  -6.9561780e+05
   3.3637879e-09  -4.2243014e-04   2.4423209e-01   2.3633434e-01  -6.9258232e+05
   3.3664555e-09  -4.2058670e-04   2.4421473e-01   2.3635144e-01  -6.8956009e+05
   3.3691230e-09  -4.1875129e-04   2.4419744e-01   2.3636847e-01  -6.8655104e+05
   3.3717906e-09  -4.1692390e-04   2.4418023e-01   2.3638542e-01  -6.8355513e+05
   3.3744582e-09  -4.1510448e-04   2.4416309e-01   2.3640230e-01  -6.8057229e+05
   3.3771257e-09  -4.1329300e-04   2.4414604e-01   2.3641911e-01  -6.7760246e+05
   3.3797933e-09  -4.1148942e-04   2.4412905e-01   2.3643584e-01  -6.7464559e+05
   3.3824608e-09  -4.0969371e-04   2.4411214e-01   2.3645250e-01  -6.7170162e+05
   3.3851284e-09  -4.0790584e-04   2.4409531e-01   2.3646910e-01  -6.6877050e+05
   3.3877959e-09  -4.0612578e-04   2.4407855e-01   2.3648562e-01  -6.6585217e+05
   3.3904635e-09  -4.0435348e-04   2.4406187e-01   2.3650207e-01  -6.6294658e+05
   3.3931310e-09  -4.0258891e-04   2.4404526e-01   2.3651844e-01  -6.6005366e+05
   3.3957986e-09  -4.0083204e-04   2.4402872e-01   2.3653475e-01  -6.5717337e+05
   3.3984662e-09  -3.9908284e-04   2.4401226e-01   2.3655099e-01  -6.5430564e+05
   3.4011337e-09  -3.9734128e-04   2.4399587e-01   2.3656716e-01  -6.5145043e+05
   3.4038013e-09  -3.9560731e-04   2.4397955e-01   2.3658326e-01  -6.4860767e+05
   3.4064688e-09  -3.9388091e-04   2.4396330e-01   2.3659929e-01  -6.4577732e+05
   3.4091364e-09  -3.9216204e-04   2.4394713e-01   2.3661525e-01  -6.4295932e+05
   3.4118039e-09  -3.9045067e-04   2.4393103e-01   2.3663114e-01  -6.4015362e+05
   3.4144715e-09  -3.8874677e-04   2.4391500e-01   2.3664696e-01  -6.3736016e+05
   3.4171390e-09  -3.8705031e-04   2.4389904e-01   2.3666272e-01  -6.3457889e+05
   3.4198066e-09  -3.8536125e-04   2.4388315e-01   2.3667840e-01  -6.3180975e+05
   3.4224742e-09  -3.8367956e-04   2.4386733e-01   2.3669402e-01  -6.2905270e+05
   3.4251417e-09  -3.8200521e-04   2.4385158e-01   2.3670958e-01  -6.2630768e+05
   3.4278093e-09  -3.8033816e-04   2.4383590e-01   2.3672506e-01  -6.2357464e+05
   3.4304768e-09  -3.7867839e-04   2.4382029e-01   2.3674048e-01  -6.2085352e+05
   3.4331444e-09  -3.7702586e-04   2.4380475e-01   2.3675583e-01  -6.1814427e+05
   3.4358119e-09  -3.7538055e-04   2.4378927e-01   2.3677112e-01  -6.1544685e+05
   3.4384795e-09  -3.7374241e-04   2.4377387e-01   2.3678634e-01  -6.1276120e+05
   3.4411470e-09  -3.7211142e-04   2.4375853e-01   2.3680150e-01  -6.1008727e+05
   3.4438146e-09  -3.7048755e-04   2.4374327e-01   2.3681659e-01  -6.0742500e+05
   3.4464822e-09  -3.6887076e-04   2.4372807e-01   2.3683161e-01  -6.0477435e+05
   3.4491497e-09  -3.6726103e-04   2.4371293e-01   2.3684657e-01  -6.0213527e+05
   3.4518173e-09  -3.6565833e-04   2.4369787e-01   2.3686147e-01  -5.9950770e+05
   3.4544848e-09  -3.6406262e-04   2.4368287e-01   2.3687630e-01  -5.9689160e+05
   3.4571524e-09  -3.6247387e-04   2.4366793e-01   2.3689107e-01  -5.9428691e+05
   3.4598199e-09  -3.6089205e-04   2.4365306e-01   2.3690577e-01  -5.9169359e+05
   3.4624875e-09  -3.5931714e-04   2.4363826e-01   2.3692042e-01  -5.8911158e+05
   3.4651551e-09  -3.5774910e-04   2.4362353e-01   2.3693499e-01  -5.8654085e+05
   3.4678226e-09  -3.5618790e-04   2.4360885e-01   2.3694951e-01  -5.8398133e+05
   3.4704902e-09  -3.5463351e-04   2.4359425e-01   2.3696396e-01  -5.8143297e+05
   3.4731577e-09  -3.5308591e-04   2.4357971e-01   2.3697835e-01  -5.7889574e+05
   3.4758253e-09  -3.5154506e-04   2.4356523e-01   2.3699268e-01  -5.7636958e+05
   3.4784928e-09  -3.5001093e-04   2.4355081e-01   2.3700695e-01  -5.7385444e+05
   3.4811604e-09  -3.4848350e-04   2.4353646e-01   2.3702115e-01  -5.7135028e+05
   3.4838279e-09  -3.4696274e-04   2.4352218e-01   2.3703530e-01  -5.6885704e+05
   3.4864955e-09  -3.4544861e-04   2.4350795e-01   2.3704938e-01  -5.6637468e+05
   3.4891631e-09  -3.4394109e-04   2.4349379e-01   2.3706340e-01  -5.6390315e+05
   3.4918306e-09  -3.4244014e-04   2.4347969e-01   2.3707737e-01  -5.6144241e+05
   3.4944982e-09  -3.4094575e-04   2.4346566e-01   2.3709127e-01  -5.5899241e+05
   3.4971657e-09  -3.3945788e-04   2.4345169e-01   2.3710511e-01  -5.5655310e+05
   3.4998333e-09  -3.3797650e-04   2.4343777e-01   2.3711889e-01  -5.5412443e+05
   3.5025008e-09  -3.3650158e-04   2.4342392e-01   2.3713262e-01  -5.5170636e+05
   3.5051684e-09  -3.3503310e-04   2.4341013e-01   2.3714628e-01  -5.4929883e+05
   3.5078359e-09  -3.3357103e-04   2.4339640e-01   2.3715989e-01  -5.4690182e+05
   3.5105035e-09  -3.3211534e-04   2.4338274e-01   2.3717343e-01  -5.4451526e+05
   3.5131711e-09  -3.3066600e-04   2.4336913e-01   2.3718692e-01  -5.4213912e+05
   3.5158386e-09  -3.2922298e-04   2.4335558e-01   2.3720035e-01  -5.3977335e+05
   3.5185062e-09  -3.2778627e-04   2.4334209e-01   2.3721372e-01  -5.3741790e+05
   3.5211737e-09  -3.2635582e-04   2.4332866e-01   2.3722704e-01  -5.3507272e+05
   3.5238413e-09  -3.2493161e-04   2.4331530e-01   2.3724029e-01  -5.3273779e+05
   3.5265088e-09  -3.2351362e-04   2.4330199e-01   2.3725349e-01  -5.3041303e+05
   3.5291764e-09  -3.2210182e-04   2.4328873e-01   2.3726664e-01  -5.2809843e+05
   3.5318439e-09  -3.2069617e-04   2.4327554e-01   2.3727972e-01  -5.2579392e+05
   3.5345115e-09  -3.1929667e-04   2.4326241e-01   2.3729275e-01  -5.2349947e+05
   3.5371791e-09  -3.1790326e-04   2.4324933e-01   2.3730573e-01  -5.2121503e+05
   3.5398466e-09  -3.1651594e-04   2.4323631e-01   2.3731864e-01  -5.1894056e+05
   3.5425142e-09  -3.1513468e-04   2.4322335e-01   2.3733150e-01  -5.1667601e+05
   3.5451817e-09  -3.1375944e-04   2.4321045e-01   2.3734431e-01  -5.1442135e+05
   3.5478493e-09  -3.1239020e-04   2.4319760e-01   2.3735706e-01  -5.1217652e+05
   3.5505168e-09  -3.1102693e-04   2.4318481e-01   2.3736976e-01  -5.0994149e+05
   3.5531844e-09  -3.0966962e-04   2.4317208e-01   2.3738240e-01  -5.0771621e+05
   3.5558520e-09  -3.0831823e-04   2.4315940e-01   2.3739499e-01  -5.0550064e+05
   3.5585195e-09  -3.0697273e-04   2.4314678e-01   2.3740752e-01  -5.0329474e+05
   3.5611871e-09  -3.0563311e-04   2.4313421e-01   2.3742000e-01  -5.0109847e+05
   3.5638546e-09  -3.0429933e-04   2.4312170e-01   2.3743242e-01  -4.9891178e+05
   3.5665222e-09  -3.0297138e-04   2.4310924e-01   2.3744479e-01  -4.9673463e+05
   3.5691897e-09  -3.0164922e-04   2.4309684e-01   2.3745711e-01  -4.9456698e+05
   3.5718573e-09  -3.0033282e-04   2.4308450e-01   2.3746938e-01  -4.9240878e+05
   3.5745248e-09  -2.9902218e-04   2.4307220e-01   2.3748159e-01  -4.9026001e+05
   3.5771924e-09  -2.9771725e-04   2.4305997e-01   2.3749375e-01  -4.8812061e+05
   3.5798600e-09  -2.9641801e-04   2.4304778e-01   2.3750585e-01  -4.8599055e+05
   3.5825275e-09  -2.9512445e-04   2.4303565e-01   2.3751791e-01  -4.8386978e+05
   3.5851951e-09  -2.9383653e-04   2.4302358e-01   2.3752991e-01  -4.8175827e+05
   3.5878626e-09  -2.9255423e-04   2.4301156e-01   2.3754186e-01  -4.7965597e+05
   3.5905302e-09  -2.9127753e-04   2.4299959e-01   2.3755376e-01  -4.7756284e+05
   3.5931977e-09  -2.9000639e-04   2.4298767e-01   2.3756560e-01  -4.7547885e+05
   3.5958653e-09  -2.8874081e-04   2.4297580e-01   2.3757740e-01  -4.7340395e+05
   3.5985328e-09  -2.8748075e-04   2.4296399e-01   2.3758915e-01  -4.7133810e+05
   3.6012004e-09  -2.8622618e-04   2.4295223e-01   2.3760084e-01  -4.6928127e+05
   3.6038680e-09  -2.8497709e-04   2.4294052e-01   2.3761248e-01  -4.6723342e+05
   3.6065355e-09  -2.8373345e-04   2.4292887e-01   2.3762408e-01  -4.6519450e+05
   3.6092031e-09  -2.8249524e-04   2.4291726e-01   2.3763562e-01  -4.6316447e+05
   3.6118706e-09  -2.8126243e-04   2.4290571e-01   2.3764711e-01  -4.6114331e+05
   3.6145382e-09  -2.8003501e-04   2.4289420e-01   2.3765856e-01  -4.5913096e+05
   3.6172057e-09  -2.7881293e-04   2.4288275e-01   2.3766995e-01  -4.5712740e+05
   3.6198733e-09  -2.7759619e-04   2.4287135e-01   2.3768130e-01  -4.5513258e+05
   3.6225408e-09  -2.7638476e-04   2.4286000e-01   2.3769260e-01  -4.5314646e+05
   3.6252084e-09  -2.7517862e-04   2.4284870e-01   2.3770384e-01  -4.5116901e+05
   3.6278760e-09  -2.7397774e-04   2.4283744e-01   2.3771504e-01  -4.4920019e+05
   3.6305435e-09  -2.7278210e-04   2.4282624e-01   2.3772619e-01  -4.4723995e+05
   3.6332111e-09  -2.7159168e-04   2.4281509e-01   2.3773730e-01  -4.4528828e+05
   3.6358786e-09  -2.7040645e-04   2.4280399e-01   2.3774835e-01  -4.4334512e+05
   3.6385462e-09  -2.6922640e-04   2.4279293e-01   2.3775936e-01  -4.4141043e+05
   3.6412137e-09  -2.6805149e-04   2.4278192e-01   2.3777032e-01  -4.3948419e+05
   3.6438813e-09  -2.6688171e-04   2.4277097e-01   2.3778123e-01  -4.3756636e+05
   3.6465488e-09  -2.6571704e-04   2.4276006e-01   2.3779209e-01  -4.3565689e+05
   3.6492164e-09  -2.6455745e-04   2.4274920e-01   2.3780291e-01  -4.3375576e+05
   3.6518840e-09  -2.6340292e-04   2.4273838e-01   2.3781368e-01  -4.3186292e+05
   3.6545515e-09  -2.6225342e-04   2.4272762e-01   2.3782441e-01  -4.2997834e+05
   3.6572191e-09  -2.6110895e-04   2.4271690e-01   2.3783508e-01  -4.2810199e+05
   3.6598866e-09  -2.5996946e-04   2.4270623e-01   2.3784572e-01  -4.2623382e+05
   3.6625542e-09  -2.5883495e-04   2.4269560e-01   2.3785630e-01  -4.2437380e+05
   3.6652217e-09  -2.5770539e-04   2.4268502e-01   2.3786684e-01  -4.2252190e+05
   3.6678893e-09  -2.5658076e-04   2.4267449e-01   2.3787734e-01  -4.2067809e+05
   3.6705569e-09  -2.5546104e-04   2.4266401e-01   2.3788779e-01  -4.1884231e+05
   3.6732244e-09  -2.5434620e-04   2.4265357e-01   2.3789819e-01  -4.1701455e+05
   3.6758920e-09  -2.5323623e-04   2.4264318e-01   2.3790855e-01  -4.1519476e+05
   3.6785595e-09  -2.5213110e-04   2.4263283e-01   2.3791886e-01  -4.1338292e+05
   3.6812271e-09  -2.5103080e-04   2.4262253e-01   2.3792913e-01  -4.1157898e+05
   3.6838946e-09  -2.4993530e-04   2.4261228e-01   2.3793936e-01  -4.0978291e+05
   3.6865622e-09  -2.4884457e-04   2.4260206e-01   2.3794954e-01  -4.0799468e+05
   3.6892297e-09  -2.4775861e-04   2.4259190e-01   2.3795968e-01  -4.0621425e+05
   3.6918973e-09  -2.4667739e-04   2.4258178e-01   2.3796977e-01  -4.0444159e+05
   3.6945649e-09  -2.4560088e-04   2.4257170e-01   2.3797982e-01  -4.0267667e+05
   3.6972324e-09  -2.4452907e-04   2.4256167e-01   2.3798983e-01  -4.0091945e+05
   3.6999000e-09  -2.4346194e-04   2.4255168e-01   2.3799979e-01  -3.9916989e+05
   3.7025675e-09  -2.4239947e-04   2.4254174e-01   2.3800971e-01  -3.9742797e+05
   3.7052351e-09  -2.4134163e-04   2.4253184e-01   2.3801959e-01  -3.9569366e+05
   3.7079026e-09  -2.4028841e-04   2.4252198e-01   2.3802942e-01  -3.9396690e+05
   3.7105702e-09  -2.3923978e-04   2.4251217e-01   2.3803921e-01  -3.9224769e+05
   3.7132377e-09  -2.3819573e-04   2.4250240e-01   2.3804896e-01  -3.9053597e+05
   3.7159053e-09  -2.3715624e-04   2.4249267e-01   2.3805867e-01  -3.8883173e+05
   3.7185729e-09  -2.3612128e-04   2.4248299e-01   2.3806833e-01  -3.8713492e+05
   3.7212404e-09  -2.3509084e-04   2.4247335e-01   2.3807796e-01  -3.8544552e+05
   3.7239080e-09  -2.3406490e-04   2.4246375e-01   2.3808754e-01  -3.8376348e+05
   3.7265755e-09  -2.3304343e-04   2.4245419e-01   2.3809708e-01  -3.8208879e+05
   3.7292431e-09  -2.3202642e-04   2.4244468e-01   2.3810658e-01  -3.8042141e+05
   3.7319106e-09  -2.3101385e-04   2.4243520e-01   2.3811604e-01  -3.7876130e+05
   3.7345782e-09  -2.3000570e-04   2.4242577e-01   2.3812545e-01  -3.7710843e+05
   3.7372457e-09  -2.2900194e-04   2.4241638e-01   2.3813483e-01  -3.7546278e+05
   3.7399133e-09  -2.2800257e-04   2.4240703e-01   2.3814417e-01  -3.7382431e+05
   3.7425809e-09  -2.2700756e-04   2.4239773e-01   2.3815346e-01  -3.7219299e+05
   3.7452484e-09  -2.2601689e-04   2.4238846e-01   2.3816272e-01  -3.7056879e+05
   3.7479160e-09  -2.2503054e-04   2.4237924e-01   2.3817193e-01  -3.6895167e+05
   3.7505835e-09  -2.2404850e-04   2.4237005e-01   2.3818111e-01  -3.6734161e+05
   3.7532511e-09  -2.2307074e-04   2.4236091e-01   2.3819024e-01  -3.6573858e+05
   3.7559186e-09  -2.2209725e-04   2.4235180e-01   2.3819934e-01  -3.6414254e+05
   3.7585862e-09  -2.2112801e-04   2.4234274e-01   2.3820839e-01  -3.6255347e+05
   3.7612538e-09  -2.2016300e-04   2.4233371e-01   2.3821741e-01  -3.6097133e+05
   3.7639213e-09  -2.1920220e-04   2.4232473e-01   2.3822639e-01  -3.5939609e+05
   3.7665889e-09  -2.1824559e-04   2.4231578e-01   2.3823533e-01  -3.5782773e+05
   3.7692564e-09  -2.1729315e-04   2.4230688e-01   2.3824423e-01  -3.5626621e+05
   3.7719240e-09  -2.1634487e-04   2.4229801e-01   2.3825309e-01  -3.5471150e+05
   3.7745915e-09  -2.1540074e-04   2.4228918e-01   2.3826191e-01  -3.5316358e+05
   3.7772591e-09  -2.1446072e-04   2.4228039e-01   2.3827070e-01  -3.5162242e+05
   3.7799266e-09  -2.1352480e-04   2.4227164e-01   2.3827945e-01  -3.5008798e+05
   3.7825942e-09  -2.1259297e-04   2.4226293e-01   2.3828816e-01  -3.4856023e+05
   3.7852618e-09  -2.1166520e-04   2.4225426e-01   2.3829683e-01  -3.4703915e+05
   3.7879293e-09  -2.1074148e-04   2.4224562e-01   2.3830546e-01  -3.4552471e+05
   3.7905969e-09  -2.0982179e-04   2.4223703e-01   2.3831406e-01  -3.4401688e+05
   3.7932644e-09  -2.0890612e-04   2.4222847e-01   2.3832262e-01  -3.4251563e+05
   3.7959320e-09  -2.0799444e-04   2.4221994e-01   2.3833114e-01  -3.4102093e+05
   3.7985995e-09  -2.0708674e-04   2.4221146e-01   2.3833963e-01  -3.3953275e+05
   3.8012671e-09  -2.0618300e-04   2.4220301e-01   2.3834808e-01  -3.3805106e+05
   3.8039346e-09  -2.0528321e-04   2.4219460e-01   2.3835649e-01  -3.3657584e+05
   3.8066022e-09  -2.0438734e-04   2.4218623e-01   2.3836487e-01  -3.3510706e+05
   3.8092698e-09  -2.0349538e-04   2.4217789e-01   2.3837321e-01  -3.3364469e+05
   3.8119373e-09  -2.0260732e-04   2.4216959e-01   2.3838151e-01  -3.3218869e+05
   3.8146049e-09  -2.0172313e-04   2.4216133e-01   2.3838978e-01  -3.3073905e+05
   3.8172724e-09  -2.0084280e-04   2.4215310e-01   2.3839801e-01  -3.2929574e+05
   3.8199400e-09  -1.9996631e-04   2.4214491e-01   2.3840620e-01  -3.2785873e+05
   3.8226075e-09  -1.9909364e-04   2.4213676e-01   2.3841437e-01  -3.2642798e+05
   3.8252751e-09  -1.9822478e-04   2.4212864e-01   2.3842249e-01  -3.2500348e+05
   3.8279426e-09  -1.9735972e-04   2.4212056e-01   2.3843058e-01  -3.2358520e+05
   3.8306102e-09  -1.9649843e-04   2.4211251e-01   2.3843864e-01  -3.2217310e+05
   3.8332778e-09  -1.9564089e-04   2.4210450e-01   2.3844666e-01  -3.2076717e+05
   3.8359453e-09  -1.9478710e-04   2.4209652e-01   2.3845464e-01  -3.1936737e+05
   3.8386129e-09  -1.9393704e-04   2.4208858e-01   2.3846259e-01  -3.1797368e+05
   3.8412804e-09  -1.9309069e-04   2.4208067e-01   2.3847051e-01  -3.1658607e+05
   3.8439480e-09  -1.9224802e-04   2.4207280e-01   2.3847839e-01  -3.1520452e+05
   3.8466155e-09  -1.9140904e-04   2.4206496e-01   2.3848624e-01  -3.1382899e+05
   3.8492831e-09  -1.9057372e-04   2.4205716e-01   2.3849405e-01  -3.1245947e+05
   3.8519507e-09  -1.8974204e-04   2.4204939e-01   2.3850183e-01  -3.1109592e+05
   3.8546182e-09  -1.8891399e-04   2.4204165e-01   2.3850958e-01  -3.0973832e+05
   3.8572858e-09  -1.8808956e-04   2.4203395e-01   2.3851729e-01  -3.0838665e+05
   3.8599533e-09  -1.8726872e-04   2.4202629e-01   2.3852497e-01  -3.0704088e+05
   3.8626209e-09  -1.8645147e-04   2.4201865e-01   2.3853262e-01  -3.0570098e+05
   3.8652884e-09  -1.8563778e-04   2.4201105e-01   2.3854023e-01  -3.0436692e+05
   3.8679560e-09  -1.8482764e-04   2.4200349e-01   2.3854781e-01  -3.0303869e+05
   3.8706235e-09  -1.8402104e-04   2.4199595e-01   2.3855536e-01  -3.0171625e+05
   3.8732911e-09  -1.8321796e-04   2.4198845e-01   2.3856287e-01  -3.0039958e+05
   3.8759587e-09  -1.8241838e-04   2.4198099e-01   2.3857035e-01  -2.9908866e+05
   3.8786262e-09  -1.8162229e-04   2.4197355e-01   2.3857780e-01  -2.9778346e+05
   3.8812938e-09  -1.8082968e-04   2.4196615e-01   2.3858522e-01  -2.9648396e+05
   3.8839613e-09  -1.8004052e-04   2.4195878e-01   2.3859260e-01  -2.9519012e+05
   3.8866289e-09  -1.7925481e-04   2.4195144e-01   2.3859996e-01  -2.9390193e+05
   3.8892964e-09  -1.7847253e-04   2.4194414e-01   2.3860728e-01  -2.9261937e+05
   3.8919640e-09  -1.7769366e-04   2.4193687e-01   2.3861457e-01  -2.9134240e+05
   3.8946315e-09  -1.7691819e-04   2.4192963e-01   2.3862182e-01  -2.9007100e+05
   3.8972991e-09  -1.7614610e-04   2.4192242e-01   2.3862905e-01  -2.8880515e+05
   3.8999667e-09  -1.7537739e-04   2.4191524e-01   2.3863625e-01  -2.8754482e+05
