   0.0000000e+00  -1.7935872e-01   6.1991585e+00   5.3822327e-06  -5.1721053e+08
   2.6675559e-12  -1.7798437e-01   6.1888141e+00   5.9797467e-06  -5.1339140e+08
   5.3351117e-12  -1.7662022e-01   6.1780216e+00   6.6378252e-06  -5.0956987e+08
   8.0026676e-12  -1.7526627e-01   6.1667684e+00   7.3619062e-06  -5.0574609e+08
   1.0670223e-11  -1.7392253e-01   6.1550420e+00   8.1578353e-06  -5.0192020e+08
   1.3337779e-11  -1.7258900e-01   6.1428301e+00   9.0318879e-06  -4.9809238e+08
   1.6005335e-11  -1.7126569e-01   6.1301206e+00   9.9907904e-06  -4.9426280e+08
   1.8672891e-11  -1.6995261e-01   6.1169017e+00   1.1041743e-05  -4.9043167e+08
   2.1340447e-11  -1.6864975e-01   6.1031616e+00   1.2192443e-05  -4.8659922e+08
   2.4008003e-11  -1.6735712e-01   6.0888891e+00   1.3451105e-05  -4.8276568e+08
   2.6675559e-11  -1.6607472e-01   6.0740731e+00   1.4826482e-05  -4.7893132e+08
   2.9343114e-11  -1.6480256e-01   6.0587030e+00   1.6327893e-05  -4.7509641e+08
   3.2010670e-11  -1.6354063e-01   6.0427686e+00   1.7965237e-05  -4.7126126e+08
   3.4678226e-11  -1.6228893e-01   6.0262602e+00   1.9749018e-05  -4.6742619e+08
   3.7345782e-11  -1.6104747e-01   6.0091686e+00   2.1690360e-05  -4.6359154e+08
   4.0013338e-11  -1.5981624e-01   5.9914852e+00   2.3801034e-05  -4.5975767e+08
   4.2680894e-11  -1.5859524e-01   5.9732018e+00   2.6093467e-05  -4.5592498e+08
   4.5348449e-11  -1.5738447e-01   5.9543112e+00   2.8580762e-05  -4.5209386e+08
   4.8016005e-11  -1.5618392e-01   5.9348065e+00   3.1276714e-05  -4.4826476e+08
   5.0683561e-11  -1.5499358e-01   5.9146819e+00   3.4195819e-05  -4.4443811e+08
   5.3351117e-11  -1.5381345e-01   5.8939320e+00   3.7353288e-05  -4.4061439e+08
   5.6018673e-11  -1.5264352e-01   5.8725524e+00   4.0765058e-05  -4.3679409e+08
   5.8686229e-11  -1.5148378e-01   5.8505396e+00   4.4447793e-05  -4.3297773e+08
   6.1353785e-11  -1.5033422e-01   5.8278909e+00   4.8418894e-05  -4.2916585e+08
   6.4021340e-11  -1.4919481e-01   5.8046044e+00   5.2696496e-05  -4.2535899e+08
   6.6688896e-11  -1.4806556e-01   5.7806793e+00   5.7299473e-05  -4.2155774e+08
   6.9356452e-11  -1.4694645e-01   5.7561156e+00   6.2247428e-05  -4.1776270e+08
   7.2024008e-11  -1.4583745e-01   5.7309143e+00   6.7560692e-05  -4.1397446e+08
   7.4691564e-11  -1.4473855e-01   5.7050775e+00   7.3260309e-05  -4.1019367e+08
   7.7359120e-11  -1.4364972e-01   5.6786083e+00   7.9368029e-05  -4.0642098e+08
   8.0026676e-11  -1.4257095e-01   5.6515106e+00   8.5906288e-05  -4.0265703e+08
   8.2694231e-11  -1.4150221e-01   5.6237896e+00   9.2898190e-05  -3.9890253e+08
   8.5361787e-11  -1.4044347e-01   5.5954514e+00   1.0036748e-04  -3.9515815e+08
   8.8029343e-11  -1.3939471e-01   5.5665031e+00   1.0833854e-04  -3.9142459e+08
   9.0696899e-11  -1.3835589e-01   5.5369528e+00   1.1683633e-04  -3.8770259e+08
   9.3364455e-11  -1.3732699e-01   5.5068098e+00   1.2588636e-04  -3.8399285e+08
   9.6032011e-11  -1.3630796e-01   5.4760840e+00   1.3551469e-04  -3.8029612e+08
   9.8699567e-11  -1.3529878e-01   5.4447867e+00   1.4574786e-04  -3.7661313e+08
   1.0136712e-10  -1.3429940e-01   5.4129298e+00   1.5661285e-04  -3.7294463e+08
   1.0403468e-10  -1.3330978e-01   5.3805265e+00   1.6813705e-04  -3.6929136e+08
   1.0670223e-10  -1.3232989e-01   5.3475905e+00   1.8034821e-04  -3.6565408e+08
   1.0936979e-10  -1.3135968e-01   5.3141365e+00   1.9327439e-04  -3.6203354e+08
   1.1203735e-10  -1.3039911e-01   5.2801802e+00   2.0694394e-04  -3.5843048e+08
   1.1470490e-10  -1.2944812e-01   5.2457378e+00   2.2138538e-04  -3.5484565e+08
   1.1737246e-10  -1.2850667e-01   5.2108264e+00   2.3662744e-04  -3.5127980e+08
   1.2004001e-10  -1.2757470e-01   5.1754638e+00   2.5269891e-04  -3.4773365e+08
   1.2270757e-10  -1.2665216e-01   5.1396682e+00   2.6962868e-04  -3.4420794e+08
   1.2537513e-10  -1.2573899e-01   5.1034587e+00   2.8744561e-04  -3.4070338e+08
   1.2804268e-10  -1.2483515e-01   5.0668547e+00   3.0617853e-04  -3.3722068e+08
   1.3071024e-10  -1.2394056e-01   5.0298762e+00   3.2585614e-04  -3.3376052e+08
   1.3337779e-10  -1.2305517e-01   4.9925435e+00   3.4650700e-04  -3.3032359e+08
   1.3604535e-10  -1.2217891e-01   4.9548775e+00   3.6815943e-04  -3.2691055e+08
   1.3871290e-10  -1.2131172e-01   4.9168991e+00   3.9084151e-04  -3.2352204e+08
   1.4138046e-10  -1.2045353e-01   4.8786297e+00   4.1458098e-04  -3.2015868e+08
   1.4404802e-10  -1.1960428e-01   4.8400906e+00   4.3940523e-04  -3.1682109e+08
   1.4671557e-10  -1.1876389e-01   4.8013036e+00   4.6534121e-04  -3.1350984e+08
   1.4938313e-10  -1.1793230e-01   4.7622904e+00   4.9241543e-04  -3.1022549e+08
   1.5205068e-10  -1.1710943e-01   4.7230725e+00   5.2065389e-04  -3.0696859e+08
   1.5471824e-10  -1.1629520e-01   4.6836718e+00   5.5008202e-04  -3.0373965e+08
   1.5738580e-10  -1.1548955e-01   4.6441098e+00   5.8072468e-04  -3.0053915e+08
   1.6005335e-10  -1.1469239e-01   4.6044080e+00   6.1260612e-04  -2.9736755e+08
   1.6272091e-10  -1.1390365e-01   4.5645876e+00   6.4574991e-04  -2.9422530e+08
   1.6538846e-10  -1.1312324e-01   4.5246698e+00   6.8017893e-04  -2.9111280e+08
   1.6805602e-10  -1.1235110e-01   4.4846753e+00   7.1591535e-04  -2.8803042e+08
   1.7072357e-10  -1.1158713e-01   4.4446247e+00   7.5298061e-04  -2.8497852e+08
   1.7339113e-10  -1.1083126e-01   4.4045379e+00   7.9139535e-04  -2.8195743e+08
   1.7605869e-10  -1.1008340e-01   4.3644349e+00   8.3117946e-04  -2.7896745e+08
   1.7872624e-10  -1.0934347e-01   4.3243349e+00   8.7235201e-04  -2.7600882e+08
   1.8139380e-10  -1.0861139e-01   4.2842567e+00   9.1493126e-04  -2.7308181e+08
   1.8406135e-10  -1.0788707e-01   4.2442190e+00   9.5893464e-04  -2.7018661e+08
   1.8672891e-10  -1.0717042e-01   4.2042395e+00   1.0043787e-03  -2.6732341e+08
   1.8939647e-10  -1.0646136e-01   4.1643356e+00   1.0512793e-03  -2.6449237e+08
   1.9206402e-10  -1.0575981e-01   4.1245242e+00   1.0996513e-03  -2.6169361e+08
   1.9473158e-10  -1.0506568e-01   4.0848216e+00   1.1495088e-03  -2.5892723e+08
   1.9739913e-10  -1.0437887e-01   4.0452436e+00   1.2008649e-03  -2.5619331e+08
   2.0006669e-10  -1.0369932e-01   4.0058053e+00   1.2537321e-03  -2.5349189e+08
   2.0273424e-10  -1.0302692e-01   3.9665213e+00   1.3081220e-03  -2.5082300e+08
   2.0540180e-10  -1.0236159e-01   3.9274055e+00   1.3640453e-03  -2.4818664e+08
   2.0806936e-10  -1.0170324e-01   3.8884714e+00   1.4215118e-03  -2.4558277e+08
   2.1073691e-10  -1.0105180e-01   3.8497316e+00   1.4805307e-03  -2.4301136e+08
   2.1340447e-10  -1.0040716e-01   3.8111985e+00   1.5411104e-03  -2.4047233e+08
   2.1607202e-10  -9.9769252e-02   3.7728835e+00   1.6032584e-03  -2.3796559e+08
   2.1873958e-10  -9.9137982e-02   3.7347976e+00   1.6669815e-03  -2.3549103e+08
   2.2140714e-10  -9.8513266e-02   3.6969513e+00   1.7322857e-03  -2.3304851e+08
   2.2407469e-10  -9.7895018e-02   3.6593544e+00   1.7991764e-03  -2.3063788e+08
   2.2674225e-10  -9.7283154e-02   3.6220161e+00   1.8676582e-03  -2.2825898e+08
   2.2940980e-10  -9.6677589e-02   3.5849450e+00   1.9377351e-03  -2.2591161e+08
   2.3207736e-10  -9.6078240e-02   3.5481493e+00   2.0094103e-03  -2.2359558e+08
   2.3474491e-10  -9.5485023e-02   3.5116366e+00   2.0826864e-03  -2.2131067e+08
   2.3741247e-10  -9.4897855e-02   3.4754138e+00   2.1575654e-03  -2.1905665e+08
   2.4008003e-10  -9.4316655e-02   3.4394876e+00   2.2340488e-03  -2.1683326e+08
   2.4274758e-10  -9.3741342e-02   3.4038639e+00   2.3121374e-03  -2.1464026e+08
   2.4541514e-10  -9.3171834e-02   3.3685483e+00   2.3918314e-03  -2.1247737e+08
   2.4808269e-10  -9.2608051e-02   3.3335457e+00   2.4731305e-03  -2.1034431e+08
   2.5075025e-10  -9.2049916e-02   3.2988609e+00   2.5560340e-03  -2.0824080e+08
   2.5341781e-10  -9.1497349e-02   3.2644978e+00   2.6405406e-03  -2.0616652e+08
   2.5608536e-10  -9.0950272e-02   3.2304603e+00   2.7266485e-03  -2.0412119e+08
   2.5875292e-10  -9.0408610e-02   3.1967517e+00   2.8143555e-03  -2.0210447e+08
   2.6142047e-10  -8.9872285e-02   3.1633747e+00   2.9036589e-03  -2.0011605e+08
   2.6408803e-10  -8.9341224e-02   3.1303319e+00   2.9945556e-03  -1.9815560e+08
   2.6675559e-10  -8.8815353e-02   3.0976256e+00   3.0870423e-03  -1.9622279e+08
   2.6942314e-10  -8.8294597e-02   3.0652573e+00   3.1811151e-03  -1.9431727e+08
   2.7209070e-10  -8.7778884e-02   3.0332287e+00   3.2767698e-03  -1.9243870e+08
   2.7475825e-10  -8.7268144e-02   3.0015408e+00   3.3740019e-03  -1.9058674e+08
   2.7742581e-10  -8.6762306e-02   2.9701944e+00   3.4728065e-03  -1.8876104e+08
   2.8009336e-10  -8.6261300e-02   2.9391901e+00   3.5731786e-03  -1.8696125e+08
   2.8276092e-10  -8.5765058e-02   2.9085281e+00   3.6751126e-03  -1.8518700e+08
   2.8542848e-10  -8.5273512e-02   2.8782084e+00   3.7786030e-03  -1.8343796e+08
   2.8809603e-10  -8.4786596e-02   2.8482307e+00   3.8836437e-03  -1.8171376e+08
   2.9076359e-10  -8.4304243e-02   2.8185946e+00   3.9902287e-03  -1.8001404e+08
   2.9343114e-10  -8.3826389e-02   2.7892993e+00   4.0983514e-03  -1.7833845e+08
   2.9609870e-10  -8.3352970e-02   2.7603438e+00   4.2080053e-03  -1.7668663e+08
   2.9876626e-10  -8.2883924e-02   2.7317270e+00   4.3191837e-03  -1.7505823e+08
   3.0143381e-10  -8.2419188e-02   2.7034476e+00   4.4318795e-03  -1.7345290e+08
   3.0410137e-10  -8.1958701e-02   2.6755041e+00   4.5460856e-03  -1.7187028e+08
   3.0676892e-10  -8.1502404e-02   2.6478948e+00   4.6617946e-03  -1.7031002e+08
   3.0943648e-10  -8.1050237e-02   2.6206179e+00   4.7789992e-03  -1.6877177e+08
   3.1210403e-10  -8.0602142e-02   2.5936715e+00   4.8976918e-03  -1.6725519e+08
   3.1477159e-10  -8.0158061e-02   2.5670534e+00   5.0178647e-03  -1.6575993e+08
   3.1743915e-10  -7.9717939e-02   2.5407614e+00   5.1395100e-03  -1.6428565e+08
   3.2010670e-10  -7.9281720e-02   2.5147931e+00   5.2626198e-03  -1.6283201e+08
   3.2277426e-10  -7.8849349e-02   2.4891463e+00   5.3871862e-03  -1.6139868e+08
   3.2544181e-10  -7.8420772e-02   2.4638182e+00   5.5132010e-03  -1.5998533e+08
   3.2810937e-10  -7.7995938e-02   2.4388063e+00   5.6406560e-03  -1.5859163e+08
   3.3077693e-10  -7.7574793e-02   2.4141078e+00   5.7695431e-03  -1.5721725e+08
   3.3344448e-10  -7.7157287e-02   2.3897200e+00   5.8998538e-03  -1.5586187e+08
   3.3611204e-10  -7.6743370e-02   2.3656400e+00   6.0315799e-03  -1.5452518e+08
   3.3877959e-10  -7.6332993e-02   2.3418649e+00   6.1647129e-03  -1.5320686e+08
   3.4144715e-10  -7.5926105e-02   2.3183917e+00   6.2992443e-03  -1.5190661e+08
   3.4411470e-10  -7.5522661e-02   2.2952174e+00   6.4351657e-03  -1.5062411e+08
   3.4678226e-10  -7.5122613e-02   2.2723389e+00   6.5724684e-03  -1.4935908e+08
   3.4944982e-10  -7.4725915e-02   2.2497532e+00   6.7111441e-03  -1.4811121e+08
   3.5211737e-10  -7.4332521e-02   2.2274570e+00   6.8511840e-03  -1.4688020e+08
   3.5478493e-10  -7.3942388e-02   2.2054473e+00   6.9925795e-03  -1.4566578e+08
   3.5745248e-10  -7.3555470e-02   2.1837207e+00   7.1353222e-03  -1.4446766e+08
   3.6012004e-10  -7.3171726e-02   2.1622742e+00   7.2794032e-03  -1.4328556e+08
   3.6278760e-10  -7.2791113e-02   2.1411045e+00   7.4248140e-03  -1.4211921e+08
   3.6545515e-10  -7.2413588e-02   2.1202084e+00   7.5715460e-03  -1.4096833e+08
   3.6812271e-10  -7.2039112e-02   2.0995825e+00   7.7195905e-03  -1.3983265e+08
   3.7079026e-10  -7.1667644e-02   2.0792237e+00   7.8689389e-03  -1.3871193e+08
   3.7345782e-10  -7.1299145e-02   2.0591287e+00   8.0195825e-03  -1.3760589e+08
   3.7612538e-10  -7.0933576e-02   2.0392943e+00   8.1715128e-03  -1.3651429e+08
   3.7879293e-10  -7.0570898e-02   2.0197171e+00   8.3247211e-03  -1.3543689e+08
   3.8146049e-10  -7.0211075e-02   2.0003941e+00   8.4791989e-03  -1.3437342e+08
   3.8412804e-10  -6.9854069e-02   1.9813219e+00   8.6349374e-03  -1.3332366e+08
   3.8679560e-10  -6.9499844e-02   1.9624972e+00   8.7919283e-03  -1.3228736e+08
   3.8946315e-10  -6.9148364e-02   1.9439170e+00   8.9501630e-03  -1.3126430e+08
   3.9213071e-10  -6.8799596e-02   1.9255781e+00   9.1096328e-03  -1.3025425e+08
   3.9479827e-10  -6.8453503e-02   1.9074771e+00   9.2703294e-03  -1.2925699e+08
   3.9746582e-10  -6.8110053e-02   1.8896111e+00   9.4322442e-03  -1.2827229e+08
   4.0013338e-10  -6.7769212e-02   1.8719767e+00   9.5953688e-03  -1.2729994e+08
   4.0280093e-10  -6.7430948e-02   1.8545711e+00   9.7596947e-03  -1.2633973e+08
   4.0546849e-10  -6.7095228e-02   1.8373909e+00   9.9252136e-03  -1.2539145e+08
   4.0813605e-10  -6.6762022e-02   1.8204333e+00   1.0091917e-02  -1.2445490e+08
   4.1080360e-10  -6.6431297e-02   1.8036951e+00   1.0259797e-02  -1.2352987e+08
   4.1347116e-10  -6.6103024e-02   1.7871733e+00   1.0428844e-02  -1.2261618e+08
   4.1613871e-10  -6.5777172e-02   1.7708649e+00   1.0599052e-02  -1.2171362e+08
   4.1880627e-10  -6.5453713e-02   1.7547670e+00   1.0770410e-02  -1.2082201e+08
   4.2147382e-10  -6.5132617e-02   1.7388767e+00   1.0942912e-02  -1.1994117e+08
   4.2414138e-10  -6.4813856e-02   1.7231910e+00   1.1116548e-02  -1.1907091e+08
   4.2680894e-10  -6.4497401e-02   1.7077071e+00   1.1291312e-02  -1.1821106e+08
   4.2947649e-10  -6.4183226e-02   1.6924221e+00   1.1467194e-02  -1.1736143e+08
   4.3214405e-10  -6.3871303e-02   1.6773332e+00   1.1644186e-02  -1.1652186e+08
   4.3481160e-10  -6.3561606e-02   1.6624376e+00   1.1822281e-02  -1.1569219e+08
   4.3747916e-10  -6.3254108e-02   1.6477327e+00   1.2001471e-02  -1.1487223e+08
   4.4014672e-10  -6.2948785e-02   1.6332157e+00   1.2181746e-02  -1.1406184e+08
   4.4281427e-10  -6.2645610e-02   1.6188838e+00   1.2363101e-02  -1.1326086e+08
   4.4548183e-10  -6.2344558e-02   1.6047345e+00   1.2545525e-02  -1.1246912e+08
   4.4814938e-10  -6.2045606e-02   1.5907651e+00   1.2729013e-02  -1.1168648e+08
   4.5081694e-10  -6.1748729e-02   1.5769731e+00   1.2913555e-02  -1.1091278e+08
   4.5348449e-10  -6.1453904e-02   1.5633559e+00   1.3099144e-02  -1.1014789e+08
   4.5615205e-10  -6.1161106e-02   1.5499109e+00   1.3285772e-02  -1.0939165e+08
   4.5881961e-10  -6.0870315e-02   1.5366358e+00   1.3473431e-02  -1.0864392e+08
   4.6148716e-10  -6.0581506e-02   1.5235280e+00   1.3662113e-02  -1.0790457e+08
   4.6415472e-10  -6.0294658e-02   1.5105851e+00   1.3851812e-02  -1.0717346e+08
   4.6682227e-10  -6.0009749e-02   1.4978048e+00   1.4042519e-02  -1.0645046e+08
   4.6948983e-10  -5.9726757e-02   1.4851846e+00   1.4234226e-02  -1.0573543e+08
   4.7215739e-10  -5.9445662e-02   1.4727224e+00   1.4426926e-02  -1.0502825e+08
   4.7482494e-10  -5.9166443e-02   1.4604157e+00   1.4620611e-02  -1.0432880e+08
   4.7749250e-10  -5.8889079e-02   1.4482623e+00   1.4815274e-02  -1.0363694e+08
   4.8016005e-10  -5.8613550e-02   1.4362600e+00   1.5010907e-02  -1.0295257e+08
   4.8282761e-10  -5.8339836e-02   1.4244065e+00   1.5207503e-02  -1.0227556e+08
   4.8549517e-10  -5.8067919e-02   1.4126999e+00   1.5405054e-02  -1.0160579e+08
   4.8816272e-10  -5.7797778e-02   1.4011378e+00   1.5603553e-02  -1.0094315e+08
   4.9083028e-10  -5.7529395e-02   1.3897182e+00   1.5802992e-02  -1.0028753e+08
   4.9349783e-10  -5.7262751e-02   1.3784391e+00   1.6003365e-02  -9.9638825e+07
   4.9616539e-10  -5.6997828e-02   1.3672984e+00   1.6204663e-02  -9.8996920e+07
   4.9883294e-10  -5.6734608e-02   1.3562941e+00   1.6406879e-02  -9.8361713e+07
   5.0150050e-10  -5.6473074e-02   1.3454241e+00   1.6610006e-02  -9.7733100e+07
   5.0416806e-10  -5.6213207e-02   1.3346867e+00   1.6814038e-02  -9.7110980e+07
   5.0683561e-10  -5.5954992e-02   1.3240797e+00   1.7018965e-02  -9.6495253e+07
   5.0950317e-10  -5.5698410e-02   1.3136015e+00   1.7224782e-02  -9.5885822e+07
   5.1217072e-10  -5.5443445e-02   1.3032500e+00   1.7431482e-02  -9.5282592e+07
   5.1483828e-10  -5.5190081e-02   1.2930234e+00   1.7639056e-02  -9.4685467e+07
   5.1750584e-10  -5.4938301e-02   1.2829201e+00   1.7847498e-02  -9.4094358e+07
   5.2017339e-10  -5.4688090e-02   1.2729380e+00   1.8056801e-02  -9.3509172e+07
   5.2284095e-10  -5.4439432e-02   1.2630756e+00   1.8266958e-02  -9.2929822e+07
   5.2550850e-10  -5.4192311e-02   1.2533311e+00   1.8477962e-02  -9.2356220e+07
   5.2817606e-10  -5.3946713e-02   1.2437028e+00   1.8689805e-02  -9.1788282e+07
   5.3084361e-10  -5.3702622e-02   1.2341890e+00   1.8902481e-02  -9.1225923e+07
   5.3351117e-10  -5.3460024e-02   1.2247881e+00   1.9115982e-02  -9.0669062e+07
   5.3617873e-10  -5.3218904e-02   1.2154985e+00   1.9330303e-02  -9.0117618e+07
   5.3884628e-10  -5.2979247e-02   1.2063185e+00   1.9545435e-02  -8.9571511e+07
   5.4151384e-10  -5.2741040e-02   1.1972466e+00   1.9761372e-02  -8.9030665e+07
   5.4418139e-10  -5.2504268e-02   1.1882813e+00   1.9978108e-02  -8.8495002e+07
   5.4684895e-10  -5.2268919e-02   1.1794209e+00   2.0195635e-02  -8.7964449e+07
   5.4951651e-10  -5.2034977e-02   1.1706642e+00   2.0413946e-02  -8.7438931e+07
   5.5218406e-10  -5.1802431e-02   1.1620094e+00   2.0633035e-02  -8.6918377e+07
   5.5485162e-10  -5.1571267e-02   1.1534553e+00   2.0852894e-02  -8.6402717e+07
   5.5751917e-10  -5.1341472e-02   1.1450003e+00   2.1073518e-02  -8.5891879e+07
   5.6018673e-10  -5.1113032e-02   1.1366431e+00   2.1294900e-02  -8.5385798e+07
   5.6285428e-10  -5.0885937e-02   1.1283823e+00   2.1517032e-02  -8.4884404e+07
   5.6552184e-10  -5.0660172e-02   1.1202165e+00   2.1739908e-02  -8.4387634e+07
   5.6818940e-10  -5.0435727e-02   1.1121444e+00   2.1963522e-02  -8.3895421e+07
   5.7085695e-10  -5.0212588e-02   1.1041646e+00   2.2187866e-02  -8.3407704e+07
   5.7352451e-10  -4.9990744e-02   1.0962759e+00   2.2412935e-02  -8.2924419e+07
   5.7619206e-10  -4.9770183e-02   1.0884770e+00   2.2638721e-02  -8.2445506e+07
   5.7885962e-10  -4.9550894e-02   1.0807666e+00   2.2865218e-02  -8.1970905e+07
   5.8152718e-10  -4.9332866e-02   1.0731435e+00   2.3092419e-02  -8.1500556e+07
   5.8419473e-10  -4.9116086e-02   1.0656065e+00   2.3320319e-02  -8.1034402e+07
   5.8686229e-10  -4.8900544e-02   1.0581543e+00   2.3548910e-02  -8.0572385e+07
   5.8952984e-10  -4.8686229e-02   1.0507858e+00   2.3778186e-02  -8.0114451e+07
   5.9219740e-10  -4.8473130e-02   1.0434998e+00   2.4008140e-02  -7.9660544e+07
   5.9486495e-10  -4.8261236e-02   1.0362952e+00   2.4238766e-02  -7.9210610e+07
   5.9753251e-10  -4.8050537e-02   1.0291709e+00   2.4470058e-02  -7.8764597e+07
   6.0020007e-10  -4.7841023e-02   1.0221257e+00   2.4702010e-02  -7.8322451e+07
   6.0286762e-10  -4.7632683e-02   1.0151586e+00   2.4934614e-02  -7.7884123e+07
   6.0553518e-10  -4.7425507e-02   1.0082684e+00   2.5167864e-02  -7.7449562e+07
   6.0820273e-10  -4.7219485e-02   1.0014542e+00   2.5401755e-02  -7.7018718e+07
   6.1087029e-10  -4.7014608e-02   9.9471482e-01   2.5636280e-02  -7.6591543e+07
   6.1353785e-10  -4.6810865e-02   9.8804933e-01   2.5871432e-02  -7.6167990e+07
   6.1620540e-10  -4.6608247e-02   9.8145669e-01   2.6107205e-02  -7.5748011e+07
   6.1887296e-10  -4.6406745e-02   9.7493590e-01   2.6343593e-02  -7.5331560e+07
   6.2154051e-10  -4.6206349e-02   9.6848600e-01   2.6580591e-02  -7.4918593e+07
   6.2420807e-10  -4.6007049e-02   9.6210602e-01   2.6818190e-02  -7.4509064e+07
   6.2687563e-10  -4.5808838e-02   9.5579502e-01   2.7056386e-02  -7.4102929e+07
   6.2954318e-10  -4.5611705e-02   9.4955206e-01   2.7295172e-02  -7.3700147e+07
   6.3221074e-10  -4.5415643e-02   9.4337622e-01   2.7534542e-02  -7.3300674e+07
   6.3487829e-10  -4.5220641e-02   9.3726661e-01   2.7774490e-02  -7.2904469e+07
   6.3754585e-10  -4.5026692e-02   9.3122234e-01   2.8015010e-02  -7.2511491e+07
   6.4021340e-10  -4.4833787e-02   9.2524252e-01   2.8256095e-02  -7.2121699e+07
   6.4288096e-10  -4.4641918e-02   9.1932631e-01   2.8497740e-02  -7.1735055e+07
   6.4554852e-10  -4.4451075e-02   9.1347284e-01   2.8739938e-02  -7.1351520e+07
   6.4821607e-10  -4.4261252e-02   9.0768130e-01   2.8982683e-02  -7.0971054e+07
   6.5088363e-10  -4.4072439e-02   9.0195085e-01   2.9225970e-02  -7.0593621e+07
   6.5355118e-10  -4.3884629e-02   8.9628068e-01   2.9469792e-02  -7.0219183e+07
   6.5621874e-10  -4.3697814e-02   8.9067001e-01   2.9714144e-02  -6.9847705e+07
   6.5888630e-10  -4.3511986e-02   8.8511804e-01   2.9959019e-02  -6.9479149e+07
   6.6155385e-10  -4.3327137e-02   8.7962400e-01   3.0204411e-02  -6.9113482e+07
   6.6422141e-10  -4.3143260e-02   8.7418714e-01   3.0450315e-02  -6.8750668e+07
   6.6688896e-10  -4.2960347e-02   8.6880670e-01   3.0696724e-02  -6.8390673e+07
   6.6955652e-10  -4.2778390e-02   8.6348195e-01   3.0943633e-02  -6.8033464e+07
   6.7222407e-10  -4.2597382e-02   8.5821216e-01   3.1191036e-02  -6.7679008e+07
   6.7489163e-10  -4.2417317e-02   8.5299662e-01   3.1438926e-02  -6.7327272e+07
   6.7755919e-10  -4.2238186e-02   8.4783462e-01   3.1687299e-02  -6.6978224e+07
   6.8022674e-10  -4.2059982e-02   8.4272547e-01   3.1936148e-02  -6.6631834e+07
   6.8289430e-10  -4.1882699e-02   8.3766849e-01   3.2185467e-02  -6.6288068e+07
   6.8556185e-10  -4.1706329e-02   8.3266300e-01   3.2435251e-02  -6.5946899e+07
   6.8822941e-10  -4.1530866e-02   8.2770835e-01   3.2685493e-02  -6.5608294e+07
   6.9089697e-10  -4.1356303e-02   8.2280387e-01   3.2936189e-02  -6.5272226e+07
   6.9356452e-10  -4.1182633e-02   8.1794894e-01   3.3187332e-02  -6.4938664e+07
   6.9623208e-10  -4.1009849e-02   8.1314292e-01   3.3438916e-02  -6.4607580e+07
   6.9889963e-10  -4.0837945e-02   8.0838517e-01   3.3690937e-02  -6.4278946e+07
   7.0156719e-10  -4.0666915e-02   8.0367510e-01   3.3943387e-02  -6.3952735e+07
   7.0423474e-10  -4.0496751e-02   7.9901210e-01   3.4196262e-02  -6.3628918e+07
   7.0690230e-10  -4.0327448e-02   7.9439556e-01   3.4449556e-02  -6.3307470e+07
   7.0956986e-10  -4.0159000e-02   7.8982491e-01   3.4703263e-02  -6.2988363e+07
   7.1223741e-10  -3.9991399e-02   7.8529957e-01   3.4957378e-02  -6.2671571e+07
   7.1490497e-10  -3.9824641e-02   7.8081897e-01   3.5211895e-02  -6.2357069e+07
   7.1757252e-10  -3.9658718e-02   7.7638254e-01   3.5466808e-02  -6.2044831e+07
   7.2024008e-10  -3.9493626e-02   7.7198974e-01   3.5722112e-02  -6.1734834e+07
   7.2290764e-10  -3.9329357e-02   7.6764002e-01   3.5977801e-02  -6.1427051e+07
   7.2557519e-10  -3.9165906e-02   7.6333285e-01   3.6233870e-02  -6.1121459e+07
   7.2824275e-10  -3.9003268e-02   7.5906770e-01   3.6490314e-02  -6.0818034e+07
   7.3091030e-10  -3.8841436e-02   7.5484404e-01   3.6747126e-02  -6.0516752e+07
   7.3357786e-10  -3.8680405e-02   7.5066138e-01   3.7004302e-02  -6.0217591e+07
   7.3624542e-10  -3.8520169e-02   7.4651919e-01   3.7261835e-02  -5.9920528e+07
   7.3891297e-10  -3.8360722e-02   7.4241698e-01   3.7519721e-02  -5.9625539e+07
   7.4158053e-10  -3.8202060e-02   7.3835427e-01   3.7777953e-02  -5.9332604e+07
   7.4424808e-10  -3.8044177e-02   7.3433057e-01   3.8036528e-02  -5.9041701e+07
   7.4691564e-10  -3.7887067e-02   7.3034540e-01   3.8295438e-02  -5.8752807e+07
   7.4958319e-10  -3.7730724e-02   7.2639830e-01   3.8554680e-02  -5.8465902e+07
   7.5225075e-10  -3.7575145e-02   7.2248880e-01   3.8814247e-02  -5.8180965e+07
   7.5491831e-10  -3.7420323e-02   7.1861644e-01   3.9074134e-02  -5.7897975e+07
   7.5758586e-10  -3.7266253e-02   7.1478079e-01   3.9334335e-02  -5.7616912e+07
   7.6025342e-10  -3.7112930e-02   7.1098139e-01   3.9594847e-02  -5.7337757e+07
   7.6292097e-10  -3.6960350e-02   7.0721781e-01   3.9855663e-02  -5.7060489e+07
   7.6558853e-10  -3.6808506e-02   7.0348962e-01   4.0116777e-02  -5.6785089e+07
   7.6825609e-10  -3.6657395e-02   6.9979640e-01   4.0378186e-02  -5.6511538e+07
   7.7092364e-10  -3.6507011e-02   6.9613773e-01   4.0639883e-02  -5.6239817e+07
   7.7359120e-10  -3.6357350e-02   6.9251319e-01   4.0901863e-02  -5.5969907e+07
   7.7625875e-10  -3.6208406e-02   6.8892239e-01   4.1164122e-02  -5.5701791e+07
   7.7892631e-10  -3.6060174e-02   6.8536491e-01   4.1426653e-02  -5.5435450e+07
   7.8159386e-10  -3.5912651e-02   6.8184038e-01   4.1689453e-02  -5.5170867e+07
   7.8426142e-10  -3.5765832e-02   6.7834839e-01   4.1952515e-02  -5.4908023e+07
   7.8692898e-10  -3.5619711e-02   6.7488857e-01   4.2215834e-02  -5.4646901e+07
   7.8959653e-10  -3.5474284e-02   6.7146054e-01   4.2479407e-02  -5.4387485e+07
   7.9226409e-10  -3.5329548e-02   6.6806392e-01   4.2743226e-02  -5.4129757e+07
   7.9493164e-10  -3.5185496e-02   6.6469836e-01   4.3007288e-02  -5.3873702e+07
   7.9759920e-10  -3.5042125e-02   6.6136348e-01   4.3271588e-02  -5.3619302e+07
   8.0026676e-10  -3.4899431e-02   6.5805892e-01   4.3536119e-02  -5.3366541e+07
   8.0293431e-10  -3.4757409e-02   6.5478435e-01   4.3800878e-02  -5.3115403e+07
   8.0560187e-10  -3.4616054e-02   6.5153941e-01   4.4065860e-02  -5.2865874e+07
   8.0826942e-10  -3.4475363e-02   6.4832376e-01   4.4331058e-02  -5.2617936e+07
   8.1093698e-10  -3.4335332e-02   6.4513706e-01   4.4596469e-02  -5.2371575e+07
   8.1360453e-10  -3.4195955e-02   6.4197897e-01   4.4862088e-02  -5.2126776e+07
   8.1627209e-10  -3.4057229e-02   6.3884918e-01   4.5127909e-02  -5.1883524e+07
   8.1893965e-10  -3.3919150e-02   6.3574736e-01   4.5393928e-02  -5.1641804e+07
   8.2160720e-10  -3.3781714e-02   6.3267318e-01   4.5660140e-02  -5.1401602e+07
   8.2427476e-10  -3.3644917e-02   6.2962634e-01   4.5926540e-02  -5.1162903e+07
   8.2694231e-10  -3.3508754e-02   6.2660652e-01   4.6193122e-02  -5.0925694e+07
   8.2960987e-10  -3.3373222e-02   6.2361342e-01   4.6459883e-02  -5.0689959e+07
   8.3227743e-10  -3.3238317e-02   6.2064674e-01   4.6726818e-02  -5.0455686e+07
   8.3494498e-10  -3.3104035e-02   6.1770617e-01   4.6993922e-02  -5.0222861e+07
   8.3761254e-10  -3.2970372e-02   6.1479142e-01   4.7261189e-02  -4.9991471e+07
   8.4028009e-10  -3.2837325e-02   6.1190221e-01   4.7528616e-02  -4.9761502e+07
   8.4294765e-10  -3.2704889e-02   6.0903825e-01   4.7796197e-02  -4.9532941e+07
   8.4561521e-10  -3.2573061e-02   6.0619925e-01   4.8063928e-02  -4.9305776e+07
   8.4828276e-10  -3.2441837e-02   6.0338495e-01   4.8331804e-02  -4.9079993e+07
   8.5095032e-10  -3.2311213e-02   6.0059505e-01   4.8599821e-02  -4.8855581e+07
   8.5361787e-10  -3.2181187e-02   5.9782930e-01   4.8867973e-02  -4.8632526e+07
   8.5628543e-10  -3.2051753e-02   5.9508743e-01   4.9136257e-02  -4.8410816e+07
   8.5895298e-10  -3.1922909e-02   5.9236917e-01   4.9404667e-02  -4.8190440e+07
   8.6162054e-10  -3.1794651e-02   5.8967426e-01   4.9673199e-02  -4.7971386e+07
   8.6428810e-10  -3.1666976e-02   5.8700245e-01   4.9941849e-02  -4.7753641e+07
   8.6695565e-10  -3.1539880e-02   5.8435348e-01   5.0210612e-02  -4.7537194e+07
   8.6962321e-10  -3.1413359e-02   5.8172710e-01   5.0479483e-02  -4.7322034e+07
   8.7229076e-10  -3.1287411e-02   5.7912307e-01   5.0748458e-02  -4.7108149e+07
   8.7495832e-10  -3.1162032e-02   5.7654115e-01   5.1017532e-02  -4.6895528e+07
   8.7762588e-10  -3.1037218e-02   5.7398109e-01   5.1286701e-02  -4.6684160e+07
   8.8029343e-10  -3.0912966e-02   5.7144266e-01   5.1555961e-02  -4.6474034e+07
   8.8296099e-10  -3.0789273e-02   5.6892562e-01   5.1825306e-02  -4.6265139e+07
   8.8562854e-10  -3.0666136e-02   5.6642974e-01   5.2094733e-02  -4.6057465e+07
   8.8829610e-10  -3.0543551e-02   5.6395480e-01   5.2364238e-02  -4.5851000e+07
   8.9096365e-10  -3.0421516e-02   5.6150058e-01   5.2633815e-02  -4.5645736e+07
   8.9363121e-10  -3.0300026e-02   5.5906684e-01   5.2903461e-02  -4.5441661e+07
   8.9629877e-10  -3.0179079e-02   5.5665337e-01   5.3173171e-02  -4.5238765e+07
   8.9896632e-10  -3.0058671e-02   5.5425995e-01   5.3442941e-02  -4.5037038e+07
   9.0163388e-10  -2.9938801e-02   5.5188638e-01   5.3712766e-02  -4.4836471e+07
   9.0430143e-10  -2.9819463e-02   5.4953244e-01   5.3982643e-02  -4.4637053e+07
   9.0696899e-10  -2.9700657e-02   5.4719793e-01   5.4252566e-02  -4.4438775e+07
   9.0963655e-10  -2.9582377e-02   5.4488263e-01   5.4522532e-02  -4.4241628e+07
   9.1230410e-10  -2.9464622e-02   5.4258635e-01   5.4792537e-02  -4.4045601e+07
   9.1497166e-10  -2.9347388e-02   5.4030888e-01   5.5062577e-02  -4.3850686e+07
   9.1763921e-10  -2.9230673e-02   5.3805003e-01   5.5332646e-02  -4.3656873e+07
   9.2030677e-10  -2.9114474e-02   5.3580961e-01   5.5602741e-02  -4.3464153e+07
   9.2297432e-10  -2.8998787e-02   5.3358742e-01   5.5872859e-02  -4.3272518e+07
   9.2564188e-10  -2.8883610e-02   5.3138328e-01   5.6142994e-02  -4.3081957e+07
   9.2830944e-10  -2.8768939e-02   5.2919699e-01   5.6413142e-02  -4.2892464e+07
   9.3097699e-10  -2.8654773e-02   5.2702836e-01   5.6683301e-02  -4.2704028e+07
   9.3364455e-10  -2.8541108e-02   5.2487723e-01   5.6953465e-02  -4.2516641e+07
   9.3631210e-10  -2.8427942e-02   5.2274341e-01   5.7223630e-02  -4.2330295e+07
   9.3897966e-10  -2.8315271e-02   5.2062671e-01   5.7493793e-02  -4.2144982e+07
   9.4164722e-10  -2.8203093e-02   5.1852697e-01   5.7763949e-02  -4.1960693e+07
   9.4431477e-10  -2.8091405e-02   5.1644400e-01   5.8034095e-02  -4.1777419e+07
   9.4698233e-10  -2.7980205e-02   5.1437765e-01   5.8304226e-02  -4.1595153e+07
   9.4964988e-10  -2.7869490e-02   5.1232773e-01   5.8574339e-02  -4.1413887e+07
   9.5231744e-10  -2.7759257e-02   5.1029409e-01   5.8844429e-02  -4.1233613e+07
   9.5498499e-10  -2.7649504e-02   5.0827655e-01   5.9114494e-02  -4.1054323e+07
   9.5765255e-10  -2.7540227e-02   5.0627495e-01   5.9384528e-02  -4.0876009e+07
   9.6032011e-10  -2.7431425e-02   5.0428914e-01   5.9654528e-02  -4.0698664e+07
   9.6298766e-10  -2.7323095e-02   5.0231895e-01   5.9924490e-02  -4.0522280e+07
   9.6565522e-10  -2.7215234e-02   5.0036423e-01   6.0194411e-02  -4.0346849e+07
   9.6832277e-10  -2.7107839e-02   4.9842482e-01   6.0464286e-02  -4.0172364e+07
   9.7099033e-10  -2.7000909e-02   4.9650056e-01   6.0734112e-02  -3.9998818e+07
   9.7365789e-10  -2.6894441e-02   4.9459131e-01   6.1003886e-02  -3.9826204e+07
   9.7632544e-10  -2.6788431e-02   4.9269692e-01   6.1273602e-02  -3.9654514e+07
   9.7899300e-10  -2.6682879e-02   4.9081724e-01   6.1543258e-02  -3.9483742e+07
   9.8166055e-10  -2.6577781e-02   4.8895212e-01   6.1812850e-02  -3.9313880e+07
   9.8432811e-10  -2.6473134e-02   4.8710142e-01   6.2082374e-02  -3.9144921e+07
   9.8699567e-10  -2.6368938e-02   4.8526499e-01   6.2351826e-02  -3.8976859e+07
   9.8966322e-10  -2.6265188e-02   4.8344270e-01   6.2621204e-02  -3.8809686e+07
   9.9233078e-10  -2.6161883e-02   4.8163441e-01   6.2890502e-02  -3.8643397e+07
   9.9499833e-10  -2.6059021e-02   4.7983998e-01   6.3159719e-02  -3.8477984e+07
   9.9766589e-10  -2.5956598e-02   4.7805926e-01   6.3428849e-02  -3.8313441e+07
   1.0003334e-09  -2.5854614e-02   4.7629214e-01   6.3697890e-02  -3.8149761e+07
   1.0030010e-09  -2.5753065e-02   4.7453848e-01   6.3966838e-02  -3.7986938e+07
   1.0056686e-09  -2.5651949e-02   4.7279814e-01   6.4235689e-02  -3.7824966e+07
   1.0083361e-09  -2.5551264e-02   4.7107100e-01   6.4504441e-02  -3.7663838e+07
   1.0110037e-09  -2.5451007e-02   4.6935693e-01   6.4773089e-02  -3.7503549e+07
   1.0136712e-09  -2.5351177e-02   4.6765579e-01   6.5041629e-02  -3.7344091e+07
   1.0163388e-09  -2.5251772e-02   4.6596748e-01   6.5310060e-02  -3.7185459e+07
   1.0190063e-09  -2.5152788e-02   4.6429186e-01   6.5578376e-02  -3.7027647e+07
   1.0216739e-09  -2.5054225e-02   4.6262882e-01   6.5846576e-02  -3.6870649e+07
   1.0243414e-09  -2.4956079e-02   4.6097822e-01   6.6114655e-02  -3.6714459e+07
   1.0270090e-09  -2.4858349e-02   4.5933996e-01   6.6382609e-02  -3.6559071e+07
   1.0296766e-09  -2.4761032e-02   4.5771392e-01   6.6650437e-02  -3.6404479e+07
   1.0323441e-09  -2.4664126e-02   4.5609997e-01   6.6918134e-02  -3.6250678e+07
   1.0350117e-09  -2.4567630e-02   4.5449801e-01   6.7185697e-02  -3.6097662e+07
   1.0376792e-09  -2.4471541e-02   4.5290792e-01   6.7453122e-02  -3.5945425e+07
   1.0403468e-09  -2.4375856e-02   4.5132959e-01   6.7720407e-02  -3.5793962e+07
   1.0430143e-09  -2.4280575e-02   4.4976291e-01   6.7987549e-02  -3.5643268e+07
   1.0456819e-09  -2.4185695e-02   4.4820776e-01   6.8254544e-02  -3.5493337e+07
   1.0483494e-09  -2.4091214e-02   4.4666404e-01   6.8521388e-02  -3.5344163e+07
   1.0510170e-09  -2.3997130e-02   4.4513165e-01   6.8788079e-02  -3.5195741e+07
   1.0536846e-09  -2.3903440e-02   4.4361047e-01   6.9054614e-02  -3.5048066e+07
   1.0563521e-09  -2.3810144e-02   4.4210041e-01   6.9320989e-02  -3.4901133e+07
   1.0590197e-09  -2.3717238e-02   4.4060135e-01   6.9587201e-02  -3.4754937e+07
   1.0616872e-09  -2.3624722e-02   4.3911320e-01   6.9853247e-02  -3.4609472e+07
   1.0643548e-09  -2.3532592e-02   4.3763585e-01   7.0119125e-02  -3.4464734e+07
   1.0670223e-09  -2.3440848e-02   4.3616921e-01   7.0384830e-02  -3.4320717e+07
   1.0696899e-09  -2.3349487e-02   4.3471318e-01   7.0650361e-02  -3.4177416e+07
   1.0723575e-09  -2.3258507e-02   4.3326765e-01   7.0915713e-02  -3.4034827e+07
   1.0750250e-09  -2.3167907e-02   4.3183254e-01   7.1180885e-02  -3.3892945e+07
   1.0776926e-09  -2.3077684e-02   4.3040774e-01   7.1445872e-02  -3.3751765e+07
   1.0803601e-09  -2.2987837e-02   4.2899316e-01   7.1710672e-02  -3.3611282e+07
   1.0830277e-09  -2.2898364e-02   4.2758872e-01   7.1975283e-02  -3.3471491e+07
   1.0856952e-09  -2.2809263e-02   4.2619430e-01   7.2239700e-02  -3.3332388e+07
   1.0883628e-09  -2.2720531e-02   4.2480984e-01   7.2503922e-02  -3.3193968e+07
   1.0910303e-09  -2.2632169e-02   4.2343523e-01   7.2767945e-02  -3.3056226e+07
   1.0936979e-09  -2.2544172e-02   4.2207038e-01   7.3031767e-02  -3.2919159e+07
   1.0963655e-09  -2.2456541e-02   4.2071521e-01   7.3295384e-02  -3.2782760e+07
   1.0990330e-09  -2.2369272e-02   4.1936963e-01   7.3558794e-02  -3.2647027e+07
   1.1017006e-09  -2.2282365e-02   4.1803355e-01   7.3821994e-02  -3.2511955e+07
   1.1043681e-09  -2.2195817e-02   4.1670689e-01   7.4084982e-02  -3.2377539e+07
   1.1070357e-09  -2.2109626e-02   4.1538956e-01   7.4347753e-02  -3.2243774e+07
   1.1097032e-09  -2.2023792e-02   4.1408149e-01   7.4610307e-02  -3.2110658e+07
   1.1123708e-09  -2.1938312e-02   4.1278258e-01   7.4872639e-02  -3.1978185e+07
   1.1150383e-09  -2.1853185e-02   4.1149275e-01   7.5134748e-02  -3.1846350e+07
   1.1177059e-09  -2.1768408e-02   4.1021194e-01   7.5396630e-02  -3.1715151e+07
   1.1203735e-09  -2.1683980e-02   4.0894004e-01   7.5658284e-02  -3.1584583e+07
   1.1230410e-09  -2.1599900e-02   4.0767699e-01   7.5919705e-02  -3.1454642e+07
   1.1257086e-09  -2.1516166e-02   4.0642271e-01   7.6180892e-02  -3.1325323e+07
   1.1283761e-09  -2.1432776e-02   4.0517712e-01   7.6441842e-02  -3.1196623e+07
   1.1310437e-09  -2.1349728e-02   4.0394015e-01   7.6702553e-02  -3.1068538e+07
   1.1337112e-09  -2.1267021e-02   4.0271171e-01   7.6963021e-02  -3.0941064e+07
   1.1363788e-09  -2.1184653e-02   4.0149174e-01   7.7223245e-02  -3.0814196e+07
   1.1390463e-09  -2.1102623e-02   4.0028015e-01   7.7483222e-02  -3.0687932e+07
   1.1417139e-09  -2.1020929e-02   3.9907688e-01   7.7742948e-02  -3.0562266e+07
   1.1443815e-09  -2.0939570e-02   3.9788186e-01   7.8002423e-02  -3.0437197e+07
   1.1470490e-09  -2.0858543e-02   3.9669500e-01   7.8261643e-02  -3.0312719e+07
   1.1497166e-09  -2.0777848e-02   3.9551625e-01   7.8520605e-02  -3.0188828e+07
   1.1523841e-09  -2.0697482e-02   3.9434553e-01   7.8779308e-02  -3.0065522e+07
   1.1550517e-09  -2.0617444e-02   3.9318277e-01   7.9037749e-02  -2.9942797e+07
   1.1577192e-09  -2.0537733e-02   3.9202790e-01   7.9295925e-02  -2.9820648e+07
   1.1603868e-09  -2.0458348e-02   3.9088086e-01   7.9553835e-02  -2.9699073e+07
   1.1630544e-09  -2.0379285e-02   3.8974158e-01   7.9811475e-02  -2.9578068e+07
   1.1657219e-09  -2.0300545e-02   3.8860998e-01   8.0068844e-02  -2.9457629e+07
   1.1683895e-09  -2.0222125e-02   3.8748602e-01   8.0325939e-02  -2.9337753e+07
   1.1710570e-09  -2.0144024e-02   3.8636961e-01   8.0582758e-02  -2.9218435e+07
   1.1737246e-09  -2.0066241e-02   3.8526070e-01   8.0839298e-02  -2.9099674e+07
   1.1763921e-09  -1.9988774e-02   3.8415922e-01   8.1095557e-02  -2.8981465e+07
   1.1790597e-09  -1.9911621e-02   3.8306511e-01   8.1351534e-02  -2.8863806e+07
   1.1817272e-09  -1.9834782e-02   3.8197830e-01   8.1607225e-02  -2.8746692e+07
   1.1843948e-09  -1.9758254e-02   3.8089874e-01   8.1862629e-02  -2.8630120e+07
   1.1870624e-09  -1.9682037e-02   3.7982637e-01   8.2117743e-02  -2.8514087e+07
   1.1897299e-09  -1.9606128e-02   3.7876112e-01   8.2372565e-02  -2.8398590e+07
   1.1923975e-09  -1.9530527e-02   3.7770293e-01   8.2627093e-02  -2.8283626e+07
   1.1950650e-09  -1.9455231e-02   3.7665174e-01   8.2881325e-02  -2.8169191e+07
   1.1977326e-09  -1.9380240e-02   3.7560750e-01   8.3135259e-02  -2.8055283e+07
   1.2004001e-09  -1.9305553e-02   3.7457015e-01   8.3388893e-02  -2.7941897e+07
   1.2030677e-09  -1.9231167e-02   3.7353963e-01   8.3642224e-02  -2.7829031e+07
   1.2057352e-09  -1.9157081e-02   3.7251588e-01   8.3895250e-02  -2.7716683e+07
   1.2084028e-09  -1.9083295e-02   3.7149885e-01   8.4147970e-02  -2.7604847e+07
   1.2110704e-09  -1.9009806e-02   3.7048847e-01   8.4400381e-02  -2.7493523e+07
   1.2137379e-09  -1.8936614e-02   3.6948471e-01   8.4652482e-02  -2.7382706e+07
   1.2164055e-09  -1.8863716e-02   3.6848750e-01   8.4904270e-02  -2.7272394e+07
   1.2190730e-09  -1.8791112e-02   3.6749678e-01   8.5155743e-02  -2.7162584e+07
   1.2217406e-09  -1.8718800e-02   3.6651251e-01   8.5406900e-02  -2.7053272e+07
   1.2244081e-09  -1.8646779e-02   3.6553463e-01   8.5657738e-02  -2.6944456e+07
   1.2270757e-09  -1.8575048e-02   3.6456308e-01   8.5908255e-02  -2.6836134e+07
   1.2297432e-09  -1.8503605e-02   3.6359783e-01   8.6158451e-02  -2.6728301e+07
   1.2324108e-09  -1.8432449e-02   3.6263881e-01   8.6408322e-02  -2.6620955e+07
   1.2350784e-09  -1.8361579e-02   3.6168597e-01   8.6657867e-02  -2.6514094e+07
   1.2377459e-09  -1.8290993e-02   3.6073927e-01   8.6907084e-02  -2.6407715e+07
   1.2404135e-09  -1.8220691e-02   3.5979866e-01   8.7155971e-02  -2.6301814e+07
   1.2430810e-09  -1.8150670e-02   3.5886407e-01   8.7404526e-02  -2.6196390e+07
   1.2457486e-09  -1.8080930e-02   3.5793548e-01   8.7652748e-02  -2.6091438e+07
   1.2484161e-09  -1.8011469e-02   3.5701282e-01   8.7900634e-02  -2.5986958e+07
   1.2510837e-09  -1.7942286e-02   3.5609606e-01   8.8148184e-02  -2.5882945e+07
   1.2537513e-09  -1.7873380e-02   3.5518514e-01   8.8395395e-02  -2.5779397e+07
   1.2564188e-09  -1.7804750e-02   3.5428001e-01   8.8642265e-02  -2.5676312e+07
   1.2590864e-09  -1.7736394e-02   3.5338063e-01   8.8888793e-02  -2.5573688e+07
   1.2617539e-09  -1.7668311e-02   3.5248696e-01   8.9134977e-02  -2.5471520e+07
   1.2644215e-09  -1.7600500e-02   3.5159895e-01   8.9380816e-02  -2.5369807e+07
   1.2670890e-09  -1.7532960e-02   3.5071654e-01   8.9626307e-02  -2.5268547e+07
   1.2697566e-09  -1.7465689e-02   3.4983971e-01   8.9871449e-02  -2.5167736e+07
   1.2724241e-09  -1.7398687e-02   3.4896840e-01   9.0116241e-02  -2.5067372e+07
   1.2750917e-09  -1.7331952e-02   3.4810257e-01   9.0360680e-02  -2.4967453e+07
   1.2777593e-09  -1.7265482e-02   3.4724218e-01   9.0604766e-02  -2.4867977e+07
   1.2804268e-09  -1.7199278e-02   3.4638719e-01   9.0848496e-02  -2.4768939e+07
   1.2830944e-09  -1.7133337e-02   3.4553754e-01   9.1091869e-02  -2.4670340e+07
   1.2857619e-09  -1.7067659e-02   3.4469321e-01   9.1334884e-02  -2.4572175e+07
   1.2884295e-09  -1.7002241e-02   3.4385414e-01   9.1577538e-02  -2.4474442e+07
   1.2910970e-09  -1.6937084e-02   3.4302030e-01   9.1819831e-02  -2.4377140e+07
   1.2937646e-09  -1.6872186e-02   3.4219165e-01   9.2061761e-02  -2.4280265e+07
   1.2964321e-09  -1.6807546e-02   3.4136814e-01   9.2303326e-02  -2.4183815e+07
   1.2990997e-09  -1.6743163e-02   3.4054974e-01   9.2544526e-02  -2.4087789e+07
   1.3017673e-09  -1.6679035e-02   3.3973640e-01   9.2785358e-02  -2.3992183e+07
   1.3044348e-09  -1.6615162e-02   3.3892809e-01   9.3025820e-02  -2.3896996e+07
   1.3071024e-09  -1.6551542e-02   3.3812476e-01   9.3265913e-02  -2.3802225e+07
   1.3097699e-09  -1.6488174e-02   3.3732639e-01   9.3505634e-02  -2.3707867e+07
   1.3124375e-09  -1.6425057e-02   3.3653293e-01   9.3744981e-02  -2.3613921e+07
   1.3151050e-09  -1.6362191e-02   3.3574433e-01   9.3983954e-02  -2.3520385e+07
   1.3177726e-09  -1.6299573e-02   3.3496058e-01   9.4222551e-02  -2.3427256e+07
   1.3204401e-09  -1.6237203e-02   3.3418162e-01   9.4460771e-02  -2.3334531e+07
   1.3231077e-09  -1.6175080e-02   3.3340742e-01   9.4698612e-02  -2.3242210e+07
   1.3257753e-09  -1.6113203e-02   3.3263795e-01   9.4936074e-02  -2.3150289e+07
   1.3284428e-09  -1.6051571e-02   3.3187317e-01   9.5173154e-02  -2.3058766e+07
   1.3311104e-09  -1.5990182e-02   3.3111304e-01   9.5409852e-02  -2.2967640e+07
   1.3337779e-09  -1.5929036e-02   3.3035753e-01   9.5646166e-02  -2.2876908e+07
   1.3364455e-09  -1.5868131e-02   3.2960660e-01   9.5882095e-02  -2.2786569e+07
   1.3391130e-09  -1.5807466e-02   3.2886022e-01   9.6117638e-02  -2.2696619e+07
   1.3417806e-09  -1.5747042e-02   3.2811835e-01   9.6352793e-02  -2.2607057e+07
   1.3444481e-09  -1.5686855e-02   3.2738097e-01   9.6587560e-02  -2.2517882e+07
   1.3471157e-09  -1.5626906e-02   3.2664802e-01   9.6821937e-02  -2.2429090e+07
   1.3497833e-09  -1.5567193e-02   3.2591949e-01   9.7055923e-02  -2.2340680e+07
   1.3524508e-09  -1.5507716e-02   3.2519534e-01   9.7289516e-02  -2.2252650e+07
   1.3551184e-09  -1.5448473e-02   3.2447554e-01   9.7522717e-02  -2.2164997e+07
   1.3577859e-09  -1.5389463e-02   3.2376005e-01   9.7755523e-02  -2.2077721e+07
   1.3604535e-09  -1.5330685e-02   3.2304884e-01   9.7987933e-02  -2.1990819e+07
   1.3631210e-09  -1.5272139e-02   3.2234188e-01   9.8219947e-02  -2.1904288e+07
   1.3657886e-09  -1.5213823e-02   3.2163914e-01   9.8451563e-02  -2.1818128e+07
   1.3684562e-09  -1.5155737e-02   3.2094058e-01   9.8682780e-02  -2.1732336e+07
   1.3711237e-09  -1.5097879e-02   3.2024618e-01   9.8913598e-02  -2.1646910e+07
   1.3737913e-09  -1.5040248e-02   3.1955590e-01   9.9144014e-02  -2.1561848e+07
   1.3764588e-09  -1.4982843e-02   3.1886972e-01   9.9374028e-02  -2.1477149e+07
   1.3791264e-09  -1.4925665e-02   3.1818760e-01   9.9603640e-02  -2.1392810e+07
   1.3817939e-09  -1.4868710e-02   3.1750952e-01   9.9832847e-02  -2.1308830e+07
   1.3844615e-09  -1.4811979e-02   3.1683544e-01   1.0006165e-01  -2.1225207e+07
   1.3871290e-09  -1.4755471e-02   3.1616533e-01   1.0029005e-01  -2.1141939e+07
   1.3897966e-09  -1.4699185e-02   3.1549917e-01   1.0051804e-01  -2.1059024e+07
   1.3924642e-09  -1.4643119e-02   3.1483693e-01   1.0074562e-01  -2.0976460e+07
   1.3951317e-09  -1.4587273e-02   3.1417857e-01   1.0097279e-01  -2.0894247e+07
   1.3977993e-09  -1.4531645e-02   3.1352407e-01   1.0119955e-01  -2.0812381e+07
   1.4004668e-09  -1.4476236e-02   3.1287341e-01   1.0142591e-01  -2.0730861e+07
   1.4031344e-09  -1.4421044e-02   3.1222655e-01   1.0165185e-01  -2.0649685e+07
   1.4058019e-09  -1.4366067e-02   3.1158346e-01   1.0187738e-01  -2.0568852e+07
   1.4084695e-09  -1.4311306e-02   3.1094413e-01   1.0210249e-01  -2.0488360e+07
   1.4111370e-09  -1.4256760e-02   3.1030851e-01   1.0232720e-01  -2.0408207e+07
   1.4138046e-09  -1.4202426e-02   3.0967659e-01   1.0255148e-01  -2.0328392e+07
   1.4164722e-09  -1.4148305e-02   3.0904834e-01   1.0277535e-01  -2.0248912e+07
   1.4191397e-09  -1.4094396e-02   3.0842373e-01   1.0299881e-01  -2.0169766e+07
   1.4218073e-09  -1.4040697e-02   3.0780274e-01   1.0322185e-01  -2.0090953e+07
   1.4244748e-09  -1.3987208e-02   3.0718533e-01   1.0344447e-01  -2.0012470e+07
   1.4271424e-09  -1.3933928e-02   3.0657149e-01   1.0366667e-01  -1.9934317e+07
   1.4298099e-09  -1.3880856e-02   3.0596119e-01   1.0388845e-01  -1.9856491e+07
   1.4324775e-09  -1.3827991e-02   3.0535440e-01   1.0410981e-01  -1.9778991e+07
   1.4351450e-09  -1.3775333e-02   3.0475109e-01   1.0433075e-01  -1.9701815e+07
   1.4378126e-09  -1.3722880e-02   3.0415126e-01   1.0455127e-01  -1.9624961e+07
   1.4404802e-09  -1.3670631e-02   3.0355486e-01   1.0477136e-01  -1.9548429e+07
   1.4431477e-09  -1.3618587e-02   3.0296187e-01   1.0499103e-01  -1.9472216e+07
   1.4458153e-09  -1.3566745e-02   3.0237227e-01   1.0521028e-01  -1.9396320e+07
   1.4484828e-09  -1.3515105e-02   3.0178604e-01   1.0542910e-01  -1.9320741e+07
   1.4511504e-09  -1.3463666e-02   3.0120316e-01   1.0564750e-01  -1.9245477e+07
   1.4538179e-09  -1.3412428e-02   3.0062359e-01   1.0586548e-01  -1.9170526e+07
   1.4564855e-09  -1.3361389e-02   3.0004732e-01   1.0608302e-01  -1.9095887e+07
   1.4591531e-09  -1.3310549e-02   2.9947432e-01   1.0630014e-01  -1.9021557e+07
   1.4618206e-09  -1.3259907e-02   2.9890456e-01   1.0651683e-01  -1.8947537e+07
   1.4644882e-09  -1.3209462e-02   2.9833804e-01   1.0673310e-01  -1.8873823e+07
   1.4671557e-09  -1.3159213e-02   2.9777472e-01   1.0694893e-01  -1.8800415e+07
   1.4698233e-09  -1.3109159e-02   2.9721458e-01   1.0716434e-01  -1.8727311e+07
   1.4724908e-09  -1.3059301e-02   2.9665760e-01   1.0737931e-01  -1.8654510e+07
   1.4751584e-09  -1.3009635e-02   2.9610376e-01   1.0759385e-01  -1.8582010e+07
   1.4778259e-09  -1.2960163e-02   2.9555303e-01   1.0780797e-01  -1.8509810e+07
   1.4804935e-09  -1.2910883e-02   2.9500540e-01   1.0802165e-01  -1.8437908e+07
   1.4831611e-09  -1.2861795e-02   2.9446084e-01   1.0823490e-01  -1.8366303e+07
   1.4858286e-09  -1.2812897e-02   2.9391934e-01   1.0844772e-01  -1.8294994e+07
   1.4884962e-09  -1.2764189e-02   2.9338086e-01   1.0866010e-01  -1.8223978e+07
   1.4911637e-09  -1.2715670e-02   2.9284539e-01   1.0887205e-01  -1.8153255e+07
   1.4938313e-09  -1.2667339e-02   2.9231292e-01   1.0908357e-01  -1.8082823e+07
   1.4964988e-09  -1.2619196e-02   2.9178341e-01   1.0929465e-01  -1.8012681e+07
   1.4991664e-09  -1.2571239e-02   2.9125685e-01   1.0950530e-01  -1.7942828e+07
   1.5018339e-09  -1.2523469e-02   2.9073321e-01   1.0971551e-01  -1.7873261e+07
   1.5045015e-09  -1.2475883e-02   2.9021249e-01   1.0992529e-01  -1.7803981e+07
   1.5071691e-09  -1.2428483e-02   2.8969465e-01   1.1013463e-01  -1.7734984e+07
   1.5098366e-09  -1.2381265e-02   2.8917968e-01   1.1034353e-01  -1.7666271e+07
   1.5125042e-09  -1.2334231e-02   2.8866756e-01   1.1055200e-01  -1.7597839e+07
   1.5151717e-09  -1.2287379e-02   2.8815827e-01   1.1076003e-01  -1.7529688e+07
   1.5178393e-09  -1.2240708e-02   2.8765179e-01   1.1096762e-01  -1.7461815e+07
   1.5205068e-09  -1.2194218e-02   2.8714810e-01   1.1117478e-01  -1.7394220e+07
   1.5231744e-09  -1.2147908e-02   2.8664719e-01   1.1138149e-01  -1.7326902e+07
   1.5258419e-09  -1.2101777e-02   2.8614903e-01   1.1158777e-01  -1.7259859e+07
   1.5285095e-09  -1.2055824e-02   2.8565360e-01   1.1179361e-01  -1.7193089e+07
   1.5311771e-09  -1.2010050e-02   2.8516089e-01   1.1199901e-01  -1.7126592e+07
   1.5338446e-09  -1.1964452e-02   2.8467088e-01   1.1220397e-01  -1.7060366e+07
   1.5365122e-09  -1.1919031e-02   2.8418355e-01   1.1240849e-01  -1.6994411e+07
   1.5391797e-09  -1.1873785e-02   2.8369888e-01   1.1261257e-01  -1.6928723e+07
   1.5418473e-09  -1.1828714e-02   2.8321686e-01   1.1281621e-01  -1.6863304e+07
   1.5445148e-09  -1.1783817e-02   2.8273746e-01   1.1301941e-01  -1.6798150e+07
   1.5471824e-09  -1.1739094e-02   2.8226067e-01   1.1322217e-01  -1.6733262e+07
   1.5498499e-09  -1.1694543e-02   2.8178648e-01   1.1342448e-01  -1.6668637e+07
   1.5525175e-09  -1.1650165e-02   2.8131486e-01   1.1362636e-01  -1.6604275e+07
   1.5551851e-09  -1.1605958e-02   2.8084580e-01   1.1382779e-01  -1.6540174e+07
   1.5578526e-09  -1.1561921e-02   2.8037928e-01   1.1402879e-01  -1.6476333e+07
   1.5605202e-09  -1.1518055e-02   2.7991528e-01   1.1422934e-01  -1.6412751e+07
   1.5631877e-09  -1.1474357e-02   2.7945379e-01   1.1442944e-01  -1.6349427e+07
   1.5658553e-09  -1.1430828e-02   2.7899480e-01   1.1462911e-01  -1.6286359e+07
   1.5685228e-09  -1.1387468e-02   2.7853827e-01   1.1482833e-01  -1.6223547e+07
   1.5711904e-09  -1.1344274e-02   2.7808421e-01   1.1502712e-01  -1.6160989e+07
   1.5738580e-09  -1.1301247e-02   2.7763259e-01   1.1522545e-01  -1.6098683e+07
   1.5765255e-09  -1.1258386e-02   2.7718339e-01   1.1542335e-01  -1.6036630e+07
   1.5791931e-09  -1.1215690e-02   2.7673661e-01   1.1562080e-01  -1.5974827e+07
   1.5818606e-09  -1.1173158e-02   2.7629221e-01   1.1581781e-01  -1.5913274e+07
   1.5845282e-09  -1.1130790e-02   2.7585020e-01   1.1601438e-01  -1.5851970e+07
   1.5871957e-09  -1.1088586e-02   2.7541055e-01   1.1621050e-01  -1.5790912e+07
   1.5898633e-09  -1.1046544e-02   2.7497325e-01   1.1640618e-01  -1.5730101e+07
   1.5925308e-09  -1.1004664e-02   2.7453829e-01   1.1660142e-01  -1.5669535e+07
   1.5951984e-09  -1.0962945e-02   2.7410564e-01   1.1679621e-01  -1.5609212e+07
   1.5978660e-09  -1.0921387e-02   2.7367529e-01   1.1699056e-01  -1.5549133e+07
   1.6005335e-09  -1.0879989e-02   2.7324723e-01   1.1718446e-01  -1.5489295e+07
   1.6032011e-09  -1.0838750e-02   2.7282144e-01   1.1737792e-01  -1.5429698e+07
   1.6058686e-09  -1.0797670e-02   2.7239791e-01   1.1757094e-01  -1.5370341e+07
   1.6085362e-09  -1.0756748e-02   2.7197663e-01   1.1776351e-01  -1.5311221e+07
   1.6112037e-09  -1.0715983e-02   2.7155757e-01   1.1795564e-01  -1.5252340e+07
   1.6138713e-09  -1.0675375e-02   2.7114074e-01   1.1814733e-01  -1.5193694e+07
   1.6165388e-09  -1.0634923e-02   2.7072610e-01   1.1833857e-01  -1.5135284e+07
   1.6192064e-09  -1.0594626e-02   2.7031364e-01   1.1852937e-01  -1.5077108e+07
   1.6218740e-09  -1.0554485e-02   2.6990337e-01   1.1871972e-01  -1.5019165e+07
   1.6245415e-09  -1.0514497e-02   2.6949525e-01   1.1890964e-01  -1.4961455e+07
   1.6272091e-09  -1.0474664e-02   2.6908927e-01   1.1909910e-01  -1.4903975e+07
   1.6298766e-09  -1.0434983e-02   2.6868543e-01   1.1928813e-01  -1.4846726e+07
   1.6325442e-09  -1.0395455e-02   2.6828370e-01   1.1947670e-01  -1.4789705e+07
   1.6352117e-09  -1.0356078e-02   2.6788408e-01   1.1966484e-01  -1.4732913e+07
   1.6378793e-09  -1.0316853e-02   2.6748655e-01   1.1985253e-01  -1.4676347e+07
   1.6405468e-09  -1.0277778e-02   2.6709110e-01   1.2003978e-01  -1.4620008e+07
   1.6432144e-09  -1.0238854e-02   2.6669771e-01   1.2022659e-01  -1.4563893e+07
   1.6458820e-09  -1.0200078e-02   2.6630638e-01   1.2041295e-01  -1.4508002e+07
   1.6485495e-09  -1.0161452e-02   2.6591708e-01   1.2059887e-01  -1.4452335e+07
   1.6512171e-09  -1.0122973e-02   2.6552981e-01   1.2078435e-01  -1.4396889e+07
   1.6538846e-09  -1.0084643e-02   2.6514456e-01   1.2096938e-01  -1.4341664e+07
   1.6565522e-09  -1.0046459e-02   2.6476130e-01   1.2115397e-01  -1.4286660e+07
   1.6592197e-09  -1.0008422e-02   2.6438003e-01   1.2133812e-01  -1.4231874e+07
   1.6618873e-09  -9.9705304e-03   2.6400074e-01   1.2152182e-01  -1.4177307e+07
   1.6645549e-09  -9.9327843e-03   2.6362341e-01   1.2170508e-01  -1.4122956e+07
   1.6672224e-09  -9.8951829e-03   2.6324804e-01   1.2188790e-01  -1.4068822e+07
   1.6698900e-09  -9.8577256e-03   2.6287460e-01   1.2207028e-01  -1.4014903e+07
   1.6725575e-09  -9.8204118e-03   2.6250309e-01   1.2225222e-01  -1.3961199e+07
   1.6752251e-09  -9.7832410e-03   2.6213349e-01   1.2243371e-01  -1.3907708e+07
   1.6778926e-09  -9.7462127e-03   2.6176580e-01   1.2261477e-01  -1.3854429e+07
   1.6805602e-09  -9.7093261e-03   2.6140000e-01   1.2279538e-01  -1.3801361e+07
   1.6832277e-09  -9.6725809e-03   2.6103607e-01   1.2297555e-01  -1.3748505e+07
   1.6858953e-09  -9.6359764e-03   2.6067402e-01   1.2315528e-01  -1.3695857e+07
   1.6885629e-09  -9.5995120e-03   2.6031382e-01   1.2333456e-01  -1.3643419e+07
   1.6912304e-09  -9.5631872e-03   2.5995547e-01   1.2351341e-01  -1.3591188e+07
   1.6938980e-09  -9.5270015e-03   2.5959895e-01   1.2369182e-01  -1.3539165e+07
   1.6965655e-09  -9.4909543e-03   2.5924426e-01   1.2386979e-01  -1.3487347e+07
   1.6992331e-09  -9.4550451e-03   2.5889137e-01   1.2404731e-01  -1.3435735e+07
   1.7019006e-09  -9.4192732e-03   2.5854028e-01   1.2422440e-01  -1.3384326e+07
   1.7045682e-09  -9.3836382e-03   2.5819099e-01   1.2440105e-01  -1.3333121e+07
   1.7072357e-09  -9.3481395e-03   2.5784347e-01   1.2457726e-01  -1.3282119e+07
   1.7099033e-09  -9.3127767e-03   2.5749772e-01   1.2475303e-01  -1.3231318e+07
   1.7125709e-09  -9.2775490e-03   2.5715373e-01   1.2492836e-01  -1.3180718e+07
   1.7152384e-09  -9.2424561e-03   2.5681148e-01   1.2510325e-01  -1.3130318e+07
   1.7179060e-09  -9.2074974e-03   2.5647097e-01   1.2527771e-01  -1.3080116e+07
   1.7205735e-09  -9.1726723e-03   2.5613218e-01   1.2545172e-01  -1.3030113e+07
   1.7232411e-09  -9.1379803e-03   2.5579511e-01   1.2562530e-01  -1.2980307e+07
   1.7259086e-09  -9.1034209e-03   2.5545974e-01   1.2579844e-01  -1.2930698e+07
   1.7285762e-09  -9.0689936e-03   2.5512606e-01   1.2597115e-01  -1.2881284e+07
   1.7312437e-09  -9.0346979e-03   2.5479407e-01   1.2614342e-01  -1.2832065e+07
   1.7339113e-09  -9.0005332e-03   2.5446375e-01   1.2631525e-01  -1.2783040e+07
   1.7365789e-09  -8.9664990e-03   2.5413509e-01   1.2648665e-01  -1.2734208e+07
   1.7392464e-09  -8.9325948e-03   2.5380809e-01   1.2665761e-01  -1.2685568e+07
   1.7419140e-09  -8.8988201e-03   2.5348273e-01   1.2682813e-01  -1.2637120e+07
   1.7445815e-09  -8.8651744e-03   2.5315900e-01   1.2699822e-01  -1.2588862e+07
   1.7472491e-09  -8.8316572e-03   2.5283690e-01   1.2716788e-01  -1.2540794e+07
   1.7499166e-09  -8.7982680e-03   2.5251641e-01   1.2733710e-01  -1.2492915e+07
   1.7525842e-09  -8.7650062e-03   2.5219753e-01   1.2750589e-01  -1.2445224e+07
   1.7552518e-09  -8.7318714e-03   2.5188024e-01   1.2767425e-01  -1.2397721e+07
   1.7579193e-09  -8.6988630e-03   2.5156453e-01   1.2784217e-01  -1.2350404e+07
   1.7605869e-09  -8.6659807e-03   2.5125040e-01   1.2800966e-01  -1.2303273e+07
   1.7632544e-09  -8.6332238e-03   2.5093784e-01   1.2817671e-01  -1.2256327e+07
   1.7659220e-09  -8.6005919e-03   2.5062683e-01   1.2834334e-01  -1.2209565e+07
   1.7685895e-09  -8.5680844e-03   2.5031737e-01   1.2850953e-01  -1.2162987e+07
   1.7712571e-09  -8.5357010e-03   2.5000946e-01   1.2867529e-01  -1.2116591e+07
   1.7739246e-09  -8.5034412e-03   2.4970307e-01   1.2884062e-01  -1.2070377e+07
   1.7765922e-09  -8.4713043e-03   2.4939820e-01   1.2900552e-01  -1.2024344e+07
   1.7792598e-09  -8.4392900e-03   2.4909484e-01   1.2916999e-01  -1.1978492e+07
   1.7819273e-09  -8.4073978e-03   2.4879298e-01   1.2933403e-01  -1.1932819e+07
   1.7845949e-09  -8.3756272e-03   2.4849262e-01   1.2949764e-01  -1.1887325e+07
   1.7872624e-09  -8.3439777e-03   2.4819375e-01   1.2966083e-01  -1.1842010e+07
   1.7899300e-09  -8.3124488e-03   2.4789635e-01   1.2982358e-01  -1.1796871e+07
   1.7925975e-09  -8.2810401e-03   2.4760042e-01   1.2998591e-01  -1.1751909e+07
   1.7952651e-09  -8.2497511e-03   2.4730594e-01   1.3014781e-01  -1.1707123e+07
   1.7979326e-09  -8.2185814e-03   2.4701292e-01   1.3030928e-01  -1.1662512e+07
   1.8006002e-09  -8.1875304e-03   2.4672134e-01   1.3047033e-01  -1.1618076e+07
   1.8032678e-09  -8.1565977e-03   2.4643120e-01   1.3063095e-01  -1.1573813e+07
   1.8059353e-09  -8.1257829e-03   2.4614247e-01   1.3079114e-01  -1.1529723e+07
   1.8086029e-09  -8.0950855e-03   2.4585517e-01   1.3095091e-01  -1.1485805e+07
   1.8112704e-09  -8.0645050e-03   2.4556928e-01   1.3111026e-01  -1.1442059e+07
   1.8139380e-09  -8.0340409e-03   2.4528478e-01   1.3126918e-01  -1.1398483e+07
   1.8166055e-09  -8.0036929e-03   2.4500168e-01   1.3142768e-01  -1.1355077e+07
   1.8192731e-09  -7.9734604e-03   2.4471996e-01   1.3158575e-01  -1.1311841e+07
   1.8219406e-09  -7.9433430e-03   2.4443962e-01   1.3174340e-01  -1.1268773e+07
   1.8246082e-09  -7.9133403e-03   2.4416065e-01   1.3190063e-01  -1.1225874e+07
   1.8272758e-09  -7.8834518e-03   2.4388304e-01   1.3205744e-01  -1.1183141e+07
   1.8299433e-09  -7.8536771e-03   2.4360678e-01   1.3221383e-01  -1.1140575e+07
   1.8326109e-09  -7.8240157e-03   2.4333187e-01   1.3236979e-01  -1.1098175e+07
   1.8352784e-09  -7.7944672e-03   2.4305829e-01   1.3252534e-01  -1.1055940e+07
   1.8379460e-09  -7.7650312e-03   2.4278604e-01   1.3268046e-01  -1.1013869e+07
   1.8406135e-09  -7.7357071e-03   2.4251512e-01   1.3283517e-01  -1.0971962e+07
   1.8432811e-09  -7.7064946e-03   2.4224551e-01   1.3298946e-01  -1.0930219e+07
   1.8459486e-09  -7.6773933e-03   2.4197720e-01   1.3314333e-01  -1.0888637e+07
   1.8486162e-09  -7.6484026e-03   2.4171020e-01   1.3329678e-01  -1.0847218e+07
   1.8512838e-09  -7.6195223e-03   2.4144449e-01   1.3344982e-01  -1.0805959e+07
   1.8539513e-09  -7.5907517e-03   2.4118006e-01   1.3360244e-01  -1.0764861e+07
   1.8566189e-09  -7.5620906e-03   2.4091691e-01   1.3375464e-01  -1.0723923e+07
   1.8592864e-09  -7.5335385e-03   2.4065503e-01   1.3390643e-01  -1.0683143e+07
   1.8619540e-09  -7.5050950e-03   2.4039442e-01   1.3405780e-01  -1.0642522e+07
   1.8646215e-09  -7.4767596e-03   2.4013506e-01   1.3420876e-01  -1.0602059e+07
   1.8672891e-09  -7.4485319e-03   2.3987694e-01   1.3435931e-01  -1.0561753e+07
   1.8699567e-09  -7.4204116e-03   2.3962007e-01   1.3450944e-01  -1.0521604e+07
   1.8726242e-09  -7.3923981e-03   2.3936444e-01   1.3465916e-01  -1.0481610e+07
   1.8752918e-09  -7.3644911e-03   2.3911003e-01   1.3480847e-01  -1.0441771e+07
   1.8779593e-09  -7.3366902e-03   2.3885684e-01   1.3495737e-01  -1.0402087e+07
   1.8806269e-09  -7.3089949e-03   2.3860487e-01   1.3510585e-01  -1.0362557e+07
   1.8832944e-09  -7.2814049e-03   2.3835410e-01   1.3525393e-01  -1.0323181e+07
   1.8859620e-09  -7.2539197e-03   2.3810454e-01   1.3540159e-01  -1.0283956e+07
   1.8886295e-09  -7.2265390e-03   2.3785616e-01   1.3554885e-01  -1.0244884e+07
   1.8912971e-09  -7.1992622e-03   2.3760898e-01   1.3569570e-01  -1.0205963e+07
   1.8939647e-09  -7.1720891e-03   2.3736297e-01   1.3584214e-01  -1.0167193e+07
   1.8966322e-09  -7.1450193e-03   2.3711814e-01   1.3598817e-01  -1.0128574e+07
   1.8992998e-09  -7.1180522e-03   2.3687447e-01   1.3613380e-01  -1.0090103e+07
   1.9019673e-09  -7.0911876e-03   2.3663197e-01   1.3627902e-01  -1.0051782e+07
   1.9046349e-09  -7.0644249e-03   2.3639062e-01   1.3642384e-01  -1.0013609e+07
   1.9073024e-09  -7.0377640e-03   2.3615042e-01   1.3656825e-01  -9.9755837e+06
   1.9099700e-09  -7.0112042e-03   2.3591135e-01   1.3671225e-01  -9.9377055e+06
   1.9126375e-09  -6.9847453e-03   2.3567343e-01   1.3685586e-01  -9.8999738e+06
   1.9153051e-09  -6.9583869e-03   2.3543663e-01   1.3699906e-01  -9.8623880e+06
   1.9179727e-09  -6.9321285e-03   2.3520095e-01   1.3714186e-01  -9.8249476e+06
   1.9206402e-09  -6.9059698e-03   2.3496639e-01   1.3728425e-01  -9.7876519e+06
   1.9233078e-09  -6.8799104e-03   2.3473294e-01   1.3742625e-01  -9.7505003e+06
   1.9259753e-09  -6.8539499e-03   2.3450060e-01   1.3756784e-01  -9.7134923e+06
   1.9286429e-09  -6.8280880e-03   2.3426935e-01   1.3770903e-01  -9.6766273e+06
   1.9313104e-09  -6.8023242e-03   2.3403920e-01   1.3784983e-01  -9.6399046e+06
   1.9339780e-09  -6.7766581e-03   2.3381013e-01   1.3799023e-01  -9.6033238e+06
   1.9366455e-09  -6.7510895e-03   2.3358214e-01   1.3813023e-01  -9.5668841e+06
   1.9393131e-09  -6.7256179e-03   2.3335522e-01   1.3826983e-01  -9.5305852e+06
   1.9419807e-09  -6.7002429e-03   2.3312937e-01   1.3840903e-01  -9.4944263e+06
   1.9446482e-09  -6.6749642e-03   2.3290458e-01   1.3854784e-01  -9.4584070e+06
   1.9473158e-09  -6.6497814e-03   2.3268085e-01   1.3868626e-01  -9.4225266e+06
   1.9499833e-09  -6.6246941e-03   2.3245817e-01   1.3882427e-01  -9.3867847e+06
   1.9526509e-09  -6.5997020e-03   2.3223654e-01   1.3896190e-01  -9.3511805e+06
   1.9553184e-09  -6.5748046e-03   2.3201594e-01   1.3909913e-01  -9.3157137e+06
   1.9579860e-09  -6.5500017e-03   2.3179638e-01   1.3923597e-01  -9.2803835e+06
   1.9606536e-09  -6.5252929e-03   2.3157785e-01   1.3937242e-01  -9.2451895e+06
   1.9633211e-09  -6.5006778e-03   2.3136034e-01   1.3950847e-01  -9.2101312e+06
   1.9659887e-09  -6.4761560e-03   2.3114384e-01   1.3964414e-01  -9.1752079e+06
   1.9686562e-09  -6.4517271e-03   2.3092836e-01   1.3977941e-01  -9.1404192e+06
   1.9713238e-09  -6.4273909e-03   2.3071388e-01   1.3991430e-01  -9.1057644e+06
   1.9739913e-09  -6.4031470e-03   2.3050040e-01   1.4004880e-01  -9.0712431e+06
   1.9766589e-09  -6.3789950e-03   2.3028792e-01   1.4018291e-01  -9.0368547e+06
   1.9793264e-09  -6.3549345e-03   2.3007642e-01   1.4031663e-01  -9.0025987e+06
   1.9819940e-09  -6.3309653e-03   2.2986591e-01   1.4044997e-01  -8.9684745e+06
   1.9846616e-09  -6.3070869e-03   2.2965638e-01   1.4058292e-01  -8.9344816e+06
   1.9873291e-09  -6.2832990e-03   2.2944783e-01   1.4071548e-01  -8.9006195e+06
   1.9899967e-09  -6.2596012e-03   2.2924024e-01   1.4084766e-01  -8.8668877e+06
   1.9926642e-09  -6.2359933e-03   2.2903361e-01   1.4097946e-01  -8.8332856e+06
   1.9953318e-09  -6.2124748e-03   2.2882795e-01   1.4111087e-01  -8.7998127e+06
   1.9979993e-09  -6.1890454e-03   2.2862323e-01   1.4124190e-01  -8.7664686e+06
   2.0006669e-09  -6.1657049e-03   2.2841946e-01   1.4137255e-01  -8.7332525e+06
   2.0033344e-09  -6.1424527e-03   2.2821664e-01   1.4150282e-01  -8.7001642e+06
   2.0060020e-09  -6.1192887e-03   2.2801475e-01   1.4163271e-01  -8.6672030e+06
   2.0086696e-09  -6.0962124e-03   2.2781380e-01   1.4176221e-01  -8.6343685e+06
   2.0113371e-09  -6.0732235e-03   2.2761377e-01   1.4189134e-01  -8.6016601e+06
   2.0140047e-09  -6.0503217e-03   2.2741467e-01   1.4202010e-01  -8.5690773e+06
   2.0166722e-09  -6.0275067e-03   2.2721649e-01   1.4214847e-01  -8.5366197e+06
   2.0193398e-09  -6.0047780e-03   2.2701921e-01   1.4227647e-01  -8.5042867e+06
   2.0220073e-09  -5.9821355e-03   2.2682285e-01   1.4240409e-01  -8.4720778e+06
   2.0246749e-09  -5.9595787e-03   2.2662739e-01   1.4253133e-01  -8.4399925e+06
   2.0273424e-09  -5.9371073e-03   2.2643283e-01   1.4265820e-01  -8.4080305e+06
   2.0300100e-09  -5.9147211e-03   2.2623916e-01   1.4278470e-01  -8.3761910e+06
   2.0326776e-09  -5.8924196e-03   2.2604638e-01   1.4291082e-01  -8.3444737e+06
   2.0353451e-09  -5.8702025e-03   2.2585448e-01   1.4303658e-01  -8.3128781e+06
   2.0380127e-09  -5.8480696e-03   2.2566347e-01   1.4316196e-01  -8.2814037e+06
   2.0406802e-09  -5.8260205e-03   2.2547333e-01   1.4328696e-01  -8.2500500e+06
   2.0433478e-09  -5.8040548e-03   2.2528406e-01   1.4341160e-01  -8.2188165e+06
   2.0460153e-09  -5.7821723e-03   2.2509565e-01   1.4353587e-01  -8.1877028e+06
   2.0486829e-09  -5.7603727e-03   2.2490811e-01   1.4365977e-01  -8.1567084e+06
   2.0513505e-09  -5.7386555e-03   2.2472142e-01   1.4378330e-01  -8.1258327e+06
   2.0540180e-09  -5.7170206e-03   2.2453559e-01   1.4390647e-01  -8.0950754e+06
   2.0566856e-09  -5.6954675e-03   2.2435061e-01   1.4402927e-01  -8.0644359e+06
   2.0593531e-09  -5.6739961e-03   2.2416646e-01   1.4415170e-01  -8.0339138e+06
   2.0620207e-09  -5.6526059e-03   2.2398316e-01   1.4427376e-01  -8.0035087e+06
   2.0646882e-09  -5.6312966e-03   2.2380069e-01   1.4439547e-01  -7.9732199e+06
   2.0673558e-09  -5.6100680e-03   2.2361905e-01   1.4451681e-01  -7.9430472e+06
   2.0700233e-09  -5.5889197e-03   2.2343824e-01   1.4463778e-01  -7.9129901e+06
   2.0726909e-09  -5.5678515e-03   2.2325825e-01   1.4475840e-01  -7.8830480e+06
   2.0753585e-09  -5.5468630e-03   2.2307908e-01   1.4487865e-01  -7.8532205e+06
   2.0780260e-09  -5.5259538e-03   2.2290072e-01   1.4499854e-01  -7.8235072e+06
   2.0806936e-09  -5.5051238e-03   2.2272316e-01   1.4511807e-01  -7.7939076e+06
   2.0833611e-09  -5.4843726e-03   2.2254642e-01   1.4523724e-01  -7.7644213e+06
   2.0860287e-09  -5.4636999e-03   2.2237047e-01   1.4535606e-01  -7.7350477e+06
   2.0886962e-09  -5.4431055e-03   2.2219532e-01   1.4547451e-01  -7.7057866e+06
   2.0913638e-09  -5.4225889e-03   2.2202096e-01   1.4559261e-01  -7.6766374e+06
   2.0940313e-09  -5.4021499e-03   2.2184739e-01   1.4571035e-01  -7.6475997e+06
   2.0966989e-09  -5.3817882e-03   2.2167461e-01   1.4582774e-01  -7.6186730e+06
   2.0993665e-09  -5.3615036e-03   2.2150260e-01   1.4594477e-01  -7.5898569e+06
   2.1020340e-09  -5.3412957e-03   2.2133138e-01   1.4606145e-01  -7.5611510e+06
   2.1047016e-09  -5.3211642e-03   2.2116092e-01   1.4617778e-01  -7.5325548e+06
   2.1073691e-09  -5.3011088e-03   2.2099123e-01   1.4629375e-01  -7.5040680e+06
   2.1100367e-09  -5.2811293e-03   2.2082230e-01   1.4640937e-01  -7.4756899e+06
   2.1127042e-09  -5.2612253e-03   2.2065414e-01   1.4652464e-01  -7.4474204e+06
   2.1153718e-09  -5.2413966e-03   2.2048673e-01   1.4663956e-01  -7.4192588e+06
   2.1180393e-09  -5.2216429e-03   2.2032008e-01   1.4675413e-01  -7.3912049e+06
   2.1207069e-09  -5.2019639e-03   2.2015417e-01   1.4686835e-01  -7.3632581e+06
   2.1233745e-09  -5.1823593e-03   2.1998901e-01   1.4698222e-01  -7.3354180e+06
   2.1260420e-09  -5.1628288e-03   2.1982459e-01   1.4709575e-01  -7.3076843e+06
   2.1287096e-09  -5.1433721e-03   2.1966090e-01   1.4720893e-01  -7.2800565e+06
   2.1313771e-09  -5.1239890e-03   2.1949795e-01   1.4732176e-01  -7.2525341e+06
   2.1340447e-09  -5.1046792e-03   2.1933573e-01   1.4743425e-01  -7.2251169e+06
   2.1367122e-09  -5.0854424e-03   2.1917424e-01   1.4754640e-01  -7.1978043e+06
   2.1393798e-09  -5.0662783e-03   2.1901346e-01   1.4765820e-01  -7.1705959e+06
   2.1420473e-09  -5.0471866e-03   2.1885341e-01   1.4776966e-01  -7.1434914e+06
   2.1447149e-09  -5.0281671e-03   2.1869407e-01   1.4788077e-01  -7.1164903e+06
   2.1473825e-09  -5.0092195e-03   2.1853544e-01   1.4799155e-01  -7.0895922e+06
   2.1500500e-09  -4.9903435e-03   2.1837752e-01   1.4810198e-01  -7.0627968e+06
   2.1527176e-09  -4.9715389e-03   2.1822031e-01   1.4821208e-01  -7.0361036e+06
   2.1553851e-09  -4.9528053e-03   2.1806379e-01   1.4832184e-01  -7.0095122e+06
   2.1580527e-09  -4.9341425e-03   2.1790798e-01   1.4843126e-01  -6.9830222e+06
   2.1607202e-09  -4.9155503e-03   2.1775285e-01   1.4854034e-01  -6.9566332e+06
   2.1633878e-09  -4.8970283e-03   2.1759842e-01   1.4864908e-01  -6.9303449e+06
   2.1660554e-09  -4.8785763e-03   2.1744467e-01   1.4875749e-01  -6.9041568e+06
   2.1687229e-09  -4.8601940e-03   2.1729161e-01   1.4886557e-01  -6.8780685e+06
   2.1713905e-09  -4.8418812e-03   2.1713922e-01   1.4897331e-01  -6.8520797e+06
   2.1740580e-09  -4.8236375e-03   2.1698751e-01   1.4908071e-01  -6.8261899e+06
   2.1767256e-09  -4.8054628e-03   2.1683648e-01   1.4918779e-01  -6.8003988e+06
   2.1793931e-09  -4.7873568e-03   2.1668611e-01   1.4929453e-01  -6.7747060e+06
   2.1820607e-09  -4.7693192e-03   2.1653641e-01   1.4940094e-01  -6.7491111e+06
   2.1847282e-09  -4.7513497e-03   2.1638737e-01   1.4950702e-01  -6.7236137e+06
   2.1873958e-09  -4.7334481e-03   2.1623900e-01   1.4961277e-01  -6.6982135e+06
   2.1900634e-09  -4.7156142e-03   2.1609128e-01   1.4971819e-01  -6.6729100e+06
   2.1927309e-09  -4.6978476e-03   2.1594421e-01   1.4982328e-01  -6.6477029e+06
   2.1953985e-09  -4.6801481e-03   2.1579779e-01   1.4992805e-01  -6.6225918e+06
   2.1980660e-09  -4.6625155e-03   2.1565202e-01   1.5003249e-01  -6.5975763e+06
   2.2007336e-09  -4.6449495e-03   2.1550689e-01   1.5013660e-01  -6.5726561e+06
   2.2034011e-09  -4.6274498e-03   2.1536240e-01   1.5024039e-01  -6.5478308e+06
   2.2060687e-09  -4.6100162e-03   2.1521855e-01   1.5034385e-01  -6.5230999e+06
   2.2087362e-09  -4.5926485e-03   2.1507533e-01   1.5044700e-01  -6.4984633e+06
   2.2114038e-09  -4.5753464e-03   2.1493274e-01   1.5054981e-01  -6.4739204e+06
   2.2140714e-09  -4.5581096e-03   2.1479078e-01   1.5065231e-01  -6.4494709e+06
   2.2167389e-09  -4.5409379e-03   2.1464945e-01   1.5075448e-01  -6.4251145e+06
   2.2194065e-09  -4.5238310e-03   2.1450873e-01   1.5085634e-01  -6.4008507e+06
   2.2220740e-09  -4.5067888e-03   2.1436864e-01   1.5095787e-01  -6.3766793e+06
   2.2247416e-09  -4.4898109e-03   2.1422916e-01   1.5105909e-01  -6.3525999e+06
   2.2274091e-09  -4.4728971e-03   2.1409029e-01   1.5115999e-01  -6.3286120e+06
   2.2300767e-09  -4.4560472e-03   2.1395203e-01   1.5126057e-01  -6.3047154e+06
   2.2327442e-09  -4.4392609e-03   2.1381438e-01   1.5136083e-01  -6.2809097e+06
   2.2354118e-09  -4.4225380e-03   2.1367732e-01   1.5146078e-01  -6.2571946e+06
   2.2380794e-09  -4.4058783e-03   2.1354087e-01   1.5156041e-01  -6.2335696e+06
   2.2407469e-09  -4.3892814e-03   2.1340502e-01   1.5165973e-01  -6.2100345e+06
   2.2434145e-09  -4.3727472e-03   2.1326976e-01   1.5175873e-01  -6.1865889e+06
   2.2460820e-09  -4.3562754e-03   2.1313509e-01   1.5185743e-01  -6.1632324e+06
   2.2487496e-09  -4.3398658e-03   2.1300102e-01   1.5195581e-01  -6.1399647e+06
   2.2514171e-09  -4.3235182e-03   2.1286752e-01   1.5205388e-01  -6.1167855e+06
   2.2540847e-09  -4.3072323e-03   2.1273461e-01   1.5215163e-01  -6.0936944e+06
   2.2567523e-09  -4.2910078e-03   2.1260228e-01   1.5224908e-01  -6.0706911e+06
   2.2594198e-09  -4.2748446e-03   2.1247053e-01   1.5234622e-01  -6.0477752e+06
   2.2620874e-09  -4.2587424e-03   2.1233935e-01   1.5244305e-01  -6.0249463e+06
   2.2647549e-09  -4.2427010e-03   2.1220874e-01   1.5253958e-01  -6.0022043e+06
   2.2674225e-09  -4.2267202e-03   2.1207870e-01   1.5263580e-01  -5.9795486e+06
   2.2700900e-09  -4.2107996e-03   2.1194922e-01   1.5273171e-01  -5.9569790e+06
   2.2727576e-09  -4.1949392e-03   2.1182031e-01   1.5282731e-01  -5.9344952e+06
   2.2754251e-09  -4.1791386e-03   2.1169196e-01   1.5292262e-01  -5.9120968e+06
   2.2780927e-09  -4.1633977e-03   2.1156417e-01   1.5301761e-01  -5.8897834e+06
   2.2807603e-09  -4.1477161e-03   2.1143693e-01   1.5311231e-01  -5.8675548e+06
   2.2834278e-09  -4.1320938e-03   2.1131024e-01   1.5320670e-01  -5.8454107e+06
   2.2860954e-09  -4.1165304e-03   2.1118411e-01   1.5330080e-01  -5.8233506e+06
   2.2887629e-09  -4.1010257e-03   2.1105852e-01   1.5339459e-01  -5.8013743e+06
   2.2914305e-09  -4.0855796e-03   2.1093347e-01   1.5348808e-01  -5.7794815e+06
   2.2940980e-09  -4.0701917e-03   2.1080897e-01   1.5358127e-01  -5.7576718e+06
   2.2967656e-09  -4.0548619e-03   2.1068500e-01   1.5367417e-01  -5.7359449e+06
   2.2994331e-09  -4.0395900e-03   2.1056158e-01   1.5376676e-01  -5.7143004e+06
   2.3021007e-09  -4.0243756e-03   2.1043868e-01   1.5385907e-01  -5.6927382e+06
   2.3047683e-09  -4.0092187e-03   2.1031632e-01   1.5395107e-01  -5.6712578e+06
   2.3074358e-09  -3.9941190e-03   2.1019448e-01   1.5404278e-01  -5.6498589e+06
   2.3101034e-09  -3.9790763e-03   2.1007318e-01   1.5413419e-01  -5.6285412e+06
   2.3127709e-09  -3.9640903e-03   2.0995239e-01   1.5422532e-01  -5.6073045e+06
   2.3154385e-09  -3.9491608e-03   2.0983213e-01   1.5431614e-01  -5.5861483e+06
   2.3181060e-09  -3.9342877e-03   2.0971238e-01   1.5440668e-01  -5.5650724e+06
   2.3207736e-09  -3.9194707e-03   2.0959315e-01   1.5449692e-01  -5.5440765e+06
   2.3234411e-09  -3.9047096e-03   2.0947444e-01   1.5458688e-01  -5.5231602e+06
   2.3261087e-09  -3.8900042e-03   2.0935623e-01   1.5467654e-01  -5.5023233e+06
   2.3287763e-09  -3.8753543e-03   2.0923854e-01   1.5476592e-01  -5.4815654e+06
   2.3314438e-09  -3.8607596e-03   2.0912135e-01   1.5485500e-01  -5.4608863e+06
   2.3341114e-09  -3.8462200e-03   2.0900466e-01   1.5494380e-01  -5.4402856e+06
   2.3367789e-09  -3.8317352e-03   2.0888848e-01   1.5503231e-01  -5.4197631e+06
   2.3394465e-09  -3.8173051e-03   2.0877280e-01   1.5512054e-01  -5.3993184e+06
   2.3421140e-09  -3.8029294e-03   2.0865761e-01   1.5520848e-01  -5.3789512e+06
   2.3447816e-09  -3.7886080e-03   2.0854291e-01   1.5529614e-01  -5.3586612e+06
   2.3474491e-09  -3.7743405e-03   2.0842871e-01   1.5538351e-01  -5.3384482e+06
   2.3501167e-09  -3.7601269e-03   2.0831500e-01   1.5547060e-01  -5.3183118e+06
   2.3527843e-09  -3.7459669e-03   2.0820178e-01   1.5555740e-01  -5.2982518e+06
   2.3554518e-09  -3.7318603e-03   2.0808904e-01   1.5564393e-01  -5.2782678e+06
   2.3581194e-09  -3.7178069e-03   2.0797678e-01   1.5573017e-01  -5.2583596e+06
   2.3607869e-09  -3.7038065e-03   2.0786500e-01   1.5581613e-01  -5.2385269e+06
   2.3634545e-09  -3.6898589e-03   2.0775371e-01   1.5590182e-01  -5.2187693e+06
   2.3661220e-09  -3.6759640e-03   2.0764288e-01   1.5598722e-01  -5.1990866e+06
   2.3687896e-09  -3.6621214e-03   2.0753253e-01   1.5607235e-01  -5.1794786e+06
   2.3714572e-09  -3.6483310e-03   2.0742266e-01   1.5615720e-01  -5.1599448e+06
   2.3741247e-09  -3.6345927e-03   2.0731325e-01   1.5624177e-01  -5.1404850e+06
   2.3767923e-09  -3.6209061e-03   2.0720431e-01   1.5632607e-01  -5.1210990e+06
   2.3794598e-09  -3.6072712e-03   2.0709583e-01   1.5641010e-01  -5.1017865e+06
   2.3821274e-09  -3.5936877e-03   2.0698782e-01   1.5649384e-01  -5.0825471e+06
   2.3847949e-09  -3.5801554e-03   2.0688026e-01   1.5657732e-01  -5.0633807e+06
   2.3874625e-09  -3.5666741e-03   2.0677317e-01   1.5666052e-01  -5.0442868e+06
   2.3901300e-09  -3.5532437e-03   2.0666653e-01   1.5674345e-01  -5.0252653e+06
   2.3927976e-09  -3.5398639e-03   2.0656034e-01   1.5682611e-01  -5.0063158e+06
   2.3954652e-09  -3.5265346e-03   2.0645461e-01   1.5690850e-01  -4.9874381e+06
   2.3981327e-09  -3.5132556e-03   2.0634932e-01   1.5699062e-01  -4.9686319e+06
   2.4008003e-09  -3.5000266e-03   2.0624449e-01   1.5707247e-01  -4.9498970e+06
   2.4034678e-09  -3.4868475e-03   2.0614010e-01   1.5715405e-01  -4.9312330e+06
   2.4061354e-09  -3.4737181e-03   2.0603615e-01   1.5723537e-01  -4.9126397e+06
   2.4088029e-09  -3.4606381e-03   2.0593264e-01   1.5731641e-01  -4.8941168e+06
   2.4114705e-09  -3.4476075e-03   2.0582958e-01   1.5739719e-01  -4.8756640e+06
   2.4141380e-09  -3.4346261e-03   2.0572695e-01   1.5747771e-01  -4.8572811e+06
   2.4168056e-09  -3.4216936e-03   2.0562475e-01   1.5755796e-01  -4.8389679e+06
   2.4194732e-09  -3.4088098e-03   2.0552299e-01   1.5763795e-01  -4.8207239e+06
   2.4221407e-09  -3.3959746e-03   2.0542166e-01   1.5771767e-01  -4.8025490e+06
   2.4248083e-09  -3.3831878e-03   2.0532076e-01   1.5779713e-01  -4.7844430e+06
   2.4274758e-09  -3.3704492e-03   2.0522028e-01   1.5787633e-01  -4.7664055e+06
   2.4301434e-09  -3.3577587e-03   2.0512023e-01   1.5795527e-01  -4.7484362e+06
   2.4328109e-09  -3.3451159e-03   2.0502061e-01   1.5803395e-01  -4.7305350e+06
   2.4354785e-09  -3.3325209e-03   2.0492140e-01   1.5811237e-01  -4.7127016e+06
   2.4381460e-09  -3.3199733e-03   2.0482262e-01   1.5819053e-01  -4.6949356e+06
   2.4408136e-09  -3.3074730e-03   2.0472425e-01   1.5826843e-01  -4.6772369e+06
   2.4434812e-09  -3.2950199e-03   2.0462629e-01   1.5834607e-01  -4.6596051e+06
   2.4461487e-09  -3.2826137e-03   2.0452875e-01   1.5842346e-01  -4.6420401e+06
   2.4488163e-09  -3.2702542e-03   2.0443162e-01   1.5850059e-01  -4.6245416e+06
   2.4514838e-09  -3.2579414e-03   2.0433491e-01   1.5857747e-01  -4.6071093e+06
   2.4541514e-09  -3.2456749e-03   2.0423859e-01   1.5865409e-01  -4.5897429e+06
   2.4568189e-09  -3.2334547e-03   2.0414269e-01   1.5873046e-01  -4.5724422e+06
   2.4594865e-09  -3.2212806e-03   2.0404719e-01   1.5880657e-01  -4.5552070e+06
   2.4621541e-09  -3.2091523e-03   2.0395209e-01   1.5888243e-01  -4.5380370e+06
   2.4648216e-09  -3.1970698e-03   2.0385739e-01   1.5895804e-01  -4.5209320e+06
   2.4674892e-09  -3.1850328e-03   2.0376309e-01   1.5903340e-01  -4.5038917e+06
   2.4701567e-09  -3.1730412e-03   2.0366918e-01   1.5910851e-01  -4.4869158e+06
   2.4728243e-09  -3.1610948e-03   2.0357567e-01   1.5918337e-01  -4.4700042e+06
   2.4754918e-09  -3.1491934e-03   2.0348256e-01   1.5925798e-01  -4.4531565e+06
   2.4781594e-09  -3.1373368e-03   2.0338983e-01   1.5933234e-01  -4.4363726e+06
   2.4808269e-09  -3.1255250e-03   2.0329749e-01   1.5940646e-01  -4.4196521e+06
   2.4834945e-09  -3.1137576e-03   2.0320555e-01   1.5948033e-01  -4.4029949e+06
   2.4861621e-09  -3.1020347e-03   2.0311398e-01   1.5955395e-01  -4.3864006e+06
   2.4888296e-09  -3.0903559e-03   2.0302280e-01   1.5962733e-01  -4.3698691e+06
   2.4914972e-09  -3.0787211e-03   2.0293201e-01   1.5970046e-01  -4.3534002e+06
   2.4941647e-09  -3.0671301e-03   2.0284159e-01   1.5977334e-01  -4.3369935e+06
   2.4968323e-09  -3.0555829e-03   2.0275155e-01   1.5984599e-01  -4.3206489e+06
   2.4994998e-09  -3.0440791e-03   2.0266189e-01   1.5991839e-01  -4.3043660e+06
   2.5021674e-09  -3.0326187e-03   2.0257260e-01   1.5999055e-01  -4.2881447e+06
   2.5048349e-09  -3.0212015e-03   2.0248369e-01   1.6006247e-01  -4.2719848e+06
   2.5075025e-09  -3.0098274e-03   2.0239515e-01   1.6013415e-01  -4.2558859e+06
   2.5101701e-09  -2.9984961e-03   2.0230698e-01   1.6020559e-01  -4.2398479e+06
   2.5128376e-09  -2.9872074e-03   2.0221918e-01   1.6027679e-01  -4.2238706e+06
   2.5155052e-09  -2.9759614e-03   2.0213174e-01   1.6034775e-01  -4.2079536e+06
   2.5181727e-09  -2.9647577e-03   2.0204467e-01   1.6041847e-01  -4.1920968e+06
   2.5208403e-09  -2.9535962e-03   2.0195797e-01   1.6048896e-01  -4.1763000e+06
   2.5235078e-09  -2.9424768e-03   2.0187162e-01   1.6055921e-01  -4.1605628e+06
   2.5261754e-09  -2.9313993e-03   2.0178564e-01   1.6062922e-01  -4.1448852e+06
   2.5288429e-09  -2.9203635e-03   2.0170001e-01   1.6069900e-01  -4.1292668e+06
   2.5315105e-09  -2.9093693e-03   2.0161474e-01   1.6076855e-01  -4.1137074e+06
   2.5341781e-09  -2.8984166e-03   2.0152983e-01   1.6083786e-01  -4.0982068e+06
   2.5368456e-09  -2.8875051e-03   2.0144527e-01   1.6090694e-01  -4.0827648e+06
   2.5395132e-09  -2.8766347e-03   2.0136106e-01   1.6097578e-01  -4.0673812e+06
   2.5421807e-09  -2.8658053e-03   2.0127720e-01   1.6104440e-01  -4.0520557e+06
   2.5448483e-09  -2.8550167e-03   2.0119369e-01   1.6111278e-01  -4.0367881e+06
   2.5475158e-09  -2.8442687e-03   2.0111053e-01   1.6118093e-01  -4.0215782e+06
   2.5501834e-09  -2.8335612e-03   2.0102772e-01   1.6124886e-01  -4.0064258e+06
   2.5528510e-09  -2.8228941e-03   2.0094524e-01   1.6131655e-01  -3.9913306e+06
   2.5555185e-09  -2.8122672e-03   2.0086312e-01   1.6138402e-01  -3.9762925e+06
   2.5581861e-09  -2.8016803e-03   2.0078133e-01   1.6145126e-01  -3.9613112e+06
   2.5608536e-09  -2.7911333e-03   2.0069988e-01   1.6151827e-01  -3.9463864e+06
   2.5635212e-09  -2.7806260e-03   2.0061877e-01   1.6158506e-01  -3.9315181e+06
   2.5661887e-09  -2.7701583e-03   2.0053799e-01   1.6165162e-01  -3.9167059e+06
   2.5688563e-09  -2.7597301e-03   2.0045755e-01   1.6171795e-01  -3.9019497e+06
   2.5715238e-09  -2.7493411e-03   2.0037745e-01   1.6178406e-01  -3.8872493e+06
   2.5741914e-09  -2.7389913e-03   2.0029768e-01   1.6184995e-01  -3.8726043e+06
   2.5768590e-09  -2.7286805e-03   2.0021823e-01   1.6191562e-01  -3.8580147e+06
   2.5795265e-09  -2.7184085e-03   2.0013912e-01   1.6198106e-01  -3.8434802e+06
   2.5821941e-09  -2.7081752e-03   2.0006033e-01   1.6204628e-01  -3.8290006e+06
   2.5848616e-09  -2.6979805e-03   1.9998187e-01   1.6211128e-01  -3.8145756e+06
   2.5875292e-09  -2.6878242e-03   1.9990373e-01   1.6217606e-01  -3.8002052e+06
   2.5901967e-09  -2.6777061e-03   1.9982592e-01   1.6224062e-01  -3.7858890e+06
   2.5928643e-09  -2.6676262e-03   1.9974843e-01   1.6230496e-01  -3.7716269e+06
   2.5955318e-09  -2.6575842e-03   1.9967126e-01   1.6236909e-01  -3.7574187e+06
   2.5981994e-09  -2.6475800e-03   1.9959441e-01   1.6243299e-01  -3.7432641e+06
   2.6008670e-09  -2.6376136e-03   1.9951787e-01   1.6249668e-01  -3.7291629e+06
   2.6035345e-09  -2.6276847e-03   1.9944165e-01   1.6256015e-01  -3.7151150e+06
   2.6062021e-09  -2.6177932e-03   1.9936575e-01   1.6262341e-01  -3.7011202e+06
   2.6088696e-09  -2.6079389e-03   1.9929016e-01   1.6268645e-01  -3.6871782e+06
   2.6115372e-09  -2.5981218e-03   1.9921488e-01   1.6274928e-01  -3.6732888e+06
   2.6142047e-09  -2.5883416e-03   1.9913991e-01   1.6281189e-01  -3.6594519e+06
   2.6168723e-09  -2.5785983e-03   1.9906525e-01   1.6287429e-01  -3.6456672e+06
   2.6195398e-09  -2.5688917e-03   1.9899089e-01   1.6293648e-01  -3.6319346e+06
   2.6222074e-09  -2.5592217e-03   1.9891685e-01   1.6299846e-01  -3.6182538e+06
   2.6248750e-09  -2.5495881e-03   1.9884311e-01   1.6306022e-01  -3.6046247e+06
   2.6275425e-09  -2.5399907e-03   1.9876967e-01   1.6312178e-01  -3.5910470e+06
   2.6302101e-09  -2.5304295e-03   1.9869653e-01   1.6318312e-01  -3.5775206e+06
   2.6328776e-09  -2.5209044e-03   1.9862370e-01   1.6324425e-01  -3.5640452e+06
   2.6355452e-09  -2.5114151e-03   1.9855116e-01   1.6330518e-01  -3.5506207e+06
   2.6382127e-09  -2.5019615e-03   1.9847892e-01   1.6336590e-01  -3.5372469e+06
   2.6408803e-09  -2.4925436e-03   1.9840698e-01   1.6342641e-01  -3.5239236e+06
   2.6435478e-09  -2.4831611e-03   1.9833534e-01   1.6348671e-01  -3.5106506e+06
   2.6462154e-09  -2.4738140e-03   1.9826399e-01   1.6354681e-01  -3.4974276e+06
   2.6488830e-09  -2.4645021e-03   1.9819293e-01   1.6360671e-01  -3.4842546e+06
   2.6515505e-09  -2.4552253e-03   1.9812216e-01   1.6366639e-01  -3.4711313e+06
   2.6542181e-09  -2.4459833e-03   1.9805169e-01   1.6372588e-01  -3.4580575e+06
   2.6568856e-09  -2.4367763e-03   1.9798150e-01   1.6378516e-01  -3.4450330e+06
   2.6595532e-09  -2.4276038e-03   1.9791160e-01   1.6384423e-01  -3.4320577e+06
   2.6622207e-09  -2.4184660e-03   1.9784199e-01   1.6390311e-01  -3.4191314e+06
   2.6648883e-09  -2.4093625e-03   1.9777266e-01   1.6396178e-01  -3.4062539e+06
   2.6675559e-09  -2.4002933e-03   1.9770362e-01   1.6402025e-01  -3.3934249e+06
   2.6702234e-09  -2.3912583e-03   1.9763486e-01   1.6407852e-01  -3.3806444e+06
   2.6728910e-09  -2.3822573e-03   1.9756638e-01   1.6413660e-01  -3.3679121e+06
   2.6755585e-09  -2.3732903e-03   1.9749818e-01   1.6419447e-01  -3.3552278e+06
   2.6782261e-09  -2.3643569e-03   1.9743026e-01   1.6425214e-01  -3.3425915e+06
   2.6808936e-09  -2.3554573e-03   1.9736262e-01   1.6430962e-01  -3.3300027e+06
   2.6835612e-09  -2.3465911e-03   1.9729525e-01   1.6436689e-01  -3.3174615e+06
   2.6862287e-09  -2.3377584e-03   1.9722816e-01   1.6442397e-01  -3.3049676e+06
   2.6888963e-09  -2.3289589e-03   1.9716135e-01   1.6448086e-01  -3.2925209e+06
   2.6915639e-09  -2.3201925e-03   1.9709481e-01   1.6453755e-01  -3.2801211e+06
   2.6942314e-09  -2.3114592e-03   1.9702854e-01   1.6459404e-01  -3.2677681e+06
   2.6968990e-09  -2.3027587e-03   1.9696254e-01   1.6465034e-01  -3.2554617e+06
   2.6995665e-09  -2.2940910e-03   1.9689680e-01   1.6470645e-01  -3.2432017e+06
   2.7022341e-09  -2.2854560e-03   1.9683134e-01   1.6476236e-01  -3.2309880e+06
   2.7049016e-09  -2.2768535e-03   1.9676615e-01   1.6481808e-01  -3.2188203e+06
   2.7075692e-09  -2.2682833e-03   1.9670122e-01   1.6487361e-01  -3.2066986e+06
   2.7102367e-09  -2.2597455e-03   1.9663655e-01   1.6492894e-01  -3.1946226e+06
   2.7129043e-09  -2.2512398e-03   1.9657215e-01   1.6498409e-01  -3.1825921e+06
   2.7155719e-09  -2.2427661e-03   1.9650801e-01   1.6503904e-01  -3.1706071e+06
   2.7182394e-09  -2.2343244e-03   1.9644413e-01   1.6509381e-01  -3.1586672e+06
   2.7209070e-09  -2.2259144e-03   1.9638051e-01   1.6514838e-01  -3.1467724e+06
   2.7235745e-09  -2.2175361e-03   1.9631716e-01   1.6520277e-01  -3.1349224e+06
   2.7262421e-09  -2.2091893e-03   1.9625405e-01   1.6525697e-01  -3.1231171e+06
   2.7289096e-09  -2.2008740e-03   1.9619121e-01   1.6531099e-01  -3.1113564e+06
   2.7315772e-09  -2.1925900e-03   1.9612862e-01   1.6536481e-01  -3.0996400e+06
   2.7342447e-09  -2.1843372e-03   1.9606629e-01   1.6541845e-01  -3.0879678e+06
   2.7369123e-09  -2.1761155e-03   1.9600421e-01   1.6547191e-01  -3.0763397e+06
   2.7395799e-09  -2.1679247e-03   1.9594238e-01   1.6552517e-01  -3.0647554e+06
   2.7422474e-09  -2.1597648e-03   1.9588080e-01   1.6557826e-01  -3.0532148e+06
   2.7449150e-09  -2.1516356e-03   1.9581947e-01   1.6563116e-01  -3.0417177e+06
   2.7475825e-09  -2.1435370e-03   1.9575840e-01   1.6568388e-01  -3.0302639e+06
   2.7502501e-09  -2.1354689e-03   1.9569757e-01   1.6573641e-01  -3.0188534e+06
   2.7529176e-09  -2.1274312e-03   1.9563698e-01   1.6578877e-01  -3.0074859e+06
   2.7555852e-09  -2.1194237e-03   1.9557664e-01   1.6584094e-01  -2.9961613e+06
   2.7582528e-09  -2.1114464e-03   1.9551655e-01   1.6589293e-01  -2.9848793e+06
   2.7609203e-09  -2.1034992e-03   1.9545670e-01   1.6594474e-01  -2.9736399e+06
   2.7635879e-09  -2.0955818e-03   1.9539710e-01   1.6599637e-01  -2.9624429e+06
   2.7662554e-09  -2.0876943e-03   1.9533773e-01   1.6604782e-01  -2.9512882e+06
   2.7689230e-09  -2.0798365e-03   1.9527861e-01   1.6609909e-01  -2.9401754e+06
   2.7715905e-09  -2.0720082e-03   1.9521972e-01   1.6615019e-01  -2.9291046e+06
   2.7742581e-09  -2.0642095e-03   1.9516108e-01   1.6620111e-01  -2.9180756e+06
   2.7769256e-09  -2.0564401e-03   1.9510267e-01   1.6625185e-01  -2.9070881e+06
   2.7795932e-09  -2.0486999e-03   1.9504449e-01   1.6630241e-01  -2.8961420e+06
   2.7822608e-09  -2.0409889e-03   1.9498656e-01   1.6635280e-01  -2.8852372e+06
   2.7849283e-09  -2.0333070e-03   1.9492885e-01   1.6640301e-01  -2.8743736e+06
   2.7875959e-09  -2.0256539e-03   1.9487139e-01   1.6645305e-01  -2.8635509e+06
   2.7902634e-09  -2.0180297e-03   1.9481415e-01   1.6650291e-01  -2.8527689e+06
   2.7929310e-09  -2.0104342e-03   1.9475714e-01   1.6655260e-01  -2.8420277e+06
   2.7955985e-09  -2.0028673e-03   1.9470037e-01   1.6660212e-01  -2.8313269e+06
   2.7982661e-09  -1.9953289e-03   1.9464382e-01   1.6665146e-01  -2.8206665e+06
   2.8009336e-09  -1.9878188e-03   1.9458750e-01   1.6670063e-01  -2.8100463e+06
   2.8036012e-09  -1.9803371e-03   1.9453141e-01   1.6674963e-01  -2.7994661e+06
   2.8062688e-09  -1.9728835e-03   1.9447555e-01   1.6679846e-01  -2.7889258e+06
   2.8089363e-09  -1.9654579e-03   1.9441991e-01   1.6684712e-01  -2.7784252e+06
   2.8116039e-09  -1.9580603e-03   1.9436450e-01   1.6689561e-01  -2.7679643e+06
   2.8142714e-09  -1.9506906e-03   1.9430931e-01   1.6694393e-01  -2.7575427e+06
   2.8169390e-09  -1.9433486e-03   1.9425434e-01   1.6699208e-01  -2.7471605e+06
   2.8196065e-09  -1.9360343e-03   1.9419959e-01   1.6704007e-01  -2.7368173e+06
   2.8222741e-09  -1.9287475e-03   1.9414507e-01   1.6708788e-01  -2.7265132e+06
   2.8249416e-09  -1.9214882e-03   1.9409076e-01   1.6713553e-01  -2.7162479e+06
   2.8276092e-09  -1.9142561e-03   1.9403667e-01   1.6718301e-01  -2.7060213e+06
   2.8302768e-09  -1.9070513e-03   1.9398281e-01   1.6723033e-01  -2.6958333e+06
   2.8329443e-09  -1.8998737e-03   1.9392915e-01   1.6727748e-01  -2.6856836e+06
   2.8356119e-09  -1.8927230e-03   1.9387572e-01   1.6732447e-01  -2.6755722e+06
   2.8382794e-09  -1.8855993e-03   1.9382250e-01   1.6737129e-01  -2.6654989e+06
   2.8409470e-09  -1.8785024e-03   1.9376949e-01   1.6741795e-01  -2.6554636e+06
   2.8436145e-09  -1.8714322e-03   1.9371670e-01   1.6746444e-01  -2.6454662e+06
   2.8462821e-09  -1.8643886e-03   1.9366411e-01   1.6751077e-01  -2.6355063e+06
   2.8489496e-09  -1.8573715e-03   1.9361174e-01   1.6755694e-01  -2.6255841e+06
   2.8516172e-09  -1.8503809e-03   1.9355958e-01   1.6760295e-01  -2.6156992e+06
   2.8542848e-09  -1.8434166e-03   1.9350763e-01   1.6764879e-01  -2.6058516e+06
   2.8569523e-09  -1.8364785e-03   1.9345589e-01   1.6769448e-01  -2.5960411e+06
   2.8596199e-09  -1.8295665e-03   1.9340436e-01   1.6774000e-01  -2.5862676e+06
   2.8622874e-09  -1.8226806e-03   1.9335303e-01   1.6778537e-01  -2.5765309e+06
   2.8649550e-09  -1.8158205e-03   1.9330191e-01   1.6783057e-01  -2.5668309e+06
   2.8676225e-09  -1.8089863e-03   1.9325100e-01   1.6787562e-01  -2.5571674e+06
   2.8702901e-09  -1.8021778e-03   1.9320029e-01   1.6792051e-01  -2.5475404e+06
   2.8729577e-09  -1.7953950e-03   1.9314978e-01   1.6796524e-01  -2.5379497e+06
   2.8756252e-09  -1.7886377e-03   1.9309947e-01   1.6800982e-01  -2.5283951e+06
   2.8782928e-09  -1.7819058e-03   1.9304937e-01   1.6805423e-01  -2.5188765e+06
   2.8809603e-09  -1.7751993e-03   1.9299947e-01   1.6809849e-01  -2.5093938e+06
   2.8836279e-09  -1.7685180e-03   1.9294977e-01   1.6814260e-01  -2.4999468e+06
   2.8862954e-09  -1.7618619e-03   1.9290026e-01   1.6818655e-01  -2.4905354e+06
   2.8889630e-09  -1.7552308e-03   1.9285096e-01   1.6823035e-01  -2.4811595e+06
   2.8916305e-09  -1.7486247e-03   1.9280185e-01   1.6827399e-01  -2.4718189e+06
   2.8942981e-09  -1.7420435e-03   1.9275294e-01   1.6831748e-01  -2.4625135e+06
   2.8969657e-09  -1.7354870e-03   1.9270423e-01   1.6836081e-01  -2.4532431e+06
   2.8996332e-09  -1.7289552e-03   1.9265571e-01   1.6840400e-01  -2.4440077e+06
   2.9023008e-09  -1.7224480e-03   1.9260738e-01   1.6844703e-01  -2.4348071e+06
   2.9049683e-09  -1.7159653e-03   1.9255925e-01   1.6848991e-01  -2.4256412e+06
   2.9076359e-09  -1.7095070e-03   1.9251131e-01   1.6853263e-01  -2.4165098e+06
   2.9103034e-09  -1.7030731e-03   1.9246356e-01   1.6857521e-01  -2.4074128e+06
   2.9129710e-09  -1.6966633e-03   1.9241600e-01   1.6861764e-01  -2.3983501e+06
   2.9156385e-09  -1.6902777e-03   1.9236864e-01   1.6865992e-01  -2.3893215e+06
   2.9183061e-09  -1.6839161e-03   1.9232146e-01   1.6870204e-01  -2.3803270e+06
   2.9209737e-09  -1.6775785e-03   1.9227447e-01   1.6874402e-01  -2.3713663e+06
   2.9236412e-09  -1.6712647e-03   1.9222767e-01   1.6878586e-01  -2.3624394e+06
   2.9263088e-09  -1.6649747e-03   1.9218106e-01   1.6882754e-01  -2.3535461e+06
   2.9289763e-09  -1.6587083e-03   1.9213463e-01   1.6886908e-01  -2.3446864e+06
   2.9316439e-09  -1.6524656e-03   1.9208838e-01   1.6891047e-01  -2.3358600e+06
   2.9343114e-09  -1.6462463e-03   1.9204233e-01   1.6895171e-01  -2.3270669e+06
   2.9369790e-09  -1.6400505e-03   1.9199645e-01   1.6899281e-01  -2.3183069e+06
   2.9396465e-09  -1.6338780e-03   1.9195076e-01   1.6903376e-01  -2.3095799e+06
   2.9423141e-09  -1.6277287e-03   1.9190525e-01   1.6907457e-01  -2.3008858e+06
   2.9449817e-09  -1.6216026e-03   1.9185992e-01   1.6911523e-01  -2.2922244e+06
   2.9476492e-09  -1.6154995e-03   1.9181478e-01   1.6915575e-01  -2.2835957e+06
   2.9503168e-09  -1.6094194e-03   1.9176981e-01   1.6919613e-01  -2.2749995e+06
   2.9529843e-09  -1.6033622e-03   1.9172502e-01   1.6923636e-01  -2.2664356e+06
   2.9556519e-09  -1.5973278e-03   1.9168041e-01   1.6927645e-01  -2.2579040e+06
   2.9583194e-09  -1.5913161e-03   1.9163598e-01   1.6931640e-01  -2.2494046e+06
   2.9609870e-09  -1.5853271e-03   1.9159172e-01   1.6935621e-01  -2.2409372e+06
   2.9636546e-09  -1.5793606e-03   1.9154765e-01   1.6939588e-01  -2.2325017e+06
   2.9663221e-09  -1.5734165e-03   1.9150374e-01   1.6943540e-01  -2.2240979e+06
   2.9689897e-09  -1.5674948e-03   1.9146001e-01   1.6947479e-01  -2.2157258e+06
   2.9716572e-09  -1.5615954e-03   1.9141646e-01   1.6951404e-01  -2.2073853e+06
   2.9743248e-09  -1.5557183e-03   1.9137308e-01   1.6955314e-01  -2.1990761e+06
   2.9769923e-09  -1.5498632e-03   1.9132987e-01   1.6959211e-01  -2.1907983e+06
   2.9796599e-09  -1.5440302e-03   1.9128683e-01   1.6963094e-01  -2.1825517e+06
   2.9823274e-09  -1.5382191e-03   1.9124397e-01   1.6966963e-01  -2.1743361e+06
   2.9849950e-09  -1.5324299e-03   1.9120127e-01   1.6970819e-01  -2.1661514e+06
   2.9876626e-09  -1.5266625e-03   1.9115875e-01   1.6974661e-01  -2.1579976e+06
   2.9903301e-09  -1.5209168e-03   1.9111639e-01   1.6978489e-01  -2.1498745e+06
   2.9929977e-09  -1.5151928e-03   1.9107420e-01   1.6982304e-01  -2.1417820e+06
   2.9956652e-09  -1.5094903e-03   1.9103218e-01   1.6986105e-01  -2.1337200e+06
   2.9983328e-09  -1.5038092e-03   1.9099033e-01   1.6989892e-01  -2.1256884e+06
   3.0010003e-09  -1.4981495e-03   1.9094864e-01   1.6993666e-01  -2.1176870e+06
   3.0036679e-09  -1.4925112e-03   1.9090712e-01   1.6997427e-01  -2.1097157e+06
   3.0063354e-09  -1.4868941e-03   1.9086576e-01   1.7001174e-01  -2.1017745e+06
   3.0090030e-09  -1.4812981e-03   1.9082457e-01   1.7004908e-01  -2.0938632e+06
   3.0116706e-09  -1.4757231e-03   1.9078354e-01   1.7008629e-01  -2.0859816e+06
   3.0143381e-09  -1.4701692e-03   1.9074267e-01   1.7012337e-01  -2.0781298e+06
   3.0170057e-09  -1.4646361e-03   1.9070197e-01   1.7016031e-01  -2.0703075e+06
   3.0196732e-09  -1.4591239e-03   1.9066142e-01   1.7019712e-01  -2.0625147e+06
   3.0223408e-09  -1.4536325e-03   1.9062104e-01   1.7023380e-01  -2.0547513e+06
   3.0250083e-09  -1.4481617e-03   1.9058082e-01   1.7027035e-01  -2.0470171e+06
   3.0276759e-09  -1.4427115e-03   1.9054076e-01   1.7030677e-01  -2.0393120e+06
   3.0303434e-09  -1.4372818e-03   1.9050085e-01   1.7034306e-01  -2.0316359e+06
   3.0330110e-09  -1.4318725e-03   1.9046110e-01   1.7037922e-01  -2.0239888e+06
   3.0356786e-09  -1.4264836e-03   1.9042152e-01   1.7041525e-01  -2.0163704e+06
   3.0383461e-09  -1.4211150e-03   1.9038208e-01   1.7045115e-01  -2.0087807e+06
   3.0410137e-09  -1.4157666e-03   1.9034281e-01   1.7048693e-01  -2.0012197e+06
   3.0436812e-09  -1.4104384e-03   1.9030369e-01   1.7052258e-01  -1.9936871e+06
   3.0463488e-09  -1.4051302e-03   1.9026472e-01   1.7055810e-01  -1.9861828e+06
   3.0490163e-09  -1.3998419e-03   1.9022591e-01   1.7059349e-01  -1.9787069e+06
   3.0516839e-09  -1.3945736e-03   1.9018725e-01   1.7062876e-01  -1.9712591e+06
   3.0543515e-09  -1.3893251e-03   1.9014875e-01   1.7066390e-01  -1.9638393e+06
   3.0570190e-09  -1.3840964e-03   1.9011039e-01   1.7069892e-01  -1.9564475e+06
   3.0596866e-09  -1.3788873e-03   1.9007219e-01   1.7073381e-01  -1.9490835e+06
   3.0623541e-09  -1.3736979e-03   1.9003414e-01   1.7076858e-01  -1.9417472e+06
   3.0650217e-09  -1.3685279e-03   1.8999624e-01   1.7080322e-01  -1.9344386e+06
   3.0676892e-09  -1.3633775e-03   1.8995849e-01   1.7083774e-01  -1.9271575e+06
   3.0703568e-09  -1.3582464e-03   1.8992089e-01   1.7087213e-01  -1.9199038e+06
   3.0730243e-09  -1.3531346e-03   1.8988344e-01   1.7090640e-01  -1.9126775e+06
   3.0756919e-09  -1.3480421e-03   1.8984614e-01   1.7094055e-01  -1.9054783e+06
   3.0783595e-09  -1.3429688e-03   1.8980898e-01   1.7097458e-01  -1.8983063e+06
   3.0810270e-09  -1.3379145e-03   1.8977197e-01   1.7100849e-01  -1.8911612e+06
   3.0836946e-09  -1.3328793e-03   1.8973510e-01   1.7104227e-01  -1.8840431e+06
   3.0863621e-09  -1.3278630e-03   1.8969838e-01   1.7107594e-01  -1.8769518e+06
   3.0890297e-09  -1.3228656e-03   1.8966181e-01   1.7110948e-01  -1.8698872e+06
   3.0916972e-09  -1.3178870e-03   1.8962538e-01   1.7114291e-01  -1.8628491e+06
   3.0943648e-09  -1.3129271e-03   1.8958910e-01   1.7117621e-01  -1.8558376e+06
   3.0970323e-09  -1.3079859e-03   1.8955295e-01   1.7120939e-01  -1.8488525e+06
   3.0996999e-09  -1.3030634e-03   1.8951695e-01   1.7124246e-01  -1.8418937e+06
   3.1023675e-09  -1.2981593e-03   1.8948109e-01   1.7127541e-01  -1.8349611e+06
   3.1050350e-09  -1.2932737e-03   1.8944538e-01   1.7130824e-01  -1.8280546e+06
   3.1077026e-09  -1.2884065e-03   1.8940980e-01   1.7134095e-01  -1.8211741e+06
   3.1103701e-09  -1.2835576e-03   1.8937437e-01   1.7137354e-01  -1.8143195e+06
   3.1130377e-09  -1.2787269e-03   1.8933907e-01   1.7140602e-01  -1.8074908e+06
   3.1157052e-09  -1.2739145e-03   1.8930391e-01   1.7143838e-01  -1.8006877e+06
   3.1183728e-09  -1.2691201e-03   1.8926889e-01   1.7147063e-01  -1.7939103e+06
   3.1210403e-09  -1.2643438e-03   1.8923401e-01   1.7150276e-01  -1.7871583e+06
   3.1237079e-09  -1.2595855e-03   1.8919927e-01   1.7153477e-01  -1.7804318e+06
   3.1263755e-09  -1.2548451e-03   1.8916466e-01   1.7156667e-01  -1.7737307e+06
   3.1290430e-09  -1.2501225e-03   1.8913019e-01   1.7159846e-01  -1.7670547e+06
   3.1317106e-09  -1.2454177e-03   1.8909586e-01   1.7163013e-01  -1.7604039e+06
   3.1343781e-09  -1.2407306e-03   1.8906166e-01   1.7166169e-01  -1.7537782e+06
   3.1370457e-09  -1.2360611e-03   1.8902759e-01   1.7169313e-01  -1.7471774e+06
   3.1397132e-09  -1.2314093e-03   1.8899366e-01   1.7172446e-01  -1.7406014e+06
   3.1423808e-09  -1.2267749e-03   1.8895986e-01   1.7175568e-01  -1.7340502e+06
   3.1450483e-09  -1.2221580e-03   1.8892620e-01   1.7178679e-01  -1.7275237e+06
   3.1477159e-09  -1.2175584e-03   1.8889267e-01   1.7181778e-01  -1.7210217e+06
   3.1503835e-09  -1.2129762e-03   1.8885927e-01   1.7184866e-01  -1.7145442e+06
   3.1530510e-09  -1.2084112e-03   1.8882600e-01   1.7187944e-01  -1.7080912e+06
   3.1557186e-09  -1.2038634e-03   1.8879286e-01   1.7191010e-01  -1.7016624e+06
   3.1583861e-09  -1.1993327e-03   1.8875985e-01   1.7194065e-01  -1.6952578e+06
   3.1610537e-09  -1.1948190e-03   1.8872697e-01   1.7197109e-01  -1.6888773e+06
   3.1637212e-09  -1.1903224e-03   1.8869422e-01   1.7200142e-01  -1.6825209e+06
   3.1663888e-09  -1.1858427e-03   1.8866160e-01   1.7203165e-01  -1.6761883e+06
   3.1690564e-09  -1.1813798e-03   1.8862911e-01   1.7206176e-01  -1.6698797e+06
   3.1717239e-09  -1.1769337e-03   1.8859674e-01   1.7209177e-01  -1.6635948e+06
   3.1743915e-09  -1.1725044e-03   1.8856451e-01   1.7212166e-01  -1.6573335e+06
   3.1770590e-09  -1.1680917e-03   1.8853239e-01   1.7215146e-01  -1.6510958e+06
   3.1797266e-09  -1.1636956e-03   1.8850041e-01   1.7218114e-01  -1.6448816e+06
   3.1823941e-09  -1.1593161e-03   1.8846855e-01   1.7221071e-01  -1.6386908e+06
   3.1850617e-09  -1.1549531e-03   1.8843681e-01   1.7224018e-01  -1.6325233e+06
   3.1877292e-09  -1.1506065e-03   1.8840520e-01   1.7226955e-01  -1.6263790e+06
   3.1903968e-09  -1.1462762e-03   1.8837372e-01   1.7229881e-01  -1.6202579e+06
   3.1930644e-09  -1.1419623e-03   1.8834235e-01   1.7232796e-01  -1.6141598e+06
   3.1957319e-09  -1.1376646e-03   1.8831111e-01   1.7235701e-01  -1.6080847e+06
   3.1983995e-09  -1.1333830e-03   1.8827999e-01   1.7238595e-01  -1.6020324e+06
   3.2010670e-09  -1.1291176e-03   1.8824900e-01   1.7241479e-01  -1.5960029e+06
   3.2037346e-09  -1.1248682e-03   1.8821812e-01   1.7244352e-01  -1.5899961e+06
   3.2064021e-09  -1.1206348e-03   1.8818737e-01   1.7247215e-01  -1.5840120e+06
   3.2090697e-09  -1.1164174e-03   1.8815674e-01   1.7250068e-01  -1.5780503e+06
   3.2117372e-09  -1.1122158e-03   1.8812623e-01   1.7252910e-01  -1.5721111e+06
   3.2144048e-09  -1.1080300e-03   1.8809583e-01   1.7255743e-01  -1.5661943e+06
   3.2170724e-09  -1.1038600e-03   1.8806556e-01   1.7258565e-01  -1.5602997e+06
   3.2197399e-09  -1.0997057e-03   1.8803540e-01   1.7261376e-01  -1.5544274e+06
   3.2224075e-09  -1.0955670e-03   1.8800536e-01   1.7264178e-01  -1.5485771e+06
   3.2250750e-09  -1.0914439e-03   1.8797544e-01   1.7266969e-01  -1.5427489e+06
   3.2277426e-09  -1.0873363e-03   1.8794564e-01   1.7269751e-01  -1.5369426e+06
   3.2304101e-09  -1.0832442e-03   1.8791595e-01   1.7272522e-01  -1.5311582e+06
   3.2330777e-09  -1.0791675e-03   1.8788638e-01   1.7275284e-01  -1.5253955e+06
   3.2357452e-09  -1.0751061e-03   1.8785693e-01   1.7278035e-01  -1.5196545e+06
   3.2384128e-09  -1.0710600e-03   1.8782759e-01   1.7280777e-01  -1.5139352e+06
   3.2410804e-09  -1.0670291e-03   1.8779836e-01   1.7283508e-01  -1.5082374e+06
   3.2437479e-09  -1.0630134e-03   1.8776925e-01   1.7286230e-01  -1.5025610e+06
   3.2464155e-09  -1.0590128e-03   1.8774026e-01   1.7288942e-01  -1.4969060e+06
   3.2490830e-09  -1.0550273e-03   1.8771137e-01   1.7291644e-01  -1.4912723e+06
   3.2517506e-09  -1.0510568e-03   1.8768260e-01   1.7294336e-01  -1.4856598e+06
   3.2544181e-09  -1.0471012e-03   1.8765395e-01   1.7297019e-01  -1.4800684e+06
   3.2570857e-09  -1.0431605e-03   1.8762540e-01   1.7299691e-01  -1.4744981e+06
   3.2597533e-09  -1.0392346e-03   1.8759697e-01   1.7302355e-01  -1.4689487e+06
   3.2624208e-09  -1.0353235e-03   1.8756864e-01   1.7305008e-01  -1.4634202e+06
   3.2650884e-09  -1.0314272e-03   1.8754043e-01   1.7307652e-01  -1.4579126e+06
   3.2677559e-09  -1.0275454e-03   1.8751233e-01   1.7310286e-01  -1.4524257e+06
   3.2704235e-09  -1.0236783e-03   1.8748433e-01   1.7312911e-01  -1.4469594e+06
   3.2730910e-09  -1.0198258e-03   1.8745645e-01   1.7315527e-01  -1.4415137e+06
   3.2757586e-09  -1.0159877e-03   1.8742868e-01   1.7318132e-01  -1.4360885e+06
   3.2784261e-09  -1.0121641e-03   1.8740101e-01   1.7320729e-01  -1.4306837e+06
   3.2810937e-09  -1.0083549e-03   1.8737345e-01   1.7323316e-01  -1.4252993e+06
   3.2837613e-09  -1.0045601e-03   1.8734600e-01   1.7325894e-01  -1.4199352e+06
   3.2864288e-09  -1.0007795e-03   1.8731866e-01   1.7328462e-01  -1.4145912e+06
   3.2890964e-09  -9.9701309e-04   1.8729142e-01   1.7331021e-01  -1.4092674e+06
   3.2917639e-09  -9.9326090e-04   1.8726429e-01   1.7333571e-01  -1.4039636e+06
   3.2944315e-09  -9.8952283e-04   1.8723726e-01   1.7336111e-01  -1.3986797e+06
   3.2970990e-09  -9.8579882e-04   1.8721034e-01   1.7338642e-01  -1.3934158e+06
   3.2997666e-09  -9.8208884e-04   1.8718353e-01   1.7341164e-01  -1.3881716e+06
   3.3024341e-09  -9.7839281e-04   1.8715682e-01   1.7343677e-01  -1.3829473e+06
   3.3051017e-09  -9.7471070e-04   1.8713021e-01   1.7346181e-01  -1.3777425e+06
   3.3077693e-09  -9.7104244e-04   1.8710371e-01   1.7348676e-01  -1.3725574e+06
   3.3104368e-09  -9.6738799e-04   1.8707731e-01   1.7351162e-01  -1.3673918e+06
   3.3131044e-09  -9.6374729e-04   1.8705102e-01   1.7353638e-01  -1.3622456e+06
   3.3157719e-09  -9.6012029e-04   1.8702482e-01   1.7356106e-01  -1.3571188e+06
   3.3184395e-09  -9.5650695e-04   1.8699873e-01   1.7358565e-01  -1.3520113e+06
   3.3211070e-09  -9.5290720e-04   1.8697274e-01   1.7361015e-01  -1.3469230e+06
   3.3237746e-09  -9.4932100e-04   1.8694685e-01   1.7363456e-01  -1.3418539e+06
   3.3264421e-09  -9.4574830e-04   1.8692107e-01   1.7365888e-01  -1.3368039e+06
   3.3291097e-09  -9.4218904e-04   1.8689538e-01   1.7368311e-01  -1.3317728e+06
   3.3317773e-09  -9.3864317e-04   1.8686979e-01   1.7370725e-01  -1.3267607e+06
   3.3344448e-09  -9.3511066e-04   1.8684430e-01   1.7373131e-01  -1.3217675e+06
   3.3371124e-09  -9.3159143e-04   1.8681891e-01   1.7375528e-01  -1.3167931e+06
   3.3397799e-09  -9.2808545e-04   1.8679362e-01   1.7377916e-01  -1.3118374e+06
   3.3424475e-09  -9.2459267e-04   1.8676843e-01   1.7380296e-01  -1.3069003e+06
   3.3451150e-09  -9.2111303e-04   1.8674334e-01   1.7382667e-01  -1.3019818e+06
   3.3477826e-09  -9.1764649e-04   1.8671834e-01   1.7385029e-01  -1.2970819e+06
   3.3504502e-09  -9.1419299e-04   1.8669344e-01   1.7387383e-01  -1.2922004e+06
   3.3531177e-09  -9.1075249e-04   1.8666864e-01   1.7389728e-01  -1.2873372e+06
   3.3557853e-09  -9.0732493e-04   1.8664394e-01   1.7392064e-01  -1.2824924e+06
   3.3584528e-09  -9.0391028e-04   1.8661933e-01   1.7394392e-01  -1.2776658e+06
   3.3611204e-09  -9.0050848e-04   1.8659481e-01   1.7396712e-01  -1.2728574e+06
   3.3637879e-09  -8.9711948e-04   1.8657040e-01   1.7399023e-01  -1.2680670e+06
   3.3664555e-09  -8.9374323e-04   1.8654607e-01   1.7401326e-01  -1.2632947e+06
   3.3691230e-09  -8.9037969e-04   1.8652184e-01   1.7403620e-01  -1.2585404e+06
   3.3717906e-09  -8.8702881e-04   1.8649771e-01   1.7405907e-01  -1.2538040e+06
   3.3744582e-09  -8.8369054e-04   1.8647367e-01   1.7408184e-01  -1.2490854e+06
   3.3771257e-09  -8.8036483e-04   1.8644972e-01   1.7410454e-01  -1.2443845e+06
   3.3797933e-09  -8.7705164e-04   1.8642587e-01   1.7412715e-01  -1.2397013e+06
   3.3824608e-09  -8.7375092e-04   1.8640210e-01   1.7414968e-01  -1.2350358e+06
   3.3851284e-09  -8.7046262e-04   1.8637843e-01   1.7417213e-01  -1.2303878e+06
   3.3877959e-09  -8.6718670e-04   1.8635486e-01   1.7419449e-01  -1.2257574e+06
   3.3904635e-09  -8.6392310e-04   1.8633137e-01   1.7421678e-01  -1.2211443e+06
   3.3931310e-09  -8.6067179e-04   1.8630798e-01   1.7423898e-01  -1.2165486e+06
   3.3957986e-09  -8.5743271e-04   1.8628467e-01   1.7426110e-01  -1.2119703e+06
   3.3984662e-09  -8.5420582e-04   1.8626146e-01   1.7428314e-01  -1.2074091e+06
   3.4011337e-09  -8.5099108e-04   1.8623833e-01   1.7430511e-01  -1.2028651e+06
   3.4038013e-09  -8.4778843e-04   1.8621530e-01   1.7432699e-01  -1.1983382e+06
   3.4064688e-09  -8.4459784e-04   1.8619236e-01   1.7434879e-01  -1.1938284e+06
   3.4091364e-09  -8.4141925e-04   1.8616950e-01   1.7437051e-01  -1.1893355e+06
   3.4118039e-09  -8.3825263e-04   1.8614673e-01   1.7439215e-01  -1.1848596e+06
   3.4144715e-09  -8.3509792e-04   1.8612405e-01   1.7441372e-01  -1.1804005e+06
   3.4171390e-09  -8.3195509e-04   1.8610146e-01   1.7443520e-01  -1.1759581e+06
   3.4198066e-09  -8.2882409e-04   1.8607896e-01   1.7445661e-01  -1.1715325e+06
   3.4224742e-09  -8.2570486e-04   1.8605655e-01   1.7447794e-01  -1.1671236e+06
   3.4251417e-09  -8.2259738e-04   1.8603422e-01   1.7449919e-01  -1.1627312e+06
   3.4278093e-09  -8.1950159e-04   1.8601197e-01   1.7452036e-01  -1.1583554e+06
   3.4304768e-09  -8.1641745e-04   1.8598982e-01   1.7454146e-01  -1.1539960e+06
   3.4331444e-09  -8.1334492e-04   1.8596775e-01   1.7456248e-01  -1.1496531e+06
   3.4358119e-09  -8.1028395e-04   1.8594576e-01   1.7458342e-01  -1.1453265e+06
   3.4384795e-09  -8.0723450e-04   1.8592386e-01   1.7460429e-01  -1.1410162e+06
   3.4411470e-09  -8.0419653e-04   1.8590205e-01   1.7462508e-01  -1.1367221e+06
   3.4438146e-09  -8.0116999e-04   1.8588032e-01   1.7464579e-01  -1.1324442e+06
   3.4464822e-09  -7.9815484e-04   1.8585867e-01   1.7466643e-01  -1.1281823e+06
   3.4491497e-09  -7.9515104e-04   1.8583711e-01   1.7468699e-01  -1.1239366e+06
   3.4518173e-09  -7.9215854e-04   1.8581563e-01   1.7470748e-01  -1.1197067e+06
   3.4544848e-09  -7.8917731e-04   1.8579424e-01   1.7472790e-01  -1.1154929e+06
   3.4571524e-09  -7.8620729e-04   1.8577292e-01   1.7474823e-01  -1.1112948e+06
   3.4598199e-09  -7.8324845e-04   1.8575169e-01   1.7476850e-01  -1.1071126e+06
   3.4624875e-09  -7.8030075e-04   1.8573055e-01   1.7478869e-01  -1.1029461e+06
   3.4651551e-09  -7.7736414e-04   1.8570948e-01   1.7480881e-01  -1.0987953e+06
   3.4678226e-09  -7.7443858e-04   1.8568850e-01   1.7482885e-01  -1.0946601e+06
   3.4704902e-09  -7.7152403e-04   1.8566759e-01   1.7484882e-01  -1.0905405e+06
   3.4731577e-09  -7.6862045e-04   1.8564677e-01   1.7486871e-01  -1.0864364e+06
   3.4758253e-09  -7.6572779e-04   1.8562603e-01   1.7488854e-01  -1.0823477e+06
   3.4784928e-09  -7.6284603e-04   1.8560537e-01   1.7490829e-01  -1.0782745e+06
   3.4811604e-09  -7.5997510e-04   1.8558479e-01   1.7492797e-01  -1.0742165e+06
   3.4838279e-09  -7.5711499e-04   1.8556428e-01   1.7494758e-01  -1.0701738e+06
   3.4864955e-09  -7.5426563e-04   1.8554386e-01   1.7496711e-01  -1.0661464e+06
   3.4891631e-09  -7.5142700e-04   1.8552352e-01   1.7498658e-01  -1.0621341e+06
   3.4918306e-09  -7.4859905e-04   1.8550325e-01   1.7500597e-01  -1.0581369e+06
   3.4944982e-09  -7.4578175e-04   1.8548307e-01   1.7502529e-01  -1.0541547e+06
   3.4971657e-09  -7.4297504e-04   1.8546296e-01   1.7504454e-01  -1.0501876e+06
   3.4998333e-09  -7.4017890e-04   1.8544293e-01   1.7506372e-01  -1.0462353e+06
   3.5025008e-09  -7.3739329e-04   1.8542297e-01   1.7508283e-01  -1.0422980e+06
   3.5051684e-09  -7.3461815e-04   1.8540310e-01   1.7510187e-01  -1.0383754e+06
   3.5078359e-09  -7.3185346e-04   1.8538330e-01   1.7512085e-01  -1.0344676e+06
   3.5105035e-09  -7.2909917e-04   1.8536357e-01   1.7513975e-01  -1.0305746e+06
   3.5131711e-09  -7.2635525e-04   1.8534393e-01   1.7515858e-01  -1.0266961e+06
   3.5158386e-09  -7.2362166e-04   1.8532435e-01   1.7517734e-01  -1.0228323e+06
   3.5185062e-09  -7.2089835e-04   1.8530486e-01   1.7519604e-01  -1.0189830e+06
   3.5211737e-09  -7.1818529e-04   1.8528544e-01   1.7521466e-01  -1.0151482e+06
   3.5238413e-09  -7.1548244e-04   1.8526609e-01   1.7523322e-01  -1.0113279e+06
   3.5265088e-09  -7.1278977e-04   1.8524682e-01   1.7525171e-01  -1.0075219e+06
   3.5291764e-09  -7.1010722e-04   1.8522763e-01   1.7527013e-01  -1.0037302e+06
   3.5318439e-09  -7.0743478e-04   1.8520851e-01   1.7528849e-01  -9.9995285e+05
   3.5345115e-09  -7.0477239e-04   1.8518946e-01   1.7530678e-01  -9.9618968e+05
   3.5371791e-09  -7.0212001e-04   1.8517048e-01   1.7532500e-01  -9.9244067e+05
   3.5398466e-09  -6.9947762e-04   1.8515158e-01   1.7534315e-01  -9.8870578e+05
   3.5425142e-09  -6.9684518e-04   1.8513275e-01   1.7536124e-01  -9.8498493e+05
   3.5451817e-09  -6.9422264e-04   1.8511400e-01   1.7537926e-01  -9.8127810e+05
   3.5478493e-09  -6.9160997e-04   1.8509531e-01   1.7539721e-01  -9.7758521e+05
   3.5505168e-09  -6.8900714e-04   1.8507670e-01   1.7541510e-01  -9.7390622e+05
   3.5531844e-09  -6.8641409e-04   1.8505816e-01   1.7543293e-01  -9.7024108e+05
   3.5558520e-09  -6.8383081e-04   1.8503970e-01   1.7545068e-01  -9.6658973e+05
   3.5585195e-09  -6.8125725e-04   1.8502130e-01   1.7546838e-01  -9.6295212e+05
   3.5611871e-09  -6.7869337e-04   1.8500297e-01   1.7548600e-01  -9.5932820e+05
   3.5638546e-09  -6.7613915e-04   1.8498472e-01   1.7550357e-01  -9.5571793e+05
   3.5665222e-09  -6.7359453e-04   1.8496653e-01   1.7552107e-01  -9.5212124e+05
   3.5691897e-09  -6.7105949e-04   1.8494842e-01   1.7553850e-01  -9.4853808e+05
   3.5718573e-09  -6.6853400e-04   1.8493038e-01   1.7555587e-01  -9.4496841e+05
   3.5745248e-09  -6.6601800e-04   1.8491240e-01   1.7557318e-01  -9.4141218e+05
   3.5771924e-09  -6.6351148e-04   1.8489449e-01   1.7559042e-01  -9.3786933e+05
   3.5798600e-09  -6.6101438e-04   1.8487666e-01   1.7560760e-01  -9.3433981e+05
   3.5825275e-09  -6.5852669e-04   1.8485889e-01   1.7562472e-01  -9.3082358e+05
   3.5851951e-09  -6.5604835e-04   1.8484119e-01   1.7564177e-01  -9.2732058e+05
   3.5878626e-09  -6.5357935e-04   1.8482356e-01   1.7565876e-01  -9.2383076e+05
   3.5905302e-09  -6.5111963e-04   1.8480600e-01   1.7567569e-01  -9.2035408e+05
   3.5931977e-09  -6.4866917e-04   1.8478850e-01   1.7569256e-01  -9.1689048e+05
   3.5958653e-09  -6.4622794e-04   1.8477107e-01   1.7570937e-01  -9.1343992e+05
   3.5985328e-09  -6.4379589e-04   1.8475371e-01   1.7572611e-01  -9.1000235e+05
   3.6012004e-09  -6.4137299e-04   1.8473642e-01   1.7574279e-01  -9.0657771e+05
   3.6038680e-09  -6.3895921e-04   1.8471919e-01   1.7575941e-01  -9.0316596e+05
   3.6065355e-09  -6.3655452e-04   1.8470203e-01   1.7577597e-01  -8.9976705e+05
   3.6092031e-09  -6.3415887e-04   1.8468493e-01   1.7579247e-01  -8.9638093e+05
   3.6118706e-09  -6.3177224e-04   1.8466790e-01   1.7580891e-01  -8.9300755e+05
   3.6145382e-09  -6.2939460e-04   1.8465094e-01   1.7582529e-01  -8.8964687e+05
   3.6172057e-09  -6.2702590e-04   1.8463404e-01   1.7584160e-01  -8.8629884e+05
   3.6198733e-09  -6.2466611e-04   1.8461721e-01   1.7585786e-01  -8.8296341e+05
   3.6225408e-09  -6.2231520e-04   1.8460044e-01   1.7587406e-01  -8.7964053e+05
   3.6252084e-09  -6.1997315e-04   1.8458373e-01   1.7589020e-01  -8.7633016e+05
   3.6278760e-09  -6.1763990e-04   1.8456709e-01   1.7590628e-01  -8.7303225e+05
   3.6305435e-09  -6.1531544e-04   1.8455052e-01   1.7592229e-01  -8.6974674e+05
   3.6332111e-09  -6.1299972e-04   1.8453401e-01   1.7593826e-01  -8.6647361e+05
   3.6358786e-09  -6.1069272e-04   1.8451756e-01   1.7595416e-01  -8.6321279e+05
   3.6385462e-09  -6.0839440e-04   1.8450117e-01   1.7597000e-01  -8.5996424e+05
   3.6412137e-09  -6.0610473e-04   1.8448485e-01   1.7598579e-01  -8.5672792e+05
   3.6438813e-09  -6.0382368e-04   1.8446859e-01   1.7600151e-01  -8.5350378e+05
   3.6465488e-09  -6.0155121e-04   1.8445239e-01   1.7601718e-01  -8.5029177e+05
   3.6492164e-09  -5.9928729e-04   1.8443626e-01   1.7603279e-01  -8.4709185e+05
   3.6518840e-09  -5.9703190e-04   1.8442019e-01   1.7604835e-01  -8.4390397e+05
   3.6545515e-09  -5.9478499e-04   1.8440418e-01   1.7606385e-01  -8.4072809e+05
   3.6572191e-09  -5.9254653e-04   1.8438823e-01   1.7607929e-01  -8.3756416e+05
   3.6598866e-09  -5.9031650e-04   1.8437234e-01   1.7609467e-01  -8.3441214e+05
   3.6625542e-09  -5.8809487e-04   1.8435651e-01   1.7611000e-01  -8.3127199e+05
   3.6652217e-09  -5.8588159e-04   1.8434075e-01   1.7612527e-01  -8.2814364e+05
   3.6678893e-09  -5.8367664e-04   1.8432504e-01   1.7614048e-01  -8.2502708e+05
   3.6705569e-09  -5.8147999e-04   1.8430940e-01   1.7615564e-01  -8.2192224e+05
   3.6732244e-09  -5.7929161e-04   1.8429381e-01   1.7617074e-01  -8.1882909e+05
   3.6758920e-09  -5.7711146e-04   1.8427829e-01   1.7618579e-01  -8.1574757e+05
   3.6785595e-09  -5.7493952e-04   1.8426282e-01   1.7620078e-01  -8.1267766e+05
   3.6812271e-09  -5.7277575e-04   1.8424742e-01   1.7621571e-01  -8.0961930e+05
   3.6838946e-09  -5.7062012e-04   1.8423207e-01   1.7623059e-01  -8.0657245e+05
   3.6865622e-09  -5.6847261e-04   1.8421678e-01   1.7624542e-01  -8.0353706e+05
   3.6892297e-09  -5.6633318e-04   1.8420155e-01   1.7626019e-01  -8.0051310e+05
   3.6918973e-09  -5.6420180e-04   1.8418638e-01   1.7627491e-01  -7.9750052e+05
   3.6945649e-09  -5.6207844e-04   1.8417127e-01   1.7628957e-01  -7.9449927e+05
   3.6972324e-09  -5.5996307e-04   1.8415622e-01   1.7630418e-01  -7.9150932e+05
   3.6999000e-09  -5.5785566e-04   1.8414122e-01   1.7631874e-01  -7.8853063e+05
   3.7025675e-09  -5.5575618e-04   1.8412628e-01   1.7633324e-01  -7.8556314e+05
   3.7052351e-09  -5.5366461e-04   1.8411140e-01   1.7634768e-01  -7.8260682e+05
   3.7079026e-09  -5.5158090e-04   1.8409658e-01   1.7636208e-01  -7.7966163e+05
   3.7105702e-09  -5.4950504e-04   1.8408181e-01   1.7637642e-01  -7.7672752e+05
   3.7132377e-09  -5.4743699e-04   1.8406710e-01   1.7639071e-01  -7.7380445e+05
   3.7159053e-09  -5.4537672e-04   1.8405244e-01   1.7640495e-01  -7.7089238e+05
   3.7185729e-09  -5.4332420e-04   1.8403785e-01   1.7641913e-01  -7.6799128e+05
   3.7212404e-09  -5.4127941e-04   1.8402330e-01   1.7643326e-01  -7.6510109e+05
   3.7239080e-09  -5.3924232e-04   1.8400882e-01   1.7644734e-01  -7.6222177e+05
   3.7265755e-09  -5.3721289e-04   1.8399439e-01   1.7646137e-01  -7.5935330e+05
   3.7292431e-09  -5.3519109e-04   1.8398001e-01   1.7647534e-01  -7.5649562e+05
   3.7319106e-09  -5.3317691e-04   1.8396569e-01   1.7648927e-01  -7.5364869e+05
   3.7345782e-09  -5.3117031e-04   1.8395143e-01   1.7650314e-01  -7.5081248e+05
   3.7372457e-09  -5.2917125e-04   1.8393722e-01   1.7651696e-01  -7.4798694e+05
   3.7399133e-09  -5.2717972e-04   1.8392306e-01   1.7653073e-01  -7.4517203e+05
   3.7425809e-09  -5.2519569e-04   1.8390896e-01   1.7654445e-01  -7.4236772e+05
   3.7452484e-09  -5.2321912e-04   1.8389491e-01   1.7655812e-01  -7.3957396e+05
   3.7479160e-09  -5.2124999e-04   1.8388092e-01   1.7657174e-01  -7.3679072e+05
   3.7505835e-09  -5.1928827e-04   1.8386698e-01   1.7658530e-01  -7.3401795e+05
   3.7532511e-09  -5.1733393e-04   1.8385309e-01   1.7659882e-01  -7.3125561e+05
   3.7559186e-09  -5.1538695e-04   1.8383926e-01   1.7661229e-01  -7.2850367e+05
   3.7585862e-09  -5.1344730e-04   1.8382548e-01   1.7662571e-01  -7.2576209e+05
   3.7612538e-09  -5.1151494e-04   1.8381175e-01   1.7663908e-01  -7.2303082e+05
   3.7639213e-09  -5.0958986e-04   1.8379808e-01   1.7665240e-01  -7.2030984e+05
   3.7665889e-09  -5.0767202e-04   1.8378445e-01   1.7666567e-01  -7.1759909e+05
   3.7692564e-09  -5.0576140e-04   1.8377088e-01   1.7667889e-01  -7.1489855e+05
   3.7719240e-09  -5.0385797e-04   1.8375737e-01   1.7669206e-01  -7.1220816e+05
   3.7745915e-09  -5.0196170e-04   1.8374390e-01   1.7670519e-01  -7.0952791e+05
   3.7772591e-09  -5.0007257e-04   1.8373049e-01   1.7671826e-01  -7.0685774e+05
   3.7799266e-09  -4.9819054e-04   1.8371712e-01   1.7673129e-01  -7.0419762e+05
   3.7825942e-09  -4.9631560e-04   1.8370381e-01   1.7674427e-01  -7.0154750e+05
   3.7852618e-09  -4.9444772e-04   1.8369055e-01   1.7675720e-01  -6.9890737e+05
   3.7879293e-09  -4.9258687e-04   1.8367734e-01   1.7677008e-01  -6.9627717e+05
   3.7905969e-09  -4.9073301e-04   1.8366418e-01   1.7678292e-01  -6.9365686e+05
   3.7932644e-09  -4.8888614e-04   1.8365107e-01   1.7679571e-01  -6.9104642e+05
   3.7959320e-09  -4.8704621e-04   1.8363801e-01   1.7680845e-01  -6.8844580e+05
   3.7985995e-09  -4.8521321e-04   1.8362500e-01   1.7682114e-01  -6.8585497e+05
   3.8012671e-09  -4.8338711e-04   1.8361204e-01   1.7683379e-01  -6.8327389e+05
   3.8039346e-09  -4.8156788e-04   1.8359913e-01   1.7684639e-01  -6.8070252e+05
   3.8066022e-09  -4.7975550e-04   1.8358627e-01   1.7685894e-01  -6.7814083e+05
   3.8092698e-09  -4.7794993e-04   1.8357346e-01   1.7687145e-01  -6.7558878e+05
   3.8119373e-09  -4.7615116e-04   1.8356070e-01   1.7688391e-01  -6.7304634e+05
   3.8146049e-09  -4.7435917e-04   1.8354799e-01   1.7689633e-01  -6.7051346e+05
   3.8172724e-09  -4.7257391e-04   1.8353533e-01   1.7690870e-01  -6.6799012e+05
   3.8199400e-09  -4.7079537e-04   1.8352271e-01   1.7692102e-01  -6.6547627e+05
   3.8226075e-09  -4.6902353e-04   1.8351014e-01   1.7693330e-01  -6.6297188e+05
   3.8252751e-09  -4.6725835e-04   1.8349762e-01   1.7694553e-01  -6.6047691e+05
   3.8279426e-09  -4.6549982e-04   1.8348515e-01   1.7695772e-01  -6.5799134e+05
   3.8306102e-09  -4.6374790e-04   1.8347273e-01   1.7696986e-01  -6.5551512e+05
   3.8332778e-09  -4.6200258e-04   1.8346035e-01   1.7698196e-01  -6.5304822e+05
   3.8359453e-09  -4.6026383e-04   1.8344802e-01   1.7699401e-01  -6.5059060e+05
   3.8386129e-09  -4.5853162e-04   1.8343574e-01   1.7700602e-01  -6.4814223e+05
   3.8412804e-09  -4.5680592e-04   1.8342351e-01   1.7701798e-01  -6.4570308e+05
   3.8439480e-09  -4.5508673e-04   1.8341132e-01   1.7702990e-01  -6.4327310e+05
   3.8466155e-09  -4.5337400e-04   1.8339918e-01   1.7704178e-01  -6.4085227e+05
   3.8492831e-09  -4.5166772e-04   1.8338708e-01   1.7705361e-01  -6.3844055e+05
   3.8519507e-09  -4.4996786e-04   1.8337504e-01   1.7706539e-01  -6.3603791e+05
   3.8546182e-09  -4.4827439e-04   1.8336303e-01   1.7707714e-01  -6.3364430e+05
   3.8572858e-09  -4.4658730e-04   1.8335108e-01   1.7708884e-01  -6.3125971e+05
   3.8599533e-09  -4.4490656e-04   1.8333917e-01   1.7710050e-01  -6.2888409e+05
   3.8626209e-09  -4.4323214e-04   1.8332730e-01   1.7711211e-01  -6.2651741e+05
   3.8652884e-09  -4.4156403e-04   1.8331548e-01   1.7712368e-01  -6.2415964e+05
   3.8679560e-09  -4.3990219e-04   1.8330371e-01   1.7713521e-01  -6.2181074e+05
   3.8706235e-09  -4.3824660e-04   1.8329198e-01   1.7714669e-01  -6.1947067e+05
   3.8732911e-09  -4.3659725e-04   1.8328029e-01   1.7715814e-01  -6.1713942e+05
   3.8759587e-09  -4.3495410e-04   1.8326865e-01   1.7716954e-01  -6.1481694e+05
   3.8786262e-09  -4.3331714e-04   1.8325706e-01   1.7718090e-01  -6.1250320e+05
   3.8812938e-09  -4.3168634e-04   1.8324551e-01   1.7719221e-01  -6.1019817e+05
   3.8839613e-09  -4.3006167e-04   1.8323400e-01   1.7720349e-01  -6.0790181e+05
   3.8866289e-09  -4.2844312e-04   1.8322254e-01   1.7721472e-01  -6.0561409e+05
   3.8892964e-09  -4.2683066e-04   1.8321112e-01   1.7722591e-01  -6.0333498e+05
   3.8919640e-09  -4.2522427e-04   1.8319974e-01   1.7723706e-01  -6.0106445e+05
   3.8946315e-09  -4.2362392e-04   1.8318841e-01   1.7724817e-01  -5.9880247e+05
   3.8972991e-09  -4.2202960e-04   1.8317712e-01   1.7725924e-01  -5.9654899e+05
   3.8999667e-09  -4.2044127e-04   1.8316588e-01   1.7727026e-01  -5.9430400e+05
