   0.0000000e+00  -1.3183254e-01   6.2952400e+00   2.2068560e-04  -5.1983015e+08
   1.0003334e-12  -1.3131326e-01   6.2932581e+00   2.2971331e-04  -5.1842110e+08
   2.0006669e-12  -1.3079539e-01   6.2912425e+00   2.3908279e-04  -5.1701187e+08
   3.0010003e-12  -1.3027893e-01   6.2891927e+00   2.4880576e-04  -5.1560243e+08
   4.0013338e-12  -1.2976387e-01   6.2871082e+00   2.5889427e-04  -5.1419280e+08
   5.0016672e-12  -1.2925023e-01   6.2849887e+00   2.6936075e-04  -5.1278299e+08
   6.0020007e-12  -1.2873800e-01   6.2828337e+00   2.8021800e-04  -5.1137299e+08
   7.0023341e-12  -1.2822719e-01   6.2806428e+00   2.9147917e-04  -5.0996280e+08
   8.0026676e-12  -1.2771778e-01   6.2784156e+00   3.0315782e-04  -5.0855244e+08
   9.0030010e-12  -1.2720978e-01   6.2761515e+00   3.1526790e-04  -5.0714190e+08
   1.0003334e-11  -1.2670319e-01   6.2738502e+00   3.2782374e-04  -5.0573119e+08
   1.1003668e-11  -1.2619802e-01   6.2715112e+00   3.4084010e-04  -5.0432031e+08
   1.2004001e-11  -1.2569425e-01   6.2691341e+00   3.5433215e-04  -5.0290927e+08
   1.3004335e-11  -1.2519190e-01   6.2667184e+00   3.6831550e-04  -5.0149807e+08
   1.4004668e-11  -1.2469096e-01   6.2642638e+00   3.8280619e-04  -5.0008671e+08
   1.5005002e-11  -1.2419144e-01   6.2617697e+00   3.9782071e-04  -4.9867521e+08
   1.6005335e-11  -1.2369332e-01   6.2592357e+00   4.1337601e-04  -4.9726356e+08
   1.7005669e-11  -1.2319662e-01   6.2566614e+00   4.2948950e-04  -4.9585177e+08
   1.8006002e-11  -1.2270132e-01   6.2540463e+00   4.4617907e-04  -4.9443985e+08
   1.9006335e-11  -1.2220745e-01   6.2513899e+00   4.6346310e-04  -4.9302780e+08
   2.0006669e-11  -1.2171498e-01   6.2486919e+00   4.8136046e-04  -4.9161563e+08
   2.1007002e-11  -1.2122393e-01   6.2459518e+00   4.9989053e-04  -4.9020334e+08
   2.2007336e-11  -1.2073429e-01   6.2431691e+00   5.1907322e-04  -4.8879094e+08
   2.3007669e-11  -1.2024606e-01   6.2403434e+00   5.3892893e-04  -4.8737843e+08
   2.4008003e-11  -1.1975925e-01   6.2374742e+00   5.5947863e-04  -4.8596583e+08
   2.5008336e-11  -1.1927384e-01   6.2345611e+00   5.8074382e-04  -4.8455314e+08
   2.6008670e-11  -1.1878986e-01   6.2316037e+00   6.0274657e-04  -4.8314036e+08
   2.7009003e-11  -1.1830728e-01   6.2286015e+00   6.2550950e-04  -4.8172751e+08
   2.8009336e-11  -1.1782612e-01   6.2255540e+00   6.4905583e-04  -4.8031459e+08
   2.9009670e-11  -1.1734637e-01   6.2224609e+00   6.7340934e-04  -4.7890160e+08
   3.0010003e-11  -1.1686804e-01   6.2193216e+00   6.9859443e-04  -4.7748857e+08
   3.1010337e-11  -1.1639112e-01   6.2161358e+00   7.2463610e-04  -4.7607549e+08
   3.2010670e-11  -1.1591561e-01   6.2129029e+00   7.5155997e-04  -4.7466237e+08
   3.3011004e-11  -1.1544152e-01   6.2096226e+00   7.7939229e-04  -4.7324922e+08
   3.4011337e-11  -1.1496884e-01   6.2062944e+00   8.0815994e-04  -4.7183605e+08
   3.5011671e-11  -1.1449757e-01   6.2029179e+00   8.3789048e-04  -4.7042288e+08
   3.6012004e-11  -1.1402772e-01   6.1994927e+00   8.6861209e-04  -4.6900970e+08
   3.7012337e-11  -1.1355928e-01   6.1960183e+00   9.0035365e-04  -4.6759653e+08
   3.8012671e-11  -1.1309226e-01   6.1924942e+00   9.3314472e-04  -4.6618338e+08
   3.9013004e-11  -1.1262665e-01   6.1889201e+00   9.6701552e-04  -4.6477025e+08
   4.0013338e-11  -1.1216245e-01   6.1852956e+00   1.0019970e-03  -4.6335717e+08
   4.1013671e-11  -1.1169967e-01   6.1816202e+00   1.0381209e-03  -4.6194414e+08
   4.2014005e-11  -1.1123830e-01   6.1778935e+00   1.0754194e-03  -4.6053116e+08
   4.3014338e-11  -1.1077834e-01   6.1741150e+00   1.1139258e-03  -4.5911826e+08
   4.4014672e-11  -1.1031980e-01   6.1702844e+00   1.1536739e-03  -4.5770544e+08
   4.5015005e-11  -1.0986267e-01   6.1664013e+00   1.1946983e-03  -4.5629271e+08
   4.6015338e-11  -1.0940695e-01   6.1624653e+00   1.2370343e-03  -4.5488010e+08
   4.7015672e-11  -1.0895264e-01   6.1584759e+00   1.2807182e-03  -4.5346760e+08
   4.8016005e-11  -1.0849975e-01   6.1544327e+00   1.3257867e-03  -4.5205523e+08
   4.9016339e-11  -1.0804828e-01   6.1503354e+00   1.3722777e-03  -4.5064300e+08
   5.0016672e-11  -1.0759821e-01   6.1461836e+00   1.4202296e-03  -4.4923093e+08
   5.1017006e-11  -1.0714956e-01   6.1419769e+00   1.4696817e-03  -4.4781903e+08
   5.2017339e-11  -1.0670232e-01   6.1377149e+00   1.5206743e-03  -4.4640732e+08
   5.3017673e-11  -1.0625649e-01   6.1333972e+00   1.5732481e-03  -4.4499580e+08
   5.4018006e-11  -1.0581207e-01   6.1290235e+00   1.6274451e-03  -4.4358449e+08
   5.5018339e-11  -1.0536906e-01   6.1245934e+00   1.6833078e-03  -4.4217341e+08
   5.6018673e-11  -1.0492747e-01   6.1201065e+00   1.7408797e-03  -4.4076257e+08
   5.7019006e-11  -1.0448729e-01   6.1155624e+00   1.8002052e-03  -4.3935198e+08
   5.8019340e-11  -1.0404852e-01   6.1109610e+00   1.8613296e-03  -4.3794167e+08
   5.9019673e-11  -1.0361116e-01   6.1063016e+00   1.9242987e-03  -4.3653164e+08
   6.0020007e-11  -1.0317521e-01   6.1015842e+00   1.9891597e-03  -4.3512191e+08
   6.1020340e-11  -1.0274066e-01   6.0968082e+00   2.0559604e-03  -4.3371250e+08
   6.2020674e-11  -1.0230753e-01   6.0919735e+00   2.1247495e-03  -4.3230343e+08
   6.3021007e-11  -1.0187581e-01   6.0870796e+00   2.1955767e-03  -4.3089471e+08
   6.4021340e-11  -1.0144550e-01   6.0821262e+00   2.2684924e-03  -4.2948635e+08
   6.5021674e-11  -1.0101660e-01   6.0771131e+00   2.3435482e-03  -4.2807838e+08
   6.6022007e-11  -1.0058910e-01   6.0720400e+00   2.4207965e-03  -4.2667081e+08
   6.7022341e-11  -1.0016301e-01   6.0669065e+00   2.5002904e-03  -4.2526367e+08
   6.8022674e-11  -9.9738331e-02   6.0617124e+00   2.5820844e-03  -4.2385696e+08
   6.9023008e-11  -9.9315058e-02   6.0564574e+00   2.6662334e-03  -4.2245070e+08
   7.0023341e-11  -9.8893191e-02   6.0511412e+00   2.7527936e-03  -4.2104493e+08
   7.1023675e-11  -9.8472730e-02   6.0457636e+00   2.8418220e-03  -4.1963965e+08
   7.2024008e-11  -9.8053674e-02   6.0403243e+00   2.9333766e-03  -4.1823488e+08
   7.3024341e-11  -9.7636023e-02   6.0348231e+00   3.0275162e-03  -4.1683064e+08
   7.4024675e-11  -9.7219777e-02   6.0292597e+00   3.1243007e-03  -4.1542696e+08
   7.5025008e-11  -9.6804934e-02   6.0236339e+00   3.2237910e-03  -4.1402385e+08
   7.6025342e-11  -9.6391495e-02   6.0179455e+00   3.3260487e-03  -4.1262133e+08
   7.7025675e-11  -9.5979459e-02   6.0121943e+00   3.4311366e-03  -4.1121943e+08
   7.8026009e-11  -9.5568824e-02   6.0063800e+00   3.5391182e-03  -4.0981816e+08
   7.9026342e-11  -9.5159591e-02   6.0005025e+00   3.6500582e-03  -4.0841755e+08
   8.0026676e-11  -9.4751758e-02   5.9945616e+00   3.7640221e-03  -4.0701762e+08
   8.1027009e-11  -9.4345326e-02   5.9885571e+00   3.8810764e-03  -4.0561838e+08
   8.2027342e-11  -9.3940293e-02   5.9824889e+00   4.0012884e-03  -4.0421987e+08
   8.3027676e-11  -9.3536658e-02   5.9763568e+00   4.1247267e-03  -4.0282209e+08
   8.4028009e-11  -9.3134421e-02   5.9701606e+00   4.2514604e-03  -4.0142509e+08
   8.5028343e-11  -9.2733582e-02   5.9639003e+00   4.3815598e-03  -4.0002887e+08
   8.6028676e-11  -9.2334138e-02   5.9575756e+00   4.5150961e-03  -3.9863347e+08
   8.7029010e-11  -9.1936090e-02   5.9511865e+00   4.6521414e-03  -3.9723890e+08
   8.8029343e-11  -9.1539436e-02   5.9447329e+00   4.7927687e-03  -3.9584518e+08
   8.9029677e-11  -9.1144176e-02   5.9382146e+00   4.9370520e-03  -3.9445235e+08
   9.0030010e-11  -9.0750309e-02   5.9316317e+00   5.0850660e-03  -3.9306043e+08
   9.1030343e-11  -9.0357834e-02   5.9249839e+00   5.2368866e-03  -3.9166943e+08
   9.2030677e-11  -8.9966750e-02   5.9182713e+00   5.3925904e-03  -3.9027939e+08
   9.3031010e-11  -8.9577055e-02   5.9114939e+00   5.5522550e-03  -3.8889033e+08
   9.4031344e-11  -8.9188750e-02   5.9046514e+00   5.7159587e-03  -3.8750228e+08
   9.5031677e-11  -8.8801833e-02   5.8977441e+00   5.8837809e-03  -3.8611525e+08
   9.6032011e-11  -8.8416302e-02   5.8907717e+00   6.0558017e-03  -3.8472928e+08
   9.7032344e-11  -8.8032157e-02   5.8837343e+00   6.2321020e-03  -3.8334439e+08
   9.8032678e-11  -8.7649397e-02   5.8766320e+00   6.4127638e-03  -3.8196061e+08
   9.9033011e-11  -8.7268021e-02   5.8694646e+00   6.5978697e-03  -3.8057796e+08
   1.0003334e-10  -8.6888027e-02   5.8622323e+00   6.7875032e-03  -3.7919647e+08
   1.0103368e-10  -8.6509414e-02   5.8549351e+00   6.9817485e-03  -3.7781617e+08
   1.0203401e-10  -8.6132182e-02   5.8475731e+00   7.1806908e-03  -3.7643707e+08
   1.0303434e-10  -8.5756328e-02   5.8401462e+00   7.3844158e-03  -3.7505922e+08
   1.0403468e-10  -8.5381852e-02   5.8326546e+00   7.5930102e-03  -3.7368263e+08
   1.0503501e-10  -8.5008752e-02   5.8250984e+00   7.8065614e-03  -3.7230734e+08
   1.0603535e-10  -8.4637027e-02   5.8174776e+00   8.0251573e-03  -3.7093337e+08
   1.0703568e-10  -8.4266676e-02   5.8097924e+00   8.2488868e-03  -3.6956074e+08
   1.0803601e-10  -8.3897697e-02   5.8020429e+00   8.4778394e-03  -3.6818949e+08
   1.0903635e-10  -8.3530089e-02   5.7942292e+00   8.7121052e-03  -3.6681965e+08
   1.1003668e-10  -8.3163851e-02   5.7863514e+00   8.9517750e-03  -3.6545123e+08
   1.1103701e-10  -8.2798981e-02   5.7784098e+00   9.1969402e-03  -3.6408428e+08
   1.1203735e-10  -8.2435477e-02   5.7704044e+00   9.4476930e-03  -3.6271882e+08
   1.1303768e-10  -8.2073338e-02   5.7623355e+00   9.7041259e-03  -3.6135487e+08
   1.1403801e-10  -8.1712563e-02   5.7542033e+00   9.9663322e-03  -3.5999247e+08
   1.1503835e-10  -8.1353150e-02   5.7460079e+00   1.0234406e-02  -3.5863165e+08
   1.1603868e-10  -8.0995097e-02   5.7377496e+00   1.0508441e-02  -3.5727243e+08
   1.1703901e-10  -8.0638403e-02   5.7294286e+00   1.0788532e-02  -3.5591484e+08
   1.1803935e-10  -8.0283066e-02   5.7210451e+00   1.1074775e-02  -3.5455891e+08
   1.1903968e-10  -7.9929085e-02   5.7125994e+00   1.1367266e-02  -3.5320467e+08
   1.2004001e-10  -7.9576457e-02   5.7040918e+00   1.1666100e-02  -3.5185215e+08
   1.2104035e-10  -7.9225181e-02   5.6955225e+00   1.1971374e-02  -3.5050139e+08
   1.2204068e-10  -7.8875255e-02   5.6868918e+00   1.2283186e-02  -3.4915240e+08
   1.2304101e-10  -7.8526678e-02   5.6782000e+00   1.2601632e-02  -3.4780522e+08
   1.2404135e-10  -7.8179448e-02   5.6694475e+00   1.2926811e-02  -3.4645988e+08
   1.2504168e-10  -7.7833562e-02   5.6606344e+00   1.3258819e-02  -3.4511640e+08
   1.2604201e-10  -7.7489019e-02   5.6517613e+00   1.3597757e-02  -3.4377482e+08
   1.2704235e-10  -7.7145817e-02   5.6428284e+00   1.3943722e-02  -3.4243517e+08
   1.2804268e-10  -7.6803954e-02   5.6338361e+00   1.4296812e-02  -3.4109748e+08
   1.2904301e-10  -7.6463429e-02   5.6247847e+00   1.4657128e-02  -3.3976177e+08
   1.3004335e-10  -7.6124238e-02   5.6156746e+00   1.5024767e-02  -3.3842808e+08
   1.3104368e-10  -7.5786380e-02   5.6065062e+00   1.5399830e-02  -3.3709643e+08
   1.3204401e-10  -7.5449853e-02   5.5972800e+00   1.5782415e-02  -3.3576686e+08
   1.3304435e-10  -7.5114655e-02   5.5879962e+00   1.6172622e-02  -3.3443940e+08
   1.3404468e-10  -7.4780784e-02   5.5786554e+00   1.6570551e-02  -3.3311407e+08
   1.3504502e-10  -7.4448237e-02   5.5692580e+00   1.6976301e-02  -3.3179090e+08
   1.3604535e-10  -7.4117013e-02   5.5598044e+00   1.7389971e-02  -3.3046994e+08
   1.3704568e-10  -7.3787109e-02   5.5502951e+00   1.7811661e-02  -3.2915119e+08
   1.3804602e-10  -7.3458522e-02   5.5407305e+00   1.8241470e-02  -3.2783470e+08
   1.3904635e-10  -7.3131252e-02   5.5311111e+00   1.8679498e-02  -3.2652049e+08
   1.4004668e-10  -7.2805295e-02   5.5214374e+00   1.9125843e-02  -3.2520860e+08
   1.4104702e-10  -7.2480649e-02   5.5117099e+00   1.9580604e-02  -3.2389905e+08
   1.4204735e-10  -7.2157311e-02   5.5019291e+00   2.0043881e-02  -3.2259187e+08
   1.4304768e-10  -7.1835280e-02   5.4920955e+00   2.0515771e-02  -3.2128710e+08
   1.4404802e-10  -7.1514553e-02   5.4822096e+00   2.0996372e-02  -3.1998475e+08
   1.4504835e-10  -7.1195127e-02   5.4722719e+00   2.1485784e-02  -3.1868486e+08
   1.4604868e-10  -7.0877000e-02   5.4622831e+00   2.1984102e-02  -3.1738747e+08
   1.4704902e-10  -7.0560170e-02   5.4522436e+00   2.2491424e-02  -3.1609259e+08
   1.4804935e-10  -7.0244633e-02   5.4421540e+00   2.3007847e-02  -3.1480026e+08
   1.4904968e-10  -6.9930388e-02   5.4320148e+00   2.3533467e-02  -3.1351050e+08
   1.5005002e-10  -6.9617432e-02   5.4218267e+00   2.4068380e-02  -3.1222335e+08
   1.5105035e-10  -6.9305762e-02   5.4115903e+00   2.4612681e-02  -3.1093882e+08
   1.5205068e-10  -6.8995375e-02   5.4013060e+00   2.5166465e-02  -3.0965696e+08
   1.5305102e-10  -6.8686269e-02   5.3909746e+00   2.5729827e-02  -3.0837779e+08
   1.5405135e-10  -6.8378441e-02   5.3805966e+00   2.6302858e-02  -3.0710134e+08
   1.5505168e-10  -6.8071889e-02   5.3701726e+00   2.6885654e-02  -3.0582763e+08
   1.5605202e-10  -6.7766609e-02   5.3597033e+00   2.7478305e-02  -3.0455669e+08
   1.5705235e-10  -6.7462600e-02   5.3491893e+00   2.8080903e-02  -3.0328855e+08
   1.5805268e-10  -6.7159857e-02   5.3386312e+00   2.8693539e-02  -3.0202324e+08
   1.5905302e-10  -6.6858378e-02   5.3280297e+00   2.9316303e-02  -3.0076078e+08
   1.6005335e-10  -6.6558161e-02   5.3173853e+00   2.9949285e-02  -2.9950120e+08
   1.6105368e-10  -6.6259202e-02   5.3066989e+00   3.0592572e-02  -2.9824453e+08
   1.6205402e-10  -6.5961498e-02   5.2959710e+00   3.1246252e-02  -2.9699079e+08
   1.6305435e-10  -6.5665047e-02   5.2852023e+00   3.1910412e-02  -2.9574001e+08
   1.6405468e-10  -6.5369846e-02   5.2743934e+00   3.2585137e-02  -2.9449221e+08
   1.6505502e-10  -6.5075892e-02   5.2635451e+00   3.3270512e-02  -2.9324743e+08
   1.6605535e-10  -6.4783180e-02   5.2526580e+00   3.3966620e-02  -2.9200568e+08
   1.6705569e-10  -6.4491710e-02   5.2417329e+00   3.4673545e-02  -2.9076700e+08
   1.6805602e-10  -6.4201477e-02   5.2307703e+00   3.5391368e-02  -2.8953140e+08
   1.6905635e-10  -6.3912478e-02   5.2197711e+00   3.6120170e-02  -2.8829891e+08
   1.7005669e-10  -6.3624710e-02   5.2087358e+00   3.6860029e-02  -2.8706956e+08
   1.7105702e-10  -6.3338171e-02   5.1976653e+00   3.7611024e-02  -2.8584336e+08
   1.7205735e-10  -6.3052856e-02   5.1865602e+00   3.8373233e-02  -2.8462035e+08
   1.7305769e-10  -6.2768763e-02   5.1754212e+00   3.9146731e-02  -2.8340055e+08
   1.7405802e-10  -6.2485888e-02   5.1642491e+00   3.9931593e-02  -2.8218398e+08
   1.7505835e-10  -6.2204229e-02   5.1530445e+00   4.0727892e-02  -2.8097066e+08
   1.7605869e-10  -6.1923782e-02   5.1418083e+00   4.1535701e-02  -2.7976062e+08
   1.7705902e-10  -6.1644543e-02   5.1305410e+00   4.2355090e-02  -2.7855387e+08
   1.7805935e-10  -6.1366510e-02   5.1192435e+00   4.3186129e-02  -2.7735044e+08
   1.7905969e-10  -6.1089679e-02   5.1079165e+00   4.4028886e-02  -2.7615036e+08
   1.8006002e-10  -6.0814046e-02   5.0965607e+00   4.4883428e-02  -2.7495364e+08
   1.8106035e-10  -6.0539609e-02   5.0851768e+00   4.5749821e-02  -2.7376030e+08
   1.8206069e-10  -6.0266364e-02   5.0737656e+00   4.6628128e-02  -2.7257037e+08
   1.8306102e-10  -5.9994307e-02   5.0623279e+00   4.7518411e-02  -2.7138387e+08
   1.8406135e-10  -5.9723435e-02   5.0508642e+00   4.8420733e-02  -2.7020081e+08
   1.8506169e-10  -5.9453745e-02   5.0393755e+00   4.9335153e-02  -2.6902121e+08
   1.8606202e-10  -5.9185233e-02   5.0278624e+00   5.0261728e-02  -2.6784510e+08
   1.8706235e-10  -5.8917896e-02   5.0163257e+00   5.1200516e-02  -2.6667250e+08
   1.8806269e-10  -5.8651730e-02   5.0047660e+00   5.2151571e-02  -2.6550341e+08
   1.8906302e-10  -5.8386731e-02   4.9931843e+00   5.3114947e-02  -2.6433787e+08
   1.9006335e-10  -5.8122897e-02   4.9815811e+00   5.4090696e-02  -2.6317588e+08
   1.9106369e-10  -5.7860223e-02   4.9699573e+00   5.5078868e-02  -2.6201747e+08
   1.9206402e-10  -5.7598705e-02   4.9583135e+00   5.6079512e-02  -2.6086266e+08
   1.9306435e-10  -5.7338341e-02   4.9466506e+00   5.7092675e-02  -2.5971146e+08
   1.9406469e-10  -5.7079127e-02   4.9349693e+00   5.8118402e-02  -2.5856388e+08
   1.9506502e-10  -5.6821059e-02   4.9232702e+00   5.9156738e-02  -2.5741994e+08
   1.9606536e-10  -5.6564133e-02   4.9115542e+00   6.0207724e-02  -2.5627967e+08
   1.9706569e-10  -5.6308346e-02   4.8998219e+00   6.1271401e-02  -2.5514307e+08
   1.9806602e-10  -5.6053694e-02   4.8880742e+00   6.2347808e-02  -2.5401016e+08
   1.9906636e-10  -5.5800173e-02   4.8763117e+00   6.3436982e-02  -2.5288095e+08
   2.0006669e-10  -5.5547780e-02   4.8645351e+00   6.4538957e-02  -2.5175546e+08
   2.0106702e-10  -5.5296511e-02   4.8527453e+00   6.5653769e-02  -2.5063371e+08
   2.0206736e-10  -5.5046362e-02   4.8409429e+00   6.6781448e-02  -2.4951569e+08
   2.0306769e-10  -5.4797329e-02   4.8291286e+00   6.7922025e-02  -2.4840144e+08
   2.0406802e-10  -5.4549409e-02   4.8173032e+00   6.9075528e-02  -2.4729096e+08
   2.0506836e-10  -5.4302598e-02   4.8054674e+00   7.0241985e-02  -2.4618427e+08
   2.0606869e-10  -5.4056892e-02   4.7936219e+00   7.1421419e-02  -2.4508137e+08
   2.0706902e-10  -5.3812287e-02   4.7817674e+00   7.2613854e-02  -2.4398228e+08
   2.0806936e-10  -5.3568779e-02   4.7699047e+00   7.3819312e-02  -2.4288701e+08
   2.0906969e-10  -5.3326366e-02   4.7580344e+00   7.5037812e-02  -2.4179556e+08
   2.1007002e-10  -5.3085042e-02   4.7461572e+00   7.6269373e-02  -2.4070796e+08
   2.1107036e-10  -5.2844803e-02   4.7342738e+00   7.7514009e-02  -2.3962421e+08
   2.1207069e-10  -5.2605647e-02   4.7223850e+00   7.8771736e-02  -2.3854432e+08
   2.1307102e-10  -5.2367570e-02   4.7104914e+00   8.0042566e-02  -2.3746830e+08
   2.1407136e-10  -5.2130566e-02   4.6985937e+00   8.1326510e-02  -2.3639616e+08
   2.1507169e-10  -5.1894633e-02   4.6866926e+00   8.2623577e-02  -2.3532790e+08
   2.1607202e-10  -5.1659767e-02   4.6747888e+00   8.3933773e-02  -2.3426355e+08
   2.1707236e-10  -5.1425963e-02   4.6628829e+00   8.5257106e-02  -2.3320309e+08
   2.1807269e-10  -5.1193218e-02   4.6509756e+00   8.6593577e-02  -2.3214654e+08
   2.1907302e-10  -5.0961528e-02   4.6390676e+00   8.7943189e-02  -2.3109392e+08
   2.2007336e-10  -5.0730889e-02   4.6271596e+00   8.9305943e-02  -2.3004521e+08
   2.2107369e-10  -5.0501297e-02   4.6152521e+00   9.0681836e-02  -2.2900044e+08
   2.2207402e-10  -5.0272748e-02   4.6033459e+00   9.2070866e-02  -2.2795961e+08
   2.2307436e-10  -5.0045238e-02   4.5914415e+00   9.3473027e-02  -2.2692271e+08
   2.2407469e-10  -4.9818763e-02   4.5795397e+00   9.4888312e-02  -2.2588977e+08
   2.2507503e-10  -4.9593319e-02   4.5676410e+00   9.6316712e-02  -2.2486078e+08
   2.2607536e-10  -4.9368903e-02   4.5557462e+00   9.7758218e-02  -2.2383574e+08
   2.2707569e-10  -4.9145510e-02   4.5438557e+00   9.9212818e-02  -2.2281467e+08
   2.2807603e-10  -4.8923137e-02   4.5319702e+00   1.0068050e-01  -2.2179756e+08
   2.2907636e-10  -4.8701778e-02   4.5200904e+00   1.0216124e-01  -2.2078441e+08
   2.3007669e-10  -4.8481431e-02   4.5082169e+00   1.0365503e-01  -2.1977525e+08
   2.3107703e-10  -4.8262092e-02   4.4963501e+00   1.0516185e-01  -2.1877005e+08
   2.3207736e-10  -4.8043756e-02   4.4844908e+00   1.0668167e-01  -2.1776883e+08
   2.3307769e-10  -4.7826420e-02   4.4726396e+00   1.0821449e-01  -2.1677159e+08
   2.3407803e-10  -4.7610079e-02   4.4607969e+00   1.0976026e-01  -2.1577833e+08
   2.3507836e-10  -4.7394729e-02   4.4489635e+00   1.1131897e-01  -2.1478905e+08
   2.3607869e-10  -4.7180367e-02   4.4371397e+00   1.1289059e-01  -2.1380376e+08
   2.3707903e-10  -4.6966989e-02   4.4253263e+00   1.1447509e-01  -2.1282244e+08
   2.3807936e-10  -4.6754590e-02   4.4135238e+00   1.1607244e-01  -2.1184512e+08
   2.3907969e-10  -4.6543167e-02   4.4017327e+00   1.1768260e-01  -2.1087177e+08
   2.4008003e-10  -4.6332716e-02   4.3899535e+00   1.1930556e-01  -2.0990241e+08
   2.4108036e-10  -4.6123232e-02   4.3781869e+00   1.2094126e-01  -2.0893703e+08
   2.4208069e-10  -4.5914711e-02   4.3664332e+00   1.2258967e-01  -2.0797564e+08
   2.4308103e-10  -4.5707151e-02   4.3546932e+00   1.2425077e-01  -2.0701822e+08
   2.4408136e-10  -4.5500546e-02   4.3429672e+00   1.2592449e-01  -2.0606478e+08
   2.4508169e-10  -4.5294892e-02   4.3312558e+00   1.2761082e-01  -2.0511532e+08
   2.4608203e-10  -4.5090187e-02   4.3195595e+00   1.2930969e-01  -2.0416984e+08
   2.4708236e-10  -4.4886425e-02   4.3078788e+00   1.3102107e-01  -2.0322833e+08
   2.4808269e-10  -4.4683603e-02   4.2962142e+00   1.3274492e-01  -2.0229079e+08
   2.4908303e-10  -4.4481717e-02   4.2845661e+00   1.3448118e-01  -2.0135721e+08
   2.5008336e-10  -4.4280762e-02   4.2729351e+00   1.3622981e-01  -2.0042760e+08
   2.5108369e-10  -4.4080736e-02   4.2613216e+00   1.3799076e-01  -1.9950195e+08
   2.5208403e-10  -4.3881633e-02   4.2497260e+00   1.3976397e-01  -1.9858026e+08
   2.5308436e-10  -4.3683450e-02   4.2381490e+00   1.4154940e-01  -1.9766251e+08
   2.5408469e-10  -4.3486184e-02   4.2265908e+00   1.4334699e-01  -1.9674872e+08
   2.5508503e-10  -4.3289829e-02   4.2150519e+00   1.4515669e-01  -1.9583887e+08
   2.5608536e-10  -4.3094383e-02   4.2035328e+00   1.4697843e-01  -1.9493295e+08
   2.5708570e-10  -4.2899840e-02   4.1920339e+00   1.4881217e-01  -1.9403097e+08
   2.5808603e-10  -4.2706198e-02   4.1805557e+00   1.5065784e-01  -1.9313292e+08
   2.5908636e-10  -4.2513453e-02   4.1690984e+00   1.5251539e-01  -1.9223878e+08
   2.6008670e-10  -4.2321600e-02   4.1576627e+00   1.5438474e-01  -1.9134857e+08
   2.6108703e-10  -4.2130635e-02   4.1462487e+00   1.5626585e-01  -1.9046226e+08
   2.6208736e-10  -4.1940555e-02   4.1348571e+00   1.5815864e-01  -1.8957985e+08
   2.6308770e-10  -4.1751355e-02   4.1234881e+00   1.6006305e-01  -1.8870134e+08
   2.6408803e-10  -4.1563032e-02   4.1121421e+00   1.6197902e-01  -1.8782672e+08
   2.6508836e-10  -4.1375583e-02   4.1008195e+00   1.6390648e-01  -1.8695598e+08
   2.6608870e-10  -4.1189002e-02   4.0895207e+00   1.6584535e-01  -1.8608912e+08
   2.6708903e-10  -4.1003286e-02   4.0782460e+00   1.6779558e-01  -1.8522612e+08
   2.6808936e-10  -4.0818432e-02   4.0669958e+00   1.6975709e-01  -1.8436699e+08
   2.6908970e-10  -4.0634435e-02   4.0557705e+00   1.7172980e-01  -1.8351170e+08
   2.7009003e-10  -4.0451292e-02   4.0445704e+00   1.7371366e-01  -1.8266026e+08
   2.7109036e-10  -4.0268999e-02   4.0333958e+00   1.7570857e-01  -1.8181265e+08
   2.7209070e-10  -4.0087551e-02   4.0222470e+00   1.7771448e-01  -1.8096887e+08
   2.7309103e-10  -3.9906946e-02   4.0111244e+00   1.7973130e-01  -1.8012891e+08
   2.7409136e-10  -3.9727179e-02   4.0000284e+00   1.8175896e-01  -1.7929275e+08
   2.7509170e-10  -3.9548246e-02   3.9889591e+00   1.8379737e-01  -1.7846039e+08
   2.7609203e-10  -3.9370144e-02   3.9779169e+00   1.8584648e-01  -1.7763183e+08
   2.7709236e-10  -3.9192869e-02   3.9669022e+00   1.8790618e-01  -1.7680704e+08
   2.7809270e-10  -3.9016417e-02   3.9559152e+00   1.8997641e-01  -1.7598603e+08
   2.7909303e-10  -3.8840784e-02   3.9449562e+00   1.9205709e-01  -1.7516877e+08
   2.8009336e-10  -3.8665967e-02   3.9340254e+00   1.9414812e-01  -1.7435527e+08
   2.8109370e-10  -3.8491962e-02   3.9231232e+00   1.9624944e-01  -1.7354550e+08
   2.8209403e-10  -3.8318765e-02   3.9122498e+00   1.9836096e-01  -1.7273947e+08
   2.8309436e-10  -3.8146373e-02   3.9014054e+00   2.0048259e-01  -1.7193716e+08
   2.8409470e-10  -3.7974781e-02   3.8905904e+00   2.0261425e-01  -1.7113855e+08
   2.8509503e-10  -3.7803986e-02   3.8798050e+00   2.0475585e-01  -1.7034365e+08
   2.8609537e-10  -3.7633984e-02   3.8690494e+00   2.0690732e-01  -1.6955243e+08
   2.8709570e-10  -3.7464772e-02   3.8583239e+00   2.0906856e-01  -1.6876489e+08
   2.8809603e-10  -3.7296346e-02   3.8476287e+00   2.1123949e-01  -1.6798101e+08
   2.8909637e-10  -3.7128702e-02   3.8369639e+00   2.1342001e-01  -1.6720079e+08
   2.9009670e-10  -3.6961837e-02   3.8263300e+00   2.1561005e-01  -1.6642421e+08
   2.9109703e-10  -3.6795747e-02   3.8157269e+00   2.1780951e-01  -1.6565126e+08
   2.9209737e-10  -3.6630428e-02   3.8051551e+00   2.2001830e-01  -1.6488192e+08
   2.9309770e-10  -3.6465877e-02   3.7946146e+00   2.2223633e-01  -1.6411620e+08
   2.9409803e-10  -3.6302090e-02   3.7841056e+00   2.2446352e-01  -1.6335407e+08
   2.9509837e-10  -3.6139064e-02   3.7736284e+00   2.2669977e-01  -1.6259553e+08
   2.9609870e-10  -3.5976794e-02   3.7631832e+00   2.2894499e-01  -1.6184055e+08
   2.9709903e-10  -3.5815278e-02   3.7527701e+00   2.3119909e-01  -1.6108914e+08
   2.9809937e-10  -3.5654512e-02   3.7423892e+00   2.3346198e-01  -1.6034127e+08
   2.9909970e-10  -3.5494492e-02   3.7320409e+00   2.3573357e-01  -1.5959693e+08
   3.0010003e-10  -3.5335215e-02   3.7217251e+00   2.3801375e-01  -1.5885612e+08
   3.0110037e-10  -3.5176677e-02   3.7114422e+00   2.4030245e-01  -1.5811882e+08
   3.0210070e-10  -3.5018875e-02   3.7011922e+00   2.4259955e-01  -1.5738501e+08
   3.0310103e-10  -3.4861805e-02   3.6909753e+00   2.4490498e-01  -1.5665469e+08
   3.0410137e-10  -3.4705464e-02   3.6807917e+00   2.4721864e-01  -1.5592783e+08
   3.0510170e-10  -3.4549849e-02   3.6706414e+00   2.4954043e-01  -1.5520444e+08
   3.0610203e-10  -3.4394955e-02   3.6605247e+00   2.5187025e-01  -1.5448449e+08
   3.0710237e-10  -3.4240780e-02   3.6504416e+00   2.5420802e-01  -1.5376797e+08
   3.0810270e-10  -3.4087319e-02   3.6403922e+00   2.5655363e-01  -1.5305487e+08
   3.0910303e-10  -3.3934571e-02   3.6303768e+00   2.5890700e-01  -1.5234518e+08
   3.1010337e-10  -3.3782530e-02   3.6203954e+00   2.6126801e-01  -1.5163887e+08
   3.1110370e-10  -3.3631194e-02   3.6104481e+00   2.6363659e-01  -1.5093595e+08
   3.1210403e-10  -3.3480560e-02   3.6005350e+00   2.6601263e-01  -1.5023639e+08
   3.1310437e-10  -3.3330624e-02   3.5906563e+00   2.6839603e-01  -1.4954019e+08
   3.1410470e-10  -3.3181383e-02   3.5808120e+00   2.7078671e-01  -1.4884732e+08
   3.1510504e-10  -3.3032833e-02   3.5710022e+00   2.7318456e-01  -1.4815778e+08
   3.1610537e-10  -3.2884971e-02   3.5612270e+00   2.7558948e-01  -1.4747155e+08
   3.1710570e-10  -3.2737793e-02   3.5514865e+00   2.7800138e-01  -1.4678862e+08
   3.1810604e-10  -3.2591298e-02   3.5417808e+00   2.8042016e-01  -1.4610897e+08
   3.1910637e-10  -3.2445480e-02   3.5321100e+00   2.8284573e-01  -1.4543259e+08
   3.2010670e-10  -3.2300338e-02   3.5224740e+00   2.8527798e-01  -1.4475948e+08
   3.2110704e-10  -3.2155867e-02   3.5128731e+00   2.8771682e-01  -1.4408960e+08
   3.2210737e-10  -3.2012065e-02   3.5033072e+00   2.9016216e-01  -1.4342295e+08
   3.2310770e-10  -3.1868928e-02   3.4937765e+00   2.9261389e-01  -1.4275952e+08
   3.2410804e-10  -3.1726453e-02   3.4842809e+00   2.9507192e-01  -1.4209929e+08
   3.2510837e-10  -3.1584636e-02   3.4748206e+00   2.9753615e-01  -1.4144225e+08
   3.2610870e-10  -3.1443476e-02   3.4653955e+00   3.0000648e-01  -1.4078839e+08
   3.2710904e-10  -3.1302968e-02   3.4560058e+00   3.0248282e-01  -1.4013768e+08
   3.2810937e-10  -3.1163109e-02   3.4466514e+00   3.0496507e-01  -1.3949012e+08
   3.2910970e-10  -3.1023896e-02   3.4373324e+00   3.0745313e-01  -1.3884570e+08
   3.3011004e-10  -3.0885327e-02   3.4280489e+00   3.0994691e-01  -1.3820439e+08
   3.3111037e-10  -3.0747397e-02   3.4188008e+00   3.1244630e-01  -1.3756619e+08
   3.3211070e-10  -3.0610104e-02   3.4095883e+00   3.1495122e-01  -1.3693108e+08
   3.3311104e-10  -3.0473445e-02   3.4004112e+00   3.1746156e-01  -1.3629904e+08
   3.3411137e-10  -3.0337417e-02   3.3912698e+00   3.1997723e-01  -1.3567007e+08
   3.3511170e-10  -3.0202016e-02   3.3821638e+00   3.2249813e-01  -1.3504415e+08
   3.3611204e-10  -3.0067240e-02   3.3730935e+00   3.2502416e-01  -1.3442126e+08
   3.3711237e-10  -2.9933086e-02   3.3640587e+00   3.2755523e-01  -1.3380140e+08
   3.3811270e-10  -2.9799550e-02   3.3550595e+00   3.3009125e-01  -1.3318454e+08
   3.3911304e-10  -2.9666629e-02   3.3460960e+00   3.3263212e-01  -1.3257068e+08
   3.4011337e-10  -2.9534321e-02   3.3371680e+00   3.3517773e-01  -1.3195980e+08
   3.4111370e-10  -2.9402623e-02   3.3282756e+00   3.3772801e-01  -1.3135188e+08
   3.4211404e-10  -2.9271531e-02   3.3194189e+00   3.4028284e-01  -1.3074691e+08
   3.4311437e-10  -2.9141043e-02   3.3105977e+00   3.4284214e-01  -1.3014489e+08
   3.4411470e-10  -2.9011156e-02   3.3018121e+00   3.4540582e-01  -1.2954579e+08
   3.4511504e-10  -2.8881867e-02   3.2930621e+00   3.4797377e-01  -1.2894959e+08
   3.4611537e-10  -2.8753172e-02   3.2843477e+00   3.5054590e-01  -1.2835630e+08
   3.4711571e-10  -2.8625070e-02   3.2756688e+00   3.5312213e-01  -1.2776589e+08
   3.4811604e-10  -2.8497556e-02   3.2670254e+00   3.5570235e-01  -1.2717834e+08
   3.4911637e-10  -2.8370629e-02   3.2584175e+00   3.5828647e-01  -1.2659366e+08
   3.5011671e-10  -2.8244286e-02   3.2498451e+00   3.6087441e-01  -1.2601181e+08
   3.5111704e-10  -2.8118523e-02   3.2413081e+00   3.6346606e-01  -1.2543279e+08
   3.5211737e-10  -2.7993338e-02   3.2328066e+00   3.6606133e-01  -1.2485659e+08
   3.5311771e-10  -2.7868727e-02   3.2243404e+00   3.6866014e-01  -1.2428319e+08
   3.5411804e-10  -2.7744689e-02   3.2159096e+00   3.7126239e-01  -1.2371257e+08
   3.5511837e-10  -2.7621221e-02   3.2075141e+00   3.7386799e-01  -1.2314473e+08
   3.5611871e-10  -2.7498319e-02   3.1991539e+00   3.7647684e-01  -1.2257965e+08
   3.5711904e-10  -2.7375981e-02   3.1908289e+00   3.7908887e-01  -1.2201731e+08
   3.5811937e-10  -2.7254204e-02   3.1825391e+00   3.8170397e-01  -1.2145771e+08
   3.5911971e-10  -2.7132985e-02   3.1742844e+00   3.8432206e-01  -1.2090082e+08
   3.6012004e-10  -2.7012322e-02   3.1660649e+00   3.8694304e-01  -1.2034665e+08
   3.6112037e-10  -2.6892213e-02   3.1578804e+00   3.8956684e-01  -1.1979516e+08
   3.6212071e-10  -2.6772653e-02   3.1497309e+00   3.9219336e-01  -1.1924635e+08
   3.6312104e-10  -2.6653641e-02   3.1416163e+00   3.9482250e-01  -1.1870021e+08
   3.6412137e-10  -2.6535174e-02   3.1335367e+00   3.9745419e-01  -1.1815673e+08
   3.6512171e-10  -2.6417250e-02   3.1254919e+00   4.0008834e-01  -1.1761588e+08
   3.6612204e-10  -2.6299865e-02   3.1174818e+00   4.0272485e-01  -1.1707766e+08
   3.6712237e-10  -2.6183017e-02   3.1095064e+00   4.0536365e-01  -1.1654205e+08
   3.6812271e-10  -2.6066704e-02   3.1015658e+00   4.0800464e-01  -1.1600904e+08
   3.6912304e-10  -2.5950922e-02   3.0936596e+00   4.1064774e-01  -1.1547862e+08
   3.7012337e-10  -2.5835670e-02   3.0857881e+00   4.1329287e-01  -1.1495077e+08
   3.7112371e-10  -2.5720945e-02   3.0779509e+00   4.1593993e-01  -1.1442548e+08
   3.7212404e-10  -2.5606744e-02   3.0701482e+00   4.1858885e-01  -1.1390274e+08
   3.7312437e-10  -2.5493064e-02   3.0623797e+00   4.2123954e-01  -1.1338254e+08
   3.7412471e-10  -2.5379904e-02   3.0546456e+00   4.2389191e-01  -1.1286486e+08
   3.7512504e-10  -2.5267260e-02   3.0469455e+00   4.2654589e-01  -1.1234968e+08
   3.7612538e-10  -2.5155130e-02   3.0392796e+00   4.2920139e-01  -1.1183700e+08
   3.7712571e-10  -2.5043512e-02   3.0316477e+00   4.3185832e-01  -1.1132681e+08
   3.7812604e-10  -2.4932402e-02   3.0240497e+00   4.3451662e-01  -1.1081909e+08
   3.7912638e-10  -2.4821800e-02   3.0164856e+00   4.3717618e-01  -1.1031382e+08
   3.8012671e-10  -2.4711702e-02   3.0089553e+00   4.3983695e-01  -1.0981101e+08
   3.8112704e-10  -2.4602105e-02   3.0014587e+00   4.4249882e-01  -1.0931062e+08
   3.8212738e-10  -2.4493008e-02   2.9939957e+00   4.4516173e-01  -1.0881266e+08
   3.8312771e-10  -2.4384408e-02   2.9865662e+00   4.4782559e-01  -1.0831710e+08
   3.8412804e-10  -2.4276302e-02   2.9791702e+00   4.5049033e-01  -1.0782394e+08
   3.8512838e-10  -2.4168688e-02   2.9718075e+00   4.5315586e-01  -1.0733317e+08
   3.8612871e-10  -2.4061565e-02   2.9644781e+00   4.5582212e-01  -1.0684476e+08
   3.8712904e-10  -2.3954928e-02   2.9571819e+00   4.5848901e-01  -1.0635871e+08
   3.8812938e-10  -2.3848777e-02   2.9499188e+00   4.6115647e-01  -1.0587502e+08
   3.8912971e-10  -2.3743108e-02   2.9426887e+00   4.6382442e-01  -1.0539365e+08
   3.9013004e-10  -2.3637919e-02   2.9354915e+00   4.6649278e-01  -1.0491461e+08
   3.9113038e-10  -2.3533209e-02   2.9283271e+00   4.6916148e-01  -1.0443788e+08
   3.9213071e-10  -2.3428974e-02   2.9211955e+00   4.7183044e-01  -1.0396345e+08
   3.9313104e-10  -2.3325213e-02   2.9140965e+00   4.7449959e-01  -1.0349130e+08
   3.9413138e-10  -2.3221923e-02   2.9070300e+00   4.7716885e-01  -1.0302143e+08
   3.9513171e-10  -2.3119102e-02   2.8999960e+00   4.7983815e-01  -1.0255382e+08
   3.9613204e-10  -2.3016747e-02   2.8929943e+00   4.8250742e-01  -1.0208847e+08
   3.9713238e-10  -2.2914857e-02   2.8860249e+00   4.8517658e-01  -1.0162535e+08
   3.9813271e-10  -2.2813429e-02   2.8790876e+00   4.8784557e-01  -1.0116446e+08
   3.9913304e-10  -2.2712461e-02   2.8721823e+00   4.9051431e-01  -1.0070579e+08
   4.0013338e-10  -2.2611951e-02   2.8653091e+00   4.9318273e-01  -1.0024932e+08
   4.0113371e-10  -2.2511896e-02   2.8584676e+00   4.9585076e-01  -9.9795051e+07
   4.0213404e-10  -2.2412294e-02   2.8516579e+00   4.9851834e-01  -9.9342959e+07
   4.0313438e-10  -2.2313144e-02   2.8448799e+00   5.0118539e-01  -9.8893037e+07
   4.0413471e-10  -2.2214442e-02   2.8381333e+00   5.0385184e-01  -9.8445275e+07
   4.0513505e-10  -2.2116188e-02   2.8314183e+00   5.0651763e-01  -9.7999661e+07
   4.0613538e-10  -2.2018378e-02   2.8247345e+00   5.0918269e-01  -9.7556184e+07
   4.0713571e-10  -2.1921010e-02   2.8180820e+00   5.1184695e-01  -9.7114832e+07
   4.0813605e-10  -2.1824084e-02   2.8114606e+00   5.1451034e-01  -9.6675595e+07
   4.0913638e-10  -2.1727595e-02   2.8048703e+00   5.1717281e-01  -9.6238461e+07
   4.1013671e-10  -2.1631543e-02   2.7983108e+00   5.1983428e-01  -9.5803419e+07
   4.1113705e-10  -2.1535924e-02   2.7917822e+00   5.2249469e-01  -9.5370459e+07
   4.1213738e-10  -2.1440738e-02   2.7852842e+00   5.2515397e-01  -9.4939570e+07
   4.1313771e-10  -2.1345982e-02   2.7788169e+00   5.2781207e-01  -9.4510740e+07
   4.1413805e-10  -2.1251654e-02   2.7723800e+00   5.3046891e-01  -9.4083959e+07
   4.1513838e-10  -2.1157751e-02   2.7659735e+00   5.3312444e-01  -9.3659217e+07
   4.1613871e-10  -2.1064273e-02   2.7595972e+00   5.3577860e-01  -9.3236502e+07
   4.1713905e-10  -2.0971216e-02   2.7532512e+00   5.3843131e-01  -9.2815805e+07
   4.1813938e-10  -2.0878579e-02   2.7469351e+00   5.4108253e-01  -9.2397113e+07
   4.1913971e-10  -2.0786361e-02   2.7406490e+00   5.4373219e-01  -9.1980418e+07
   4.2014005e-10  -2.0694557e-02   2.7343928e+00   5.4638022e-01  -9.1565708e+07
   4.2114038e-10  -2.0603168e-02   2.7281662e+00   5.4902658e-01  -9.1152973e+07
   4.2214071e-10  -2.0512191e-02   2.7219693e+00   5.5167120e-01  -9.0742203e+07
   4.2314105e-10  -2.0421623e-02   2.7158018e+00   5.5431403e-01  -9.0333388e+07
   4.2414138e-10  -2.0331464e-02   2.7096637e+00   5.5695500e-01  -8.9926517e+07
   4.2514171e-10  -2.0241710e-02   2.7035549e+00   5.5959406e-01  -8.9521580e+07
   4.2614205e-10  -2.0152361e-02   2.6974753e+00   5.6223115e-01  -8.9118567e+07
   4.2714238e-10  -2.0063414e-02   2.6914247e+00   5.6486622e-01  -8.8717468e+07
   4.2814271e-10  -1.9974867e-02   2.6854030e+00   5.6749921e-01  -8.8318273e+07
   4.2914305e-10  -1.9886718e-02   2.6794102e+00   5.7013007e-01  -8.7920972e+07
   4.3014338e-10  -1.9798966e-02   2.6734461e+00   5.7275873e-01  -8.7525555e+07
   4.3114371e-10  -1.9711609e-02   2.6675105e+00   5.7538515e-01  -8.7132012e+07
   4.3214405e-10  -1.9624644e-02   2.6616035e+00   5.7800928e-01  -8.6740333e+07
   4.3314438e-10  -1.9538070e-02   2.6557248e+00   5.8063105e-01  -8.6350510e+07
   4.3414471e-10  -1.9451885e-02   2.6498744e+00   5.8325043e-01  -8.5962531e+07
   4.3514505e-10  -1.9366088e-02   2.6440521e+00   5.8586735e-01  -8.5576388e+07
   4.3614538e-10  -1.9280675e-02   2.6382579e+00   5.8848176e-01  -8.5192071e+07
   4.3714572e-10  -1.9195647e-02   2.6324916e+00   5.9109361e-01  -8.4809570e+07
   4.3814605e-10  -1.9111000e-02   2.6267530e+00   5.9370286e-01  -8.4428876e+07
   4.3914638e-10  -1.9026733e-02   2.6210422e+00   5.9630945e-01  -8.4049979e+07
   4.4014672e-10  -1.8942844e-02   2.6153590e+00   5.9891334e-01  -8.3672870e+07
   4.4114705e-10  -1.8859331e-02   2.6097032e+00   6.0151447e-01  -8.3297541e+07
   4.4214738e-10  -1.8776193e-02   2.6040747e+00   6.0411279e-01  -8.2923980e+07
   4.4314772e-10  -1.8693428e-02   2.5984736e+00   6.0670827e-01  -8.2552180e+07
   4.4414805e-10  -1.8611033e-02   2.5928995e+00   6.0930084e-01  -8.2182131e+07
   4.4514838e-10  -1.8529009e-02   2.5873524e+00   6.1189047e-01  -8.1813824e+07
   4.4614872e-10  -1.8447351e-02   2.5818323e+00   6.1447711e-01  -8.1447250e+07
   4.4714905e-10  -1.8366060e-02   2.5763389e+00   6.1706071e-01  -8.1082400e+07
   4.4814938e-10  -1.8285132e-02   2.5708722e+00   6.1964123e-01  -8.0719265e+07
   4.4914972e-10  -1.8204567e-02   2.5654320e+00   6.2221862e-01  -8.0357836e+07
   4.5015005e-10  -1.8124363e-02   2.5600183e+00   6.2479284e-01  -7.9998104e+07
   4.5115038e-10  -1.8044517e-02   2.5546309e+00   6.2736384e-01  -7.9640061e+07
   4.5215072e-10  -1.7965029e-02   2.5492697e+00   6.2993159e-01  -7.9283698e+07
   4.5315105e-10  -1.7885897e-02   2.5439347e+00   6.3249603e-01  -7.8929005e+07
   4.5415138e-10  -1.7807119e-02   2.5386256e+00   6.3505713e-01  -7.8575975e+07
   4.5515172e-10  -1.7728693e-02   2.5333424e+00   6.3761484e-01  -7.8224598e+07
   4.5615205e-10  -1.7650617e-02   2.5280850e+00   6.4016912e-01  -7.7874867e+07
   4.5715238e-10  -1.7572891e-02   2.5228532e+00   6.4271994e-01  -7.7526773e+07
   4.5815272e-10  -1.7495512e-02   2.5176470e+00   6.4526725e-01  -7.7180307e+07
   4.5915305e-10  -1.7418479e-02   2.5124662e+00   6.4781101e-01  -7.6835460e+07
   4.6015338e-10  -1.7341790e-02   2.5073107e+00   6.5035119e-01  -7.6492225e+07
   4.6115372e-10  -1.7265443e-02   2.5021804e+00   6.5288773e-01  -7.6150594e+07
   4.6215405e-10  -1.7189437e-02   2.4970752e+00   6.5542062e-01  -7.5810557e+07
   4.6315438e-10  -1.7113771e-02   2.4919950e+00   6.5794979e-01  -7.5472107e+07
   4.6415472e-10  -1.7038443e-02   2.4869396e+00   6.6047523e-01  -7.5135235e+07
   4.6515505e-10  -1.6963450e-02   2.4819090e+00   6.6299690e-01  -7.4799934e+07
   4.6615539e-10  -1.6888793e-02   2.4769031e+00   6.6551474e-01  -7.4466196e+07
   4.6715572e-10  -1.6814468e-02   2.4719217e+00   6.6802874e-01  -7.4134011e+07
   4.6815605e-10  -1.6740475e-02   2.4669647e+00   6.7053886e-01  -7.3803373e+07
   4.6915639e-10  -1.6666812e-02   2.4620320e+00   6.7304505e-01  -7.3474274e+07
   4.7015672e-10  -1.6593477e-02   2.4571236e+00   6.7554728e-01  -7.3146705e+07
   4.7115705e-10  -1.6520470e-02   2.4522392e+00   6.7804553e-01  -7.2820658e+07
   4.7215739e-10  -1.6447787e-02   2.4473788e+00   6.8053976e-01  -7.2496127e+07
   4.7315772e-10  -1.6375429e-02   2.4425423e+00   6.8302992e-01  -7.2173103e+07
   4.7415805e-10  -1.6303393e-02   2.4377296e+00   6.8551600e-01  -7.1851578e+07
   4.7515839e-10  -1.6231678e-02   2.4329405e+00   6.8799796e-01  -7.1531545e+07
   4.7615872e-10  -1.6160282e-02   2.4281750e+00   6.9047576e-01  -7.1212996e+07
   4.7715905e-10  -1.6089204e-02   2.4234329e+00   6.9294937e-01  -7.0895924e+07
   4.7815939e-10  -1.6018443e-02   2.4187141e+00   6.9541877e-01  -7.0580320e+07
   4.7915972e-10  -1.5947996e-02   2.4140186e+00   6.9788392e-01  -7.0266179e+07
   4.8016005e-10  -1.5877863e-02   2.4093461e+00   7.0034479e-01  -6.9953491e+07
   4.8116039e-10  -1.5808042e-02   2.4046967e+00   7.0280136e-01  -6.9642251e+07
   4.8216072e-10  -1.5738532e-02   2.4000702e+00   7.0525359e-01  -6.9332450e+07
   4.8316105e-10  -1.5669331e-02   2.3954665e+00   7.0770145e-01  -6.9024080e+07
   4.8416139e-10  -1.5600438e-02   2.3908854e+00   7.1014492e-01  -6.8717136e+07
   4.8516172e-10  -1.5531851e-02   2.3863270e+00   7.1258396e-01  -6.8411609e+07
   4.8616205e-10  -1.5463569e-02   2.3817910e+00   7.1501856e-01  -6.8107493e+07
   4.8716239e-10  -1.5395590e-02   2.3772774e+00   7.1744867e-01  -6.7804780e+07
   4.8816272e-10  -1.5327914e-02   2.3727861e+00   7.1987429e-01  -6.7503463e+07
   4.8916305e-10  -1.5260538e-02   2.3683169e+00   7.2229537e-01  -6.7203536e+07
   4.9016339e-10  -1.5193462e-02   2.3638697e+00   7.2471189e-01  -6.6904990e+07
   4.9116372e-10  -1.5126683e-02   2.3594446e+00   7.2712383e-01  -6.6607820e+07
   4.9216405e-10  -1.5060201e-02   2.3550412e+00   7.2953116e-01  -6.6312018e+07
   4.9316439e-10  -1.4994015e-02   2.3506596e+00   7.3193386e-01  -6.6017577e+07
   4.9416472e-10  -1.4928122e-02   2.3462997e+00   7.3433190e-01  -6.5724490e+07
   4.9516506e-10  -1.4862522e-02   2.3419613e+00   7.3672526e-01  -6.5432751e+07
   4.9616539e-10  -1.4797213e-02   2.3376443e+00   7.3911391e-01  -6.5142353e+07
   4.9716572e-10  -1.4732193e-02   2.3333486e+00   7.4149784e-01  -6.4853290e+07
   4.9816606e-10  -1.4667462e-02   2.3290742e+00   7.4387701e-01  -6.4565553e+07
   4.9916639e-10  -1.4603019e-02   2.3248209e+00   7.4625141e-01  -6.4279137e+07
   5.0016672e-10  -1.4538861e-02   2.3205886e+00   7.4862101e-01  -6.3994036e+07
   5.0116706e-10  -1.4474988e-02   2.3163772e+00   7.5098579e-01  -6.3710242e+07
   5.0216739e-10  -1.4411398e-02   2.3121867e+00   7.5334573e-01  -6.3427749e+07
   5.0316772e-10  -1.4348090e-02   2.3080169e+00   7.5570082e-01  -6.3146551e+07
   5.0416806e-10  -1.4285062e-02   2.3038677e+00   7.5805102e-01  -6.2866640e+07
   5.0516839e-10  -1.4222314e-02   2.2997390e+00   7.6039632e-01  -6.2588012e+07
   5.0616872e-10  -1.4159844e-02   2.2956308e+00   7.6273669e-01  -6.2310658e+07
   5.0716906e-10  -1.4097651e-02   2.2915429e+00   7.6507213e-01  -6.2034574e+07
   5.0816939e-10  -1.4035734e-02   2.2874752e+00   7.6740260e-01  -6.1759751e+07
   5.0916972e-10  -1.3974090e-02   2.2834276e+00   7.6972810e-01  -6.1486186e+07
   5.1017006e-10  -1.3912720e-02   2.2794000e+00   7.7204860e-01  -6.1213870e+07
   5.1117039e-10  -1.3851622e-02   2.2753924e+00   7.7436408e-01  -6.0942798e+07
   5.1217072e-10  -1.3790794e-02   2.2714046e+00   7.7667453e-01  -6.0672964e+07
   5.1317106e-10  -1.3730235e-02   2.2674366e+00   7.7897992e-01  -6.0404361e+07
   5.1417139e-10  -1.3669944e-02   2.2634882e+00   7.8128025e-01  -6.0136983e+07
   5.1517172e-10  -1.3609921e-02   2.2595593e+00   7.8357549e-01  -5.9870825e+07
   5.1617206e-10  -1.3550163e-02   2.2556499e+00   7.8586563e-01  -5.9605881e+07
   5.1717239e-10  -1.3490669e-02   2.2517598e+00   7.8815065e-01  -5.9342143e+07
   5.1817272e-10  -1.3431439e-02   2.2478890e+00   7.9043053e-01  -5.9079607e+07
   5.1917306e-10  -1.3372470e-02   2.2440374e+00   7.9270527e-01  -5.8818266e+07
   5.2017339e-10  -1.3313763e-02   2.2402048e+00   7.9497484e-01  -5.8558115e+07
   5.2117372e-10  -1.3255315e-02   2.2363912e+00   7.9723924e-01  -5.8299147e+07
   5.2217406e-10  -1.3197125e-02   2.2325964e+00   7.9949844e-01  -5.8041358e+07
   5.2317439e-10  -1.3139193e-02   2.2288205e+00   8.0175243e-01  -5.7784740e+07
   5.2417472e-10  -1.3081517e-02   2.2250633e+00   8.0400120e-01  -5.7529288e+07
   5.2517506e-10  -1.3024096e-02   2.2213246e+00   8.0624473e-01  -5.7274997e+07
   5.2617539e-10  -1.2966928e-02   2.2176045e+00   8.0848302e-01  -5.7021861e+07
   5.2717573e-10  -1.2910014e-02   2.2139027e+00   8.1071604e-01  -5.6769874e+07
   5.2817606e-10  -1.2853351e-02   2.2102193e+00   8.1294379e-01  -5.6519031e+07
   5.2917639e-10  -1.2796938e-02   2.2065542e+00   8.1516625e-01  -5.6269325e+07
   5.3017673e-10  -1.2740774e-02   2.2029072e+00   8.1738341e-01  -5.6020752e+07
   5.3117706e-10  -1.2684859e-02   2.1992782e+00   8.1959527e-01  -5.5773306e+07
   5.3217739e-10  -1.2629190e-02   2.1956672e+00   8.2180180e-01  -5.5526981e+07
   5.3317773e-10  -1.2573768e-02   2.1920741e+00   8.2400299e-01  -5.5281772e+07
   5.3417806e-10  -1.2518590e-02   2.1884987e+00   8.2619885e-01  -5.5037674e+07
   5.3517839e-10  -1.2463655e-02   2.1849411e+00   8.2838935e-01  -5.4794680e+07
   5.3617873e-10  -1.2408963e-02   2.1814011e+00   8.3057448e-01  -5.4552786e+07
   5.3717906e-10  -1.2354513e-02   2.1778785e+00   8.3275424e-01  -5.4311986e+07
   5.3817939e-10  -1.2300303e-02   2.1743735e+00   8.3492862e-01  -5.4072276e+07
   5.3917973e-10  -1.2246332e-02   2.1708857e+00   8.3709760e-01  -5.3833648e+07
   5.4018006e-10  -1.2192600e-02   2.1674152e+00   8.3926118e-01  -5.3596100e+07
   5.4118039e-10  -1.2139104e-02   2.1639619e+00   8.4141935e-01  -5.3359624e+07
   5.4218073e-10  -1.2085844e-02   2.1605257e+00   8.4357209e-01  -5.3124217e+07
   5.4318106e-10  -1.2032820e-02   2.1571065e+00   8.4571941e-01  -5.2889872e+07
   5.4418139e-10  -1.1980029e-02   2.1537042e+00   8.4786129e-01  -5.2656585e+07
   5.4518173e-10  -1.1927471e-02   2.1503187e+00   8.4999773e-01  -5.2424350e+07
   5.4618206e-10  -1.1875145e-02   2.1469500e+00   8.5212871e-01  -5.2193163e+07
   5.4718239e-10  -1.1823050e-02   2.1435979e+00   8.5425424e-01  -5.1963019e+07
   5.4818273e-10  -1.1771184e-02   2.1402624e+00   8.5637430e-01  -5.1733912e+07
   5.4918306e-10  -1.1719547e-02   2.1369434e+00   8.5848888e-01  -5.1505837e+07
   5.5018339e-10  -1.1668138e-02   2.1336408e+00   8.6059799e-01  -5.1278789e+07
   5.5118373e-10  -1.1616955e-02   2.1303545e+00   8.6270161e-01  -5.1052764e+07
   5.5218406e-10  -1.1565998e-02   2.1270845e+00   8.6479973e-01  -5.0827757e+07
   5.5318439e-10  -1.1515266e-02   2.1238307e+00   8.6689236e-01  -5.0603762e+07
   5.5418473e-10  -1.1464757e-02   2.1205929e+00   8.6897949e-01  -5.0380775e+07
   5.5518506e-10  -1.1414470e-02   2.1173711e+00   8.7106110e-01  -5.0158791e+07
   5.5618540e-10  -1.1364406e-02   2.1141653e+00   8.7313721e-01  -4.9937805e+07
   5.5718573e-10  -1.1314561e-02   2.1109753e+00   8.7520779e-01  -4.9717812e+07
   5.5818606e-10  -1.1264937e-02   2.1078010e+00   8.7727285e-01  -4.9498808e+07
   5.5918640e-10  -1.1215530e-02   2.1046424e+00   8.7933238e-01  -4.9280788e+07
   5.6018673e-10  -1.1166342e-02   2.1014994e+00   8.8138638e-01  -4.9063747e+07
   5.6118706e-10  -1.1117370e-02   2.0983720e+00   8.8343485e-01  -4.8847680e+07
   5.6218740e-10  -1.1068614e-02   2.0952600e+00   8.8547778e-01  -4.8632584e+07
   5.6318773e-10  -1.1020072e-02   2.0921633e+00   8.8751516e-01  -4.8418452e+07
   5.6418806e-10  -1.0971744e-02   2.0890819e+00   8.8954700e-01  -4.8205281e+07
   5.6518840e-10  -1.0923629e-02   2.0860158e+00   8.9157328e-01  -4.7993067e+07
   5.6618873e-10  -1.0875726e-02   2.0829648e+00   8.9359402e-01  -4.7781803e+07
   5.6718906e-10  -1.0828034e-02   2.0799288e+00   8.9560920e-01  -4.7571487e+07
   5.6818940e-10  -1.0780551e-02   2.0769078e+00   8.9761883e-01  -4.7362113e+07
   5.6918973e-10  -1.0733277e-02   2.0739017e+00   8.9962289e-01  -4.7153677e+07
   5.7019006e-10  -1.0686212e-02   2.0709104e+00   9.0162140e-01  -4.6946175e+07
   5.7119040e-10  -1.0639354e-02   2.0679339e+00   9.0361434e-01  -4.6739601e+07
   5.7219073e-10  -1.0592701e-02   2.0649721e+00   9.0560172e-01  -4.6533953e+07
   5.7319106e-10  -1.0546254e-02   2.0620248e+00   9.0758353e-01  -4.6329224e+07
   5.7419140e-10  -1.0500012e-02   2.0590921e+00   9.0955978e-01  -4.6125412e+07
   5.7519173e-10  -1.0453973e-02   2.0561739e+00   9.1153045e-01  -4.5922511e+07
   5.7619206e-10  -1.0408136e-02   2.0532700e+00   9.1349556e-01  -4.5720518e+07
   5.7719240e-10  -1.0362501e-02   2.0503804e+00   9.1545510e-01  -4.5519427e+07
   5.7819273e-10  -1.0317066e-02   2.0475051e+00   9.1740907e-01  -4.5319236e+07
   5.7919306e-10  -1.0271832e-02   2.0446439e+00   9.1935748e-01  -4.5119939e+07
   5.8019340e-10  -1.0226796e-02   2.0417968e+00   9.2130031e-01  -4.4921532e+07
   5.8119373e-10  -1.0181959e-02   2.0389637e+00   9.2323757e-01  -4.4724011e+07
   5.8219406e-10  -1.0137318e-02   2.0361446e+00   9.2516926e-01  -4.4527372e+07
   5.8319440e-10  -1.0092874e-02   2.0333393e+00   9.2709538e-01  -4.4331611e+07
   5.8419473e-10  -1.0048625e-02   2.0305479e+00   9.2901594e-01  -4.4136724e+07
   5.8519507e-10  -1.0004571e-02   2.0277701e+00   9.3093093e-01  -4.3942706e+07
   5.8619540e-10  -9.9607103e-03   2.0250061e+00   9.3284035e-01  -4.3749554e+07
   5.8719573e-10  -9.9170424e-03   2.0222556e+00   9.3474421e-01  -4.3557263e+07
   5.8819607e-10  -9.8735665e-03   2.0195187e+00   9.3664251e-01  -4.3365830e+07
   5.8919640e-10  -9.8302816e-03   2.0167952e+00   9.3853524e-01  -4.3175250e+07
   5.9019673e-10  -9.7871870e-03   2.0140851e+00   9.4042241e-01  -4.2985519e+07
   5.9119707e-10  -9.7442817e-03   2.0113883e+00   9.4230403e-01  -4.2796633e+07
   5.9219740e-10  -9.7015649e-03   2.0087048e+00   9.4418009e-01  -4.2608589e+07
   5.9319773e-10  -9.6590359e-03   2.0060344e+00   9.4605059e-01  -4.2421383e+07
   5.9419807e-10  -9.6166937e-03   2.0033772e+00   9.4791555e-01  -4.2235010e+07
   5.9519840e-10  -9.5745375e-03   2.0007330e+00   9.4977495e-01  -4.2049467e+07
   5.9619873e-10  -9.5325665e-03   1.9981018e+00   9.5162881e-01  -4.1864749e+07
   5.9719907e-10  -9.4907798e-03   1.9954835e+00   9.5347713e-01  -4.1680854e+07
   5.9819940e-10  -9.4491767e-03   1.9928780e+00   9.5531991e-01  -4.1497777e+07
   5.9919973e-10  -9.4077564e-03   1.9902854e+00   9.5715715e-01  -4.1315514e+07
   6.0020007e-10  -9.3665179e-03   1.9877054e+00   9.5898885e-01  -4.1134061e+07
   6.0120040e-10  -9.3254606e-03   1.9851382e+00   9.6081503e-01  -4.0953416e+07
   6.0220073e-10  -9.2845836e-03   1.9825835e+00   9.6263568e-01  -4.0773573e+07
   6.0320107e-10  -9.2438861e-03   1.9800413e+00   9.6445081e-01  -4.0594530e+07
   6.0420140e-10  -9.2033672e-03   1.9775116e+00   9.6626042e-01  -4.0416282e+07
   6.0520173e-10  -9.1630263e-03   1.9749942e+00   9.6806451e-01  -4.0238826e+07
   6.0620207e-10  -9.1228625e-03   1.9724892e+00   9.6986309e-01  -4.0062158e+07
   6.0720240e-10  -9.0828751e-03   1.9699965e+00   9.7165617e-01  -3.9886275e+07
   6.0820273e-10  -9.0430632e-03   1.9675160e+00   9.7344374e-01  -3.9711173e+07
   6.0920307e-10  -9.0034260e-03   1.9650476e+00   9.7522582e-01  -3.9536848e+07
   6.1020340e-10  -8.9639629e-03   1.9625914e+00   9.7700241e-01  -3.9363296e+07
   6.1120373e-10  -8.9246730e-03   1.9601471e+00   9.7877350e-01  -3.9190515e+07
   6.1220407e-10  -8.8855555e-03   1.9577148e+00   9.8053912e-01  -3.9018501e+07
   6.1320440e-10  -8.8466098e-03   1.9552944e+00   9.8229926e-01  -3.8847249e+07
   6.1420473e-10  -8.8078349e-03   1.9528858e+00   9.8405392e-01  -3.8676757e+07
   6.1520507e-10  -8.7692302e-03   1.9504890e+00   9.8580312e-01  -3.8507021e+07
   6.1620540e-10  -8.7307950e-03   1.9481039e+00   9.8754685e-01  -3.8338037e+07
   6.1720574e-10  -8.6925284e-03   1.9457305e+00   9.8928513e-01  -3.8169803e+07
   6.1820607e-10  -8.6544297e-03   1.9433687e+00   9.9101797e-01  -3.8002314e+07
   6.1920640e-10  -8.6164982e-03   1.9410184e+00   9.9274535e-01  -3.7835567e+07
   6.2020674e-10  -8.5787331e-03   1.9386796e+00   9.9446730e-01  -3.7669559e+07
   6.2120707e-10  -8.5411338e-03   1.9363522e+00   9.9618381e-01  -3.7504286e+07
   6.2220740e-10  -8.5036994e-03   1.9340362e+00   9.9789490e-01  -3.7339746e+07
   6.2320774e-10  -8.4664292e-03   1.9317315e+00   9.9960057e-01  -3.7175933e+07
   6.2420807e-10  -8.4293225e-03   1.9294380e+00   1.0013008e+00  -3.7012846e+07
   6.2520840e-10  -8.3923786e-03   1.9271557e+00   1.0029957e+00  -3.6850481e+07
   6.2620874e-10  -8.3555968e-03   1.9248845e+00   1.0046851e+00  -3.6688835e+07
   6.2720907e-10  -8.3189763e-03   1.9226245e+00   1.0063692e+00  -3.6527904e+07
   6.2820940e-10  -8.2825164e-03   1.9203754e+00   1.0080479e+00  -3.6367685e+07
   6.2920974e-10  -8.2462164e-03   1.9181373e+00   1.0097211e+00  -3.6208174e+07
   6.3021007e-10  -8.2100757e-03   1.9159101e+00   1.0113891e+00  -3.6049370e+07
   6.3121040e-10  -8.1740935e-03   1.9136937e+00   1.0130516e+00  -3.5891267e+07
   6.3221074e-10  -8.1382690e-03   1.9114882e+00   1.0147088e+00  -3.5733864e+07
   6.3321107e-10  -8.1026017e-03   1.9092934e+00   1.0163606e+00  -3.5577156e+07
   6.3421140e-10  -8.0670908e-03   1.9071092e+00   1.0180071e+00  -3.5421141e+07
   6.3521174e-10  -8.0317356e-03   1.9049357e+00   1.0196483e+00  -3.5265816e+07
   6.3621207e-10  -7.9965354e-03   1.9027728e+00   1.0212841e+00  -3.5111177e+07
   6.3721240e-10  -7.9614896e-03   1.9006204e+00   1.0229147e+00  -3.4957221e+07
   6.3821274e-10  -7.9265975e-03   1.8984785e+00   1.0245399e+00  -3.4803946e+07
   6.3921307e-10  -7.8918583e-03   1.8963469e+00   1.0261598e+00  -3.4651347e+07
   6.4021340e-10  -7.8572715e-03   1.8942258e+00   1.0277743e+00  -3.4499422e+07
   6.4121374e-10  -7.8228363e-03   1.8921149e+00   1.0293837e+00  -3.4348169e+07
   6.4221407e-10  -7.7885521e-03   1.8900143e+00   1.0309877e+00  -3.4197583e+07
   6.4321440e-10  -7.7544181e-03   1.8879239e+00   1.0325864e+00  -3.4047662e+07
   6.4421474e-10  -7.7204338e-03   1.8858437e+00   1.0341799e+00  -3.3898402e+07
   6.4521507e-10  -7.6865985e-03   1.8837735e+00   1.0357682e+00  -3.3749802e+07
   6.4621541e-10  -7.6529115e-03   1.8817134e+00   1.0373512e+00  -3.3601857e+07
   6.4721574e-10  -7.6193722e-03   1.8796633e+00   1.0389289e+00  -3.3454565e+07
   6.4821607e-10  -7.5859799e-03   1.8776232e+00   1.0405014e+00  -3.3307923e+07
   6.4921641e-10  -7.5527340e-03   1.8755929e+00   1.0420687e+00  -3.3161927e+07
   6.5021674e-10  -7.5196337e-03   1.8735725e+00   1.0436308e+00  -3.3016576e+07
   6.5121707e-10  -7.4866786e-03   1.8715619e+00   1.0451877e+00  -3.2871865e+07
   6.5221741e-10  -7.4538679e-03   1.8695610e+00   1.0467394e+00  -3.2727793e+07
   6.5321774e-10  -7.4212010e-03   1.8675698e+00   1.0482859e+00  -3.2584356e+07
   6.5421807e-10  -7.3886773e-03   1.8655883e+00   1.0498272e+00  -3.2441551e+07
   6.5521841e-10  -7.3562961e-03   1.8636164e+00   1.0513634e+00  -3.2299376e+07
   6.5621874e-10  -7.3240568e-03   1.8616540e+00   1.0528944e+00  -3.2157827e+07
   6.5721907e-10  -7.2919588e-03   1.8597011e+00   1.0544202e+00  -3.2016902e+07
   6.5821941e-10  -7.2600015e-03   1.8577576e+00   1.0559410e+00  -3.1876598e+07
   6.5921974e-10  -7.2281842e-03   1.8558236e+00   1.0574565e+00  -3.1736912e+07
   6.6022007e-10  -7.1965063e-03   1.8538989e+00   1.0589670e+00  -3.1597842e+07
   6.6122041e-10  -7.1649672e-03   1.8519835e+00   1.0604724e+00  -3.1459384e+07
   6.6222074e-10  -7.1335664e-03   1.8500774e+00   1.0619726e+00  -3.1321536e+07
   6.6322107e-10  -7.1023031e-03   1.8481805e+00   1.0634678e+00  -3.1184295e+07
   6.6422141e-10  -7.0711768e-03   1.8462928e+00   1.0649578e+00  -3.1047658e+07
   6.6522174e-10  -7.0401869e-03   1.8444141e+00   1.0664428e+00  -3.0911623e+07
   6.6622207e-10  -7.0093328e-03   1.8425446e+00   1.0679228e+00  -3.0776186e+07
   6.6722241e-10  -6.9786138e-03   1.8406841e+00   1.0693977e+00  -3.0641346e+07
   6.6822274e-10  -6.9480295e-03   1.8388325e+00   1.0708675e+00  -3.0507100e+07
   6.6922307e-10  -6.9175791e-03   1.8369899e+00   1.0723323e+00  -3.0373444e+07
   6.7022341e-10  -6.8872621e-03   1.8351562e+00   1.0737921e+00  -3.0240376e+07
   6.7122374e-10  -6.8570780e-03   1.8333313e+00   1.0752469e+00  -3.0107894e+07
   6.7222407e-10  -6.8270261e-03   1.8315152e+00   1.0766967e+00  -2.9975995e+07
   6.7322441e-10  -6.7971058e-03   1.8297079e+00   1.0781415e+00  -2.9844676e+07
   6.7422474e-10  -6.7673167e-03   1.8279093e+00   1.0795813e+00  -2.9713935e+07
   6.7522508e-10  -6.7376580e-03   1.8261194e+00   1.0810161e+00  -2.9583769e+07
   6.7622541e-10  -6.7081292e-03   1.8243381e+00   1.0824460e+00  -2.9454175e+07
   6.7722574e-10  -6.6787298e-03   1.8225653e+00   1.0838709e+00  -2.9325151e+07
   6.7822608e-10  -6.6494592e-03   1.8208011e+00   1.0852909e+00  -2.9196694e+07
   6.7922641e-10  -6.6203168e-03   1.8190454e+00   1.0867060e+00  -2.9068803e+07
   6.8022674e-10  -6.5913020e-03   1.8172981e+00   1.0881161e+00  -2.8941473e+07
   6.8122708e-10  -6.5624144e-03   1.8155593e+00   1.0895213e+00  -2.8814703e+07
   6.8222741e-10  -6.5336532e-03   1.8138288e+00   1.0909217e+00  -2.8688491e+07
   6.8322774e-10  -6.5050181e-03   1.8121066e+00   1.0923171e+00  -2.8562833e+07
   6.8422808e-10  -6.4765084e-03   1.8103927e+00   1.0937077e+00  -2.8437728e+07
   6.8522841e-10  -6.4481235e-03   1.8086870e+00   1.0950934e+00  -2.8313172e+07
   6.8622874e-10  -6.4198630e-03   1.8069896e+00   1.0964743e+00  -2.8189163e+07
   6.8722908e-10  -6.3917262e-03   1.8053003e+00   1.0978503e+00  -2.8065700e+07
   6.8822941e-10  -6.3637127e-03   1.8036191e+00   1.0992214e+00  -2.7942778e+07
   6.8922974e-10  -6.3358219e-03   1.8019460e+00   1.1005878e+00  -2.7820397e+07
   6.9023008e-10  -6.3080532e-03   1.8002809e+00   1.1019493e+00  -2.7698554e+07
   6.9123041e-10  -6.2804061e-03   1.7986238e+00   1.1033061e+00  -2.7577245e+07
   6.9223074e-10  -6.2528801e-03   1.7969746e+00   1.1046581e+00  -2.7456469e+07
   6.9323108e-10  -6.2254747e-03   1.7953334e+00   1.1060052e+00  -2.7336224e+07
   6.9423141e-10  -6.1981893e-03   1.7937000e+00   1.1073477e+00  -2.7216507e+07
   6.9523174e-10  -6.1710234e-03   1.7920745e+00   1.1086853e+00  -2.7097315e+07
   6.9623208e-10  -6.1439764e-03   1.7904567e+00   1.1100182e+00  -2.6978647e+07
   6.9723241e-10  -6.1170479e-03   1.7888467e+00   1.1113464e+00  -2.6860500e+07
   6.9823274e-10  -6.0902374e-03   1.7872444e+00   1.1126699e+00  -2.6742871e+07
   6.9923308e-10  -6.0635442e-03   1.7856498e+00   1.1139886e+00  -2.6625759e+07
   7.0023341e-10  -6.0369679e-03   1.7840628e+00   1.1153027e+00  -2.6509160e+07
   7.0123374e-10  -6.0105080e-03   1.7824834e+00   1.1166121e+00  -2.6393074e+07
   7.0223408e-10  -5.9841640e-03   1.7809116e+00   1.1179167e+00  -2.6277497e+07
   7.0323441e-10  -5.9579354e-03   1.7793473e+00   1.1192168e+00  -2.6162427e+07
   7.0423474e-10  -5.9318216e-03   1.7777905e+00   1.1205121e+00  -2.6047862e+07
   7.0523508e-10  -5.9058221e-03   1.7762411e+00   1.1218029e+00  -2.5933800e+07
   7.0623541e-10  -5.8799365e-03   1.7746991e+00   1.1230890e+00  -2.5820238e+07
   7.0723575e-10  -5.8541643e-03   1.7731645e+00   1.1243705e+00  -2.5707174e+07
   7.0823608e-10  -5.8285049e-03   1.7716372e+00   1.1256473e+00  -2.5594607e+07
   7.0923641e-10  -5.8029578e-03   1.7701173e+00   1.1269196e+00  -2.5482533e+07
   7.1023675e-10  -5.7775227e-03   1.7686045e+00   1.1281873e+00  -2.5370951e+07
   7.1123708e-10  -5.7521989e-03   1.7670991e+00   1.1294504e+00  -2.5259858e+07
   7.1223741e-10  -5.7269860e-03   1.7656007e+00   1.1307090e+00  -2.5149253e+07
   7.1323775e-10  -5.7018834e-03   1.7641096e+00   1.1319630e+00  -2.5039132e+07
   7.1423808e-10  -5.6768908e-03   1.7626255e+00   1.1332125e+00  -2.4929495e+07
   7.1523841e-10  -5.6520077e-03   1.7611486e+00   1.1344574e+00  -2.4820338e+07
   7.1623875e-10  -5.6272335e-03   1.7596786e+00   1.1356979e+00  -2.4711660e+07
   7.1723908e-10  -5.6025677e-03   1.7582157e+00   1.1369338e+00  -2.4603458e+07
   7.1823941e-10  -5.5780100e-03   1.7567598e+00   1.1381653e+00  -2.4495731e+07
   7.1923975e-10  -5.5535598e-03   1.7553108e+00   1.1393922e+00  -2.4388476e+07
   7.2024008e-10  -5.5292166e-03   1.7538687e+00   1.1406147e+00  -2.4281692e+07
   7.2124041e-10  -5.5049801e-03   1.7524334e+00   1.1418328e+00  -2.4175375e+07
   7.2224075e-10  -5.4808496e-03   1.7510050e+00   1.1430463e+00  -2.4069524e+07
   7.2324108e-10  -5.4568248e-03   1.7495834e+00   1.1442555e+00  -2.3964138e+07
   7.2424141e-10  -5.4329052e-03   1.7481686e+00   1.1454603e+00  -2.3859213e+07
   7.2524175e-10  -5.4090903e-03   1.7467605e+00   1.1466606e+00  -2.3754748e+07
   7.2624208e-10  -5.3853797e-03   1.7453591e+00   1.1478565e+00  -2.3650741e+07
   7.2724241e-10  -5.3617729e-03   1.7439643e+00   1.1490481e+00  -2.3547190e+07
   7.2824275e-10  -5.3382695e-03   1.7425762e+00   1.1502353e+00  -2.3444092e+07
   7.2924308e-10  -5.3148690e-03   1.7411947e+00   1.1514181e+00  -2.3341447e+07
   7.3024341e-10  -5.2915709e-03   1.7398197e+00   1.1525965e+00  -2.3239251e+07
   7.3124375e-10  -5.2683748e-03   1.7384513e+00   1.1537707e+00  -2.3137503e+07
   7.3224408e-10  -5.2452803e-03   1.7370894e+00   1.1549405e+00  -2.3036200e+07
   7.3324441e-10  -5.2222869e-03   1.7357339e+00   1.1561060e+00  -2.2935342e+07
   7.3424475e-10  -5.1993942e-03   1.7343849e+00   1.1572672e+00  -2.2834925e+07
   7.3524508e-10  -5.1766017e-03   1.7330423e+00   1.1584241e+00  -2.2734948e+07
   7.3624542e-10  -5.1539090e-03   1.7317060e+00   1.1595767e+00  -2.2635409e+07
   7.3724575e-10  -5.1313157e-03   1.7303761e+00   1.1607250e+00  -2.2536306e+07
   7.3824608e-10  -5.1088212e-03   1.7290525e+00   1.1618691e+00  -2.2437637e+07
   7.3924642e-10  -5.0864253e-03   1.7277352e+00   1.1630090e+00  -2.2339401e+07
   7.4024675e-10  -5.0641274e-03   1.7264241e+00   1.1641446e+00  -2.2241594e+07
   7.4124708e-10  -5.0419271e-03   1.7251192e+00   1.1652760e+00  -2.2144216e+07
   7.4224742e-10  -5.0198241e-03   1.7238205e+00   1.1664032e+00  -2.2047265e+07
   7.4324775e-10  -4.9978178e-03   1.7225280e+00   1.1675262e+00  -2.1950738e+07
   7.4424808e-10  -4.9759078e-03   1.7212416e+00   1.1686450e+00  -2.1854634e+07
   7.4524842e-10  -4.9540938e-03   1.7199613e+00   1.1697597e+00  -2.1758950e+07
   7.4624875e-10  -4.9323753e-03   1.7186870e+00   1.1708702e+00  -2.1663686e+07
   7.4724908e-10  -4.9107518e-03   1.7174188e+00   1.1719765e+00  -2.1568838e+07
   7.4824942e-10  -4.8892231e-03   1.7161565e+00   1.1730788e+00  -2.1474406e+07
   7.4924975e-10  -4.8677886e-03   1.7149003e+00   1.1741768e+00  -2.1380388e+07
   7.5025008e-10  -4.8464479e-03   1.7136499e+00   1.1752708e+00  -2.1286781e+07
   7.5125042e-10  -4.8252007e-03   1.7124055e+00   1.1763607e+00  -2.1193583e+07
   7.5225075e-10  -4.8040465e-03   1.7111670e+00   1.1774465e+00  -2.1100794e+07
   7.5325108e-10  -4.7829849e-03   1.7099343e+00   1.1785282e+00  -2.1008411e+07
   7.5425142e-10  -4.7620155e-03   1.7087074e+00   1.1796059e+00  -2.0916433e+07
   7.5525175e-10  -4.7411380e-03   1.7074864e+00   1.1806795e+00  -2.0824857e+07
   7.5625208e-10  -4.7203518e-03   1.7062711e+00   1.1817490e+00  -2.0733682e+07
   7.5725242e-10  -4.6996566e-03   1.7050615e+00   1.1828146e+00  -2.0642906e+07
   7.5825275e-10  -4.6790521e-03   1.7038576e+00   1.1838761e+00  -2.0552527e+07
   7.5925308e-10  -4.6585377e-03   1.7026595e+00   1.1849336e+00  -2.0462544e+07
   7.6025342e-10  -4.6381132e-03   1.7014670e+00   1.1859871e+00  -2.0372955e+07
   7.6125375e-10  -4.6177781e-03   1.7002801e+00   1.1870367e+00  -2.0283758e+07
   7.6225408e-10  -4.5975321e-03   1.6990988e+00   1.1880822e+00  -2.0194951e+07
   7.6325442e-10  -4.5773746e-03   1.6979230e+00   1.1891238e+00  -2.0106533e+07
   7.6425475e-10  -4.5573055e-03   1.6967528e+00   1.1901615e+00  -2.0018502e+07
   7.6525509e-10  -4.5373242e-03   1.6955881e+00   1.1911953e+00  -1.9930856e+07
   7.6625542e-10  -4.5174303e-03   1.6944290e+00   1.1922251e+00  -1.9843593e+07
   7.6725575e-10  -4.4976236e-03   1.6932752e+00   1.1932510e+00  -1.9756713e+07
   7.6825609e-10  -4.4779036e-03   1.6921269e+00   1.1942730e+00  -1.9670212e+07
   7.6925642e-10  -4.4582700e-03   1.6909840e+00   1.1952911e+00  -1.9584091e+07
   7.7025675e-10  -4.4387222e-03   1.6898465e+00   1.1963054e+00  -1.9498346e+07
   7.7125709e-10  -4.4192601e-03   1.6887143e+00   1.1973158e+00  -1.9412976e+07
   7.7225742e-10  -4.3998832e-03   1.6875875e+00   1.1983223e+00  -1.9327980e+07
   7.7325775e-10  -4.3805912e-03   1.6864660e+00   1.1993251e+00  -1.9243355e+07
   7.7425809e-10  -4.3613836e-03   1.6853497e+00   1.2003239e+00  -1.9159101e+07
   7.7525842e-10  -4.3422601e-03   1.6842387e+00   1.2013190e+00  -1.9075215e+07
   7.7625875e-10  -4.3232203e-03   1.6831329e+00   1.2023103e+00  -1.8991697e+07
   7.7725909e-10  -4.3042639e-03   1.6820323e+00   1.2032978e+00  -1.8908544e+07
   7.7825942e-10  -4.2853905e-03   1.6809368e+00   1.2042815e+00  -1.8825755e+07
   7.7925975e-10  -4.2665997e-03   1.6798466e+00   1.2052614e+00  -1.8743327e+07
   7.8026009e-10  -4.2478912e-03   1.6787614e+00   1.2062376e+00  -1.8661261e+07
   7.8126042e-10  -4.2292646e-03   1.6776813e+00   1.2072100e+00  -1.8579553e+07
   7.8226075e-10  -4.2107196e-03   1.6766063e+00   1.2081787e+00  -1.8498203e+07
   7.8326109e-10  -4.1922558e-03   1.6755364e+00   1.2091437e+00  -1.8417209e+07
   7.8426142e-10  -4.1738728e-03   1.6744714e+00   1.2101050e+00  -1.8336569e+07
   7.8526175e-10  -4.1555703e-03   1.6734115e+00   1.2110626e+00  -1.8256282e+07
   7.8626209e-10  -4.1373479e-03   1.6723565e+00   1.2120164e+00  -1.8176346e+07
   7.8726242e-10  -4.1192054e-03   1.6713065e+00   1.2129667e+00  -1.8096759e+07
   7.8826275e-10  -4.1011422e-03   1.6702613e+00   1.2139132e+00  -1.8017521e+07
   7.8926309e-10  -4.0831582e-03   1.6692211e+00   1.2148561e+00  -1.7938629e+07
   7.9026342e-10  -4.0652529e-03   1.6681858e+00   1.2157954e+00  -1.7860083e+07
   7.9126375e-10  -4.0474260e-03   1.6671553e+00   1.2167311e+00  -1.7781880e+07
   7.9226409e-10  -4.0296772e-03   1.6661296e+00   1.2176631e+00  -1.7704019e+07
   7.9326442e-10  -4.0120061e-03   1.6651088e+00   1.2185915e+00  -1.7626498e+07
   7.9426475e-10  -3.9944123e-03   1.6640927e+00   1.2195164e+00  -1.7549317e+07
   7.9526509e-10  -3.9768956e-03   1.6630814e+00   1.2204376e+00  -1.7472473e+07
   7.9626542e-10  -3.9594556e-03   1.6620748e+00   1.2213553e+00  -1.7395965e+07
   7.9726576e-10  -3.9420920e-03   1.6610729e+00   1.2222694e+00  -1.7319792e+07
   7.9826609e-10  -3.9248044e-03   1.6600757e+00   1.2231800e+00  -1.7243952e+07
   7.9926642e-10  -3.9075925e-03   1.6590831e+00   1.2240871e+00  -1.7168444e+07
   8.0026676e-10  -3.8904559e-03   1.6580952e+00   1.2249906e+00  -1.7093266e+07
   8.0126709e-10  -3.8733944e-03   1.6571120e+00   1.2258906e+00  -1.7018416e+07
   8.0226742e-10  -3.8564076e-03   1.6561333e+00   1.2267872e+00  -1.6943894e+07
   8.0326776e-10  -3.8394952e-03   1.6551591e+00   1.2276802e+00  -1.6869698e+07
   8.0426809e-10  -3.8226569e-03   1.6541896e+00   1.2285697e+00  -1.6795827e+07
   8.0526842e-10  -3.8058923e-03   1.6532245e+00   1.2294558e+00  -1.6722278e+07
   8.0626876e-10  -3.7892011e-03   1.6522640e+00   1.2303385e+00  -1.6649051e+07
   8.0726909e-10  -3.7725830e-03   1.6513079e+00   1.2312177e+00  -1.6576145e+07
   8.0826942e-10  -3.7560376e-03   1.6503564e+00   1.2320934e+00  -1.6503557e+07
   8.0926976e-10  -3.7395647e-03   1.6494092e+00   1.2329658e+00  -1.6431286e+07
   8.1027009e-10  -3.7231640e-03   1.6484665e+00   1.2338347e+00  -1.6359332e+07
   8.1127042e-10  -3.7068351e-03   1.6475281e+00   1.2347003e+00  -1.6287692e+07
   8.1227076e-10  -3.6905776e-03   1.6465942e+00   1.2355624e+00  -1.6216366e+07
   8.1327109e-10  -3.6743914e-03   1.6456646e+00   1.2364212e+00  -1.6145351e+07
   8.1427142e-10  -3.6582761e-03   1.6447393e+00   1.2372766e+00  -1.6074647e+07
   8.1527176e-10  -3.6422313e-03   1.6438183e+00   1.2381287e+00  -1.6004252e+07
   8.1627209e-10  -3.6262568e-03   1.6429016e+00   1.2389774e+00  -1.5934165e+07
   8.1727242e-10  -3.6103522e-03   1.6419892e+00   1.2398228e+00  -1.5864384e+07
   8.1827276e-10  -3.5945173e-03   1.6410811e+00   1.2406649e+00  -1.5794909e+07
   8.1927309e-10  -3.5787518e-03   1.6401772e+00   1.2415036e+00  -1.5725737e+07
   8.2027342e-10  -3.5630553e-03   1.6392774e+00   1.2423391e+00  -1.5656868e+07
   8.2127376e-10  -3.5474275e-03   1.6383819e+00   1.2431713e+00  -1.5588300e+07
   8.2227409e-10  -3.5318682e-03   1.6374905e+00   1.2440002e+00  -1.5520031e+07
   8.2327442e-10  -3.5163770e-03   1.6366033e+00   1.2448258e+00  -1.5452062e+07
   8.2427476e-10  -3.5009537e-03   1.6357202e+00   1.2456482e+00  -1.5384389e+07
   8.2527509e-10  -3.4855979e-03   1.6348412e+00   1.2464674e+00  -1.5317012e+07
   8.2627543e-10  -3.4703093e-03   1.6339663e+00   1.2472833e+00  -1.5249930e+07
   8.2727576e-10  -3.4550877e-03   1.6330955e+00   1.2480960e+00  -1.5183142e+07
   8.2827609e-10  -3.4399328e-03   1.6322287e+00   1.2489055e+00  -1.5116645e+07
   8.2927643e-10  -3.4248443e-03   1.6313660e+00   1.2497118e+00  -1.5050439e+07
   8.3027676e-10  -3.4098218e-03   1.6305072e+00   1.2505149e+00  -1.4984522e+07
   8.3127709e-10  -3.3948651e-03   1.6296524e+00   1.2513149e+00  -1.4918894e+07
   8.3227743e-10  -3.3799740e-03   1.6288016e+00   1.2521117e+00  -1.4853553e+07
   8.3327776e-10  -3.3651480e-03   1.6279548e+00   1.2529053e+00  -1.4788497e+07
   8.3427809e-10  -3.3503870e-03   1.6271119e+00   1.2536958e+00  -1.4723726e+07
   8.3527843e-10  -3.3356907e-03   1.6262729e+00   1.2544831e+00  -1.4659238e+07
   8.3627876e-10  -3.3210587e-03   1.6254378e+00   1.2552674e+00  -1.4595032e+07
   8.3727909e-10  -3.3064908e-03   1.6246065e+00   1.2560485e+00  -1.4531107e+07
   8.3827943e-10  -3.2919867e-03   1.6237791e+00   1.2568265e+00  -1.4467461e+07
   8.3927976e-10  -3.2775461e-03   1.6229556e+00   1.2576014e+00  -1.4404093e+07
   8.4028009e-10  -3.2631688e-03   1.6221359e+00   1.2583733e+00  -1.4341003e+07
   8.4128043e-10  -3.2488545e-03   1.6213199e+00   1.2591421e+00  -1.4278188e+07
   8.4228076e-10  -3.2346028e-03   1.6205078e+00   1.2599078e+00  -1.4215648e+07
   8.4328109e-10  -3.2204136e-03   1.6196994e+00   1.2606705e+00  -1.4153382e+07
   8.4428143e-10  -3.2062865e-03   1.6188948e+00   1.2614301e+00  -1.4091388e+07
   8.4528176e-10  -3.1922213e-03   1.6180939e+00   1.2621867e+00  -1.4029664e+07
   8.4628209e-10  -3.1782178e-03   1.6172967e+00   1.2629404e+00  -1.3968211e+07
   8.4728243e-10  -3.1642755e-03   1.6165031e+00   1.2636910e+00  -1.3907026e+07
   8.4828276e-10  -3.1503943e-03   1.6157133e+00   1.2644386e+00  -1.3846109e+07
   8.4928309e-10  -3.1365740e-03   1.6149271e+00   1.2651832e+00  -1.3785459e+07
   8.5028343e-10  -3.1228141e-03   1.6141446e+00   1.2659249e+00  -1.3725073e+07
   8.5128376e-10  -3.1091146e-03   1.6133656e+00   1.2666636e+00  -1.3664952e+07
   8.5228409e-10  -3.0954750e-03   1.6125903e+00   1.2673993e+00  -1.3605093e+07
   8.5328443e-10  -3.0818952e-03   1.6118186e+00   1.2681321e+00  -1.3545496e+07
   8.5428476e-10  -3.0683749e-03   1.6110504e+00   1.2688620e+00  -1.3486160e+07
   8.5528510e-10  -3.0549138e-03   1.6102858e+00   1.2695889e+00  -1.3427083e+07
   8.5628543e-10  -3.0415117e-03   1.6095247e+00   1.2703130e+00  -1.3368264e+07
   8.5728576e-10  -3.0281683e-03   1.6087671e+00   1.2710341e+00  -1.3309703e+07
   8.5828610e-10  -3.0148834e-03   1.6080131e+00   1.2717524e+00  -1.3251397e+07
   8.5928643e-10  -3.0016566e-03   1.6072625e+00   1.2724678e+00  -1.3193347e+07
   8.6028676e-10  -2.9884878e-03   1.6065154e+00   1.2731803e+00  -1.3135550e+07
   8.6128710e-10  -2.9753767e-03   1.6057717e+00   1.2738899e+00  -1.3078006e+07
   8.6228743e-10  -2.9623230e-03   1.6050315e+00   1.2745967e+00  -1.3020714e+07
   8.6328776e-10  -2.9493265e-03   1.6042946e+00   1.2753007e+00  -1.2963672e+07
   8.6428810e-10  -2.9363869e-03   1.6035612e+00   1.2760018e+00  -1.2906880e+07
   8.6528843e-10  -2.9235040e-03   1.6028312e+00   1.2767001e+00  -1.2850336e+07
   8.6628876e-10  -2.9106776e-03   1.6021045e+00   1.2773956e+00  -1.2794039e+07
   8.6728910e-10  -2.8979073e-03   1.6013812e+00   1.2780884e+00  -1.2737988e+07
   8.6828943e-10  -2.8851930e-03   1.6006612e+00   1.2787783e+00  -1.2682183e+07
   8.6928976e-10  -2.8725344e-03   1.5999446e+00   1.2794654e+00  -1.2626621e+07
   8.7029010e-10  -2.8599313e-03   1.5992312e+00   1.2801498e+00  -1.2571303e+07
   8.7129043e-10  -2.8473834e-03   1.5985211e+00   1.2808314e+00  -1.2516226e+07
   8.7229076e-10  -2.8348904e-03   1.5978143e+00   1.2815103e+00  -1.2461390e+07
   8.7329110e-10  -2.8224522e-03   1.5971108e+00   1.2821864e+00  -1.2406794e+07
   8.7429143e-10  -2.8100685e-03   1.5964105e+00   1.2828599e+00  -1.2352437e+07
   8.7529176e-10  -2.7977390e-03   1.5957134e+00   1.2835306e+00  -1.2298317e+07
   8.7629210e-10  -2.7854636e-03   1.5950196e+00   1.2841985e+00  -1.2244434e+07
   8.7729243e-10  -2.7732419e-03   1.5943289e+00   1.2848638e+00  -1.2190786e+07
   8.7829276e-10  -2.7610738e-03   1.5936414e+00   1.2855264e+00  -1.2137374e+07
   8.7929310e-10  -2.7489590e-03   1.5929571e+00   1.2861863e+00  -1.2084194e+07
   8.8029343e-10  -2.7368972e-03   1.5922759e+00   1.2868436e+00  -1.2031248e+07
   8.8129376e-10  -2.7248884e-03   1.5915979e+00   1.2874982e+00  -1.1978532e+07
   8.8229410e-10  -2.7129321e-03   1.5909229e+00   1.2881501e+00  -1.1926048e+07
   8.8329443e-10  -2.7010283e-03   1.5902511e+00   1.2887994e+00  -1.1873793e+07
   8.8429476e-10  -2.6891765e-03   1.5895824e+00   1.2894461e+00  -1.1821766e+07
   8.8529510e-10  -2.6773768e-03   1.5889167e+00   1.2900901e+00  -1.1769967e+07
   8.8629543e-10  -2.6656287e-03   1.5882542e+00   1.2907316e+00  -1.1718394e+07
   8.8729577e-10  -2.6539321e-03   1.5875946e+00   1.2913704e+00  -1.1667047e+07
   8.8829610e-10  -2.6422867e-03   1.5869381e+00   1.2920067e+00  -1.1615924e+07
   8.8929643e-10  -2.6306924e-03   1.5862846e+00   1.2926403e+00  -1.1565025e+07
   8.9029677e-10  -2.6191489e-03   1.5856341e+00   1.2932714e+00  -1.1514349e+07
   8.9129710e-10  -2.6076560e-03   1.5849866e+00   1.2938999e+00  -1.1463894e+07
   8.9229743e-10  -2.5962134e-03   1.5843420e+00   1.2945259e+00  -1.1413660e+07
   8.9329777e-10  -2.5848210e-03   1.5837005e+00   1.2951493e+00  -1.1363646e+07
   8.9429810e-10  -2.5734784e-03   1.5830618e+00   1.2957702e+00  -1.1313850e+07
   8.9529843e-10  -2.5621856e-03   1.5824261e+00   1.2963886e+00  -1.1264272e+07
   8.9629877e-10  -2.5509423e-03   1.5817933e+00   1.2970044e+00  -1.1214911e+07
   8.9729910e-10  -2.5397483e-03   1.5811634e+00   1.2976178e+00  -1.1165765e+07
   8.9829943e-10  -2.5286033e-03   1.5805365e+00   1.2982286e+00  -1.1116835e+07
   8.9929977e-10  -2.5175071e-03   1.5799123e+00   1.2988370e+00  -1.1068119e+07
   9.0030010e-10  -2.5064596e-03   1.5792911e+00   1.2994429e+00  -1.1019615e+07
   9.0130043e-10  -2.4954605e-03   1.5786727e+00   1.3000463e+00  -1.0971324e+07
   9.0230077e-10  -2.4845095e-03   1.5780571e+00   1.3006472e+00  -1.0923244e+07
   9.0330110e-10  -2.4736066e-03   1.5774444e+00   1.3012457e+00  -1.0875375e+07
   9.0430143e-10  -2.4627515e-03   1.5768344e+00   1.3018418e+00  -1.0827714e+07
   9.0530177e-10  -2.4519439e-03   1.5762273e+00   1.3024354e+00  -1.0780262e+07
   9.0630210e-10  -2.4411837e-03   1.5756229e+00   1.3030266e+00  -1.0733018e+07
   9.0730243e-10  -2.4304706e-03   1.5750213e+00   1.3036153e+00  -1.0685980e+07
   9.0830277e-10  -2.4198045e-03   1.5744225e+00   1.3042017e+00  -1.0639148e+07
   9.0930310e-10  -2.4091852e-03   1.5738264e+00   1.3047857e+00  -1.0592521e+07
   9.1030343e-10  -2.3986124e-03   1.5732330e+00   1.3053673e+00  -1.0546098e+07
   9.1130377e-10  -2.3880859e-03   1.5726424e+00   1.3059465e+00  -1.0499878e+07
   9.1230410e-10  -2.3776055e-03   1.5720544e+00   1.3065233e+00  -1.0453860e+07
   9.1330443e-10  -2.3671711e-03   1.5714692e+00   1.3070978e+00  -1.0408043e+07
   9.1430477e-10  -2.3567824e-03   1.5708866e+00   1.3076699e+00  -1.0362427e+07
   9.1530510e-10  -2.3464393e-03   1.5703067e+00   1.3082397e+00  -1.0317010e+07
   9.1630544e-10  -2.3361415e-03   1.5697294e+00   1.3088071e+00  -1.0271792e+07
   9.1730577e-10  -2.3258888e-03   1.5691548e+00   1.3093722e+00  -1.0226771e+07
   9.1830610e-10  -2.3156811e-03   1.5685828e+00   1.3099350e+00  -1.0181948e+07
   9.1930644e-10  -2.3055180e-03   1.5680134e+00   1.3104955e+00  -1.0137321e+07
   9.2030677e-10  -2.2953996e-03   1.5674467e+00   1.3110537e+00  -1.0092888e+07
   9.2130710e-10  -2.2853255e-03   1.5668825e+00   1.3116096e+00  -1.0048651e+07
   9.2230744e-10  -2.2752955e-03   1.5663209e+00   1.3121632e+00  -1.0004606e+07
   9.2330777e-10  -2.2653095e-03   1.5657618e+00   1.3127145e+00  -9.9607547e+06
   9.2430810e-10  -2.2553673e-03   1.5652054e+00   1.3132636e+00  -9.9170949e+06
   9.2530844e-10  -2.2454687e-03   1.5646514e+00   1.3138104e+00  -9.8736261e+06
   9.2630877e-10  -2.2356134e-03   1.5641000e+00   1.3143550e+00  -9.8303474e+06
   9.2730910e-10  -2.2258013e-03   1.5635511e+00   1.3148973e+00  -9.7872581e+06
   9.2830944e-10  -2.2160323e-03   1.5630047e+00   1.3154374e+00  -9.7443572e+06
   9.2930977e-10  -2.2063061e-03   1.5624608e+00   1.3159753e+00  -9.7016440e+06
   9.3031010e-10  -2.1966225e-03   1.5619194e+00   1.3165110e+00  -9.6591177e+06
   9.3131044e-10  -2.1869813e-03   1.5613805e+00   1.3170444e+00  -9.6167774e+06
   9.3231077e-10  -2.1773825e-03   1.5608440e+00   1.3175757e+00  -9.5746223e+06
   9.3331110e-10  -2.1678256e-03   1.5603100e+00   1.3181047e+00  -9.5326517e+06
   9.3431144e-10  -2.1583107e-03   1.5597784e+00   1.3186316e+00  -9.4908646e+06
   9.3531177e-10  -2.1488375e-03   1.5592492e+00   1.3191563e+00  -9.4492604e+06
   9.3631210e-10  -2.1394058e-03   1.5587225e+00   1.3196789e+00  -9.4078382e+06
   9.3731244e-10  -2.1300155e-03   1.5581981e+00   1.3201993e+00  -9.3665972e+06
   9.3831277e-10  -2.1206663e-03   1.5576761e+00   1.3207175e+00  -9.3255367e+06
   9.3931310e-10  -2.1113582e-03   1.5571566e+00   1.3212336e+00  -9.2846557e+06
   9.4031344e-10  -2.1020908e-03   1.5566393e+00   1.3217476e+00  -9.2439537e+06
   9.4131377e-10  -2.0928640e-03   1.5561245e+00   1.3222594e+00  -9.2034297e+06
   9.4231410e-10  -2.0836777e-03   1.5556120e+00   1.3227692e+00  -9.1630830e+06
   9.4331444e-10  -2.0745317e-03   1.5551018e+00   1.3232768e+00  -9.1229128e+06
   9.4431477e-10  -2.0654258e-03   1.5545939e+00   1.3237823e+00  -9.0829184e+06
   9.4531511e-10  -2.0563597e-03   1.5540884e+00   1.3242857e+00  -9.0430990e+06
   9.4631544e-10  -2.0473335e-03   1.5535852e+00   1.3247871e+00  -9.0034538e+06
   9.4731577e-10  -2.0383468e-03   1.5530842e+00   1.3252864e+00  -8.9639821e+06
   9.4831611e-10  -2.0293995e-03   1.5525856e+00   1.3257836e+00  -8.9246831e+06
   9.4931644e-10  -2.0204914e-03   1.5520892e+00   1.3262787e+00  -8.8855560e+06
   9.5031677e-10  -2.0116224e-03   1.5515950e+00   1.3267718e+00  -8.8466001e+06
   9.5131711e-10  -2.0027922e-03   1.5511031e+00   1.3272629e+00  -8.8078147e+06
   9.5231744e-10  -1.9940008e-03   1.5506135e+00   1.3277519e+00  -8.7691990e+06
   9.5331777e-10  -1.9852479e-03   1.5501261e+00   1.3282389e+00  -8.7307523e+06
   9.5431811e-10  -1.9765334e-03   1.5496409e+00   1.3287239e+00  -8.6924738e+06
   9.5531844e-10  -1.9678571e-03   1.5491579e+00   1.3292069e+00  -8.6543628e+06
   9.5631877e-10  -1.9592189e-03   1.5486771e+00   1.3296878e+00  -8.6164186e+06
   9.5731911e-10  -1.9506185e-03   1.5481985e+00   1.3301668e+00  -8.5786404e+06
   9.5831944e-10  -1.9420558e-03   1.5477220e+00   1.3306438e+00  -8.5410275e+06
   9.5931977e-10  -1.9335307e-03   1.5472478e+00   1.3311188e+00  -8.5035792e+06
   9.6032011e-10  -1.9250429e-03   1.5467756e+00   1.3315918e+00  -8.4662948e+06
   9.6132044e-10  -1.9165924e-03   1.5463057e+00   1.3320629e+00  -8.4291735e+06
   9.6232077e-10  -1.9081789e-03   1.5458378e+00   1.3325320e+00  -8.3922147e+06
   9.6332111e-10  -1.8998023e-03   1.5453721e+00   1.3329991e+00  -8.3554177e+06
   9.6432144e-10  -1.8914625e-03   1.5449085e+00   1.3334643e+00  -8.3187816e+06
   9.6532177e-10  -1.8831592e-03   1.5444471e+00   1.3339276e+00  -8.2823059e+06
   9.6632211e-10  -1.8748923e-03   1.5439877e+00   1.3343890e+00  -8.2459898e+06
   9.6732244e-10  -1.8666616e-03   1.5435304e+00   1.3348484e+00  -8.2098327e+06
   9.6832277e-10  -1.8584671e-03   1.5430751e+00   1.3353059e+00  -8.1738338e+06
   9.6932311e-10  -1.8503085e-03   1.5426220e+00   1.3357615e+00  -8.1379925e+06
   9.7032344e-10  -1.8421856e-03   1.5421709e+00   1.3362153e+00  -8.1023080e+06
   9.7132377e-10  -1.8340984e-03   1.5417218e+00   1.3366671e+00  -8.0667796e+06
   9.7232411e-10  -1.8260466e-03   1.5412748e+00   1.3371170e+00  -8.0314068e+06
   9.7332444e-10  -1.8180302e-03   1.5408298e+00   1.3375651e+00  -7.9961888e+06
   9.7432477e-10  -1.8100489e-03   1.5403868e+00   1.3380113e+00  -7.9611249e+06
   9.7532511e-10  -1.8021026e-03   1.5399459e+00   1.3384556e+00  -7.9262145e+06
   9.7632544e-10  -1.7941911e-03   1.5395069e+00   1.3388981e+00  -7.8914569e+06
   9.7732578e-10  -1.7863143e-03   1.5390700e+00   1.3393388e+00  -7.8568515e+06
   9.7832611e-10  -1.7784721e-03   1.5386350e+00   1.3397776e+00  -7.8223975e+06
   9.7932644e-10  -1.7706643e-03   1.5382020e+00   1.3402145e+00  -7.7880943e+06
   9.8032678e-10  -1.7628907e-03   1.5377709e+00   1.3406497e+00  -7.7539412e+06
   9.8132711e-10  -1.7551512e-03   1.5373418e+00   1.3410830e+00  -7.7199376e+06
   9.8232744e-10  -1.7474456e-03   1.5369147e+00   1.3415146e+00  -7.6860829e+06
   9.8332778e-10  -1.7397738e-03   1.5364894e+00   1.3419443e+00  -7.6523764e+06
   9.8432811e-10  -1.7321357e-03   1.5360661e+00   1.3423722e+00  -7.6188174e+06
   9.8532844e-10  -1.7245311e-03   1.5356448e+00   1.3427983e+00  -7.5854053e+06
   9.8632878e-10  -1.7169598e-03   1.5352253e+00   1.3432227e+00  -7.5521394e+06
   9.8732911e-10  -1.7094217e-03   1.5348077e+00   1.3436453e+00  -7.5190192e+06
   9.8832944e-10  -1.7019167e-03   1.5343921e+00   1.3440661e+00  -7.4860440e+06
   9.8932978e-10  -1.6944446e-03   1.5339783e+00   1.3444851e+00  -7.4532131e+06
   9.9033011e-10  -1.6870052e-03   1.5335664e+00   1.3449024e+00  -7.4205259e+06
   9.9133044e-10  -1.6795985e-03   1.5331563e+00   1.3453180e+00  -7.3879818e+06
   9.9233078e-10  -1.6722243e-03   1.5327481e+00   1.3457318e+00  -7.3555802e+06
   9.9333111e-10  -1.6648824e-03   1.5323418e+00   1.3461439e+00  -7.3233204e+06
   9.9433144e-10  -1.6575727e-03   1.5319373e+00   1.3465542e+00  -7.2912019e+06
   9.9533178e-10  -1.6502951e-03   1.5315346e+00   1.3469629e+00  -7.2592239e+06
   9.9633211e-10  -1.6430494e-03   1.5311337e+00   1.3473698e+00  -7.2273860e+06
   9.9733244e-10  -1.6358355e-03   1.5307347e+00   1.3477750e+00  -7.1956874e+06
   9.9833278e-10  -1.6286532e-03   1.5303375e+00   1.3481785e+00  -7.1641277e+06
   9.9933311e-10  -1.6215024e-03   1.5299420e+00   1.3485803e+00  -7.1327060e+06
   1.0003334e-09  -1.6143829e-03   1.5295484e+00   1.3489805e+00  -7.1014220e+06
   1.0013338e-09  -1.6072947e-03   1.5291565e+00   1.3493789e+00  -7.0702749e+06
   1.0023341e-09  -1.6002376e-03   1.5287664e+00   1.3497757e+00  -7.0392642e+06
   1.0033344e-09  -1.5932115e-03   1.5283781e+00   1.3501709e+00  -7.0083892e+06
   1.0043348e-09  -1.5862161e-03   1.5279915e+00   1.3505643e+00  -6.9776495e+06
   1.0053351e-09  -1.5792515e-03   1.5276067e+00   1.3509561e+00  -6.9470443e+06
   1.0063354e-09  -1.5723174e-03   1.5272236e+00   1.3513463e+00  -6.9165731e+06
   1.0073358e-09  -1.5654137e-03   1.5268422e+00   1.3517348e+00  -6.8862354e+06
   1.0083361e-09  -1.5585403e-03   1.5264626e+00   1.3521217e+00  -6.8560304e+06
   1.0093364e-09  -1.5516970e-03   1.5260847e+00   1.3525070e+00  -6.8259578e+06
   1.0103368e-09  -1.5448838e-03   1.5257084e+00   1.3528907e+00  -6.7960168e+06
   1.0113371e-09  -1.5381004e-03   1.5253339e+00   1.3532727e+00  -6.7662069e+06
   1.0123374e-09  -1.5313468e-03   1.5249611e+00   1.3536531e+00  -6.7365275e+06
   1.0133378e-09  -1.5246228e-03   1.5245900e+00   1.3540320e+00  -6.7069781e+06
   1.0143381e-09  -1.5179283e-03   1.5242205e+00   1.3544092e+00  -6.6775581e+06
   1.0153384e-09  -1.5112632e-03   1.5238527e+00   1.3547849e+00  -6.6482669e+06
   1.0163388e-09  -1.5046273e-03   1.5234866e+00   1.3551589e+00  -6.6191039e+06
   1.0173391e-09  -1.4980205e-03   1.5231221e+00   1.3555314e+00  -6.5900687e+06
   1.0183394e-09  -1.4914427e-03   1.5227593e+00   1.3559024e+00  -6.5611606e+06
   1.0193398e-09  -1.4848938e-03   1.5223981e+00   1.3562717e+00  -6.5323791e+06
   1.0203401e-09  -1.4783736e-03   1.5220385e+00   1.3566396e+00  -6.5037237e+06
   1.0213404e-09  -1.4718820e-03   1.5216806e+00   1.3570058e+00  -6.4751937e+06
   1.0223408e-09  -1.4654188e-03   1.5213242e+00   1.3573705e+00  -6.4467887e+06
   1.0233411e-09  -1.4589840e-03   1.5209695e+00   1.3577337e+00  -6.4185080e+06
   1.0243414e-09  -1.4525775e-03   1.5206164e+00   1.3580954e+00  -6.3903512e+06
   1.0253418e-09  -1.4461990e-03   1.5202648e+00   1.3584555e+00  -6.3623177e+06
   1.0263421e-09  -1.4398486e-03   1.5199149e+00   1.3588141e+00  -6.3344070e+06
   1.0273424e-09  -1.4335260e-03   1.5195665e+00   1.3591712e+00  -6.3066185e+06
   1.0283428e-09  -1.4272311e-03   1.5192197e+00   1.3595268e+00  -6.2789518e+06
   1.0293431e-09  -1.4209638e-03   1.5188745e+00   1.3598809e+00  -6.2514062e+06
   1.0303434e-09  -1.4147241e-03   1.5185308e+00   1.3602335e+00  -6.2239812e+06
   1.0313438e-09  -1.4085117e-03   1.5181887e+00   1.3605846e+00  -6.1966763e+06
   1.0323441e-09  -1.4023265e-03   1.5178481e+00   1.3609342e+00  -6.1694911e+06
   1.0333444e-09  -1.3961685e-03   1.5175091e+00   1.3612824e+00  -6.1424248e+06
   1.0343448e-09  -1.3900376e-03   1.5171715e+00   1.3616291e+00  -6.1154772e+06
   1.0353451e-09  -1.3839335e-03   1.5168355e+00   1.3619743e+00  -6.0886475e+06
   1.0363454e-09  -1.3778562e-03   1.5165011e+00   1.3623180e+00  -6.0619354e+06
   1.0373458e-09  -1.3718055e-03   1.5161681e+00   1.3626604e+00  -6.0353403e+06
   1.0383461e-09  -1.3657814e-03   1.5158366e+00   1.3630012e+00  -6.0088617e+06
   1.0393464e-09  -1.3597837e-03   1.5155066e+00   1.3633406e+00  -5.9824990e+06
   1.0403468e-09  -1.3538124e-03   1.5151781e+00   1.3636786e+00  -5.9562518e+06
   1.0413471e-09  -1.3478672e-03   1.5148511e+00   1.3640152e+00  -5.9301196e+06
   1.0423474e-09  -1.3419482e-03   1.5145255e+00   1.3643503e+00  -5.9041018e+06
   1.0433478e-09  -1.3360551e-03   1.5142015e+00   1.3646840e+00  -5.8781980e+06
   1.0443481e-09  -1.3301878e-03   1.5138788e+00   1.3650163e+00  -5.8524077e+06
   1.0453484e-09  -1.3243463e-03   1.5135577e+00   1.3653472e+00  -5.8267304e+06
   1.0463488e-09  -1.3185304e-03   1.5132379e+00   1.3656767e+00  -5.8011655e+06
   1.0473491e-09  -1.3127401e-03   1.5129196e+00   1.3660048e+00  -5.7757126e+06
   1.0483494e-09  -1.3069751e-03   1.5126028e+00   1.3663315e+00  -5.7503712e+06
   1.0493498e-09  -1.3012354e-03   1.5122874e+00   1.3666569e+00  -5.7251408e+06
   1.0503501e-09  -1.2955210e-03   1.5119733e+00   1.3669808e+00  -5.7000210e+06
   1.0513505e-09  -1.2898316e-03   1.5116607e+00   1.3673034e+00  -5.6750111e+06
   1.0523508e-09  -1.2841671e-03   1.5113495e+00   1.3676246e+00  -5.6501109e+06
   1.0533511e-09  -1.2785275e-03   1.5110398e+00   1.3679445e+00  -5.6253197e+06
   1.0543515e-09  -1.2729127e-03   1.5107314e+00   1.3682630e+00  -5.6006371e+06
   1.0553518e-09  -1.2673225e-03   1.5104243e+00   1.3685801e+00  -5.5760627e+06
   1.0563521e-09  -1.2617568e-03   1.5101187e+00   1.3688959e+00  -5.5515959e+06
   1.0573525e-09  -1.2562156e-03   1.5098145e+00   1.3692104e+00  -5.5272363e+06
   1.0583528e-09  -1.2506986e-03   1.5095116e+00   1.3695235e+00  -5.5029835e+06
   1.0593531e-09  -1.2452059e-03   1.5092100e+00   1.3698353e+00  -5.4788368e+06
   1.0603535e-09  -1.2397373e-03   1.5089099e+00   1.3701458e+00  -5.4547960e+06
   1.0613538e-09  -1.2342926e-03   1.5086110e+00   1.3704549e+00  -5.4308605e+06
   1.0623541e-09  -1.2288719e-03   1.5083136e+00   1.3707628e+00  -5.4070299e+06
   1.0633545e-09  -1.2234749e-03   1.5080174e+00   1.3710693e+00  -5.3833037e+06
   1.0643548e-09  -1.2181017e-03   1.5077226e+00   1.3713746e+00  -5.3596814e+06
   1.0653551e-09  -1.2127520e-03   1.5074291e+00   1.3716785e+00  -5.3361626e+06
   1.0663555e-09  -1.2074257e-03   1.5071369e+00   1.3719812e+00  -5.3127469e+06
   1.0673558e-09  -1.2021229e-03   1.5068461e+00   1.3722825e+00  -5.2894337e+06
   1.0683561e-09  -1.1968433e-03   1.5065565e+00   1.3725826e+00  -5.2662227e+06
   1.0693565e-09  -1.1915869e-03   1.5062683e+00   1.3728814e+00  -5.2431135e+06
   1.0703568e-09  -1.1863535e-03   1.5059813e+00   1.3731790e+00  -5.2201054e+06
   1.0713571e-09  -1.1811432e-03   1.5056957e+00   1.3734753e+00  -5.1971982e+06
   1.0723575e-09  -1.1759557e-03   1.5054113e+00   1.3737703e+00  -5.1743914e+06
   1.0733578e-09  -1.1707909e-03   1.5051282e+00   1.3740641e+00  -5.1516844e+06
   1.0743581e-09  -1.1656488e-03   1.5048463e+00   1.3743566e+00  -5.1290770e+06
   1.0753585e-09  -1.1605293e-03   1.5045658e+00   1.3746479e+00  -5.1065687e+06
   1.0763588e-09  -1.1554322e-03   1.5042864e+00   1.3749379e+00  -5.0841589e+06
   1.0773591e-09  -1.1503576e-03   1.5040084e+00   1.3752267e+00  -5.0618474e+06
   1.0783595e-09  -1.1453051e-03   1.5037316e+00   1.3755143e+00  -5.0396337e+06
   1.0793598e-09  -1.1402749e-03   1.5034560e+00   1.3758006e+00  -5.0175172e+06
   1.0803601e-09  -1.1352667e-03   1.5031817e+00   1.3760857e+00  -4.9954977e+06
   1.0813605e-09  -1.1302805e-03   1.5029086e+00   1.3763697e+00  -4.9735747e+06
   1.0823608e-09  -1.1253162e-03   1.5026367e+00   1.3766524e+00  -4.9517478e+06
   1.0833611e-09  -1.1203737e-03   1.5023660e+00   1.3769339e+00  -4.9300165e+06
   1.0843615e-09  -1.1154529e-03   1.5020966e+00   1.3772142e+00  -4.9083805e+06
   1.0853618e-09  -1.1105536e-03   1.5018284e+00   1.3774933e+00  -4.8868392e+06
   1.0863621e-09  -1.1056759e-03   1.5015613e+00   1.3777712e+00  -4.8653924e+06
   1.0873625e-09  -1.1008196e-03   1.5012955e+00   1.3780480e+00  -4.8440395e+06
   1.0883628e-09  -1.0959846e-03   1.5010308e+00   1.3783235e+00  -4.8227803e+06
   1.0893631e-09  -1.0911708e-03   1.5007674e+00   1.3785979e+00  -4.8016142e+06
   1.0903635e-09  -1.0863781e-03   1.5005051e+00   1.3788711e+00  -4.7805408e+06
   1.0913638e-09  -1.0816065e-03   1.5002440e+00   1.3791432e+00  -4.7595598e+06
   1.0923641e-09  -1.0768558e-03   1.4999841e+00   1.3794141e+00  -4.7386708e+06
   1.0933645e-09  -1.0721259e-03   1.4997253e+00   1.3796838e+00  -4.7178733e+06
   1.0943648e-09  -1.0674169e-03   1.4994677e+00   1.3799524e+00  -4.6971670e+06
   1.0953651e-09  -1.0627284e-03   1.4992113e+00   1.3802199e+00  -4.6765514e+06
   1.0963655e-09  -1.0580606e-03   1.4989560e+00   1.3804862e+00  -4.6560262e+06
   1.0973658e-09  -1.0534132e-03   1.4987018e+00   1.3807513e+00  -4.6355909e+06
   1.0983661e-09  -1.0487863e-03   1.4984488e+00   1.3810154e+00  -4.6152452e+06
   1.0993665e-09  -1.0441797e-03   1.4981969e+00   1.3812783e+00  -4.5949887e+06
   1.1003668e-09  -1.0395932e-03   1.4979462e+00   1.3815401e+00  -4.5748210e+06
   1.1013671e-09  -1.0350269e-03   1.4976965e+00   1.3818007e+00  -4.5547416e+06
   1.1023675e-09  -1.0304807e-03   1.4974480e+00   1.3820603e+00  -4.5347503e+06
   1.1033678e-09  -1.0259544e-03   1.4972006e+00   1.3823187e+00  -4.5148466e+06
   1.1043681e-09  -1.0214479e-03   1.4969543e+00   1.3825761e+00  -4.4950301e+06
   1.1053685e-09  -1.0169613e-03   1.4967091e+00   1.3828323e+00  -4.4753005e+06
   1.1063688e-09  -1.0124943e-03   1.4964650e+00   1.3830875e+00  -4.4556574e+06
   1.1073691e-09  -1.0080470e-03   1.4962220e+00   1.3833415e+00  -4.4361004e+06
   1.1083695e-09  -1.0036191e-03   1.4959801e+00   1.3835945e+00  -4.4166291e+06
   1.1093698e-09  -9.9921074e-04   1.4957393e+00   1.3838464e+00  -4.3972431e+06
   1.1103701e-09  -9.9482169e-04   1.4954995e+00   1.3840972e+00  -4.3779422e+06
   1.1113705e-09  -9.9045191e-04   1.4952609e+00   1.3843470e+00  -4.3587258e+06
   1.1123708e-09  -9.8610131e-04   1.4950232e+00   1.3845957e+00  -4.3395937e+06
   1.1133711e-09  -9.8176980e-04   1.4947867e+00   1.3848433e+00  -4.3205454e+06
   1.1143715e-09  -9.7745731e-04   1.4945512e+00   1.3850898e+00  -4.3015807e+06
   1.1153718e-09  -9.7316374e-04   1.4943168e+00   1.3853353e+00  -4.2826991e+06
   1.1163721e-09  -9.6888902e-04   1.4940834e+00   1.3855798e+00  -4.2639002e+06
   1.1173725e-09  -9.6463307e-04   1.4938510e+00   1.3858232e+00  -4.2451838e+06
   1.1183728e-09  -9.6039580e-04   1.4936197e+00   1.3860656e+00  -4.2265494e+06
   1.1193731e-09  -9.5617713e-04   1.4933895e+00   1.3863069e+00  -4.2079967e+06
   1.1203735e-09  -9.5197697e-04   1.4931602e+00   1.3865472e+00  -4.1895253e+06
   1.1213738e-09  -9.4779525e-04   1.4929320e+00   1.3867865e+00  -4.1711349e+06
   1.1223741e-09  -9.4363189e-04   1.4927048e+00   1.3870247e+00  -4.1528252e+06
   1.1233745e-09  -9.3948681e-04   1.4924787e+00   1.3872620e+00  -4.1345957e+06
   1.1243748e-09  -9.3535992e-04   1.4922535e+00   1.3874982e+00  -4.1164461e+06
   1.1253751e-09  -9.3125114e-04   1.4920293e+00   1.3877334e+00  -4.0983761e+06
   1.1263755e-09  -9.2716041e-04   1.4918062e+00   1.3879676e+00  -4.0803853e+06
   1.1273758e-09  -9.2308763e-04   1.4915840e+00   1.3882007e+00  -4.0624734e+06
   1.1283761e-09  -9.1903272e-04   1.4913629e+00   1.3884329e+00  -4.0446400e+06
   1.1293765e-09  -9.1499562e-04   1.4911427e+00   1.3886641e+00  -4.0268848e+06
   1.1303768e-09  -9.1097624e-04   1.4909235e+00   1.3888943e+00  -4.0092075e+06
   1.1313771e-09  -9.0697451e-04   1.4907053e+00   1.3891236e+00  -3.9916076e+06
   1.1323775e-09  -9.0299034e-04   1.4904880e+00   1.3893518e+00  -3.9740850e+06
   1.1333778e-09  -8.9902366e-04   1.4902718e+00   1.3895791e+00  -3.9566391e+06
   1.1343781e-09  -8.9507440e-04   1.4900565e+00   1.3898053e+00  -3.9392698e+06
   1.1353785e-09  -8.9114247e-04   1.4898421e+00   1.3900307e+00  -3.9219766e+06
   1.1363788e-09  -8.8722780e-04   1.4896288e+00   1.3902550e+00  -3.9047592e+06
   1.1373791e-09  -8.8333032e-04   1.4894163e+00   1.3904784e+00  -3.8876173e+06
   1.1383795e-09  -8.7944995e-04   1.4892049e+00   1.3907008e+00  -3.8705506e+06
   1.1393798e-09  -8.7558661e-04   1.4889943e+00   1.3909223e+00  -3.8535587e+06
   1.1403801e-09  -8.7174024e-04   1.4887847e+00   1.3911428e+00  -3.8366413e+06
   1.1413805e-09  -8.6791075e-04   1.4885761e+00   1.3913624e+00  -3.8197981e+06
   1.1423808e-09  -8.6409807e-04   1.4883683e+00   1.3915811e+00  -3.8030288e+06
   1.1433811e-09  -8.6030213e-04   1.4881615e+00   1.3917988e+00  -3.7863329e+06
   1.1443815e-09  -8.5652285e-04   1.4879557e+00   1.3920155e+00  -3.7697103e+06
   1.1453818e-09  -8.5276017e-04   1.4877507e+00   1.3922314e+00  -3.7531606e+06
   1.1463821e-09  -8.4901401e-04   1.4875467e+00   1.3924463e+00  -3.7366835e+06
   1.1473825e-09  -8.4528429e-04   1.4873435e+00   1.3926603e+00  -3.7202786e+06
   1.1483828e-09  -8.4157094e-04   1.4871413e+00   1.3928733e+00  -3.7039456e+06
   1.1493831e-09  -8.3787390e-04   1.4869400e+00   1.3930855e+00  -3.6876843e+06
   1.1503835e-09  -8.3419309e-04   1.4867396e+00   1.3932967e+00  -3.6714942e+06
   1.1513838e-09  -8.3052844e-04   1.4865401e+00   1.3935071e+00  -3.6553752e+06
   1.1523841e-09  -8.2687988e-04   1.4863414e+00   1.3937165e+00  -3.6393269e+06
   1.1533845e-09  -8.2324734e-04   1.4861437e+00   1.3939250e+00  -3.6233489e+06
   1.1543848e-09  -8.1963074e-04   1.4859468e+00   1.3941327e+00  -3.6074410e+06
   1.1553851e-09  -8.1603003e-04   1.4857508e+00   1.3943394e+00  -3.5916029e+06
   1.1563855e-09  -8.1244512e-04   1.4855557e+00   1.3945453e+00  -3.5758342e+06
   1.1573858e-09  -8.0887595e-04   1.4853615e+00   1.3947503e+00  -3.5601347e+06
   1.1583861e-09  -8.0532245e-04   1.4851681e+00   1.3949543e+00  -3.5445040e+06
   1.1593865e-09  -8.0178456e-04   1.4849756e+00   1.3951576e+00  -3.5289418e+06
   1.1603868e-09  -7.9826219e-04   1.4847839e+00   1.3953599e+00  -3.5134480e+06
   1.1613871e-09  -7.9475529e-04   1.4845931e+00   1.3955614e+00  -3.4980220e+06
   1.1623875e-09  -7.9126379e-04   1.4844032e+00   1.3957620e+00  -3.4826638e+06
   1.1633878e-09  -7.8778762e-04   1.4842141e+00   1.3959617e+00  -3.4673728e+06
   1.1643881e-09  -7.8432671e-04   1.4840258e+00   1.3961606e+00  -3.4521490e+06
   1.1653885e-09  -7.8088100e-04   1.4838384e+00   1.3963586e+00  -3.4369919e+06
   1.1663888e-09  -7.7745041e-04   1.4836518e+00   1.3965558e+00  -3.4219013e+06
   1.1673891e-09  -7.7403489e-04   1.4834660e+00   1.3967522e+00  -3.4068768e+06
   1.1683895e-09  -7.7063437e-04   1.4832811e+00   1.3969476e+00  -3.3919183e+06
   1.1693898e-09  -7.6724877e-04   1.4830970e+00   1.3971423e+00  -3.3770254e+06
   1.1703901e-09  -7.6387804e-04   1.4829137e+00   1.3973361e+00  -3.3621978e+06
   1.1713905e-09  -7.6052211e-04   1.4827313e+00   1.3975291e+00  -3.3474352e+06
   1.1723908e-09  -7.5718092e-04   1.4825496e+00   1.3977212e+00  -3.3327374e+06
   1.1733911e-09  -7.5385439e-04   1.4823688e+00   1.3979125e+00  -3.3181040e+06
   1.1743915e-09  -7.5054248e-04   1.4821888e+00   1.3981030e+00  -3.3035348e+06
   1.1753918e-09  -7.4724510e-04   1.4820095e+00   1.3982927e+00  -3.2890295e+06
   1.1763921e-09  -7.4396220e-04   1.4818311e+00   1.3984816e+00  -3.2745879e+06
   1.1773925e-09  -7.4069372e-04   1.4816535e+00   1.3986696e+00  -3.2602096e+06
   1.1783928e-09  -7.3743959e-04   1.4814766e+00   1.3988568e+00  -3.2458943e+06
   1.1793931e-09  -7.3419974e-04   1.4813006e+00   1.3990433e+00  -3.2316419e+06
   1.1803935e-09  -7.3097413e-04   1.4811253e+00   1.3992289e+00  -3.2174520e+06
   1.1813938e-09  -7.2776267e-04   1.4809508e+00   1.3994137e+00  -3.2033243e+06
   1.1823941e-09  -7.2456532e-04   1.4807771e+00   1.3995977e+00  -3.1892585e+06
   1.1833945e-09  -7.2138201e-04   1.4806042e+00   1.3997810e+00  -3.1752545e+06
   1.1843948e-09  -7.1821268e-04   1.4804320e+00   1.3999634e+00  -3.1613119e+06
   1.1853951e-09  -7.1505726e-04   1.4802606e+00   1.4001451e+00  -3.1474305e+06
   1.1863955e-09  -7.1191570e-04   1.4800899e+00   1.4003260e+00  -3.1336099e+06
   1.1873958e-09  -7.0878793e-04   1.4799201e+00   1.4005061e+00  -3.1198500e+06
   1.1883961e-09  -7.0567389e-04   1.4797509e+00   1.4006854e+00  -3.1061504e+06
   1.1893965e-09  -7.0257354e-04   1.4795826e+00   1.4008639e+00  -3.0925110e+06
   1.1903968e-09  -6.9948679e-04   1.4794149e+00   1.4010417e+00  -3.0789313e+06
   1.1913971e-09  -6.9641360e-04   1.4792481e+00   1.4012187e+00  -3.0654113e+06
   1.1923975e-09  -6.9335390e-04   1.4790819e+00   1.4013950e+00  -3.0519505e+06
   1.1933978e-09  -6.9030764e-04   1.4789166e+00   1.4015705e+00  -3.0385488e+06
   1.1943981e-09  -6.8727476e-04   1.4787519e+00   1.4017452e+00  -3.0252059e+06
   1.1953985e-09  -6.8425519e-04   1.4785880e+00   1.4019192e+00  -3.0119215e+06
   1.1963988e-09  -6.8124889e-04   1.4784248e+00   1.4020924e+00  -2.9986954e+06
   1.1973991e-09  -6.7825578e-04   1.4782623e+00   1.4022649e+00  -2.9855273e+06
   1.1983995e-09  -6.7527582e-04   1.4781006e+00   1.4024367e+00  -2.9724170e+06
   1.1993998e-09  -6.7230895e-04   1.4779396e+00   1.4026077e+00  -2.9593642e+06
   1.2004001e-09  -6.6935510e-04   1.4777792e+00   1.4027779e+00  -2.9463687e+06
   1.2014005e-09  -6.6641423e-04   1.4776197e+00   1.4029474e+00  -2.9334302e+06
   1.2024008e-09  -6.6348627e-04   1.4774608e+00   1.4031162e+00  -2.9205484e+06
   1.2034011e-09  -6.6057116e-04   1.4773026e+00   1.4032843e+00  -2.9077232e+06
   1.2044015e-09  -6.5766886e-04   1.4771451e+00   1.4034517e+00  -2.8949542e+06
   1.2054018e-09  -6.5477931e-04   1.4769884e+00   1.4036183e+00  -2.8822412e+06
   1.2064021e-09  -6.5190244e-04   1.4768323e+00   1.4037842e+00  -2.8695840e+06
   1.2074025e-09  -6.4903821e-04   1.4766769e+00   1.4039494e+00  -2.8569824e+06
   1.2084028e-09  -6.4618655e-04   1.4765222e+00   1.4041138e+00  -2.8444360e+06
   1.2094031e-09  -6.4334742e-04   1.4763682e+00   1.4042776e+00  -2.8319447e+06
   1.2104035e-09  -6.4052075e-04   1.4762149e+00   1.4044406e+00  -2.8195082e+06
   1.2114038e-09  -6.3770650e-04   1.4760623e+00   1.4046030e+00  -2.8071262e+06
   1.2124041e-09  -6.3490461e-04   1.4759103e+00   1.4047646e+00  -2.7947986e+06
   1.2134045e-09  -6.3211503e-04   1.4757590e+00   1.4049256e+00  -2.7825250e+06
   1.2144048e-09  -6.2933769e-04   1.4756084e+00   1.4050859e+00  -2.7703054e+06
   1.2154051e-09  -6.2657255e-04   1.4754585e+00   1.4052454e+00  -2.7581393e+06
   1.2164055e-09  -6.2381955e-04   1.4753092e+00   1.4054043e+00  -2.7460266e+06
   1.2174058e-09  -6.2107865e-04   1.4751606e+00   1.4055625e+00  -2.7339670e+06
   1.2184061e-09  -6.1834978e-04   1.4750127e+00   1.4057200e+00  -2.7219604e+06
   1.2194065e-09  -6.1563289e-04   1.4748654e+00   1.4058768e+00  -2.7100064e+06
   1.2204068e-09  -6.1292794e-04   1.4747188e+00   1.4060330e+00  -2.6981049e+06
   1.2214071e-09  -6.1023487e-04   1.4745728e+00   1.4061884e+00  -2.6862556e+06
   1.2224075e-09  -6.0755362e-04   1.4744274e+00   1.4063432e+00  -2.6744583e+06
   1.2234078e-09  -6.0488415e-04   1.4742828e+00   1.4064974e+00  -2.6627128e+06
   1.2244081e-09  -6.0222640e-04   1.4741387e+00   1.4066508e+00  -2.6510188e+06
   1.2254085e-09  -5.9958033e-04   1.4739953e+00   1.4068036e+00  -2.6393761e+06
   1.2264088e-09  -5.9694587e-04   1.4738526e+00   1.4069558e+00  -2.6277845e+06
   1.2274091e-09  -5.9432299e-04   1.4737104e+00   1.4071073e+00  -2.6162438e+06
   1.2284095e-09  -5.9171162e-04   1.4735689e+00   1.4072581e+00  -2.6047537e+06
   1.2294098e-09  -5.8911173e-04   1.4734281e+00   1.4074083e+00  -2.5933141e+06
   1.2304101e-09  -5.8652325e-04   1.4732878e+00   1.4075578e+00  -2.5819246e+06
   1.2314105e-09  -5.8394614e-04   1.4731482e+00   1.4077067e+00  -2.5705851e+06
   1.2324108e-09  -5.8138035e-04   1.4730092e+00   1.4078549e+00  -2.5592953e+06
   1.2334111e-09  -5.7882582e-04   1.4728708e+00   1.4080025e+00  -2.5480551e+06
   1.2344115e-09  -5.7628252e-04   1.4727331e+00   1.4081495e+00  -2.5368643e+06
   1.2354118e-09  -5.7375039e-04   1.4725959e+00   1.4082958e+00  -2.5257225e+06
   1.2364121e-09  -5.7122938e-04   1.4724594e+00   1.4084415e+00  -2.5146296e+06
   1.2374125e-09  -5.6871944e-04   1.4723234e+00   1.4085865e+00  -2.5035854e+06
   1.2384128e-09  -5.6622052e-04   1.4721881e+00   1.4087310e+00  -2.4925897e+06
   1.2394131e-09  -5.6373258e-04   1.4720533e+00   1.4088748e+00  -2.4816422e+06
   1.2404135e-09  -5.6125556e-04   1.4719192e+00   1.4090179e+00  -2.4707428e+06
   1.2414138e-09  -5.5878943e-04   1.4717857e+00   1.4091605e+00  -2.4598912e+06
   1.2424141e-09  -5.5633412e-04   1.4716527e+00   1.4093024e+00  -2.4490872e+06
   1.2434145e-09  -5.5388960e-04   1.4715204e+00   1.4094438e+00  -2.4383306e+06
   1.2444148e-09  -5.5145582e-04   1.4713886e+00   1.4095845e+00  -2.4276213e+06
   1.2454151e-09  -5.4903273e-04   1.4712574e+00   1.4097246e+00  -2.4169589e+06
   1.2464155e-09  -5.4662028e-04   1.4711268e+00   1.4098641e+00  -2.4063433e+06
   1.2474158e-09  -5.4421842e-04   1.4709968e+00   1.4100030e+00  -2.3957743e+06
   1.2484161e-09  -5.4182711e-04   1.4708674e+00   1.4101413e+00  -2.3852517e+06
   1.2494165e-09  -5.3944631e-04   1.4707385e+00   1.4102790e+00  -2.3747753e+06
   1.2504168e-09  -5.3707597e-04   1.4706102e+00   1.4104161e+00  -2.3643448e+06
   1.2514171e-09  -5.3471603e-04   1.4704825e+00   1.4105526e+00  -2.3539601e+06
   1.2524175e-09  -5.3236646e-04   1.4703553e+00   1.4106885e+00  -2.3436210e+06
   1.2534178e-09  -5.3002721e-04   1.4702287e+00   1.4108239e+00  -2.3333273e+06
   1.2544181e-09  -5.2769823e-04   1.4701027e+00   1.4109586e+00  -2.3230788e+06
   1.2554185e-09  -5.2537949e-04   1.4699772e+00   1.4110928e+00  -2.3128752e+06
   1.2564188e-09  -5.2307093e-04   1.4698523e+00   1.4112264e+00  -2.3027164e+06
   1.2574191e-09  -5.2077250e-04   1.4697279e+00   1.4113594e+00  -2.2926022e+06
   1.2584195e-09  -5.1848418e-04   1.4696041e+00   1.4114918e+00  -2.2825324e+06
   1.2594198e-09  -5.1620590e-04   1.4694809e+00   1.4116236e+00  -2.2725068e+06
   1.2604201e-09  -5.1393763e-04   1.4693581e+00   1.4117549e+00  -2.2625252e+06
   1.2614205e-09  -5.1167933e-04   1.4692360e+00   1.4118856e+00  -2.2525874e+06
   1.2624208e-09  -5.0943094e-04   1.4691144e+00   1.4120158e+00  -2.2426932e+06
   1.2634211e-09  -5.0719243e-04   1.4689933e+00   1.4121453e+00  -2.2328424e+06
   1.2644215e-09  -5.0496375e-04   1.4688727e+00   1.4122744e+00  -2.2230349e+06
   1.2654218e-09  -5.0274487e-04   1.4687527e+00   1.4124028e+00  -2.2132704e+06
   1.2664221e-09  -5.0053572e-04   1.4686332e+00   1.4125307e+00  -2.2035488e+06
   1.2674225e-09  -4.9833628e-04   1.4685143e+00   1.4126581e+00  -2.1938698e+06
   1.2684228e-09  -4.9614651e-04   1.4683958e+00   1.4127849e+00  -2.1842333e+06
   1.2694231e-09  -4.9396635e-04   1.4682779e+00   1.4129111e+00  -2.1746391e+06
   1.2704235e-09  -4.9179576e-04   1.4681606e+00   1.4130368e+00  -2.1650871e+06
   1.2714238e-09  -4.8963472e-04   1.4680437e+00   1.4131620e+00  -2.1555769e+06
   1.2724241e-09  -4.8748316e-04   1.4679274e+00   1.4132866e+00  -2.1461085e+06
   1.2734245e-09  -4.8534105e-04   1.4678116e+00   1.4134106e+00  -2.1366817e+06
   1.2744248e-09  -4.8320836e-04   1.4676963e+00   1.4135342e+00  -2.1272962e+06
   1.2754251e-09  -4.8108503e-04   1.4675815e+00   1.4136572e+00  -2.1179520e+06
   1.2764255e-09  -4.7897103e-04   1.4674672e+00   1.4137796e+00  -2.1086487e+06
   1.2774258e-09  -4.7686631e-04   1.4673534e+00   1.4139016e+00  -2.0993863e+06
   1.2784261e-09  -4.7477084e-04   1.4672401e+00   1.4140230e+00  -2.0901645e+06
   1.2794265e-09  -4.7268457e-04   1.4671273e+00   1.4141438e+00  -2.0809832e+06
   1.2804268e-09  -4.7060747e-04   1.4670151e+00   1.4142642e+00  -2.0718423e+06
   1.2814271e-09  -4.6853949e-04   1.4669033e+00   1.4143840e+00  -2.0627414e+06
   1.2824275e-09  -4.6648060e-04   1.4667920e+00   1.4145033e+00  -2.0536805e+06
   1.2834278e-09  -4.6443075e-04   1.4666812e+00   1.4146221e+00  -2.0446594e+06
   1.2844281e-09  -4.6238991e-04   1.4665709e+00   1.4147404e+00  -2.0356778e+06
   1.2854285e-09  -4.6035802e-04   1.4664611e+00   1.4148582e+00  -2.0267357e+06
   1.2864288e-09  -4.5833507e-04   1.4663518e+00   1.4149754e+00  -2.0178329e+06
   1.2874291e-09  -4.5632100e-04   1.4662430e+00   1.4150922e+00  -2.0089691e+06
   1.2884295e-09  -4.5431578e-04   1.4661346e+00   1.4152084e+00  -2.0001442e+06
   1.2894298e-09  -4.5231936e-04   1.4660268e+00   1.4153241e+00  -1.9913581e+06
   1.2904301e-09  -4.5033172e-04   1.4659194e+00   1.4154394e+00  -1.9826105e+06
   1.2914305e-09  -4.4835281e-04   1.4658125e+00   1.4155541e+00  -1.9739013e+06
   1.2924308e-09  -4.4638259e-04   1.4657060e+00   1.4156683e+00  -1.9652304e+06
   1.2934311e-09  -4.4442102e-04   1.4656000e+00   1.4157821e+00  -1.9565975e+06
   1.2944315e-09  -4.4246808e-04   1.4654945e+00   1.4158953e+00  -1.9480026e+06
   1.2954318e-09  -4.4052371e-04   1.4653895e+00   1.4160080e+00  -1.9394453e+06
   1.2964321e-09  -4.3858788e-04   1.4652849e+00   1.4161203e+00  -1.9309257e+06
   1.2974325e-09  -4.3666056e-04   1.4651808e+00   1.4162321e+00  -1.9224434e+06
   1.2984328e-09  -4.3474170e-04   1.4650772e+00   1.4163434e+00  -1.9139983e+06
   1.2994331e-09  -4.3283127e-04   1.4649740e+00   1.4164542e+00  -1.9055904e+06
   1.3004335e-09  -4.3092924e-04   1.4648713e+00   1.4165645e+00  -1.8972193e+06
   1.3014338e-09  -4.2903555e-04   1.4647690e+00   1.4166743e+00  -1.8888850e+06
   1.3024341e-09  -4.2715019e-04   1.4646672e+00   1.4167837e+00  -1.8805873e+06
   1.3034345e-09  -4.2527311e-04   1.4645658e+00   1.4168926e+00  -1.8723260e+06
   1.3044348e-09  -4.2340428e-04   1.4644649e+00   1.4170010e+00  -1.8641010e+06
   1.3054351e-09  -4.2154366e-04   1.4643644e+00   1.4171089e+00  -1.8559121e+06
   1.3064355e-09  -4.1969121e-04   1.4642644e+00   1.4172164e+00  -1.8477591e+06
   1.3074358e-09  -4.1784689e-04   1.4641648e+00   1.4173234e+00  -1.8396419e+06
   1.3084361e-09  -4.1601068e-04   1.4640657e+00   1.4174300e+00  -1.8315604e+06
   1.3094365e-09  -4.1418254e-04   1.4639670e+00   1.4175361e+00  -1.8235144e+06
   1.3104368e-09  -4.1236243e-04   1.4638687e+00   1.4176417e+00  -1.8155036e+06
   1.3114371e-09  -4.1055031e-04   1.4637709e+00   1.4177468e+00  -1.8075281e+06
   1.3124375e-09  -4.0874615e-04   1.4636735e+00   1.4178516e+00  -1.7995875e+06
   1.3134378e-09  -4.0694992e-04   1.4635765e+00   1.4179558e+00  -1.7916818e+06
   1.3144381e-09  -4.0516158e-04   1.4634800e+00   1.4180596e+00  -1.7838108e+06
   1.3154385e-09  -4.0338110e-04   1.4633839e+00   1.4181629e+00  -1.7759744e+06
   1.3164388e-09  -4.0160844e-04   1.4632882e+00   1.4182658e+00  -1.7681724e+06
   1.3174391e-09  -3.9984357e-04   1.4631929e+00   1.4183683e+00  -1.7604046e+06
   1.3184395e-09  -3.9808644e-04   1.4630981e+00   1.4184703e+00  -1.7526710e+06
   1.3194398e-09  -3.9633704e-04   1.4630037e+00   1.4185719e+00  -1.7449713e+06
   1.3204401e-09  -3.9459533e-04   1.4629097e+00   1.4186730e+00  -1.7373054e+06
   1.3214405e-09  -3.9286126e-04   1.4628161e+00   1.4187737e+00  -1.7296731e+06
   1.3224408e-09  -3.9113482e-04   1.4627229e+00   1.4188739e+00  -1.7220744e+06
   1.3234411e-09  -3.8941595e-04   1.4626302e+00   1.4189737e+00  -1.7145090e+06
   1.3244415e-09  -3.8770464e-04   1.4625378e+00   1.4190731e+00  -1.7069769e+06
   1.3254418e-09  -3.8600085e-04   1.4624459e+00   1.4191720e+00  -1.6994778e+06
   1.3264421e-09  -3.8430454e-04   1.4623544e+00   1.4192705e+00  -1.6920116e+06
   1.3274425e-09  -3.8261569e-04   1.4622633e+00   1.4193686e+00  -1.6845782e+06
   1.3284428e-09  -3.8093425e-04   1.4621725e+00   1.4194663e+00  -1.6771775e+06
   1.3294431e-09  -3.7926020e-04   1.4620822e+00   1.4195635e+00  -1.6698092e+06
   1.3304435e-09  -3.7759351e-04   1.4619923e+00   1.4196603e+00  -1.6624733e+06
   1.3314438e-09  -3.7593414e-04   1.4619028e+00   1.4197567e+00  -1.6551697e+06
   1.3324441e-09  -3.7428206e-04   1.4618137e+00   1.4198526e+00  -1.6478980e+06
   1.3334445e-09  -3.7263723e-04   1.4617249e+00   1.4199482e+00  -1.6406583e+06
   1.3344448e-09  -3.7099963e-04   1.4616366e+00   1.4200433e+00  -1.6334504e+06
   1.3354451e-09  -3.6936923e-04   1.4615486e+00   1.4201380e+00  -1.6262742e+06
   1.3364455e-09  -3.6774599e-04   1.4614611e+00   1.4202323e+00  -1.6191294e+06
   1.3374458e-09  -3.6612988e-04   1.4613739e+00   1.4203262e+00  -1.6120161e+06
   1.3384461e-09  -3.6452087e-04   1.4612871e+00   1.4204197e+00  -1.6049339e+06
   1.3394465e-09  -3.6291893e-04   1.4612007e+00   1.4205128e+00  -1.5978829e+06
   1.3404468e-09  -3.6132403e-04   1.4611147e+00   1.4206055e+00  -1.5908628e+06
   1.3414471e-09  -3.5973614e-04   1.4610291e+00   1.4206978e+00  -1.5838735e+06
   1.3424475e-09  -3.5815522e-04   1.4609438e+00   1.4207896e+00  -1.5769150e+06
   1.3434478e-09  -3.5658125e-04   1.4608590e+00   1.4208811e+00  -1.5699869e+06
   1.3444481e-09  -3.5501419e-04   1.4607744e+00   1.4209722e+00  -1.5630894e+06
   1.3454485e-09  -3.5345401e-04   1.4606903e+00   1.4210628e+00  -1.5562220e+06
   1.3464488e-09  -3.5190070e-04   1.4606066e+00   1.4211531e+00  -1.5493849e+06
   1.3474491e-09  -3.5035420e-04   1.4605232e+00   1.4212430e+00  -1.5425778e+06
   1.3484495e-09  -3.4881450e-04   1.4604402e+00   1.4213325e+00  -1.5358005e+06
   1.3494498e-09  -3.4728157e-04   1.4603575e+00   1.4214216e+00  -1.5290530e+06
   1.3504502e-09  -3.4575537e-04   1.4602752e+00   1.4215103e+00  -1.5223352e+06
   1.3514505e-09  -3.4423587e-04   1.4601933e+00   1.4215987e+00  -1.5156468e+06
   1.3524508e-09  -3.4272305e-04   1.4601117e+00   1.4216866e+00  -1.5089878e+06
   1.3534512e-09  -3.4121688e-04   1.4600305e+00   1.4217742e+00  -1.5023581e+06
   1.3544515e-09  -3.3971732e-04   1.4599497e+00   1.4218614e+00  -1.4957575e+06
   1.3554518e-09  -3.3822436e-04   1.4598692e+00   1.4219482e+00  -1.4891858e+06
   1.3564522e-09  -3.3673795e-04   1.4597891e+00   1.4220346e+00  -1.4826430e+06
   1.3574525e-09  -3.3525807e-04   1.4597093e+00   1.4221207e+00  -1.4761290e+06
   1.3584528e-09  -3.3378470e-04   1.4596299e+00   1.4222063e+00  -1.4696435e+06
   1.3594532e-09  -3.3231780e-04   1.4595508e+00   1.4222916e+00  -1.4631865e+06
   1.3604535e-09  -3.3085734e-04   1.4594721e+00   1.4223766e+00  -1.4567579e+06
   1.3614538e-09  -3.2940330e-04   1.4593938e+00   1.4224611e+00  -1.4503575e+06
   1.3624542e-09  -3.2795565e-04   1.4593157e+00   1.4225453e+00  -1.4439852e+06
   1.3634545e-09  -3.2651436e-04   1.4592381e+00   1.4226291e+00  -1.4376409e+06
   1.3644548e-09  -3.2507940e-04   1.4591607e+00   1.4227126e+00  -1.4313245e+06
   1.3654552e-09  -3.2365074e-04   1.4590837e+00   1.4227957e+00  -1.4250358e+06
   1.3664555e-09  -3.2222837e-04   1.4590071e+00   1.4228784e+00  -1.4187747e+06
   1.3674558e-09  -3.2081224e-04   1.4589308e+00   1.4229608e+00  -1.4125411e+06
   1.3684562e-09  -3.1940233e-04   1.4588548e+00   1.4230428e+00  -1.4063349e+06
   1.3694565e-09  -3.1799862e-04   1.4587792e+00   1.4231245e+00  -1.4001559e+06
   1.3704568e-09  -3.1660108e-04   1.4587039e+00   1.4232058e+00  -1.3940041e+06
   1.3714572e-09  -3.1520967e-04   1.4586289e+00   1.4232867e+00  -1.3878793e+06
   1.3724575e-09  -3.1382438e-04   1.4585542e+00   1.4233673e+00  -1.3817814e+06
   1.3734578e-09  -3.1244518e-04   1.4584799e+00   1.4234476e+00  -1.3757102e+06
   1.3744582e-09  -3.1107204e-04   1.4584060e+00   1.4235275e+00  -1.3696658e+06
   1.3754585e-09  -3.0970493e-04   1.4583323e+00   1.4236070e+00  -1.3636478e+06
   1.3764588e-09  -3.0834382e-04   1.4582590e+00   1.4236862e+00  -1.3576563e+06
   1.3774592e-09  -3.0698870e-04   1.4581860e+00   1.4237651e+00  -1.3516911e+06
   1.3784595e-09  -3.0563953e-04   1.4581133e+00   1.4238436e+00  -1.3457522e+06
   1.3794598e-09  -3.0429629e-04   1.4580409e+00   1.4239217e+00  -1.3398392e+06
   1.3804602e-09  -3.0295895e-04   1.4579689e+00   1.4239996e+00  -1.3339523e+06
   1.3814605e-09  -3.0162749e-04   1.4578972e+00   1.4240771e+00  -1.3280912e+06
   1.3824608e-09  -3.0030187e-04   1.4578258e+00   1.4241542e+00  -1.3222559e+06
   1.3834612e-09  -2.9898209e-04   1.4577547e+00   1.4242310e+00  -1.3164461e+06
   1.3844615e-09  -2.9766810e-04   1.4576839e+00   1.4243075e+00  -1.3106619e+06
   1.3854618e-09  -2.9635988e-04   1.4576134e+00   1.4243836e+00  -1.3049031e+06
   1.3864622e-09  -2.9505741e-04   1.4575433e+00   1.4244595e+00  -1.2991696e+06
   1.3874625e-09  -2.9376067e-04   1.4574735e+00   1.4245349e+00  -1.2934613e+06
   1.3884628e-09  -2.9246962e-04   1.4574039e+00   1.4246101e+00  -1.2877780e+06
   1.3894632e-09  -2.9118424e-04   1.4573347e+00   1.4246849e+00  -1.2821197e+06
   1.3904635e-09  -2.8990451e-04   1.4572658e+00   1.4247594e+00  -1.2764863e+06
   1.3914638e-09  -2.8863041e-04   1.4571972e+00   1.4248336e+00  -1.2708775e+06
   1.3924642e-09  -2.8736190e-04   1.4571289e+00   1.4249074e+00  -1.2652935e+06
   1.3934645e-09  -2.8609897e-04   1.4570609e+00   1.4249810e+00  -1.2597339e+06
   1.3944648e-09  -2.8484159e-04   1.4569931e+00   1.4250542e+00  -1.2541988e+06
   1.3954652e-09  -2.8358973e-04   1.4569257e+00   1.4251271e+00  -1.2486879e+06
   1.3964655e-09  -2.8234337e-04   1.4568586e+00   1.4251996e+00  -1.2432013e+06
   1.3974658e-09  -2.8110249e-04   1.4567918e+00   1.4252719e+00  -1.2377388e+06
   1.3984662e-09  -2.7986706e-04   1.4567253e+00   1.4253438e+00  -1.2323003e+06
   1.3994665e-09  -2.7863706e-04   1.4566591e+00   1.4254155e+00  -1.2268856e+06
   1.4004668e-09  -2.7741246e-04   1.4565931e+00   1.4254868e+00  -1.2214947e+06
   1.4014672e-09  -2.7619325e-04   1.4565275e+00   1.4255578e+00  -1.2161275e+06
   1.4024675e-09  -2.7497939e-04   1.4564621e+00   1.4256285e+00  -1.2107839e+06
   1.4034678e-09  -2.7377086e-04   1.4563971e+00   1.4256989e+00  -1.2054638e+06
   1.4044682e-09  -2.7256765e-04   1.4563323e+00   1.4257689e+00  -1.2001670e+06
   1.4054685e-09  -2.7136972e-04   1.4562678e+00   1.4258387e+00  -1.1948935e+06
   1.4064688e-09  -2.7017706e-04   1.4562036e+00   1.4259082e+00  -1.1896431e+06
   1.4074692e-09  -2.6898963e-04   1.4561397e+00   1.4259773e+00  -1.1844158e+06
   1.4084695e-09  -2.6780743e-04   1.4560761e+00   1.4260462e+00  -1.1792115e+06
   1.4094698e-09  -2.6663042e-04   1.4560127e+00   1.4261148e+00  -1.1740300e+06
   1.4104702e-09  -2.6545858e-04   1.4559496e+00   1.4261830e+00  -1.1688713e+06
   1.4114705e-09  -2.6429189e-04   1.4558868e+00   1.4262510e+00  -1.1637352e+06
   1.4124708e-09  -2.6313032e-04   1.4558243e+00   1.4263187e+00  -1.1586217e+06
   1.4134712e-09  -2.6197386e-04   1.4557621e+00   1.4263860e+00  -1.1535307e+06
   1.4144715e-09  -2.6082249e-04   1.4557001e+00   1.4264531e+00  -1.1484620e+06
   1.4154718e-09  -2.5967617e-04   1.4556384e+00   1.4265199e+00  -1.1434156e+06
   1.4164722e-09  -2.5853488e-04   1.4555770e+00   1.4265864e+00  -1.1383913e+06
   1.4174725e-09  -2.5739862e-04   1.4555158e+00   1.4266526e+00  -1.1333891e+06
   1.4184728e-09  -2.5626734e-04   1.4554550e+00   1.4267185e+00  -1.1284089e+06
   1.4194732e-09  -2.5514104e-04   1.4553943e+00   1.4267841e+00  -1.1234506e+06
   1.4204735e-09  -2.5401969e-04   1.4553340e+00   1.4268495e+00  -1.1185140e+06
   1.4214738e-09  -2.5290326e-04   1.4552739e+00   1.4269145e+00  -1.1135991e+06
   1.4224742e-09  -2.5179174e-04   1.4552141e+00   1.4269793e+00  -1.1087058e+06
   1.4234745e-09  -2.5068510e-04   1.4551546e+00   1.4270438e+00  -1.1038340e+06
   1.4244748e-09  -2.4958333e-04   1.4550953e+00   1.4271080e+00  -1.0989836e+06
   1.4254752e-09  -2.4848639e-04   1.4550363e+00   1.4271719e+00  -1.0941545e+06
   1.4264755e-09  -2.4739428e-04   1.4549775e+00   1.4272356e+00  -1.0893466e+06
   1.4274758e-09  -2.4630697e-04   1.4549190e+00   1.4272989e+00  -1.0845599e+06
   1.4284762e-09  -2.4522443e-04   1.4548607e+00   1.4273620e+00  -1.0797941e+06
   1.4294765e-09  -2.4414665e-04   1.4548028e+00   1.4274249e+00  -1.0750493e+06
   1.4304768e-09  -2.4307361e-04   1.4547450e+00   1.4274874e+00  -1.0703253e+06
   1.4314772e-09  -2.4200528e-04   1.4546875e+00   1.4275497e+00  -1.0656221e+06
   1.4324775e-09  -2.4094165e-04   1.4546303e+00   1.4276117e+00  -1.0609396e+06
   1.4334778e-09  -2.3988269e-04   1.4545734e+00   1.4276734e+00  -1.0562776e+06
   1.4344782e-09  -2.3882838e-04   1.4545166e+00   1.4277349e+00  -1.0516361e+06
   1.4354785e-09  -2.3777871e-04   1.4544602e+00   1.4277960e+00  -1.0470150e+06
   1.4364788e-09  -2.3673365e-04   1.4544039e+00   1.4278570e+00  -1.0424141e+06
   1.4374792e-09  -2.3569318e-04   1.4543480e+00   1.4279176e+00  -1.0378335e+06
   1.4384795e-09  -2.3465728e-04   1.4542923e+00   1.4279780e+00  -1.0332730e+06
   1.4394798e-09  -2.3362593e-04   1.4542368e+00   1.4280381e+00  -1.0287326e+06
   1.4404802e-09  -2.3259912e-04   1.4541815e+00   1.4280980e+00  -1.0242120e+06
   1.4414805e-09  -2.3157682e-04   1.4541266e+00   1.4281576e+00  -1.0197114e+06
   1.4424808e-09  -2.3055901e-04   1.4540718e+00   1.4282170e+00  -1.0152305e+06
   1.4434812e-09  -2.2954568e-04   1.4540173e+00   1.4282760e+00  -1.0107693e+06
   1.4444815e-09  -2.2853679e-04   1.4539630e+00   1.4283349e+00  -1.0063277e+06
   1.4454818e-09  -2.2753234e-04   1.4539090e+00   1.4283934e+00  -1.0019056e+06
   1.4464822e-09  -2.2653231e-04   1.4538552e+00   1.4284518e+00  -9.9750290e+05
   1.4474825e-09  -2.2553667e-04   1.4538017e+00   1.4285098e+00  -9.9311956e+05
   1.4484828e-09  -2.2454540e-04   1.4537484e+00   1.4285676e+00  -9.8875548e+05
   1.4494832e-09  -2.2355849e-04   1.4536953e+00   1.4286252e+00  -9.8441057e+05
   1.4504835e-09  -2.2257592e-04   1.4536425e+00   1.4286825e+00  -9.8008475e+05
   1.4514838e-09  -2.2159766e-04   1.4535898e+00   1.4287395e+00  -9.7577793e+05
   1.4524842e-09  -2.2062370e-04   1.4535375e+00   1.4287963e+00  -9.7149003e+05
   1.4534845e-09  -2.1965403e-04   1.4534853e+00   1.4288529e+00  -9.6722096e+05
   1.4544848e-09  -2.1868861e-04   1.4534334e+00   1.4289092e+00  -9.6297065e+05
   1.4554852e-09  -2.1772744e-04   1.4533817e+00   1.4289652e+00  -9.5873900e+05
   1.4564855e-09  -2.1677049e-04   1.4533303e+00   1.4290211e+00  -9.5452595e+05
   1.4574858e-09  -2.1581774e-04   1.4532790e+00   1.4290766e+00  -9.5033140e+05
   1.4584862e-09  -2.1486918e-04   1.4532280e+00   1.4291320e+00  -9.4615528e+05
   1.4594865e-09  -2.1392479e-04   1.4531772e+00   1.4291870e+00  -9.4199751e+05
   1.4604868e-09  -2.1298455e-04   1.4531267e+00   1.4292419e+00  -9.3785800e+05
   1.4614872e-09  -2.1204845e-04   1.4530764e+00   1.4292965e+00  -9.3373667e+05
   1.4624875e-09  -2.1111645e-04   1.4530263e+00   1.4293509e+00  -9.2963345e+05
