   0.0000000e+00  -1.0983650e-01   6.4459084e+00   1.2513966e-03  -5.2391139e+08
   6.6688896e-13  -1.0948741e-01   6.4466141e+00   1.2859969e-03  -5.2299823e+08
   1.3337779e-12  -1.0913893e-01   6.4473280e+00   1.3214928e-03  -5.2208515e+08
   2.0006669e-12  -1.0879105e-01   6.4480501e+00   1.3579059e-03  -5.2117214e+08
   2.6675559e-12  -1.0844379e-01   6.4487805e+00   1.3952580e-03  -5.2025920e+08
   3.3344448e-12  -1.0809713e-01   6.4495193e+00   1.4335715e-03  -5.1934633e+08
   4.0013338e-12  -1.0775109e-01   6.4502666e+00   1.4728693e-03  -5.1843353e+08
   4.6682227e-12  -1.0740565e-01   6.4510224e+00   1.5131745e-03  -5.1752081e+08
   5.3351117e-12  -1.0706082e-01   6.4517868e+00   1.5545112e-03  -5.1660815e+08
   6.0020007e-12  -1.0671660e-01   6.4525598e+00   1.5969036e-03  -5.1569557e+08
   6.6688896e-12  -1.0637299e-01   6.4533417e+00   1.6403765e-03  -5.1478307e+08
   7.3357786e-12  -1.0602999e-01   6.4541323e+00   1.6849555e-03  -5.1387063e+08
   8.0026676e-12  -1.0568759e-01   6.4549319e+00   1.7306663e-03  -5.1295827e+08
   8.6695565e-12  -1.0534581e-01   6.4557405e+00   1.7775355e-03  -5.1204598e+08
   9.3364455e-12  -1.0500463e-01   6.4565581e+00   1.8255901e-03  -5.1113376e+08
   1.0003334e-11  -1.0466406e-01   6.4573848e+00   1.8748577e-03  -5.1022161e+08
   1.0670223e-11  -1.0432410e-01   6.4582207e+00   1.9253665e-03  -5.0930954e+08
   1.1337112e-11  -1.0398475e-01   6.4590659e+00   1.9771452e-03  -5.0839754e+08
   1.2004001e-11  -1.0364600e-01   6.4599205e+00   2.0302232e-03  -5.0748561e+08
   1.2670890e-11  -1.0330787e-01   6.4607845e+00   2.0846305e-03  -5.0657375e+08
   1.3337779e-11  -1.0297034e-01   6.4616580e+00   2.1403976e-03  -5.0566197e+08
   1.4004668e-11  -1.0263342e-01   6.4625411e+00   2.1975559e-03  -5.0475025e+08
   1.4671557e-11  -1.0229710e-01   6.4634338e+00   2.2561371e-03  -5.0383861e+08
   1.5338446e-11  -1.0196140e-01   6.4643363e+00   2.3161739e-03  -5.0292704e+08
   1.6005335e-11  -1.0162630e-01   6.4652486e+00   2.3776993e-03  -5.0201555e+08
   1.6672224e-11  -1.0129181e-01   6.4661708e+00   2.4407473e-03  -5.0110412e+08
   1.7339113e-11  -1.0095793e-01   6.4671030e+00   2.5053524e-03  -5.0019277e+08
   1.8006002e-11  -1.0062466e-01   6.4680452e+00   2.5715499e-03  -4.9928149e+08
   1.8672891e-11  -1.0029199e-01   6.4689976e+00   2.6393758e-03  -4.9837028e+08
   1.9339780e-11  -9.9959936e-02   6.4699601e+00   2.7088667e-03  -4.9745914e+08
   2.0006669e-11  -9.9628486e-02   6.4709329e+00   2.7800601e-03  -4.9654808e+08
   2.0673558e-11  -9.9297643e-02   6.4719161e+00   2.8529942e-03  -4.9563708e+08
   2.1340447e-11  -9.8967408e-02   6.4729097e+00   2.9277080e-03  -4.9472616e+08
   2.2007336e-11  -9.8637780e-02   6.4739138e+00   3.0042412e-03  -4.9381530e+08
   2.2674225e-11  -9.8308760e-02   6.4749286e+00   3.0826343e-03  -4.9290452e+08
   2.3341114e-11  -9.7980346e-02   6.4759539e+00   3.1629286e-03  -4.9199381e+08
   2.4008003e-11  -9.7652541e-02   6.4769901e+00   3.2451663e-03  -4.9108317e+08
   2.4674892e-11  -9.7325342e-02   6.4780370e+00   3.3293904e-03  -4.9017260e+08
   2.5341781e-11  -9.6998751e-02   6.4790949e+00   3.4156447e-03  -4.8926209e+08
   2.6008670e-11  -9.6672767e-02   6.4801637e+00   3.5039738e-03  -4.8835166e+08
   2.6675559e-11  -9.6347390e-02   6.4812436e+00   3.5944234e-03  -4.8744130e+08
   2.7342447e-11  -9.6022620e-02   6.4823346e+00   3.6870398e-03  -4.8653101e+08
   2.8009336e-11  -9.5698457e-02   6.4834369e+00   3.7818704e-03  -4.8562079e+08
   2.8676225e-11  -9.5374901e-02   6.4845504e+00   3.8789635e-03  -4.8471063e+08
   2.9343114e-11  -9.5051952e-02   6.4856753e+00   3.9783683e-03  -4.8380055e+08
   3.0010003e-11  -9.4729610e-02   6.4868116e+00   4.0801348e-03  -4.8289053e+08
   3.0676892e-11  -9.4407875e-02   6.4879595e+00   4.1843142e-03  -4.8198058e+08
   3.1343781e-11  -9.4086747e-02   6.4891190e+00   4.2909586e-03  -4.8107070e+08
   3.2010670e-11  -9.3766225e-02   6.4902901e+00   4.4001211e-03  -4.8016088e+08
   3.2677559e-11  -9.3446310e-02   6.4914730e+00   4.5118556e-03  -4.7925114e+08
   3.3344448e-11  -9.3127002e-02   6.4926677e+00   4.6262174e-03  -4.7834146e+08
   3.4011337e-11  -9.2808300e-02   6.4938744e+00   4.7432625e-03  -4.7743184e+08
   3.4678226e-11  -9.2490205e-02   6.4950930e+00   4.8630481e-03  -4.7652230e+08
   3.5345115e-11  -9.2172717e-02   6.4963237e+00   4.9856326e-03  -4.7561282e+08
   3.6012004e-11  -9.1855835e-02   6.4975665e+00   5.1110752e-03  -4.7470340e+08
   3.6678893e-11  -9.1539559e-02   6.4988216e+00   5.2394365e-03  -4.7379405e+08
   3.7345782e-11  -9.1223890e-02   6.5000889e+00   5.3707779e-03  -4.7288477e+08
   3.8012671e-11  -9.0908828e-02   6.5013686e+00   5.5051624e-03  -4.7197554e+08
   3.8679560e-11  -9.0594371e-02   6.5026607e+00   5.6426536e-03  -4.7106639e+08
   3.9346449e-11  -9.0280521e-02   6.5039654e+00   5.7833168e-03  -4.7015729e+08
   4.0013338e-11  -8.9967277e-02   6.5052826e+00   5.9272181e-03  -4.6924826e+08
   4.0680227e-11  -8.9654640e-02   6.5066125e+00   6.0744249e-03  -4.6833929e+08
   4.1347116e-11  -8.9342608e-02   6.5079552e+00   6.2250061e-03  -4.6743039e+08
   4.2014005e-11  -8.9031183e-02   6.5093106e+00   6.3790315e-03  -4.6652155e+08
   4.2680894e-11  -8.8720364e-02   6.5106790e+00   6.5365723e-03  -4.6561276e+08
   4.3347783e-11  -8.8410150e-02   6.5120603e+00   6.6977010e-03  -4.6470404e+08
   4.4014672e-11  -8.8100543e-02   6.5134546e+00   6.8624914e-03  -4.6379538e+08
   4.4681561e-11  -8.7791542e-02   6.5148620e+00   7.0310186e-03  -4.6288678e+08
   4.5348449e-11  -8.7483146e-02   6.5162826e+00   7.2033590e-03  -4.6197824e+08
   4.6015338e-11  -8.7175357e-02   6.5177164e+00   7.3795904e-03  -4.6106975e+08
   4.6682227e-11  -8.6868173e-02   6.5191636e+00   7.5597921e-03  -4.6016133e+08
   4.7349116e-11  -8.6561595e-02   6.5206241e+00   7.7440445e-03  -4.5925296e+08
   4.8016005e-11  -8.6255623e-02   6.5220981e+00   7.9324297e-03  -4.5834465e+08
   4.8682894e-11  -8.5950257e-02   6.5235857e+00   8.1250311e-03  -4.5743640e+08
   4.9349783e-11  -8.5645496e-02   6.5250868e+00   8.3219335e-03  -4.5652820e+08
   5.0016672e-11  -8.5341341e-02   6.5266015e+00   8.5232234e-03  -4.5562006e+08
   5.0683561e-11  -8.5037791e-02   6.5281300e+00   8.7289886e-03  -4.5471198e+08
   5.1350450e-11  -8.4734848e-02   6.5296723e+00   8.9393185e-03  -4.5380395e+08
   5.2017339e-11  -8.4432509e-02   6.5312285e+00   9.1543039e-03  -4.5289597e+08
   5.2684228e-11  -8.4130776e-02   6.5327985e+00   9.3740373e-03  -4.5198804e+08
   5.3351117e-11  -8.3829649e-02   6.5343826e+00   9.5986128e-03  -4.5108017e+08
   5.4018006e-11  -8.3529127e-02   6.5359807e+00   9.8281261e-03  -4.5017235e+08
   5.4684895e-11  -8.3229211e-02   6.5375929e+00   1.0062674e-02  -4.4926458e+08
   5.5351784e-11  -8.2929899e-02   6.5392193e+00   1.0302356e-02  -4.4835686e+08
   5.6018673e-11  -8.2631194e-02   6.5408600e+00   1.0547273e-02  -4.4744919e+08
   5.6685562e-11  -8.2333093e-02   6.5425149e+00   1.0797526e-02  -4.4654158e+08
   5.7352451e-11  -8.2035598e-02   6.5441842e+00   1.1053220e-02  -4.4563400e+08
   5.8019340e-11  -8.1738708e-02   6.5458679e+00   1.1314460e-02  -4.4472648e+08
   5.8686229e-11  -8.1442423e-02   6.5475661e+00   1.1581354e-02  -4.4381900e+08
   5.9353118e-11  -8.1146743e-02   6.5492788e+00   1.1854011e-02  -4.4291157e+08
   6.0020007e-11  -8.0851669e-02   6.5510061e+00   1.2132542e-02  -4.4200419e+08
   6.0686896e-11  -8.0557199e-02   6.5527481e+00   1.2417060e-02  -4.4109685e+08
   6.1353785e-11  -8.0263335e-02   6.5545047e+00   1.2707679e-02  -4.4018956e+08
   6.2020674e-11  -7.9970076e-02   6.5562761e+00   1.3004516e-02  -4.3928230e+08
   6.2687563e-11  -7.9677422e-02   6.5580623e+00   1.3307689e-02  -4.3837509e+08
   6.3354451e-11  -7.9385373e-02   6.5598634e+00   1.3617319e-02  -4.3746793e+08
   6.4021340e-11  -7.9093928e-02   6.5616793e+00   1.3933527e-02  -4.3656080e+08
   6.4688229e-11  -7.8803089e-02   6.5635102e+00   1.4256439e-02  -4.3565371e+08
   6.5355118e-11  -7.8512855e-02   6.5653561e+00   1.4586180e-02  -4.3474667e+08
   6.6022007e-11  -7.8223225e-02   6.5672171e+00   1.4922878e-02  -4.3383966e+08
   6.6688896e-11  -7.7934201e-02   6.5690931e+00   1.5266663e-02  -4.3293269e+08
   6.7355785e-11  -7.7645781e-02   6.5709843e+00   1.5617668e-02  -4.3202575e+08
   6.8022674e-11  -7.7357966e-02   6.5728907e+00   1.5976027e-02  -4.3111886e+08
   6.8689563e-11  -7.7070756e-02   6.5748123e+00   1.6341876e-02  -4.3021199e+08
   6.9356452e-11  -7.6784150e-02   6.5767491e+00   1.6715353e-02  -4.2930516e+08
   7.0023341e-11  -7.6498150e-02   6.5787013e+00   1.7096600e-02  -4.2839837e+08
   7.0690230e-11  -7.6212754e-02   6.5806688e+00   1.7485759e-02  -4.2749161e+08
   7.1357119e-11  -7.5927962e-02   6.5826516e+00   1.7882974e-02  -4.2658488e+08
   7.2024008e-11  -7.5643776e-02   6.5846499e+00   1.8288394e-02  -4.2567818e+08
   7.2690897e-11  -7.5360194e-02   6.5866636e+00   1.8702166e-02  -4.2477151e+08
   7.3357786e-11  -7.5077217e-02   6.5886928e+00   1.9124444e-02  -4.2386486e+08
   7.4024675e-11  -7.4794844e-02   6.5907375e+00   1.9555380e-02  -4.2295825e+08
   7.4691564e-11  -7.4513076e-02   6.5927977e+00   1.9995131e-02  -4.2205166e+08
   7.5358453e-11  -7.4231913e-02   6.5948734e+00   2.0443855e-02  -4.2114510e+08
   7.6025342e-11  -7.3951354e-02   6.5969648e+00   2.0901713e-02  -4.2023857e+08
   7.6692231e-11  -7.3671400e-02   6.5990718e+00   2.1368869e-02  -4.1933206e+08
   7.7359120e-11  -7.3392050e-02   6.6011944e+00   2.1845487e-02  -4.1842557e+08
   7.8026009e-11  -7.3113305e-02   6.6033326e+00   2.2331737e-02  -4.1751910e+08
   7.8692898e-11  -7.2835164e-02   6.6054865e+00   2.2827787e-02  -4.1661266e+08
   7.9359787e-11  -7.2557628e-02   6.6076561e+00   2.3333811e-02  -4.1570624e+08
   8.0026676e-11  -7.2280696e-02   6.6098414e+00   2.3849984e-02  -4.1479983e+08
   8.0693565e-11  -7.2004369e-02   6.6120424e+00   2.4376485e-02  -4.1389345e+08
   8.1360453e-11  -7.1728646e-02   6.6142591e+00   2.4913493e-02  -4.1298708e+08
   8.2027342e-11  -7.1453528e-02   6.6164915e+00   2.5461191e-02  -4.1208072e+08
   8.2694231e-11  -7.1179014e-02   6.6187397e+00   2.6019764e-02  -4.1117439e+08
   8.3361120e-11  -7.0905105e-02   6.6210037e+00   2.6589402e-02  -4.1026806e+08
   8.4028009e-11  -7.0631800e-02   6.6232834e+00   2.7170293e-02  -4.0936175e+08
   8.4694898e-11  -7.0359099e-02   6.6255788e+00   2.7762632e-02  -4.0845546e+08
   8.5361787e-11  -7.0087003e-02   6.6278900e+00   2.8366615e-02  -4.0754917e+08
   8.6028676e-11  -6.9815511e-02   6.6302169e+00   2.8982439e-02  -4.0664289e+08
   8.6695565e-11  -6.9544624e-02   6.6325595e+00   2.9610307e-02  -4.0573663e+08
   8.7362454e-11  -6.9274341e-02   6.6349179e+00   3.0250422e-02  -4.0483037e+08
   8.8029343e-11  -6.9004662e-02   6.6372921e+00   3.0902991e-02  -4.0392411e+08
   8.8696232e-11  -6.8735588e-02   6.6396819e+00   3.1568223e-02  -4.0301787e+08
   8.9363121e-11  -6.8467118e-02   6.6420874e+00   3.2246330e-02  -4.0211163e+08
   9.0030010e-11  -6.8199253e-02   6.6445086e+00   3.2937528e-02  -4.0120539e+08
   9.0696899e-11  -6.7931992e-02   6.6469454e+00   3.3642035e-02  -4.0029916e+08
   9.1363788e-11  -6.7665335e-02   6.6493979e+00   3.4360071e-02  -3.9939292e+08
   9.2030677e-11  -6.7399283e-02   6.6518660e+00   3.5091859e-02  -3.9848669e+08
   9.2697566e-11  -6.7133835e-02   6.6543497e+00   3.5837626e-02  -3.9758046e+08
   9.3364455e-11  -6.6868991e-02   6.6568490e+00   3.6597601e-02  -3.9667422e+08
   9.4031344e-11  -6.6604752e-02   6.6593637e+00   3.7372017e-02  -3.9576799e+08
   9.4698233e-11  -6.6341117e-02   6.6618940e+00   3.8161108e-02  -3.9486175e+08
   9.5365122e-11  -6.6078086e-02   6.6644397e+00   3.8965112e-02  -3.9395550e+08
   9.6032011e-11  -6.5815660e-02   6.6670009e+00   3.9784271e-02  -3.9304925e+08
   9.6698900e-11  -6.5553838e-02   6.6695774e+00   4.0618828e-02  -3.9214300e+08
   9.7365789e-11  -6.5292621e-02   6.6721692e+00   4.1469031e-02  -3.9123673e+08
   9.8032678e-11  -6.5032008e-02   6.6747763e+00   4.2335128e-02  -3.9033046e+08
   9.8699567e-11  -6.4771999e-02   6.6773986e+00   4.3217374e-02  -3.8942417e+08
   9.9366455e-11  -6.4512595e-02   6.6800361e+00   4.4116024e-02  -3.8851788e+08
   1.0003334e-10  -6.4253795e-02   6.6826888e+00   4.5031337e-02  -3.8761157e+08
   1.0070023e-10  -6.3995600e-02   6.6853565e+00   4.5963575e-02  -3.8670525e+08
   1.0136712e-10  -6.3738009e-02   6.6880391e+00   4.6913004e-02  -3.8579892e+08
   1.0203401e-10  -6.3481023e-02   6.6907368e+00   4.7879891e-02  -3.8489257e+08
   1.0270090e-10  -6.3224641e-02   6.6934492e+00   4.8864508e-02  -3.8398620e+08
   1.0336779e-10  -6.2968863e-02   6.6961765e+00   4.9867130e-02  -3.8307982e+08
   1.0403468e-10  -6.2713690e-02   6.6989185e+00   5.0888033e-02  -3.8217342e+08
   1.0470157e-10  -6.2459121e-02   6.7016751e+00   5.1927499e-02  -3.8126700e+08
   1.0536846e-10  -6.2205157e-02   6.7044462e+00   5.2985810e-02  -3.8036055e+08
   1.0603535e-10  -6.1951798e-02   6.7072319e+00   5.4063256e-02  -3.7945409e+08
   1.0670223e-10  -6.1699043e-02   6.7100319e+00   5.5160124e-02  -3.7854761e+08
   1.0736912e-10  -6.1446892e-02   6.7128462e+00   5.6276709e-02  -3.7764110e+08
   1.0803601e-10  -6.1195346e-02   6.7156747e+00   5.7413306e-02  -3.7673457e+08
   1.0870290e-10  -6.0944405e-02   6.7185173e+00   5.8570216e-02  -3.7582801e+08
   1.0936979e-10  -6.0694068e-02   6.7213739e+00   5.9747741e-02  -3.7492142e+08
   1.1003668e-10  -6.0444336e-02   6.7242444e+00   6.0946188e-02  -3.7401481e+08
   1.1070357e-10  -6.0195209e-02   6.7271287e+00   6.2165864e-02  -3.7310817e+08
   1.1137046e-10  -5.9946686e-02   6.7300266e+00   6.3407082e-02  -3.7220150e+08
   1.1203735e-10  -5.9698768e-02   6.7329381e+00   6.4670158e-02  -3.7129480e+08
   1.1270423e-10  -5.9451454e-02   6.7358630e+00   6.5955411e-02  -3.7038807e+08
   1.1337112e-10  -5.9204746e-02   6.7388013e+00   6.7263161e-02  -3.6948131e+08
   1.1403801e-10  -5.8958642e-02   6.7417527e+00   6.8593734e-02  -3.6857451e+08
   1.1470490e-10  -5.8713142e-02   6.7447172e+00   6.9947459e-02  -3.6766768e+08
   1.1537179e-10  -5.8468248e-02   6.7476946e+00   7.1324666e-02  -3.6676082e+08
   1.1603868e-10  -5.8223958e-02   6.7506847e+00   7.2725689e-02  -3.6585392e+08
   1.1670557e-10  -5.7980273e-02   6.7536876e+00   7.4150867e-02  -3.6494698e+08
   1.1737246e-10  -5.7737193e-02   6.7567029e+00   7.5600541e-02  -3.6404001e+08
   1.1803935e-10  -5.7494718e-02   6.7597305e+00   7.7075053e-02  -3.6313300e+08
   1.1870624e-10  -5.7252848e-02   6.7627704e+00   7.8574752e-02  -3.6222595e+08
   1.1937312e-10  -5.7011583e-02   6.7658223e+00   8.0099986e-02  -3.6131886e+08
   1.2004001e-10  -5.6770922e-02   6.7688860e+00   8.1651111e-02  -3.6041173e+08
   1.2070690e-10  -5.6530867e-02   6.7719615e+00   8.3228481e-02  -3.5950456e+08
   1.2137379e-10  -5.6291417e-02   6.7750485e+00   8.4832456e-02  -3.5859735e+08
   1.2204068e-10  -5.6052572e-02   6.7781468e+00   8.6463399e-02  -3.5769010e+08
   1.2270757e-10  -5.5814331e-02   6.7812564e+00   8.8121676e-02  -3.5678280e+08
   1.2337446e-10  -5.5576696e-02   6.7843769e+00   8.9807654e-02  -3.5587546e+08
   1.2404135e-10  -5.5339666e-02   6.7875083e+00   9.1521706e-02  -3.5496807e+08
   1.2470824e-10  -5.5103241e-02   6.7906502e+00   9.3264207e-02  -3.5406064e+08
   1.2537513e-10  -5.4867422e-02   6.7938026e+00   9.5035533e-02  -3.5315316e+08
   1.2604201e-10  -5.4632207e-02   6.7969653e+00   9.6836065e-02  -3.5224564e+08
   1.2670890e-10  -5.4397598e-02   6.8001379e+00   9.8666187e-02  -3.5133807e+08
   1.2737579e-10  -5.4163594e-02   6.8033204e+00   1.0052629e-01  -3.5043046e+08
   1.2804268e-10  -5.3930196e-02   6.8065125e+00   1.0241675e-01  -3.4952279e+08
   1.2870957e-10  -5.3697403e-02   6.8097140e+00   1.0433797e-01  -3.4861508e+08
   1.2937646e-10  -5.3465215e-02   6.8129246e+00   1.0629034e-01  -3.4770732e+08
   1.3004335e-10  -5.3233632e-02   6.8161442e+00   1.0827427e-01  -3.4679951e+08
   1.3071024e-10  -5.3002655e-02   6.8193725e+00   1.1029014e-01  -3.4589166e+08
   1.3137713e-10  -5.2772284e-02   6.8226092e+00   1.1233837e-01  -3.4498375e+08
   1.3204401e-10  -5.2542518e-02   6.8258542e+00   1.1441935e-01  -3.4407579e+08
   1.3271090e-10  -5.2313357e-02   6.8291072e+00   1.1653351e-01  -3.4316778e+08
   1.3337779e-10  -5.2084802e-02   6.8323680e+00   1.1868124e-01  -3.4225973e+08
   1.3404468e-10  -5.1856853e-02   6.8356362e+00   1.2086296e-01  -3.4135162e+08
   1.3471157e-10  -5.1629509e-02   6.8389117e+00   1.2307909e-01  -3.4044346e+08
   1.3537846e-10  -5.1402771e-02   6.8421942e+00   1.2533005e-01  -3.3953525e+08
   1.3604535e-10  -5.1176639e-02   6.8454833e+00   1.2761626e-01  -3.3862699e+08
   1.3671224e-10  -5.0951113e-02   6.8487789e+00   1.2993814e-01  -3.3771868e+08
   1.3737913e-10  -5.0726192e-02   6.8520807e+00   1.3229611e-01  -3.3681032e+08
   1.3804602e-10  -5.0501877e-02   6.8553883e+00   1.3469061e-01  -3.3590191e+08
   1.3871290e-10  -5.0278168e-02   6.8587016e+00   1.3712207e-01  -3.3499344e+08
   1.3937979e-10  -5.0055065e-02   6.8620201e+00   1.3959091e-01  -3.3408493e+08
   1.4004668e-10  -4.9832567e-02   6.8653437e+00   1.4209757e-01  -3.3317637e+08
   1.4071357e-10  -4.9610676e-02   6.8686720e+00   1.4464249e-01  -3.3226775e+08
   1.4138046e-10  -4.9389391e-02   6.8720047e+00   1.4722611e-01  -3.3135909e+08
   1.4204735e-10  -4.9168711e-02   6.8753415e+00   1.4984886e-01  -3.3045038e+08
   1.4271424e-10  -4.8948638e-02   6.8786821e+00   1.5251119e-01  -3.2954162e+08
   1.4338113e-10  -4.8729171e-02   6.8820261e+00   1.5521355e-01  -3.2863280e+08
   1.4404802e-10  -4.8510310e-02   6.8853733e+00   1.5795637e-01  -3.2772395e+08
   1.4471490e-10  -4.8292055e-02   6.8887234e+00   1.6074011e-01  -3.2681504e+08
   1.4538179e-10  -4.8074406e-02   6.8920759e+00   1.6356521e-01  -3.2590609e+08
   1.4604868e-10  -4.7857363e-02   6.8954306e+00   1.6643212e-01  -3.2499708e+08
   1.4671557e-10  -4.7640927e-02   6.8987871e+00   1.6934131e-01  -3.2408804e+08
   1.4738246e-10  -4.7425097e-02   6.9021451e+00   1.7229321e-01  -3.2317895e+08
   1.4804935e-10  -4.7209873e-02   6.9055042e+00   1.7528828e-01  -3.2226981e+08
   1.4871624e-10  -4.6995256e-02   6.9088641e+00   1.7832698e-01  -3.2136063e+08
   1.4938313e-10  -4.6781245e-02   6.9122243e+00   1.8140977e-01  -3.2045141e+08
   1.5005002e-10  -4.6567840e-02   6.9155847e+00   1.8453710e-01  -3.1954215e+08
   1.5071691e-10  -4.6355041e-02   6.9189447e+00   1.8770944e-01  -3.1863284e+08
   1.5138379e-10  -4.6142850e-02   6.9223040e+00   1.9092723e-01  -3.1772350e+08
   1.5205068e-10  -4.5931264e-02   6.9256622e+00   1.9419094e-01  -3.1681412e+08
   1.5271757e-10  -4.5720285e-02   6.9290190e+00   1.9750104e-01  -3.1590470e+08
   1.5338446e-10  -4.5509913e-02   6.9323739e+00   2.0085798e-01  -3.1499525e+08
   1.5405135e-10  -4.5300147e-02   6.9357266e+00   2.0426222e-01  -3.1408576e+08
   1.5471824e-10  -4.5090988e-02   6.9390766e+00   2.0771422e-01  -3.1317624e+08
   1.5538513e-10  -4.4882435e-02   6.9424237e+00   2.1121445e-01  -3.1226669e+08
   1.5605202e-10  -4.4674489e-02   6.9457673e+00   2.1476338e-01  -3.1135711e+08
   1.5671891e-10  -4.4467149e-02   6.9491071e+00   2.1836145e-01  -3.1044750e+08
   1.5738580e-10  -4.4260416e-02   6.9524426e+00   2.2200914e-01  -3.0953786e+08
   1.5805268e-10  -4.4054290e-02   6.9557734e+00   2.2570690e-01  -3.0862820e+08
   1.5871957e-10  -4.3848770e-02   6.9590992e+00   2.2945520e-01  -3.0771852e+08
   1.5938646e-10  -4.3643857e-02   6.9624194e+00   2.3325450e-01  -3.0680881e+08
   1.6005335e-10  -4.3439551e-02   6.9657337e+00   2.3710525e-01  -3.0589909e+08
   1.6072024e-10  -4.3235852e-02   6.9690416e+00   2.4100793e-01  -3.0498935e+08
   1.6138713e-10  -4.3032759e-02   6.9723427e+00   2.4496298e-01  -3.0407960e+08
   1.6205402e-10  -4.2830273e-02   6.9756366e+00   2.4897086e-01  -3.0316983e+08
   1.6272091e-10  -4.2628394e-02   6.9789227e+00   2.5303204e-01  -3.0226006e+08
   1.6338780e-10  -4.2427121e-02   6.9822007e+00   2.5714696e-01  -3.0135028e+08
   1.6405468e-10  -4.2226455e-02   6.9854701e+00   2.6131608e-01  -3.0044049e+08
   1.6472157e-10  -4.2026396e-02   6.9887305e+00   2.6553986e-01  -2.9953070e+08
   1.6538846e-10  -4.1826944e-02   6.9919813e+00   2.6981874e-01  -2.9862092e+08
   1.6605535e-10  -4.1628098e-02   6.9952221e+00   2.7415318e-01  -2.9771113e+08
   1.6672224e-10  -4.1429859e-02   6.9984525e+00   2.7854362e-01  -2.9680136e+08
   1.6738913e-10  -4.1232227e-02   7.0016720e+00   2.8299051e-01  -2.9589159e+08
   1.6805602e-10  -4.1035202e-02   7.0048800e+00   2.8749429e-01  -2.9498184e+08
   1.6872291e-10  -4.0838783e-02   7.0080762e+00   2.9205540e-01  -2.9407210e+08
   1.6938980e-10  -4.0642971e-02   7.0112601e+00   2.9667429e-01  -2.9316238e+08
   1.7005669e-10  -4.0447766e-02   7.0144311e+00   3.0135138e-01  -2.9225269e+08
   1.7072357e-10  -4.0253167e-02   7.0175888e+00   3.0608711e-01  -2.9134302e+08
   1.7139046e-10  -4.0059175e-02   7.0207326e+00   3.1088191e-01  -2.9043338e+08
   1.7205735e-10  -3.9865790e-02   7.0238622e+00   3.1573622e-01  -2.8952378e+08
   1.7272424e-10  -3.9673011e-02   7.0269769e+00   3.2065044e-01  -2.8861421e+08
   1.7339113e-10  -3.9480839e-02   7.0300764e+00   3.2562501e-01  -2.8770468e+08
   1.7405802e-10  -3.9289274e-02   7.0331601e+00   3.3066034e-01  -2.8679520e+08
   1.7472491e-10  -3.9098315e-02   7.0362274e+00   3.3575684e-01  -2.8588577e+08
   1.7539180e-10  -3.8907962e-02   7.0392779e+00   3.4091493e-01  -2.8497640e+08
   1.7605869e-10  -3.8718216e-02   7.0423112e+00   3.4613501e-01  -2.8406708e+08
   1.7672558e-10  -3.8529076e-02   7.0453265e+00   3.5141748e-01  -2.8315783e+08
   1.7739246e-10  -3.8340543e-02   7.0483236e+00   3.5676274e-01  -2.8224864e+08
   1.7805935e-10  -3.8152616e-02   7.0513018e+00   3.6217118e-01  -2.8133953e+08
   1.7872624e-10  -3.7965295e-02   7.0542606e+00   3.6764319e-01  -2.8043049e+08
   1.7939313e-10  -3.7778581e-02   7.0571995e+00   3.7317916e-01  -2.7952154e+08
   1.8006002e-10  -3.7592472e-02   7.0601180e+00   3.7877946e-01  -2.7861267e+08
   1.8072691e-10  -3.7406970e-02   7.0630156e+00   3.8444446e-01  -2.7770390e+08
   1.8139380e-10  -3.7222074e-02   7.0658917e+00   3.9017454e-01  -2.7679522e+08
   1.8206069e-10  -3.7037784e-02   7.0687458e+00   3.9597006e-01  -2.7588665e+08
   1.8272758e-10  -3.6854099e-02   7.0715774e+00   4.0183137e-01  -2.7497819e+08
   1.8339446e-10  -3.6671021e-02   7.0743860e+00   4.0775883e-01  -2.7406984e+08
   1.8406135e-10  -3.6488548e-02   7.0771710e+00   4.1375277e-01  -2.7316161e+08
   1.8472824e-10  -3.6306681e-02   7.0799320e+00   4.1981355e-01  -2.7225351e+08
   1.8539513e-10  -3.6125419e-02   7.0826683e+00   4.2594149e-01  -2.7134555e+08
   1.8606202e-10  -3.5944763e-02   7.0853794e+00   4.3213692e-01  -2.7043772e+08
   1.8672891e-10  -3.5764713e-02   7.0880649e+00   4.3840015e-01  -2.6953004e+08
   1.8739580e-10  -3.5585267e-02   7.0907242e+00   4.4473151e-01  -2.6862251e+08
   1.8806269e-10  -3.5406427e-02   7.0933567e+00   4.5113130e-01  -2.6771514e+08
   1.8872958e-10  -3.5228192e-02   7.0959619e+00   4.5759981e-01  -2.6680793e+08
   1.8939647e-10  -3.5050562e-02   7.0985394e+00   4.6413734e-01  -2.6590090e+08
   1.9006335e-10  -3.4873537e-02   7.1010885e+00   4.7074417e-01  -2.6499405e+08
   1.9073024e-10  -3.4697116e-02   7.1036088e+00   4.7742058e-01  -2.6408738e+08
   1.9139713e-10  -3.4521300e-02   7.1060996e+00   4.8416684e-01  -2.6318091e+08
   1.9206402e-10  -3.4346088e-02   7.1085605e+00   4.9098320e-01  -2.6227464e+08
   1.9273091e-10  -3.4171481e-02   7.1109910e+00   4.9786992e-01  -2.6136858e+08
   1.9339780e-10  -3.3997478e-02   7.1133905e+00   5.0482725e-01  -2.6046274e+08
   1.9406469e-10  -3.3824079e-02   7.1157586e+00   5.1185542e-01  -2.5955712e+08
   1.9473158e-10  -3.3651284e-02   7.1180945e+00   5.1895465e-01  -2.5865174e+08
   1.9539847e-10  -3.3479093e-02   7.1203980e+00   5.2612516e-01  -2.5774660e+08
   1.9606536e-10  -3.3307505e-02   7.1226684e+00   5.3336717e-01  -2.5684171e+08
   1.9673224e-10  -3.3136521e-02   7.1249051e+00   5.4068088e-01  -2.5593707e+08
   1.9739913e-10  -3.2966139e-02   7.1271078e+00   5.4806647e-01  -2.5503271e+08
   1.9806602e-10  -3.2796361e-02   7.1292759e+00   5.5552412e-01  -2.5412862e+08
   1.9873291e-10  -3.2627186e-02   7.1314088e+00   5.6305401e-01  -2.5322481e+08
   1.9939980e-10  -3.2458613e-02   7.1335061e+00   5.7065631e-01  -2.5232130e+08
   2.0006669e-10  -3.2290643e-02   7.1355672e+00   5.7833115e-01  -2.5141809e+08
   2.0073358e-10  -3.2123275e-02   7.1375917e+00   5.8607869e-01  -2.5051520e+08
   2.0140047e-10  -3.1956509e-02   7.1395790e+00   5.9389906e-01  -2.4961263e+08
   2.0206736e-10  -3.1790345e-02   7.1415287e+00   6.0179237e-01  -2.4871039e+08
   2.0273424e-10  -3.1624782e-02   7.1434402e+00   6.0975874e-01  -2.4780849e+08
   2.0340113e-10  -3.1459821e-02   7.1453130e+00   6.1779828e-01  -2.4690694e+08
   2.0406802e-10  -3.1295461e-02   7.1471468e+00   6.2591106e-01  -2.4600576e+08
   2.0473491e-10  -3.1131702e-02   7.1489409e+00   6.3409718e-01  -2.4510495e+08
   2.0540180e-10  -3.0968544e-02   7.1506949e+00   6.4235669e-01  -2.4420452e+08
   2.0606869e-10  -3.0805986e-02   7.1524083e+00   6.5068966e-01  -2.4330448e+08
   2.0673558e-10  -3.0644028e-02   7.1540807e+00   6.5909613e-01  -2.4240485e+08
   2.0740247e-10  -3.0482669e-02   7.1557116e+00   6.6757614e-01  -2.4150564e+08
   2.0806936e-10  -3.0321911e-02   7.1573005e+00   6.7612970e-01  -2.4060685e+08
   2.0873625e-10  -3.0161751e-02   7.1588470e+00   6.8475684e-01  -2.3970850e+08
   2.0940313e-10  -3.0002191e-02   7.1603506e+00   6.9345754e-01  -2.3881060e+08
   2.1007002e-10  -2.9843229e-02   7.1618108e+00   7.0223181e-01  -2.3791315e+08
   2.1073691e-10  -2.9684866e-02   7.1632273e+00   7.1107961e-01  -2.3701618e+08
   2.1140380e-10  -2.9527100e-02   7.1645995e+00   7.2000090e-01  -2.3611970e+08
   2.1207069e-10  -2.9369933e-02   7.1659271e+00   7.2899566e-01  -2.3522371e+08
   2.1273758e-10  -2.9213362e-02   7.1672096e+00   7.3806380e-01  -2.3432823e+08
   2.1340447e-10  -2.9057389e-02   7.1684466e+00   7.4720526e-01  -2.3343326e+08
   2.1407136e-10  -2.8902012e-02   7.1696377e+00   7.5641996e-01  -2.3253884e+08
   2.1473825e-10  -2.8747232e-02   7.1707825e+00   7.6570779e-01  -2.3164495e+08
   2.1540514e-10  -2.8593048e-02   7.1718805e+00   7.7506866e-01  -2.3075163e+08
   2.1607202e-10  -2.8439459e-02   7.1729315e+00   7.8450243e-01  -2.2985887e+08
   2.1673891e-10  -2.8286465e-02   7.1739349e+00   7.9400898e-01  -2.2896670e+08
   2.1740580e-10  -2.8134067e-02   7.1748905e+00   8.0358815e-01  -2.2807513e+08
   2.1807269e-10  -2.7982262e-02   7.1757977e+00   8.1323979e-01  -2.2718416e+08
   2.1873958e-10  -2.7831052e-02   7.1766564e+00   8.2296373e-01  -2.2629382e+08
   2.1940647e-10  -2.7680435e-02   7.1774661e+00   8.3275977e-01  -2.2540412e+08
   2.2007336e-10  -2.7530411e-02   7.1782264e+00   8.4262773e-01  -2.2451507e+08
   2.2074025e-10  -2.7380980e-02   7.1789370e+00   8.5256738e-01  -2.2362668e+08
   2.2140714e-10  -2.7232141e-02   7.1795976e+00   8.6257851e-01  -2.2273897e+08
   2.2207402e-10  -2.7083894e-02   7.1802079e+00   8.7266088e-01  -2.2185195e+08
   2.2274091e-10  -2.6936238e-02   7.1807675e+00   8.8281424e-01  -2.2096564e+08
   2.2340780e-10  -2.6789174e-02   7.1812761e+00   8.9303833e-01  -2.2008005e+08
   2.2407469e-10  -2.6642699e-02   7.1817334e+00   9.0333287e-01  -2.1919520e+08
   2.2474158e-10  -2.6496814e-02   7.1821391e+00   9.1369758e-01  -2.1831110e+08
   2.2540847e-10  -2.6351519e-02   7.1824930e+00   9.2413215e-01  -2.1742776e+08
   2.2607536e-10  -2.6206813e-02   7.1827946e+00   9.3463626e-01  -2.1654520e+08
   2.2674225e-10  -2.6062695e-02   7.1830439e+00   9.4520960e-01  -2.1566344e+08
   2.2740914e-10  -2.5919164e-02   7.1832405e+00   9.5585182e-01  -2.1478248e+08
   2.2807603e-10  -2.5776221e-02   7.1833841e+00   9.6656257e-01  -2.1390235e+08
   2.2874291e-10  -2.5633865e-02   7.1834745e+00   9.7734148e-01  -2.1302306e+08
   2.2940980e-10  -2.5492094e-02   7.1835115e+00   9.8818817e-01  -2.1214463e+08
   2.3007669e-10  -2.5350909e-02   7.1834949e+00   9.9910226e-01  -2.1126706e+08
   2.3074358e-10  -2.5210310e-02   7.1834244e+00   1.0100833e+00  -2.1039039e+08
   2.3141047e-10  -2.5070294e-02   7.1832998e+00   1.0211310e+00  -2.0951461e+08
   2.3207736e-10  -2.4930862e-02   7.1831210e+00   1.0322448e+00  -2.0863976e+08
   2.3274425e-10  -2.4792014e-02   7.1828877e+00   1.0434243e+00  -2.0776583e+08
   2.3341114e-10  -2.4653748e-02   7.1825998e+00   1.0546690e+00  -2.0689286e+08
   2.3407803e-10  -2.4516063e-02   7.1822571e+00   1.0659785e+00  -2.0602085e+08
   2.3474491e-10  -2.4378960e-02   7.1818594e+00   1.0773523e+00  -2.0514983e+08
   2.3541180e-10  -2.4242438e-02   7.1814067e+00   1.0887900e+00  -2.0427980e+08
   2.3607869e-10  -2.4106495e-02   7.1808987e+00   1.1002909e+00  -2.0341079e+08
   2.3674558e-10  -2.3971132e-02   7.1803353e+00   1.1118546e+00  -2.0254281e+08
   2.3741247e-10  -2.3836347e-02   7.1797164e+00   1.1234806e+00  -2.0167588e+08
   2.3807936e-10  -2.3702140e-02   7.1790419e+00   1.1351684e+00  -2.0081001e+08
   2.3874625e-10  -2.3568510e-02   7.1783118e+00   1.1469173e+00  -1.9994522e+08
   2.3941314e-10  -2.3435456e-02   7.1775258e+00   1.1587268e+00  -1.9908153e+08
   2.4008003e-10  -2.3302978e-02   7.1766841e+00   1.1705963e+00  -1.9821896e+08
   2.4074692e-10  -2.3171075e-02   7.1757863e+00   1.1825253e+00  -1.9735751e+08
   2.4141380e-10  -2.3039746e-02   7.1748327e+00   1.1945132e+00  -1.9649722e+08
   2.4208069e-10  -2.2908990e-02   7.1738229e+00   1.2065593e+00  -1.9563809e+08
   2.4274758e-10  -2.2778807e-02   7.1727572e+00   1.2186631e+00  -1.9478014e+08
   2.4341447e-10  -2.2649196e-02   7.1716353e+00   1.2308238e+00  -1.9392339e+08
   2.4408136e-10  -2.2520155e-02   7.1704574e+00   1.2430409e+00  -1.9306785e+08
   2.4474825e-10  -2.2391685e-02   7.1692233e+00   1.2553138e+00  -1.9221355e+08
   2.4541514e-10  -2.2263784e-02   7.1679332e+00   1.2676417e+00  -1.9136050e+08
   2.4608203e-10  -2.2136452e-02   7.1665870e+00   1.2800239e+00  -1.9050872e+08
   2.4674892e-10  -2.2009687e-02   7.1651847e+00   1.2924599e+00  -1.8965822e+08
   2.4741581e-10  -2.1883489e-02   7.1637264e+00   1.3049489e+00  -1.8880903e+08
   2.4808269e-10  -2.1757857e-02   7.1622122e+00   1.3174902e+00  -1.8796115e+08
   2.4874958e-10  -2.1632789e-02   7.1606421e+00   1.3300831e+00  -1.8711461e+08
   2.4941647e-10  -2.1508286e-02   7.1590161e+00   1.3427270e+00  -1.8626943e+08
   2.5008336e-10  -2.1384346e-02   7.1573344e+00   1.3554209e+00  -1.8542561e+08
   2.5075025e-10  -2.1260969e-02   7.1555970e+00   1.3681643e+00  -1.8458319e+08
   2.5141714e-10  -2.1138152e-02   7.1538041e+00   1.3809564e+00  -1.8374217e+08
   2.5208403e-10  -2.1015897e-02   7.1519557e+00   1.3937964e+00  -1.8290257e+08
   2.5275092e-10  -2.0894200e-02   7.1500520e+00   1.4066836e+00  -1.8206442e+08
   2.5341781e-10  -2.0773062e-02   7.1480931e+00   1.4196171e+00  -1.8122772e+08
   2.5408469e-10  -2.0652482e-02   7.1460792e+00   1.4325963e+00  -1.8039250e+08
   2.5475158e-10  -2.0532458e-02   7.1440103e+00   1.4456204e+00  -1.7955877e+08
   2.5541847e-10  -2.0412989e-02   7.1418867e+00   1.4586884e+00  -1.7872655e+08
   2.5608536e-10  -2.0294075e-02   7.1397086e+00   1.4717997e+00  -1.7789585e+08
   2.5675225e-10  -2.0175715e-02   7.1374760e+00   1.4849535e+00  -1.7706670e+08
   2.5741914e-10  -2.0057907e-02   7.1351893e+00   1.4981489e+00  -1.7623912e+08
   2.5808603e-10  -1.9940650e-02   7.1328486e+00   1.5113851e+00  -1.7541311e+08
   2.5875292e-10  -1.9823944e-02   7.1304541e+00   1.5246613e+00  -1.7458869e+08
   2.5941981e-10  -1.9707787e-02   7.1280060e+00   1.5379766e+00  -1.7376589e+08
   2.6008670e-10  -1.9592178e-02   7.1255046e+00   1.5513303e+00  -1.7294472e+08
   2.6075358e-10  -1.9477116e-02   7.1229501e+00   1.5647214e+00  -1.7212520e+08
   2.6142047e-10  -1.9362600e-02   7.1203428e+00   1.5781491e+00  -1.7130734e+08
   2.6208736e-10  -1.9248629e-02   7.1176829e+00   1.5916127e+00  -1.7049116e+08
   2.6275425e-10  -1.9135202e-02   7.1149706e+00   1.6051111e+00  -1.6967668e+08
   2.6342114e-10  -1.9022317e-02   7.1122064e+00   1.6186436e+00  -1.6886391e+08
   2.6408803e-10  -1.8909974e-02   7.1093903e+00   1.6322093e+00  -1.6805287e+08
   2.6475492e-10  -1.8798171e-02   7.1065228e+00   1.6458073e+00  -1.6724358e+08
   2.6542181e-10  -1.8686908e-02   7.1036042e+00   1.6594367e+00  -1.6643605e+08
   2.6608870e-10  -1.8576182e-02   7.1006346e+00   1.6730968e+00  -1.6563031e+08
   2.6675559e-10  -1.8465993e-02   7.0976146e+00   1.6867865e+00  -1.6482636e+08
   2.6742247e-10  -1.8356339e-02   7.0945443e+00   1.7005050e+00  -1.6402422e+08
   2.6808936e-10  -1.8247220e-02   7.0914242e+00   1.7142514e+00  -1.6322391e+08
   2.6875625e-10  -1.8138634e-02   7.0882546e+00   1.7280249e+00  -1.6242545e+08
   2.6942314e-10  -1.8030580e-02   7.0850358e+00   1.7418244e+00  -1.6162885e+08
   2.7009003e-10  -1.7923056e-02   7.0817681e+00   1.7556493e+00  -1.6083412e+08
   2.7075692e-10  -1.7816062e-02   7.0784520e+00   1.7694985e+00  -1.6004129e+08
   2.7142381e-10  -1.7709596e-02   7.0750879e+00   1.7833711e+00  -1.5925037e+08
   2.7209070e-10  -1.7603657e-02   7.0716760e+00   1.7972663e+00  -1.5846137e+08
   2.7275759e-10  -1.7498243e-02   7.0682169e+00   1.8111831e+00  -1.5767431e+08
   2.7342447e-10  -1.7393354e-02   7.0647108e+00   1.8251207e+00  -1.5688920e+08
   2.7409136e-10  -1.7288987e-02   7.0611582e+00   1.8390781e+00  -1.5610607e+08
   2.7475825e-10  -1.7185142e-02   7.0575595e+00   1.8530545e+00  -1.5532492e+08
   2.7542514e-10  -1.7081817e-02   7.0539151e+00   1.8670489e+00  -1.5454576e+08
   2.7609203e-10  -1.6979012e-02   7.0502255e+00   1.8810605e+00  -1.5376863e+08
   2.7675892e-10  -1.6876723e-02   7.0464911e+00   1.8950883e+00  -1.5299352e+08
   2.7742581e-10  -1.6774951e-02   7.0427122e+00   1.9091315e+00  -1.5222046e+08
   2.7809270e-10  -1.6673694e-02   7.0388894e+00   1.9231891e+00  -1.5144945e+08
   2.7875959e-10  -1.6572951e-02   7.0350230e+00   1.9372603e+00  -1.5068052e+08
   2.7942648e-10  -1.6472719e-02   7.0311136e+00   1.9513441e+00  -1.4991368e+08
   2.8009336e-10  -1.6372999e-02   7.0271616e+00   1.9654396e+00  -1.4914893e+08
   2.8076025e-10  -1.6273787e-02   7.0231675e+00   1.9795461e+00  -1.4838630e+08
   2.8142714e-10  -1.6175083e-02   7.0191316e+00   1.9936625e+00  -1.4762580e+08
   2.8209403e-10  -1.6076886e-02   7.0150546e+00   2.0077880e+00  -1.4686744e+08
   2.8276092e-10  -1.5979194e-02   7.0109368e+00   2.0219216e+00  -1.4611123e+08
   2.8342781e-10  -1.5882006e-02   7.0067788e+00   2.0360626e+00  -1.4535719e+08
   2.8409470e-10  -1.5785319e-02   7.0025811e+00   2.0502100e+00  -1.4460533e+08
   2.8476159e-10  -1.5689134e-02   6.9983440e+00   2.0643629e+00  -1.4385567e+08
   2.8542848e-10  -1.5593447e-02   6.9940682e+00   2.0785206e+00  -1.4310821e+08
   2.8609537e-10  -1.5498258e-02   6.9897541e+00   2.0926820e+00  -1.4236298e+08
   2.8676225e-10  -1.5403566e-02   6.9854022e+00   2.1068463e+00  -1.4161997e+08
   2.8742914e-10  -1.5309368e-02   6.9810131e+00   2.1210127e+00  -1.4087921e+08
   2.8809603e-10  -1.5215663e-02   6.9765871e+00   2.1351803e+00  -1.4014070e+08
   2.8876292e-10  -1.5122451e-02   6.9721250e+00   2.1493483e+00  -1.3940446e+08
   2.8942981e-10  -1.5029728e-02   6.9676270e+00   2.1635157e+00  -1.3867050e+08
   2.9009670e-10  -1.4937494e-02   6.9630939e+00   2.1776818e+00  -1.3793883e+08
   2.9076359e-10  -1.4845748e-02   6.9585261e+00   2.1918457e+00  -1.3720946e+08
   2.9143048e-10  -1.4754487e-02   6.9539241e+00   2.2060066e+00  -1.3648240e+08
   2.9209737e-10  -1.4663710e-02   6.9492884e+00   2.2201636e+00  -1.3575767e+08
   2.9276425e-10  -1.4573415e-02   6.9446196e+00   2.2343158e+00  -1.3503527e+08
   2.9343114e-10  -1.4483602e-02   6.9399183e+00   2.2484626e+00  -1.3431522e+08
   2.9409803e-10  -1.4394268e-02   6.9351848e+00   2.2626030e+00  -1.3359752e+08
   2.9476492e-10  -1.4305412e-02   6.9304199e+00   2.2767363e+00  -1.3288219e+08
   2.9543181e-10  -1.4217032e-02   6.9256239e+00   2.2908617e+00  -1.3216923e+08
   2.9609870e-10  -1.4129127e-02   6.9207975e+00   2.3049783e+00  -1.3145866e+08
   2.9676559e-10  -1.4041695e-02   6.9159412e+00   2.3190853e+00  -1.3075048e+08
   2.9743248e-10  -1.3954734e-02   6.9110555e+00   2.3331820e+00  -1.3004471e+08
   2.9809937e-10  -1.3868243e-02   6.9061409e+00   2.3472676e+00  -1.2934134e+08
   2.9876626e-10  -1.3782221e-02   6.9011980e+00   2.3613413e+00  -1.2864040e+08
   2.9943314e-10  -1.3696665e-02   6.8962274e+00   2.3754023e+00  -1.2794189e+08
   3.0010003e-10  -1.3611574e-02   6.8912296e+00   2.3894500e+00  -1.2724582e+08
   3.0076692e-10  -1.3526947e-02   6.8862051e+00   2.4034834e+00  -1.2655220e+08
   3.0143381e-10  -1.3442781e-02   6.8811545e+00   2.4175020e+00  -1.2586103e+08
   3.0210070e-10  -1.3359075e-02   6.8760783e+00   2.4315049e+00  -1.2517233e+08
   3.0276759e-10  -1.3275828e-02   6.8709770e+00   2.4454914e+00  -1.2448610e+08
   3.0343448e-10  -1.3193038e-02   6.8658512e+00   2.4594608e+00  -1.2380235e+08
   3.0410137e-10  -1.3110703e-02   6.8607015e+00   2.4734124e+00  -1.2312108e+08
   3.0476826e-10  -1.3028821e-02   6.8555283e+00   2.4873455e+00  -1.2244231e+08
   3.0543515e-10  -1.2947391e-02   6.8503323e+00   2.5012593e+00  -1.2176603e+08
   3.0610203e-10  -1.2866411e-02   6.8451139e+00   2.5151531e+00  -1.2109227e+08
   3.0676892e-10  -1.2785880e-02   6.8398738e+00   2.5290264e+00  -1.2042101e+08
   3.0743581e-10  -1.2705796e-02   6.8346123e+00   2.5428784e+00  -1.1975228e+08
   3.0810270e-10  -1.2626157e-02   6.8293302e+00   2.5567084e+00  -1.1908607e+08
   3.0876959e-10  -1.2546961e-02   6.8240278e+00   2.5705158e+00  -1.1842240e+08
   3.0943648e-10  -1.2468207e-02   6.8187058e+00   2.5842998e+00  -1.1776126e+08
   3.1010337e-10  -1.2389893e-02   6.8133647e+00   2.5980600e+00  -1.1710266e+08
   3.1077026e-10  -1.2312017e-02   6.8080049e+00   2.6117956e+00  -1.1644662e+08
   3.1143715e-10  -1.2234578e-02   6.8026271e+00   2.6255060e+00  -1.1579312e+08
   3.1210403e-10  -1.2157574e-02   6.7972318e+00   2.6391906e+00  -1.1514219e+08
   3.1277092e-10  -1.2081004e-02   6.7918195e+00   2.6528488e+00  -1.1449382e+08
   3.1343781e-10  -1.2004864e-02   6.7863907e+00   2.6664799e+00  -1.1384801e+08
   3.1410470e-10  -1.1929155e-02   6.7809459e+00   2.6800834e+00  -1.1320478e+08
   3.1477159e-10  -1.1853874e-02   6.7754856e+00   2.6936587e+00  -1.1256413e+08
   3.1543848e-10  -1.1779019e-02   6.7700105e+00   2.7072052e+00  -1.1192605e+08
   3.1610537e-10  -1.1704589e-02   6.7645209e+00   2.7207224e+00  -1.1129055e+08
   3.1677226e-10  -1.1630581e-02   6.7590174e+00   2.7342096e+00  -1.1065765e+08
   3.1743915e-10  -1.1556995e-02   6.7535005e+00   2.7476664e+00  -1.1002733e+08
   3.1810604e-10  -1.1483829e-02   6.7479708e+00   2.7610921e+00  -1.0939961e+08
   3.1877292e-10  -1.1411080e-02   6.7424286e+00   2.7744863e+00  -1.0877448e+08
   3.1943981e-10  -1.1338747e-02   6.7368746e+00   2.7878484e+00  -1.0815196e+08
   3.2010670e-10  -1.1266828e-02   6.7313091e+00   2.8011779e+00  -1.0753203e+08
   3.2077359e-10  -1.1195322e-02   6.7257328e+00   2.8144743e+00  -1.0691471e+08
   3.2144048e-10  -1.1124227e-02   6.7201461e+00   2.8277371e+00  -1.0629999e+08
   3.2210737e-10  -1.1053541e-02   6.7145495e+00   2.8409658e+00  -1.0568788e+08
   3.2277426e-10  -1.0983263e-02   6.7089434e+00   2.8541599e+00  -1.0507839e+08
   3.2344115e-10  -1.0913389e-02   6.7033283e+00   2.8673189e+00  -1.0447150e+08
   3.2410804e-10  -1.0843920e-02   6.6977049e+00   2.8804425e+00  -1.0386722e+08
   3.2477492e-10  -1.0774853e-02   6.6920734e+00   2.8935300e+00  -1.0326556e+08
   3.2544181e-10  -1.0706186e-02   6.6864343e+00   2.9065812e+00  -1.0266652e+08
   3.2610870e-10  -1.0637918e-02   6.6807882e+00   2.9195955e+00  -1.0207009e+08
   3.2677559e-10  -1.0570047e-02   6.6751355e+00   2.9325725e+00  -1.0147627e+08
   3.2744248e-10  -1.0502571e-02   6.6694767e+00   2.9455117e+00  -1.0088508e+08
   3.2810937e-10  -1.0435488e-02   6.6638122e+00   2.9584129e+00  -1.0029650e+08
   3.2877626e-10  -1.0368797e-02   6.6581424e+00   2.9712755e+00  -9.9710534e+07
   3.2944315e-10  -1.0302495e-02   6.6524679e+00   2.9840992e+00  -9.9127189e+07
   3.3011004e-10  -1.0236582e-02   6.6467890e+00   2.9968836e+00  -9.8546460e+07
   3.3077693e-10  -1.0171056e-02   6.6411062e+00   3.0096283e+00  -9.7968348e+07
   3.3144381e-10  -1.0105914e-02   6.6354199e+00   3.0223329e+00  -9.7392852e+07
   3.3211070e-10  -1.0041155e-02   6.6297306e+00   3.0349971e+00  -9.6819971e+07
   3.3277759e-10  -9.9767768e-03   6.6240387e+00   3.0476205e+00  -9.6249705e+07
   3.3344448e-10  -9.9127783e-03   6.6183446e+00   3.0602028e+00  -9.5682052e+07
   3.3411137e-10  -9.8491575e-03   6.6126487e+00   3.0727437e+00  -9.5117011e+07
   3.3477826e-10  -9.7859127e-03   6.6069515e+00   3.0852427e+00  -9.4554580e+07
   3.3544515e-10  -9.7230421e-03   6.6012533e+00   3.0976997e+00  -9.3994758e+07
   3.3611204e-10  -9.6605440e-03   6.5955545e+00   3.1101142e+00  -9.3437544e+07
   3.3677893e-10  -9.5984166e-03   6.5898556e+00   3.1224860e+00  -9.2882935e+07
   3.3744582e-10  -9.5366582e-03   6.5841570e+00   3.1348147e+00  -9.2330930e+07
   3.3811270e-10  -9.4752670e-03   6.5784590e+00   3.1471002e+00  -9.1781526e+07
   3.3877959e-10  -9.4142414e-03   6.5727621e+00   3.1593420e+00  -9.1234720e+07
   3.3944648e-10  -9.3535796e-03   6.5670665e+00   3.1715400e+00  -9.0690511e+07
   3.4011337e-10  -9.2932798e-03   6.5613728e+00   3.1836939e+00  -9.0148896e+07
   3.4078026e-10  -9.2333403e-03   6.5556812e+00   3.1958034e+00  -8.9609871e+07
   3.4144715e-10  -9.1737595e-03   6.5499922e+00   3.2078683e+00  -8.9073435e+07
   3.4211404e-10  -9.1145356e-03   6.5443060e+00   3.2198882e+00  -8.8539584e+07
   3.4278093e-10  -9.0556668e-03   6.5386232e+00   3.2318631e+00  -8.8008314e+07
   3.4344782e-10  -8.9971514e-03   6.5329439e+00   3.2437926e+00  -8.7479623e+07
   3.4411470e-10  -8.9389878e-03   6.5272686e+00   3.2556766e+00  -8.6953506e+07
   3.4478159e-10  -8.8811742e-03   6.5215977e+00   3.2675149e+00  -8.6429961e+07
   3.4544848e-10  -8.8237088e-03   6.5159314e+00   3.2793071e+00  -8.5908984e+07
   3.4611537e-10  -8.7665901e-03   6.5102700e+00   3.2910532e+00  -8.5390570e+07
   3.4678226e-10  -8.7098162e-03   6.5046140e+00   3.3027530e+00  -8.4874715e+07
   3.4744915e-10  -8.6533855e-03   6.4989637e+00   3.3144062e+00  -8.4361416e+07
   3.4811604e-10  -8.5972962e-03   6.4933194e+00   3.3260127e+00  -8.3850668e+07
   3.4878293e-10  -8.5415467e-03   6.4876813e+00   3.3375723e+00  -8.3342467e+07
   3.4944982e-10  -8.4861353e-03   6.4820499e+00   3.3490848e+00  -8.2836808e+07
   3.5011671e-10  -8.4310602e-03   6.4764254e+00   3.3605502e+00  -8.2333687e+07
   3.5078359e-10  -8.3763198e-03   6.4708081e+00   3.3719683e+00  -8.1833099e+07
   3.5145048e-10  -8.3219124e-03   6.4651983e+00   3.3833388e+00  -8.1335038e+07
   3.5211737e-10  -8.2678364e-03   6.4595964e+00   3.3946617e+00  -8.0839501e+07
   3.5278426e-10  -8.2140899e-03   6.4540026e+00   3.4059369e+00  -8.0346481e+07
   3.5345115e-10  -8.1606714e-03   6.4484172e+00   3.4171642e+00  -7.9855974e+07
   3.5411804e-10  -8.1075792e-03   6.4428405e+00   3.4283436e+00  -7.9367975e+07
   3.5478493e-10  -8.0548116e-03   6.4372727e+00   3.4394748e+00  -7.8882477e+07
   3.5545182e-10  -8.0023669e-03   6.4317142e+00   3.4505579e+00  -7.8399475e+07
   3.5611871e-10  -7.9502436e-03   6.4261652e+00   3.4615926e+00  -7.7918965e+07
   3.5678560e-10  -7.8984398e-03   6.4206260e+00   3.4725790e+00  -7.7440939e+07
   3.5745248e-10  -7.8469540e-03   6.4150968e+00   3.4835169e+00  -7.6965392e+07
   3.5811937e-10  -7.7957845e-03   6.4095779e+00   3.4944062e+00  -7.6492319e+07
   3.5878626e-10  -7.7449296e-03   6.4040695e+00   3.5052470e+00  -7.6021713e+07
   3.5945315e-10  -7.6943878e-03   6.3985719e+00   3.5160390e+00  -7.5553567e+07
   3.6012004e-10  -7.6441574e-03   6.3930854e+00   3.5267823e+00  -7.5087877e+07
   3.6078693e-10  -7.5942367e-03   6.3876101e+00   3.5374769e+00  -7.4624635e+07
   3.6145382e-10  -7.5446242e-03   6.3821463e+00   3.5481225e+00  -7.4163835e+07
   3.6212071e-10  -7.4953181e-03   6.3766943e+00   3.5587193e+00  -7.3705471e+07
   3.6278760e-10  -7.4463169e-03   6.3712542e+00   3.5692671e+00  -7.3249536e+07
   3.6345448e-10  -7.3976189e-03   6.3658263e+00   3.5797659e+00  -7.2796023e+07
   3.6412137e-10  -7.3492226e-03   6.3604108e+00   3.5902158e+00  -7.2344926e+07
   3.6478826e-10  -7.3011263e-03   6.3550079e+00   3.6006166e+00  -7.1896237e+07
   3.6545515e-10  -7.2533284e-03   6.3496179e+00   3.6109684e+00  -7.1449951e+07
   3.6612204e-10  -7.2058274e-03   6.3442408e+00   3.6212711e+00  -7.1006059e+07
   3.6678893e-10  -7.1586216e-03   6.3388770e+00   3.6315247e+00  -7.0564555e+07
   3.6745582e-10  -7.1117094e-03   6.3335266e+00   3.6417293e+00  -7.0125433e+07
   3.6812271e-10  -7.0650893e-03   6.3281898e+00   3.6518848e+00  -6.9688683e+07
   3.6878960e-10  -7.0187597e-03   6.3228668e+00   3.6619913e+00  -6.9254300e+07
   3.6945649e-10  -6.9727189e-03   6.3175578e+00   3.6720487e+00  -6.8822276e+07
   3.7012337e-10  -6.9269655e-03   6.3122630e+00   3.6820570e+00  -6.8392604e+07
   3.7079026e-10  -6.8814978e-03   6.3069825e+00   3.6920164e+00  -6.7965276e+07
   3.7145715e-10  -6.8363144e-03   6.3017165e+00   3.7019267e+00  -6.7540284e+07
   3.7212404e-10  -6.7914136e-03   6.2964653e+00   3.7117881e+00  -6.7117622e+07
   3.7279093e-10  -6.7467939e-03   6.2912288e+00   3.7216005e+00  -6.6697280e+07
   3.7345782e-10  -6.7024537e-03   6.2860074e+00   3.7313640e+00  -6.6279253e+07
   3.7412471e-10  -6.6583915e-03   6.2808011e+00   3.7410786e+00  -6.5863531e+07
   3.7479160e-10  -6.6146059e-03   6.2756102e+00   3.7507445e+00  -6.5450108e+07
   3.7545849e-10  -6.5710951e-03   6.2704348e+00   3.7603615e+00  -6.5038975e+07
   3.7612538e-10  -6.5278578e-03   6.2652749e+00   3.7699299e+00  -6.4630124e+07
   3.7679226e-10  -6.4848924e-03   6.2601308e+00   3.7794496e+00  -6.4223547e+07
   3.7745915e-10  -6.4421973e-03   6.2550027e+00   3.7889206e+00  -6.3819237e+07
   3.7812604e-10  -6.3997712e-03   6.2498905e+00   3.7983431e+00  -6.3417185e+07
   3.7879293e-10  -6.3576124e-03   6.2447945e+00   3.8077172e+00  -6.3017384e+07
   3.7945982e-10  -6.3157195e-03   6.2397149e+00   3.8170428e+00  -6.2619824e+07
   3.8012671e-10  -6.2740909e-03   6.2346516e+00   3.8263201e+00  -6.2224498e+07
   3.8079360e-10  -6.2327253e-03   6.2296049e+00   3.8355492e+00  -6.1831398e+07
   3.8146049e-10  -6.1916211e-03   6.2245749e+00   3.8447300e+00  -6.1440515e+07
   3.8212738e-10  -6.1507768e-03   6.2195616e+00   3.8538628e+00  -6.1051841e+07
   3.8279426e-10  -6.1101910e-03   6.2145653e+00   3.8629475e+00  -6.0665368e+07
   3.8346115e-10  -6.0698622e-03   6.2095859e+00   3.8719844e+00  -6.0281087e+07
   3.8412804e-10  -6.0297889e-03   6.2046237e+00   3.8809734e+00  -5.9898990e+07
   3.8479493e-10  -5.9899697e-03   6.1996786e+00   3.8899146e+00  -5.9519068e+07
   3.8546182e-10  -5.9504032e-03   6.1947509e+00   3.8988083e+00  -5.9141313e+07
   3.8612871e-10  -5.9110879e-03   6.1898405e+00   3.9076544e+00  -5.8765716e+07
   3.8679560e-10  -5.8720223e-03   6.1849477e+00   3.9164530e+00  -5.8392269e+07
   3.8746249e-10  -5.8332051e-03   6.1800724e+00   3.9252044e+00  -5.8020963e+07
   3.8812938e-10  -5.7946348e-03   6.1752149e+00   3.9339085e+00  -5.7651790e+07
   3.8879627e-10  -5.7563099e-03   6.1703750e+00   3.9425655e+00  -5.7284741e+07
   3.8946315e-10  -5.7182292e-03   6.1655531e+00   3.9511755e+00  -5.6919807e+07
   3.9013004e-10  -5.6803911e-03   6.1607490e+00   3.9597386e+00  -5.6556980e+07
   3.9079693e-10  -5.6427942e-03   6.1559629e+00   3.9682550e+00  -5.6196251e+07
   3.9146382e-10  -5.6054373e-03   6.1511949e+00   3.9767248e+00  -5.5837611e+07
   3.9213071e-10  -5.5683188e-03   6.1464451e+00   3.9851480e+00  -5.5481051e+07
   3.9279760e-10  -5.5314374e-03   6.1417134e+00   3.9935249e+00  -5.5126563e+07
   3.9346449e-10  -5.4947917e-03   6.1370000e+00   4.0018555e+00  -5.4774138e+07
   3.9413138e-10  -5.4583804e-03   6.1323049e+00   4.0101399e+00  -5.4423767e+07
   3.9479827e-10  -5.4222021e-03   6.1276282e+00   4.0183784e+00  -5.4075441e+07
   3.9546516e-10  -5.3862553e-03   6.1229700e+00   4.0265710e+00  -5.3729152e+07
   3.9613204e-10  -5.3505389e-03   6.1183303e+00   4.0347179e+00  -5.3384891e+07
   3.9679893e-10  -5.3150513e-03   6.1137091e+00   4.0428192e+00  -5.3042648e+07
   3.9746582e-10  -5.2797913e-03   6.1091065e+00   4.0508750e+00  -5.2702415e+07
   3.9813271e-10  -5.2447575e-03   6.1045226e+00   4.0588856e+00  -5.2364183e+07
   3.9879960e-10  -5.2099487e-03   6.0999573e+00   4.0668509e+00  -5.2027943e+07
   3.9946649e-10  -5.1753634e-03   6.0954108e+00   4.0747713e+00  -5.1693687e+07
   4.0013338e-10  -5.1410003e-03   6.0908831e+00   4.0826468e+00  -5.1361405e+07
   4.0080027e-10  -5.1068582e-03   6.0863741e+00   4.0904775e+00  -5.1031088e+07
   4.0146716e-10  -5.0729357e-03   6.0818840e+00   4.0982637e+00  -5.0702728e+07
   4.0213404e-10  -5.0392316e-03   6.0774128e+00   4.1060055e+00  -5.0376315e+07
   4.0280093e-10  -5.0057445e-03   6.0729605e+00   4.1137029e+00  -5.0051842e+07
   4.0346782e-10  -4.9724731e-03   6.0685271e+00   4.1213563e+00  -4.9729298e+07
   4.0413471e-10  -4.9394162e-03   6.0641127e+00   4.1289657e+00  -4.9408674e+07
   4.0480160e-10  -4.9065725e-03   6.0597173e+00   4.1365313e+00  -4.9089963e+07
   4.0546849e-10  -4.8739407e-03   6.0553408e+00   4.1440533e+00  -4.8773155e+07
   4.0613538e-10  -4.8415195e-03   6.0509834e+00   4.1515318e+00  -4.8458241e+07
   4.0680227e-10  -4.8093077e-03   6.0466451e+00   4.1589669e+00  -4.8145212e+07
   4.0746916e-10  -4.7773041e-03   6.0423258e+00   4.1663589e+00  -4.7834059e+07
   4.0813605e-10  -4.7455073e-03   6.0380256e+00   4.1737079e+00  -4.7524774e+07
   4.0880293e-10  -4.7139162e-03   6.0337444e+00   4.1810141e+00  -4.7217347e+07
   4.0946982e-10  -4.6825294e-03   6.0294824e+00   4.1882775e+00  -4.6911769e+07
   4.1013671e-10  -4.6513459e-03   6.0252395e+00   4.1954985e+00  -4.6608032e+07
   4.1080360e-10  -4.6203643e-03   6.0210156e+00   4.2026771e+00  -4.6306127e+07
   4.1147049e-10  -4.5895834e-03   6.0168109e+00   4.2098136e+00  -4.6006045e+07
   4.1213738e-10  -4.5590020e-03   6.0126253e+00   4.2169081e+00  -4.5707776e+07
   4.1280427e-10  -4.5286190e-03   6.0084589e+00   4.2239607e+00  -4.5411313e+07
   4.1347116e-10  -4.4984330e-03   6.0043115e+00   4.2309717e+00  -4.5116645e+07
   4.1413805e-10  -4.4684430e-03   6.0001833e+00   4.2379411e+00  -4.4823765e+07
   4.1480493e-10  -4.4386477e-03   5.9960741e+00   4.2448693e+00  -4.4532664e+07
   4.1547182e-10  -4.4090459e-03   5.9919841e+00   4.2517563e+00  -4.4243332e+07
   4.1613871e-10  -4.3796365e-03   5.9879132e+00   4.2586023e+00  -4.3955761e+07
   4.1680560e-10  -4.3504183e-03   5.9838614e+00   4.2654076e+00  -4.3669941e+07
   4.1747249e-10  -4.3213901e-03   5.9798286e+00   4.2721722e+00  -4.3385865e+07
   4.1813938e-10  -4.2925508e-03   5.9758150e+00   4.2788963e+00  -4.3103524e+07
   4.1880627e-10  -4.2638992e-03   5.9718203e+00   4.2855802e+00  -4.2822908e+07
   4.1947316e-10  -4.2354342e-03   5.9678448e+00   4.2922240e+00  -4.2544009e+07
   4.2014005e-10  -4.2071545e-03   5.9638882e+00   4.2988279e+00  -4.2266818e+07
   4.2080694e-10  -4.1790592e-03   5.9599507e+00   4.3053920e+00  -4.1991326e+07
   4.2147382e-10  -4.1511471e-03   5.9560321e+00   4.3119166e+00  -4.1717525e+07
   4.2214071e-10  -4.1234169e-03   5.9521325e+00   4.3184017e+00  -4.1445406e+07
   4.2280760e-10  -4.0958677e-03   5.9482519e+00   4.3248477e+00  -4.1174960e+07
   4.2347449e-10  -4.0684983e-03   5.9443902e+00   4.3312546e+00  -4.0906179e+07
   4.2414138e-10  -4.0413076e-03   5.9405474e+00   4.3376227e+00  -4.0639054e+07
   4.2480827e-10  -4.0142945e-03   5.9367234e+00   4.3439521e+00  -4.0373576e+07
   4.2547516e-10  -3.9874578e-03   5.9329183e+00   4.3502430e+00  -4.0109737e+07
   4.2614205e-10  -3.9607966e-03   5.9291321e+00   4.3564955e+00  -3.9847528e+07
   4.2680894e-10  -3.9343097e-03   5.9253646e+00   4.3627100e+00  -3.9586941e+07
   4.2747583e-10  -3.9079961e-03   5.9216159e+00   4.3688865e+00  -3.9327967e+07
   4.2814271e-10  -3.8818546e-03   5.9178859e+00   4.3750252e+00  -3.9070597e+07
   4.2880960e-10  -3.8558842e-03   5.9141747e+00   4.3811263e+00  -3.8814823e+07
   4.2947649e-10  -3.8300839e-03   5.9104821e+00   4.3871900e+00  -3.8560636e+07
   4.3014338e-10  -3.8044525e-03   5.9068081e+00   4.3932165e+00  -3.8308029e+07
   4.3081027e-10  -3.7789891e-03   5.9031527e+00   4.3992060e+00  -3.8056992e+07
   4.3147716e-10  -3.7536926e-03   5.8995159e+00   4.4051585e+00  -3.7807518e+07
   4.3214405e-10  -3.7285620e-03   5.8958976e+00   4.4110744e+00  -3.7559597e+07
   4.3281094e-10  -3.7035961e-03   5.8922978e+00   4.4169537e+00  -3.7313222e+07
   4.3347783e-10  -3.6787941e-03   5.8887165e+00   4.4227967e+00  -3.7068383e+07
   4.3414471e-10  -3.6541548e-03   5.8851535e+00   4.4286036e+00  -3.6825073e+07
   4.3481160e-10  -3.6296773e-03   5.8816090e+00   4.4343745e+00  -3.6583284e+07
   4.3547849e-10  -3.6053605e-03   5.8780827e+00   4.4401096e+00  -3.6343007e+07
   4.3614538e-10  -3.5812034e-03   5.8745747e+00   4.4458091e+00  -3.6104234e+07
   4.3681227e-10  -3.5572051e-03   5.8710850e+00   4.4514732e+00  -3.5866956e+07
   4.3747916e-10  -3.5333645e-03   5.8676135e+00   4.4571020e+00  -3.5631166e+07
   4.3814605e-10  -3.5096807e-03   5.8641601e+00   4.4626958e+00  -3.5396855e+07
   4.3881294e-10  -3.4861527e-03   5.8607248e+00   4.4682547e+00  -3.5164015e+07
   4.3947983e-10  -3.4627794e-03   5.8573076e+00   4.4737788e+00  -3.4932638e+07
   4.4014672e-10  -3.4395600e-03   5.8539083e+00   4.4792685e+00  -3.4702716e+07
   4.4081360e-10  -3.4164934e-03   5.8505271e+00   4.4847238e+00  -3.4474241e+07
   4.4148049e-10  -3.3935787e-03   5.8471637e+00   4.4901449e+00  -3.4247205e+07
   4.4214738e-10  -3.3708149e-03   5.8438183e+00   4.4955320e+00  -3.4021599e+07
   4.4281427e-10  -3.3482011e-03   5.8404906e+00   4.5008853e+00  -3.3797416e+07
   4.4348116e-10  -3.3257363e-03   5.8371807e+00   4.5062050e+00  -3.3574648e+07
   4.4414805e-10  -3.3034196e-03   5.8338885e+00   4.5114912e+00  -3.3353287e+07
   4.4481494e-10  -3.2812501e-03   5.8306140e+00   4.5167442e+00  -3.3133325e+07
   4.4548183e-10  -3.2592268e-03   5.8273570e+00   4.5219640e+00  -3.2914754e+07
   4.4614872e-10  -3.2373488e-03   5.8241176e+00   4.5271509e+00  -3.2697566e+07
   4.4681561e-10  -3.2156152e-03   5.8208958e+00   4.5323051e+00  -3.2481753e+07
   4.4748249e-10  -3.1940251e-03   5.8176913e+00   4.5374267e+00  -3.2267308e+07
   4.4814938e-10  -3.1725775e-03   5.8145043e+00   4.5425159e+00  -3.2054223e+07
   4.4881627e-10  -3.1512716e-03   5.8113346e+00   4.5475729e+00  -3.1842490e+07
   4.4948316e-10  -3.1301064e-03   5.8081821e+00   4.5525978e+00  -3.1632102e+07
   4.5015005e-10  -3.1090811e-03   5.8050469e+00   4.5575909e+00  -3.1423050e+07
   4.5081694e-10  -3.0881947e-03   5.8019289e+00   4.5625523e+00  -3.1215327e+07
   4.5148383e-10  -3.0674465e-03   5.7988279e+00   4.5674821e+00  -3.1008926e+07
   4.5215072e-10  -3.0468354e-03   5.7957441e+00   4.5723806e+00  -3.0803838e+07
   4.5281761e-10  -3.0263607e-03   5.7926772e+00   4.5772479e+00  -3.0600057e+07
   4.5348449e-10  -3.0060215e-03   5.7896272e+00   4.5820842e+00  -3.0397575e+07
   4.5415138e-10  -2.9858168e-03   5.7865941e+00   4.5868897e+00  -3.0196384e+07
   4.5481827e-10  -2.9657459e-03   5.7835779e+00   4.5916646e+00  -2.9996476e+07
   4.5548516e-10  -2.9458079e-03   5.7805783e+00   4.5964089e+00  -2.9797845e+07
   4.5615205e-10  -2.9260019e-03   5.7775955e+00   4.6011230e+00  -2.9600484e+07
   4.5681894e-10  -2.9063271e-03   5.7746293e+00   4.6058068e+00  -2.9404383e+07
   4.5748583e-10  -2.8867827e-03   5.7716797e+00   4.6104607e+00  -2.9209537e+07
   4.5815272e-10  -2.8673678e-03   5.7687466e+00   4.6150848e+00  -2.9015938e+07
   4.5881961e-10  -2.8480816e-03   5.7658300e+00   4.6196793e+00  -2.8823579e+07
   4.5948650e-10  -2.8289233e-03   5.7629297e+00   4.6242443e+00  -2.8632452e+07
   4.6015338e-10  -2.8098920e-03   5.7600458e+00   4.6287800e+00  -2.8442550e+07
   4.6082027e-10  -2.7909870e-03   5.7571781e+00   4.6332865e+00  -2.8253867e+07
   4.6148716e-10  -2.7722074e-03   5.7543267e+00   4.6377641e+00  -2.8066394e+07
   4.6215405e-10  -2.7535524e-03   5.7514914e+00   4.6422129e+00  -2.7880125e+07
   4.6282094e-10  -2.7350212e-03   5.7486721e+00   4.6466330e+00  -2.7695052e+07
   4.6348783e-10  -2.7166131e-03   5.7458689e+00   4.6510247e+00  -2.7511169e+07
   4.6415472e-10  -2.6983271e-03   5.7430816e+00   4.6553880e+00  -2.7328469e+07
   4.6482161e-10  -2.6801627e-03   5.7403102e+00   4.6597233e+00  -2.7146944e+07
   4.6548850e-10  -2.6621189e-03   5.7375546e+00   4.6640305e+00  -2.6966588e+07
   4.6615539e-10  -2.6441950e-03   5.7348148e+00   4.6683099e+00  -2.6787393e+07
   4.6682227e-10  -2.6263902e-03   5.7320907e+00   4.6725616e+00  -2.6609353e+07
   4.6748916e-10  -2.6087038e-03   5.7293822e+00   4.6767859e+00  -2.6432461e+07
   4.6815605e-10  -2.5911349e-03   5.7266893e+00   4.6809828e+00  -2.6256710e+07
   4.6882294e-10  -2.5736829e-03   5.7240119e+00   4.6851526e+00  -2.6082093e+07
   4.6948983e-10  -2.5563469e-03   5.7213499e+00   4.6892953e+00  -2.5908604e+07
   4.7015672e-10  -2.5391263e-03   5.7187032e+00   4.6934112e+00  -2.5736235e+07
   4.7082361e-10  -2.5220203e-03   5.7160719e+00   4.6975003e+00  -2.5564980e+07
   4.7149050e-10  -2.5050281e-03   5.7134559e+00   4.7015630e+00  -2.5394833e+07
   4.7215739e-10  -2.4881490e-03   5.7108549e+00   4.7055992e+00  -2.5225786e+07
   4.7282427e-10  -2.4713822e-03   5.7082692e+00   4.7096092e+00  -2.5057833e+07
   4.7349116e-10  -2.4547271e-03   5.7056984e+00   4.7135932e+00  -2.4890968e+07
   4.7415805e-10  -2.4381830e-03   5.7031426e+00   4.7175512e+00  -2.4725183e+07
   4.7482494e-10  -2.4217490e-03   5.7006018e+00   4.7214835e+00  -2.4560473e+07
   4.7549183e-10  -2.4054245e-03   5.6980757e+00   4.7253901e+00  -2.4396831e+07
   4.7615872e-10  -2.3892088e-03   5.6955645e+00   4.7292713e+00  -2.4234250e+07
   4.7682561e-10  -2.3731012e-03   5.6930680e+00   4.7331272e+00  -2.4072723e+07
   4.7749250e-10  -2.3571009e-03   5.6905861e+00   4.7369579e+00  -2.3912246e+07
   4.7815939e-10  -2.3412073e-03   5.6881188e+00   4.7407637e+00  -2.3752811e+07
   4.7882628e-10  -2.3254197e-03   5.6856660e+00   4.7445446e+00  -2.3594411e+07
   4.7949316e-10  -2.3097374e-03   5.6832277e+00   4.7483008e+00  -2.3437041e+07
   4.8016005e-10  -2.2941597e-03   5.6808037e+00   4.7520324e+00  -2.3280694e+07
   4.8082694e-10  -2.2786859e-03   5.6783941e+00   4.7557396e+00  -2.3125365e+07
   4.8149383e-10  -2.2633153e-03   5.6759987e+00   4.7594226e+00  -2.2971046e+07
   4.8216072e-10  -2.2480474e-03   5.6736175e+00   4.7630815e+00  -2.2817731e+07
   4.8282761e-10  -2.2328813e-03   5.6712504e+00   4.7667164e+00  -2.2665416e+07
   4.8349450e-10  -2.2178165e-03   5.6688974e+00   4.7703275e+00  -2.2514092e+07
   4.8416139e-10  -2.2028523e-03   5.6665583e+00   4.7739149e+00  -2.2363755e+07
   4.8482828e-10  -2.1879880e-03   5.6642332e+00   4.7774788e+00  -2.2214398e+07
   4.8549517e-10  -2.1732230e-03   5.6619219e+00   4.7810194e+00  -2.2066016e+07
   4.8616205e-10  -2.1585566e-03   5.6596244e+00   4.7845366e+00  -2.1918601e+07
   4.8682894e-10  -2.1439883e-03   5.6573407e+00   4.7880308e+00  -2.1772149e+07
   4.8749583e-10  -2.1295172e-03   5.6550706e+00   4.7915020e+00  -2.1626653e+07
   4.8816272e-10  -2.1151429e-03   5.6528140e+00   4.7949505e+00  -2.1482107e+07
   4.8882961e-10  -2.1008646e-03   5.6505710e+00   4.7983762e+00  -2.1338507e+07
   4.8949650e-10  -2.0866819e-03   5.6483415e+00   4.8017794e+00  -2.1195844e+07
   4.9016339e-10  -2.0725939e-03   5.6461254e+00   4.8051602e+00  -2.1054115e+07
   4.9083028e-10  -2.0586001e-03   5.6439225e+00   4.8085188e+00  -2.0913313e+07
   4.9149717e-10  -2.0447000e-03   5.6417330e+00   4.8118552e+00  -2.0773432e+07
   4.9216405e-10  -2.0308928e-03   5.6395566e+00   4.8151696e+00  -2.0634467e+07
   4.9283094e-10  -2.0171780e-03   5.6373934e+00   4.8184622e+00  -2.0496412e+07
   4.9349783e-10  -2.0035549e-03   5.6352432e+00   4.8217331e+00  -2.0359261e+07
   4.9416472e-10  -1.9900230e-03   5.6331061e+00   4.8249825e+00  -2.0223009e+07
   4.9483161e-10  -1.9765817e-03   5.6309818e+00   4.8282103e+00  -2.0087650e+07
   4.9549850e-10  -1.9632304e-03   5.6288705e+00   4.8314169e+00  -1.9953179e+07
   4.9616539e-10  -1.9499684e-03   5.6267719e+00   4.8346023e+00  -1.9819589e+07
   4.9683228e-10  -1.9367952e-03   5.6246861e+00   4.8377667e+00  -1.9686876e+07
   4.9749917e-10  -1.9237103e-03   5.6226130e+00   4.8409101e+00  -1.9555035e+07
   4.9816606e-10  -1.9107130e-03   5.6205525e+00   4.8440328e+00  -1.9424058e+07
   4.9883294e-10  -1.8978027e-03   5.6185045e+00   4.8471348e+00  -1.9293942e+07
   4.9949983e-10  -1.8849790e-03   5.6164690e+00   4.8502163e+00  -1.9164681e+07
   5.0016672e-10  -1.8722411e-03   5.6144459e+00   4.8532774e+00  -1.9036269e+07
   5.0083361e-10  -1.8595886e-03   5.6124352e+00   4.8563182e+00  -1.8908701e+07
   5.0150050e-10  -1.8470209e-03   5.6104367e+00   4.8593389e+00  -1.8781972e+07
   5.0216739e-10  -1.8345374e-03   5.6084505e+00   4.8623396e+00  -1.8656077e+07
   5.0283428e-10  -1.8221377e-03   5.6064765e+00   4.8653204e+00  -1.8531010e+07
   5.0350117e-10  -1.8098210e-03   5.6045146e+00   4.8682815e+00  -1.8406766e+07
   5.0416806e-10  -1.7975869e-03   5.6025647e+00   4.8712229e+00  -1.8283340e+07
   5.0483494e-10  -1.7854349e-03   5.6006267e+00   4.8741448e+00  -1.8160727e+07
   5.0550183e-10  -1.7733644e-03   5.5987007e+00   4.8770473e+00  -1.8038921e+07
   5.0616872e-10  -1.7613748e-03   5.5967865e+00   4.8799306e+00  -1.7917918e+07
   5.0683561e-10  -1.7494657e-03   5.5948842e+00   4.8827947e+00  -1.7797712e+07
   5.0750250e-10  -1.7376365e-03   5.5929935e+00   4.8856398e+00  -1.7678299e+07
   5.0816939e-10  -1.7258866e-03   5.5911145e+00   4.8884660e+00  -1.7559673e+07
   5.0883628e-10  -1.7142156e-03   5.5892471e+00   4.8912735e+00  -1.7441830e+07
   5.0950317e-10  -1.7026229e-03   5.5873912e+00   4.8940622e+00  -1.7324764e+07
   5.1017006e-10  -1.6911080e-03   5.5855468e+00   4.8968325e+00  -1.7208471e+07
   5.1083695e-10  -1.6796704e-03   5.5837139e+00   4.8995843e+00  -1.7092945e+07
   5.1150383e-10  -1.6683097e-03   5.5818922e+00   4.9023178e+00  -1.6978182e+07
   5.1217072e-10  -1.6570251e-03   5.5800819e+00   4.9050331e+00  -1.6864177e+07
   5.1283761e-10  -1.6458164e-03   5.5782828e+00   4.9077303e+00  -1.6750926e+07
   5.1350450e-10  -1.6346830e-03   5.5764949e+00   4.9104096e+00  -1.6638422e+07
   5.1417139e-10  -1.6236243e-03   5.5747180e+00   4.9130711e+00  -1.6526663e+07
   5.1483828e-10  -1.6126399e-03   5.5729523e+00   4.9157148e+00  -1.6415642e+07
   5.1550517e-10  -1.6017293e-03   5.5711975e+00   4.9183409e+00  -1.6305355e+07
   5.1617206e-10  -1.5908920e-03   5.5694536e+00   4.9209495e+00  -1.6195798e+07
   5.1683895e-10  -1.5801276e-03   5.5677206e+00   4.9235407e+00  -1.6086966e+07
   5.1750584e-10  -1.5694354e-03   5.5659984e+00   4.9261146e+00  -1.5978854e+07
   5.1817272e-10  -1.5588151e-03   5.5642870e+00   4.9286714e+00  -1.5871457e+07
   5.1883961e-10  -1.5482663e-03   5.5625863e+00   4.9312111e+00  -1.5764772e+07
   5.1950650e-10  -1.5377883e-03   5.5608961e+00   4.9337339e+00  -1.5658793e+07
   5.2017339e-10  -1.5273808e-03   5.5592166e+00   4.9362398e+00  -1.5553516e+07
   5.2084028e-10  -1.5170432e-03   5.5575476e+00   4.9387290e+00  -1.5448936e+07
   5.2150717e-10  -1.5067752e-03   5.5558890e+00   4.9412016e+00  -1.5345050e+07
   5.2217406e-10  -1.4965762e-03   5.5542408e+00   4.9436577e+00  -1.5241852e+07
   5.2284095e-10  -1.4864458e-03   5.5526030e+00   4.9460974e+00  -1.5139338e+07
   5.2350784e-10  -1.4763835e-03   5.5509754e+00   4.9485207e+00  -1.5037504e+07
   5.2417472e-10  -1.4663889e-03   5.5493580e+00   4.9509279e+00  -1.4936346e+07
   5.2484161e-10  -1.4564616e-03   5.5477509e+00   4.9533190e+00  -1.4835859e+07
   5.2550850e-10  -1.4466010e-03   5.5461538e+00   4.9556941e+00  -1.4736038e+07
   5.2617539e-10  -1.4368068e-03   5.5445668e+00   4.9580533e+00  -1.4636880e+07
   5.2684228e-10  -1.4270785e-03   5.5429898e+00   4.9603968e+00  -1.4538380e+07
   5.2750917e-10  -1.4174157e-03   5.5414227e+00   4.9627245e+00  -1.4440534e+07
   5.2817606e-10  -1.4078179e-03   5.5398655e+00   4.9650367e+00  -1.4343338e+07
   5.2884295e-10  -1.3982847e-03   5.5383181e+00   4.9673334e+00  -1.4246788e+07
   5.2950984e-10  -1.3888157e-03   5.5367805e+00   4.9696148e+00  -1.4150879e+07
   5.3017673e-10  -1.3794105e-03   5.5352526e+00   4.9718808e+00  -1.4055608e+07
   5.3084361e-10  -1.3700685e-03   5.5337344e+00   4.9741317e+00  -1.3960969e+07
   5.3151050e-10  -1.3607895e-03   5.5322257e+00   4.9763675e+00  -1.3866960e+07
   5.3217739e-10  -1.3515729e-03   5.5307267e+00   4.9785884e+00  -1.3773576e+07
   5.3284428e-10  -1.3424185e-03   5.5292371e+00   4.9807943e+00  -1.3680813e+07
   5.3351117e-10  -1.3333256e-03   5.5277569e+00   4.9829855e+00  -1.3588667e+07
   5.3417806e-10  -1.3242941e-03   5.5262862e+00   4.9851620e+00  -1.3497134e+07
   5.3484495e-10  -1.3153233e-03   5.5248247e+00   4.9873239e+00  -1.3406210e+07
   5.3551184e-10  -1.3064130e-03   5.5233726e+00   4.9894713e+00  -1.3315891e+07
   5.3617873e-10  -1.2975627e-03   5.5219296e+00   4.9916043e+00  -1.3226173e+07
   5.3684562e-10  -1.2887721e-03   5.5204959e+00   4.9937230e+00  -1.3137053e+07
   5.3751250e-10  -1.2800407e-03   5.5190712e+00   4.9958275e+00  -1.3048526e+07
   5.3817939e-10  -1.2713681e-03   5.5176556e+00   4.9979179e+00  -1.2960589e+07
   5.3884628e-10  -1.2627540e-03   5.5162491e+00   4.9999942e+00  -1.2873238e+07
   5.3951317e-10  -1.2541980e-03   5.5148515e+00   5.0020566e+00  -1.2786468e+07
   5.4018006e-10  -1.2456996e-03   5.5134628e+00   5.0041052e+00  -1.2700277e+07
   5.4084695e-10  -1.2372585e-03   5.5120829e+00   5.0061400e+00  -1.2614660e+07
   5.4151384e-10  -1.2288743e-03   5.5107119e+00   5.0081611e+00  -1.2529614e+07
   5.4218073e-10  -1.2205466e-03   5.5093496e+00   5.0101687e+00  -1.2445135e+07
   5.4284762e-10  -1.2122751e-03   5.5079960e+00   5.0121627e+00  -1.2361220e+07
   5.4351450e-10  -1.2040594e-03   5.5066510e+00   5.0141434e+00  -1.2277864e+07
   5.4418139e-10  -1.1958991e-03   5.5053147e+00   5.0161108e+00  -1.2195064e+07
   5.4484828e-10  -1.1877938e-03   5.5039869e+00   5.0180650e+00  -1.2112816e+07
   5.4551517e-10  -1.1797431e-03   5.5026676e+00   5.0200060e+00  -1.2031117e+07
   5.4618206e-10  -1.1717468e-03   5.5013567e+00   5.0219340e+00  -1.1949964e+07
   5.4684895e-10  -1.1638044e-03   5.5000542e+00   5.0238490e+00  -1.1869352e+07
   5.4751584e-10  -1.1559156e-03   5.4987601e+00   5.0257511e+00  -1.1789279e+07
   5.4818273e-10  -1.1480800e-03   5.4974743e+00   5.0276405e+00  -1.1709740e+07
   5.4884962e-10  -1.1402973e-03   5.4961967e+00   5.0295171e+00  -1.1630732e+07
   5.4951651e-10  -1.1325671e-03   5.4949274e+00   5.0313811e+00  -1.1552252e+07
   5.5018339e-10  -1.1248890e-03   5.4936661e+00   5.0332326e+00  -1.1474296e+07
   5.5085028e-10  -1.1172628e-03   5.4924130e+00   5.0350716e+00  -1.1396861e+07
   5.5151717e-10  -1.1096880e-03   5.4911680e+00   5.0368982e+00  -1.1319943e+07
   5.5218406e-10  -1.1021644e-03   5.4899309e+00   5.0387126e+00  -1.1243540e+07
   5.5285095e-10  -1.0946915e-03   5.4887018e+00   5.0405147e+00  -1.1167647e+07
   5.5351784e-10  -1.0872691e-03   5.4874806e+00   5.0423047e+00  -1.1092261e+07
   5.5418473e-10  -1.0798968e-03   5.4862673e+00   5.0440827e+00  -1.1017380e+07
   5.5485162e-10  -1.0725743e-03   5.4850618e+00   5.0458487e+00  -1.0942999e+07
   5.5551851e-10  -1.0653012e-03   5.4838640e+00   5.0476027e+00  -1.0869116e+07
   5.5618540e-10  -1.0580772e-03   5.4826740e+00   5.0493450e+00  -1.0795727e+07
   5.5685228e-10  -1.0509020e-03   5.4814917e+00   5.0510755e+00  -1.0722829e+07
   5.5751917e-10  -1.0437752e-03   5.4803170e+00   5.0527944e+00  -1.0650418e+07
   5.5818606e-10  -1.0366966e-03   5.4791498e+00   5.0545017e+00  -1.0578492e+07
   5.5885295e-10  -1.0296657e-03   5.4779902e+00   5.0561975e+00  -1.0507048e+07
   5.5951984e-10  -1.0226824e-03   5.4768381e+00   5.0578819e+00  -1.0436082e+07
   5.6018673e-10  -1.0157462e-03   5.4756935e+00   5.0595549e+00  -1.0365590e+07
   5.6085362e-10  -1.0088569e-03   5.4745562e+00   5.0612166e+00  -1.0295571e+07
   5.6152051e-10  -1.0020141e-03   5.4734263e+00   5.0628672e+00  -1.0226021e+07
   5.6218740e-10  -9.9521755e-04   5.4723037e+00   5.0645066e+00  -1.0156936e+07
   5.6285428e-10  -9.8846691e-04   5.4711884e+00   5.0661349e+00  -1.0088315e+07
   5.6352117e-10  -9.8176188e-04   5.4700803e+00   5.0677523e+00  -1.0020152e+07
   5.6418806e-10  -9.7510215e-04   5.4689794e+00   5.0693587e+00  -9.9524470e+06
   5.6485495e-10  -9.6848742e-04   5.4678856e+00   5.0709544e+00  -9.8851952e+06
   5.6552184e-10  -9.6191739e-04   5.4667990e+00   5.0725392e+00  -9.8183940e+06
   5.6618873e-10  -9.5539176e-04   5.4657193e+00   5.0741134e+00  -9.7520406e+06
   5.6685562e-10  -9.4891024e-04   5.4646467e+00   5.0756769e+00  -9.6861320e+06
   5.6752251e-10  -9.4247252e-04   5.4635810e+00   5.0772299e+00  -9.6206651e+06
   5.6818940e-10  -9.3607831e-04   5.4625223e+00   5.0787724e+00  -9.5556373e+06
   5.6885629e-10  -9.2972732e-04   5.4614704e+00   5.0803046e+00  -9.4910454e+06
   5.6952317e-10  -9.2341927e-04   5.4604254e+00   5.0818263e+00  -9.4268867e+06
   5.7019006e-10  -9.1715385e-04   5.4593871e+00   5.0833378e+00  -9.3631584e+06
   5.7085695e-10  -9.1093080e-04   5.4583556e+00   5.0848391e+00  -9.2998575e+06
   5.7152384e-10  -9.0474981e-04   5.4573309e+00   5.0863303e+00  -9.2369813e+06
   5.7219073e-10  -8.9861062e-04   5.4563128e+00   5.0878113e+00  -9.1745269e+06
   5.7285762e-10  -8.9251294e-04   5.4553013e+00   5.0892824e+00  -9.1124916e+06
   5.7352451e-10  -8.8645649e-04   5.4542964e+00   5.0907436e+00  -9.0508727e+06
   5.7419140e-10  -8.8044099e-04   5.4532980e+00   5.0921949e+00  -8.9896673e+06
   5.7485829e-10  -8.7446618e-04   5.4523062e+00   5.0936363e+00  -8.9288727e+06
   5.7552518e-10  -8.6853177e-04   5.4513208e+00   5.0950681e+00  -8.8684862e+06
   5.7619206e-10  -8.6263750e-04   5.4503419e+00   5.0964901e+00  -8.8085052e+06
   5.7685895e-10  -8.5678309e-04   5.4493693e+00   5.0979026e+00  -8.7489269e+06
   5.7752584e-10  -8.5096828e-04   5.4484031e+00   5.0993055e+00  -8.6897487e+06
   5.7819273e-10  -8.4519281e-04   5.4474432e+00   5.1006989e+00  -8.6309680e+06
   5.7885962e-10  -8.3945640e-04   5.4464896e+00   5.1020830e+00  -8.5725821e+06
   5.7952651e-10  -8.3375880e-04   5.4455422e+00   5.1034576e+00  -8.5145883e+06
   5.8019340e-10  -8.2809974e-04   5.4446009e+00   5.1048230e+00  -8.4569842e+06
   5.8086029e-10  -8.2247897e-04   5.4436659e+00   5.1061791e+00  -8.3997671e+06
   5.8152718e-10  -8.1689623e-04   5.4427369e+00   5.1075261e+00  -8.3429345e+06
   5.8219406e-10  -8.1135127e-04   5.4418140e+00   5.1088640e+00  -8.2864838e+06
   5.8286095e-10  -8.0584382e-04   5.4408972e+00   5.1101928e+00  -8.2304125e+06
   5.8352784e-10  -8.0037364e-04   5.4399864e+00   5.1115127e+00  -8.1747181e+06
   5.8419473e-10  -7.9494048e-04   5.4390815e+00   5.1128236e+00  -8.1193981e+06
   5.8486162e-10  -7.8954408e-04   5.4381825e+00   5.1141256e+00  -8.0644499e+06
   5.8552851e-10  -7.8418421e-04   5.4372895e+00   5.1154189e+00  -8.0098713e+06
   5.8619540e-10  -7.7886061e-04   5.4364023e+00   5.1167034e+00  -7.9556596e+06
   5.8686229e-10  -7.7357305e-04   5.4355209e+00   5.1179792e+00  -7.9018125e+06
   5.8752918e-10  -7.6832127e-04   5.4346453e+00   5.1192464e+00  -7.8483275e+06
   5.8819607e-10  -7.6310504e-04   5.4337754e+00   5.1205050e+00  -7.7952023e+06
   5.8886295e-10  -7.5792412e-04   5.4329112e+00   5.1217551e+00  -7.7424344e+06
   5.8952984e-10  -7.5277827e-04   5.4320527e+00   5.1229967e+00  -7.6900215e+06
   5.9019673e-10  -7.4766726e-04   5.4311999e+00   5.1242299e+00  -7.6379613e+06
   5.9086362e-10  -7.4259085e-04   5.4303526e+00   5.1254548e+00  -7.5862513e+06
   5.9153051e-10  -7.3754881e-04   5.4295109e+00   5.1266714e+00  -7.5348893e+06
   5.9219740e-10  -7.3254091e-04   5.4286747e+00   5.1278798e+00  -7.4838729e+06
   5.9286429e-10  -7.2756691e-04   5.4278440e+00   5.1290800e+00  -7.4331999e+06
   5.9353118e-10  -7.2262659e-04   5.4270188e+00   5.1302720e+00  -7.3828680e+06
   5.9419807e-10  -7.1771973e-04   5.4261990e+00   5.1314560e+00  -7.3328749e+06
   5.9486495e-10  -7.1284609e-04   5.4253846e+00   5.1326320e+00  -7.2832184e+06
   5.9553184e-10  -7.0800546e-04   5.4245756e+00   5.1338000e+00  -7.2338961e+06
   5.9619873e-10  -7.0319761e-04   5.4237719e+00   5.1349601e+00  -7.1849060e+06
   5.9686562e-10  -6.9842231e-04   5.4229734e+00   5.1361124e+00  -7.1362458e+06
   5.9753251e-10  -6.9367937e-04   5.4221803e+00   5.1372569e+00  -7.0879132e+06
   5.9819940e-10  -6.8896854e-04   5.4213923e+00   5.1383936e+00  -7.0399062e+06
   5.9886629e-10  -6.8428962e-04   5.4206095e+00   5.1395226e+00  -6.9922225e+06
   5.9953318e-10  -6.7964240e-04   5.4198319e+00   5.1406439e+00  -6.9448600e+06
   6.0020007e-10  -6.7502665e-04   5.4190595e+00   5.1417577e+00  -6.8978166e+06
   6.0086696e-10  -6.7044217e-04   5.4182921e+00   5.1428639e+00  -6.8510901e+06
   6.0153384e-10  -6.6588875e-04   5.4175297e+00   5.1439627e+00  -6.8046785e+06
   6.0220073e-10  -6.6136617e-04   5.4167724e+00   5.1450540e+00  -6.7585795e+06
   6.0286762e-10  -6.5687423e-04   5.4160201e+00   5.1461379e+00  -6.7127912e+06
   6.0353451e-10  -6.5241273e-04   5.4152728e+00   5.1472144e+00  -6.6673115e+06
   6.0420140e-10  -6.4798145e-04   5.4145304e+00   5.1482837e+00  -6.6221384e+06
   6.0486829e-10  -6.4358020e-04   5.4137929e+00   5.1493457e+00  -6.5772697e+06
   6.0553518e-10  -6.3920877e-04   5.4130602e+00   5.1504005e+00  -6.5327034e+06
   6.0620207e-10  -6.3486696e-04   5.4123324e+00   5.1514482e+00  -6.4884376e+06
   6.0686896e-10  -6.3055457e-04   5.4116094e+00   5.1524888e+00  -6.4444702e+06
   6.0753585e-10  -6.2627140e-04   5.4108912e+00   5.1535223e+00  -6.4007992e+06
   6.0820273e-10  -6.2201726e-04   5.4101777e+00   5.1545488e+00  -6.3574227e+06
   6.0886962e-10  -6.1779194e-04   5.4094690e+00   5.1555684e+00  -6.3143388e+06
   6.0953651e-10  -6.1359527e-04   5.4087649e+00   5.1565810e+00  -6.2715453e+06
   6.1020340e-10  -6.0942703e-04   5.4080655e+00   5.1575868e+00  -6.2290405e+06
   6.1087029e-10  -6.0528705e-04   5.4073707e+00   5.1585858e+00  -6.1868223e+06
   6.1153718e-10  -6.0117512e-04   5.4066805e+00   5.1595780e+00  -6.1448889e+06
   6.1220407e-10  -5.9709107e-04   5.4059948e+00   5.1605635e+00  -6.1032384e+06
   6.1287096e-10  -5.9303469e-04   5.4053137e+00   5.1615423e+00  -6.0618689e+06
   6.1353785e-10  -5.8900582e-04   5.4046372e+00   5.1625145e+00  -6.0207785e+06
   6.1420473e-10  -5.8500425e-04   5.4039651e+00   5.1634800e+00  -5.9799653e+06
   6.1487162e-10  -5.8102981e-04   5.4032974e+00   5.1644391e+00  -5.9394275e+06
   6.1553851e-10  -5.7708231e-04   5.4026342e+00   5.1653916e+00  -5.8991632e+06
   6.1620540e-10  -5.7316158e-04   5.4019753e+00   5.1663376e+00  -5.8591706e+06
   6.1687229e-10  -5.6926742e-04   5.4013209e+00   5.1672773e+00  -5.8194480e+06
   6.1753918e-10  -5.6539967e-04   5.4006707e+00   5.1682106e+00  -5.7799935e+06
   6.1820607e-10  -5.6155813e-04   5.4000249e+00   5.1691375e+00  -5.7408052e+06
   6.1887296e-10  -5.5774265e-04   5.3993834e+00   5.1700582e+00  -5.7018815e+06
   6.1953985e-10  -5.5395303e-04   5.3987461e+00   5.1709726e+00  -5.6632206e+06
   6.2020674e-10  -5.5018911e-04   5.3981130e+00   5.1718808e+00  -5.6248206e+06
   6.2087362e-10  -5.4645071e-04   5.3974842e+00   5.1727829e+00  -5.5866799e+06
   6.2154051e-10  -5.4273766e-04   5.3968595e+00   5.1736788e+00  -5.5487968e+06
   6.2220740e-10  -5.3904979e-04   5.3962390e+00   5.1745687e+00  -5.5111694e+06
   6.2287429e-10  -5.3538693e-04   5.3956225e+00   5.1754525e+00  -5.4737961e+06
   6.2354118e-10  -5.3174891e-04   5.3950102e+00   5.1763304e+00  -5.4366752e+06
   6.2420807e-10  -5.2813556e-04   5.3944019e+00   5.1772023e+00  -5.3998050e+06
   6.2487496e-10  -5.2454671e-04   5.3937977e+00   5.1780682e+00  -5.3631838e+06
   6.2554185e-10  -5.2098221e-04   5.3931975e+00   5.1789283e+00  -5.3268099e+06
   6.2620874e-10  -5.1744188e-04   5.3926013e+00   5.1797826e+00  -5.2906818e+06
   6.2687563e-10  -5.1392556e-04   5.3920090e+00   5.1806310e+00  -5.2547977e+06
   6.2754251e-10  -5.1043309e-04   5.3914207e+00   5.1814737e+00  -5.2191560e+06
   6.2820940e-10  -5.0696431e-04   5.3908363e+00   5.1823107e+00  -5.1837551e+06
   6.2887629e-10  -5.0351906e-04   5.3902558e+00   5.1831420e+00  -5.1485934e+06
   6.2954318e-10  -5.0009718e-04   5.3896791e+00   5.1839677e+00  -5.1136693e+06
   6.3021007e-10  -4.9669851e-04   5.3891063e+00   5.1847878e+00  -5.0789811e+06
   6.3087696e-10  -4.9332289e-04   5.3885373e+00   5.1856023e+00  -5.0445274e+06
   6.3154385e-10  -4.8997018e-04   5.3879720e+00   5.1864112e+00  -5.0103064e+06
   6.3221074e-10  -4.8664020e-04   5.3874106e+00   5.1872147e+00  -4.9763168e+06
   6.3287763e-10  -4.8333282e-04   5.3868528e+00   5.1880127e+00  -4.9425569e+06
   6.3354451e-10  -4.8004788e-04   5.3862988e+00   5.1888054e+00  -4.9090251e+06
   6.3421140e-10  -4.7678522e-04   5.3857485e+00   5.1895926e+00  -4.8757200e+06
   6.3487829e-10  -4.7354470e-04   5.3852018e+00   5.1903745e+00  -4.8426400e+06
   6.3554518e-10  -4.7032617e-04   5.3846588e+00   5.1911511e+00  -4.8097837e+06
   6.3621207e-10  -4.6712947e-04   5.3841194e+00   5.1919224e+00  -4.7771494e+06
   6.3687896e-10  -4.6395446e-04   5.3835836e+00   5.1926885e+00  -4.7447358e+06
   6.3754585e-10  -4.6080100e-04   5.3830513e+00   5.1934493e+00  -4.7125414e+06
   6.3821274e-10  -4.5766893e-04   5.3825226e+00   5.1942050e+00  -4.6805646e+06
   6.3887963e-10  -4.5455812e-04   5.3819975e+00   5.1949556e+00  -4.6488040e+06
   6.3954652e-10  -4.5146841e-04   5.3814758e+00   5.1957011e+00  -4.6172582e+06
   6.4021340e-10  -4.4839967e-04   5.3809576e+00   5.1964415e+00  -4.5859258e+06
   6.4088029e-10  -4.4535176e-04   5.3804428e+00   5.1971769e+00  -4.5548052e+06
   6.4154718e-10  -4.4232453e-04   5.3799315e+00   5.1979074e+00  -4.5238951e+06
   6.4221407e-10  -4.3931784e-04   5.3794236e+00   5.1986328e+00  -4.4931940e+06
   6.4288096e-10  -4.3633156e-04   5.3789191e+00   5.1993533e+00  -4.4627006e+06
   6.4354785e-10  -4.3336554e-04   5.3784180e+00   5.2000690e+00  -4.4324135e+06
   6.4421474e-10  -4.3041966e-04   5.3779202e+00   5.2007797e+00  -4.4023312e+06
   6.4488163e-10  -4.2749376e-04   5.3774257e+00   5.2014857e+00  -4.3724524e+06
   6.4554852e-10  -4.2458773e-04   5.3769346e+00   5.2021868e+00  -4.3427758e+06
   6.4621541e-10  -4.2170142e-04   5.3764467e+00   5.2028832e+00  -4.3132999e+06
   6.4688229e-10  -4.1883470e-04   5.3759620e+00   5.2035749e+00  -4.2840235e+06
   6.4754918e-10  -4.1598744e-04   5.3754806e+00   5.2042618e+00  -4.2549451e+06
   6.4821607e-10  -4.1315951e-04   5.3750025e+00   5.2049441e+00  -4.2260635e+06
   6.4888296e-10  -4.1035077e-04   5.3745275e+00   5.2056218e+00  -4.1973773e+06
   6.4954985e-10  -4.0756109e-04   5.3740556e+00   5.2062949e+00  -4.1688852e+06
   6.5021674e-10  -4.0479036e-04   5.3735870e+00   5.2069634e+00  -4.1405860e+06
   6.5088363e-10  -4.0203843e-04   5.3731215e+00   5.2076273e+00  -4.1124782e+06
   6.5155052e-10  -3.9930518e-04   5.3726590e+00   5.2082868e+00  -4.0845607e+06
   6.5221741e-10  -3.9659049e-04   5.3721997e+00   5.2089417e+00  -4.0568321e+06
   6.5288429e-10  -3.9389423e-04   5.3717434e+00   5.2095923e+00  -4.0292912e+06
   6.5355118e-10  -3.9121627e-04   5.3712902e+00   5.2102384e+00  -4.0019368e+06
   6.5421807e-10  -3.8855649e-04   5.3708401e+00   5.2108801e+00  -3.9747674e+06
   6.5488496e-10  -3.8591477e-04   5.3703929e+00   5.2115174e+00  -3.9477820e+06
   6.5555185e-10  -3.8329099e-04   5.3699487e+00   5.2121504e+00  -3.9209793e+06
   6.5621874e-10  -3.8068501e-04   5.3695075e+00   5.2127792e+00  -3.8943580e+06
   6.5688563e-10  -3.7809674e-04   5.3690693e+00   5.2134036e+00  -3.8679169e+06
   6.5755252e-10  -3.7552603e-04   5.3686340e+00   5.2140238e+00  -3.8416549e+06
   6.5821941e-10  -3.7297278e-04   5.3682016e+00   5.2146398e+00  -3.8155707e+06
   6.5888630e-10  -3.7043687e-04   5.3677720e+00   5.2152516e+00  -3.7896630e+06
   6.5955318e-10  -3.6791817e-04   5.3673454e+00   5.2158593e+00  -3.7639308e+06
   6.6022007e-10  -3.6541658e-04   5.3669216e+00   5.2164628e+00  -3.7383729e+06
   6.6088696e-10  -3.6293198e-04   5.3665007e+00   5.2170623e+00  -3.7129880e+06
   6.6155385e-10  -3.6046424e-04   5.3660826e+00   5.2176576e+00  -3.6877750e+06
   6.6222074e-10  -3.5801327e-04   5.3656672e+00   5.2182489e+00  -3.6627328e+06
   6.6288763e-10  -3.5557893e-04   5.3652547e+00   5.2188362e+00  -3.6378601e+06
   6.6355452e-10  -3.5316113e-04   5.3648449e+00   5.2194195e+00  -3.6131559e+06
   6.6422141e-10  -3.5075975e-04   5.3644379e+00   5.2199989e+00  -3.5886191e+06
   6.6488830e-10  -3.4837467e-04   5.3640336e+00   5.2205743e+00  -3.5642484e+06
   6.6555519e-10  -3.4600580e-04   5.3636320e+00   5.2211458e+00  -3.5400428e+06
   6.6622207e-10  -3.4365301e-04   5.3632331e+00   5.2217134e+00  -3.5160012e+06
   6.6688896e-10  -3.4131619e-04   5.3628369e+00   5.2222771e+00  -3.4921224e+06
   6.6755585e-10  -3.3899525e-04   5.3624433e+00   5.2228371e+00  -3.4684054e+06
   6.6822274e-10  -3.3669008e-04   5.3620524e+00   5.2233932e+00  -3.4448490e+06
   6.6888963e-10  -3.3440056e-04   5.3616640e+00   5.2239455e+00  -3.4214522e+06
   6.6955652e-10  -3.3212658e-04   5.3612783e+00   5.2244941e+00  -3.3982140e+06
   6.7022341e-10  -3.2986806e-04   5.3608952e+00   5.2250390e+00  -3.3751332e+06
   6.7089030e-10  -3.2762487e-04   5.3605147e+00   5.2255801e+00  -3.3522087e+06
   6.7155719e-10  -3.2539692e-04   5.3601367e+00   5.2261176e+00  -3.3294396e+06
   6.7222407e-10  -3.2318410e-04   5.3597612e+00   5.2266514e+00  -3.3068248e+06
   6.7289096e-10  -3.2098632e-04   5.3593882e+00   5.2271816e+00  -3.2843632e+06
   6.7355785e-10  -3.1880346e-04   5.3590178e+00   5.2277082e+00  -3.2620539e+06
   6.7422474e-10  -3.1663543e-04   5.3586498e+00   5.2282312e+00  -3.2398957e+06
   6.7489163e-10  -3.1448212e-04   5.3582844e+00   5.2287507e+00  -3.2178877e+06
   6.7555852e-10  -3.1234345e-04   5.3579213e+00   5.2292666e+00  -3.1960288e+06
   6.7622541e-10  -3.1021930e-04   5.3575607e+00   5.2297790e+00  -3.1743180e+06
   6.7689230e-10  -3.0810958e-04   5.3572026e+00   5.2302880e+00  -3.1527544e+06
   6.7755919e-10  -3.0601419e-04   5.3568468e+00   5.2307935e+00  -3.1313370e+06
   6.7822608e-10  -3.0393304e-04   5.3564934e+00   5.2312955e+00  -3.1100647e+06
   6.7889296e-10  -3.0186602e-04   5.3561424e+00   5.2317942e+00  -3.0889366e+06
   6.7955985e-10  -2.9981305e-04   5.3557937e+00   5.2322894e+00  -3.0679517e+06
   6.8022674e-10  -2.9777403e-04   5.3554474e+00   5.2327813e+00  -3.0471091e+06
   6.8089363e-10  -2.9574885e-04   5.3551034e+00   5.2332698e+00  -3.0264078e+06
   6.8156052e-10  -2.9373744e-04   5.3547618e+00   5.2337550e+00  -3.0058468e+06
   6.8222741e-10  -2.9173969e-04   5.3544224e+00   5.2342369e+00  -2.9854251e+06
   6.8289430e-10  -2.8975551e-04   5.3540853e+00   5.2347156e+00  -2.9651420e+06
   6.8356119e-10  -2.8778482e-04   5.3537505e+00   5.2351910e+00  -2.9449963e+06
   6.8422808e-10  -2.8582751e-04   5.3534179e+00   5.2356631e+00  -2.9249872e+06
   6.8489496e-10  -2.8388350e-04   5.3530875e+00   5.2361321e+00  -2.9051138e+06
   6.8556185e-10  -2.8195271e-04   5.3527594e+00   5.2365978e+00  -2.8853751e+06
   6.8622874e-10  -2.8003503e-04   5.3524335e+00   5.2370604e+00  -2.8657703e+06
   6.8689563e-10  -2.7813038e-04   5.3521098e+00   5.2375199e+00  -2.8462984e+06
   6.8756252e-10  -2.7623867e-04   5.3517882e+00   5.2379762e+00  -2.8269585e+06
   6.8822941e-10  -2.7435981e-04   5.3514688e+00   5.2384294e+00  -2.8077498e+06
   6.8889630e-10  -2.7249372e-04   5.3511516e+00   5.2388796e+00  -2.7886713e+06
   6.8956319e-10  -2.7064031e-04   5.3508365e+00   5.2393267e+00  -2.7697222e+06
   6.9023008e-10  -2.6879950e-04   5.3505235e+00   5.2397707e+00  -2.7509016e+06
   6.9089697e-10  -2.6697119e-04   5.3502126e+00   5.2402117e+00  -2.7322087e+06
   6.9156385e-10  -2.6515531e-04   5.3499038e+00   5.2406497e+00  -2.7136425e+06
   6.9223074e-10  -2.6335177e-04   5.3495971e+00   5.2410848e+00  -2.6952022e+06
   6.9289763e-10  -2.6156048e-04   5.3492924e+00   5.2415169e+00  -2.6768870e+06
   6.9356452e-10  -2.5978137e-04   5.3489898e+00   5.2419460e+00  -2.6586961e+06
   6.9423141e-10  -2.5801435e-04   5.3486893e+00   5.2423723e+00  -2.6406285e+06
   6.9489830e-10  -2.5625933e-04   5.3483907e+00   5.2427956e+00  -2.6226834e+06
   6.9556519e-10  -2.5451624e-04   5.3480942e+00   5.2432160e+00  -2.6048601e+06
   6.9623208e-10  -2.5278500e-04   5.3477997e+00   5.2436336e+00  -2.5871577e+06
   6.9689897e-10  -2.5106552e-04   5.3475071e+00   5.2440484e+00  -2.5695754e+06
   6.9756586e-10  -2.4935773e-04   5.3472165e+00   5.2444603e+00  -2.5521123e+06
   6.9823274e-10  -2.4766154e-04   5.3469279e+00   5.2448695e+00  -2.5347677e+06
   6.9889963e-10  -2.4597689e-04   5.3466412e+00   5.2452758e+00  -2.5175408e+06
   6.9956652e-10  -2.4430368e-04   5.3463565e+00   5.2456794e+00  -2.5004307e+06
   7.0023341e-10  -2.4264184e-04   5.3460736e+00   5.2460803e+00  -2.4834367e+06
   7.0090030e-10  -2.4099130e-04   5.3457927e+00   5.2464784e+00  -2.4665581e+06
   7.0156719e-10  -2.3935197e-04   5.3455137e+00   5.2468738e+00  -2.4497939e+06
   7.0223408e-10  -2.3772379e-04   5.3452365e+00   5.2472665e+00  -2.4331435e+06
   7.0290097e-10  -2.3610668e-04   5.3449612e+00   5.2476566e+00  -2.4166060e+06
   7.0356786e-10  -2.3450055e-04   5.3446878e+00   5.2480440e+00  -2.4001807e+06
   7.0423474e-10  -2.3290534e-04   5.3444162e+00   5.2484288e+00  -2.3838669e+06
   7.0490163e-10  -2.3132098e-04   5.3441464e+00   5.2488109e+00  -2.3676638e+06
   7.0556852e-10  -2.2974738e-04   5.3438784e+00   5.2491905e+00  -2.3515707e+06
   7.0623541e-10  -2.2818448e-04   5.3436123e+00   5.2495674e+00  -2.3355867e+06
   7.0690230e-10  -2.2663220e-04   5.3433480e+00   5.2499419e+00  -2.3197112e+06
   7.0756919e-10  -2.2509048e-04   5.3430854e+00   5.2503137e+00  -2.3039435e+06
   7.0823608e-10  -2.2355923e-04   5.3428246e+00   5.2506831e+00  -2.2882827e+06
   7.0890297e-10  -2.2203839e-04   5.3425656e+00   5.2510499e+00  -2.2727282e+06
   7.0956986e-10  -2.2052789e-04   5.3423083e+00   5.2514142e+00  -2.2572793e+06
   7.1023675e-10  -2.1902766e-04   5.3420527e+00   5.2517761e+00  -2.2419353e+06
   7.1090363e-10  -2.1753762e-04   5.3417989e+00   5.2521354e+00  -2.2266953e+06
   7.1157052e-10  -2.1605772e-04   5.3415467e+00   5.2524924e+00  -2.2115588e+06
   7.1223741e-10  -2.1458787e-04   5.3412963e+00   5.2528469e+00  -2.1965251e+06
   7.1290430e-10  -2.1312802e-04   5.3410476e+00   5.2531990e+00  -2.1815934e+06
   7.1357119e-10  -2.1167809e-04   5.3408005e+00   5.2535487e+00  -2.1667630e+06
   7.1423808e-10  -2.1023802e-04   5.3405551e+00   5.2538961e+00  -2.1520333e+06
   7.1490497e-10  -2.0880773e-04   5.3403114e+00   5.2542410e+00  -2.1374035e+06
   7.1557186e-10  -2.0738717e-04   5.3400693e+00   5.2545837e+00  -2.1228731e+06
   7.1623875e-10  -2.0597627e-04   5.3398288e+00   5.2549240e+00  -2.1084413e+06
   7.1690564e-10  -2.0457496e-04   5.3395900e+00   5.2552619e+00  -2.0941075e+06
   7.1757252e-10  -2.0318317e-04   5.3393528e+00   5.2555976e+00  -2.0798709e+06
   7.1823941e-10  -2.0180085e-04   5.3391172e+00   5.2559310e+00  -2.0657311e+06
   7.1890630e-10  -2.0042793e-04   5.3388831e+00   5.2562621e+00  -2.0516872e+06
   7.1957319e-10  -1.9906434e-04   5.3386507e+00   5.2565910e+00  -2.0377386e+06
   7.2024008e-10  -1.9771001e-04   5.3384198e+00   5.2569177e+00  -2.0238848e+06
   7.2090697e-10  -1.9636490e-04   5.3381905e+00   5.2572421e+00  -2.0101249e+06
   7.2157386e-10  -1.9502893e-04   5.3379627e+00   5.2575643e+00  -1.9964586e+06
   7.2224075e-10  -1.9370205e-04   5.3377364e+00   5.2578843e+00  -1.9828850e+06
   7.2290764e-10  -1.9238418e-04   5.3375117e+00   5.2582022e+00  -1.9694035e+06
   7.2357452e-10  -1.9107528e-04   5.3372885e+00   5.2585178e+00  -1.9560136e+06
   7.2424141e-10  -1.8977528e-04   5.3370668e+00   5.2588314e+00  -1.9427146e+06
   7.2490830e-10  -1.8848411e-04   5.3368466e+00   5.2591428e+00  -1.9295059e+06
   7.2557519e-10  -1.8720172e-04   5.3366279e+00   5.2594521e+00  -1.9163869e+06
   7.2624208e-10  -1.8592806e-04   5.3364107e+00   5.2597592e+00  -1.9033569e+06
   7.2690897e-10  -1.8466305e-04   5.3361949e+00   5.2600643e+00  -1.8904154e+06
   7.2757586e-10  -1.8340664e-04   5.3359806e+00   5.2603674e+00  -1.8775619e+06
   7.2824275e-10  -1.8215878e-04   5.3357677e+00   5.2606683e+00  -1.8647955e+06
   7.2890964e-10  -1.8091940e-04   5.3355563e+00   5.2609672e+00  -1.8521159e+06
   7.2957653e-10  -1.7968845e-04   5.3353463e+00   5.2612641e+00  -1.8395224e+06
   7.3024341e-10  -1.7846587e-04   5.3351378e+00   5.2615589e+00  -1.8270144e+06
   7.3091030e-10  -1.7725160e-04   5.3349306e+00   5.2618518e+00  -1.8145914e+06
   7.3157719e-10  -1.7604559e-04   5.3347248e+00   5.2621427e+00  -1.8022527e+06
   7.3224408e-10  -1.7484778e-04   5.3345204e+00   5.2624315e+00  -1.7899978e+06
   7.3291097e-10  -1.7365811e-04   5.3343174e+00   5.2627184e+00  -1.7778261e+06
   7.3357786e-10  -1.7247653e-04   5.3341158e+00   5.2630034e+00  -1.7657371e+06
   7.3424475e-10  -1.7130299e-04   5.3339155e+00   5.2632864e+00  -1.7537302e+06
   7.3491164e-10  -1.7013743e-04   5.3337166e+00   5.2635675e+00  -1.7418048e+06
   7.3557853e-10  -1.6897979e-04   5.3335191e+00   5.2638467e+00  -1.7299605e+06
   7.3624542e-10  -1.6783003e-04   5.3333228e+00   5.2641240e+00  -1.7181965e+06
   7.3691230e-10  -1.6668808e-04   5.3331279e+00   5.2643994e+00  -1.7065125e+06
   7.3757919e-10  -1.6555390e-04   5.3329343e+00   5.2646729e+00  -1.6949079e+06
   7.3824608e-10  -1.6442743e-04   5.3327421e+00   5.2649446e+00  -1.6833820e+06
   7.3891297e-10  -1.6330862e-04   5.3325511e+00   5.2652144e+00  -1.6719345e+06
   7.3957986e-10  -1.6219743e-04   5.3323614e+00   5.2654824e+00  -1.6605647e+06
   7.4024675e-10  -1.6109378e-04   5.3321730e+00   5.2657486e+00  -1.6492721e+06
   7.4091364e-10  -1.5999765e-04   5.3319858e+00   5.2660129e+00  -1.6380562e+06
   7.4158053e-10  -1.5890896e-04   5.3318000e+00   5.2662755e+00  -1.6269166e+06
   7.4224742e-10  -1.5782768e-04   5.3316154e+00   5.2665362e+00  -1.6158526e+06
   7.4291430e-10  -1.5675376e-04   5.3314320e+00   5.2667952e+00  -1.6048637e+06
   7.4358119e-10  -1.5568713e-04   5.3312499e+00   5.2670524e+00  -1.5939495e+06
   7.4424808e-10  -1.5462777e-04   5.3310690e+00   5.2673079e+00  -1.5831095e+06
   7.4491497e-10  -1.5357560e-04   5.3308893e+00   5.2675616e+00  -1.5723430e+06
   7.4558186e-10  -1.5253059e-04   5.3307109e+00   5.2678137e+00  -1.5616498e+06
   7.4624875e-10  -1.5149269e-04   5.3305336e+00   5.2680640e+00  -1.5510291e+06
   7.4691564e-10  -1.5046185e-04   5.3303576e+00   5.2683126e+00  -1.5404806e+06
   7.4758253e-10  -1.4943802e-04   5.3301827e+00   5.2685595e+00  -1.5300038e+06
   7.4824942e-10  -1.4842115e-04   5.3300090e+00   5.2688047e+00  -1.5195982e+06
   7.4891631e-10  -1.4741119e-04   5.3298365e+00   5.2690482e+00  -1.5092632e+06
   7.4958319e-10  -1.4640811e-04   5.3296652e+00   5.2692901e+00  -1.4989985e+06
   7.5025008e-10  -1.4541185e-04   5.3294950e+00   5.2695304e+00  -1.4888035e+06
   7.5091697e-10  -1.4442236e-04   5.3293260e+00   5.2697690e+00  -1.4786778e+06
   7.5158386e-10  -1.4343960e-04   5.3291581e+00   5.2700060e+00  -1.4686209e+06
   7.5225075e-10  -1.4246353e-04   5.3289914e+00   5.2702414e+00  -1.4586323e+06
   7.5291764e-10  -1.4149410e-04   5.3288258e+00   5.2704752e+00  -1.4487115e+06
   7.5358453e-10  -1.4053126e-04   5.3286613e+00   5.2707074e+00  -1.4388582e+06
   7.5425142e-10  -1.3957497e-04   5.3284979e+00   5.2709380e+00  -1.4290718e+06
   7.5491831e-10  -1.3862518e-04   5.3283356e+00   5.2711670e+00  -1.4193520e+06
   7.5558520e-10  -1.3768185e-04   5.3281744e+00   5.2713945e+00  -1.4096981e+06
   7.5625208e-10  -1.3674494e-04   5.3280143e+00   5.2716204e+00  -1.4001099e+06
   7.5691897e-10  -1.3581440e-04   5.3278553e+00   5.2718448e+00  -1.3905868e+06
   7.5758586e-10  -1.3489019e-04   5.3276974e+00   5.2720677e+00  -1.3811285e+06
   7.5825275e-10  -1.3397227e-04   5.3275405e+00   5.2722891e+00  -1.3717344e+06
   7.5891964e-10  -1.3306059e-04   5.3273847e+00   5.2725089e+00  -1.3624041e+06
   7.5958653e-10  -1.3215511e-04   5.3272300e+00   5.2727273e+00  -1.3531372e+06
   7.6025342e-10  -1.3125579e-04   5.3270763e+00   5.2729441e+00  -1.3439333e+06
   7.6092031e-10  -1.3036259e-04   5.3269236e+00   5.2731595e+00  -1.3347920e+06
   7.6158720e-10  -1.2947546e-04   5.3267720e+00   5.2733734e+00  -1.3257128e+06
   7.6225408e-10  -1.2859437e-04   5.3266214e+00   5.2735859e+00  -1.3166953e+06
   7.6292097e-10  -1.2771927e-04   5.3264718e+00   5.2737969e+00  -1.3077390e+06
   7.6358786e-10  -1.2685012e-04   5.3263233e+00   5.2740065e+00  -1.2988436e+06
   7.6425475e-10  -1.2598688e-04   5.3261757e+00   5.2742147e+00  -1.2900087e+06
   7.6492164e-10  -1.2512952e-04   5.3260292e+00   5.2744214e+00  -1.2812338e+06
   7.6558853e-10  -1.2427799e-04   5.3258836e+00   5.2746268e+00  -1.2725186e+06
   7.6625542e-10  -1.2343225e-04   5.3257390e+00   5.2748307e+00  -1.2638626e+06
   7.6692231e-10  -1.2259226e-04   5.3255954e+00   5.2750333e+00  -1.2552654e+06
   7.6758920e-10  -1.2175799e-04   5.3254528e+00   5.2752345e+00  -1.2467267e+06
   7.6825609e-10  -1.2092940e-04   5.3253111e+00   5.2754343e+00  -1.2382459e+06
   7.6892297e-10  -1.2010643e-04   5.3251704e+00   5.2756327e+00  -1.2298229e+06
   7.6958986e-10  -1.1928907e-04   5.3250307e+00   5.2758298e+00  -1.2214570e+06
   7.7025675e-10  -1.1847727e-04   5.3248919e+00   5.2760256e+00  -1.2131481e+06
   7.7092364e-10  -1.1767099e-04   5.3247540e+00   5.2762200e+00  -1.2048956e+06
   7.7159053e-10  -1.1687019e-04   5.3246171e+00   5.2764131e+00  -1.1966992e+06
   7.7225742e-10  -1.1607485e-04   5.3244811e+00   5.2766049e+00  -1.1885585e+06
   7.7292431e-10  -1.1528491e-04   5.3243460e+00   5.2767954e+00  -1.1804731e+06
   7.7359120e-10  -1.1450034e-04   5.3242118e+00   5.2769845e+00  -1.1724427e+06
   7.7425809e-10  -1.1372112e-04   5.3240786e+00   5.2771724e+00  -1.1644669e+06
   7.7492497e-10  -1.1294719e-04   5.3239462e+00   5.2773591e+00  -1.1565453e+06
   7.7559186e-10  -1.1217853e-04   5.3238147e+00   5.2775444e+00  -1.1486775e+06
   7.7625875e-10  -1.1141510e-04   5.3236842e+00   5.2777285e+00  -1.1408633e+06
   7.7692564e-10  -1.1065686e-04   5.3235545e+00   5.2779113e+00  -1.1331021e+06
   7.7759253e-10  -1.0990378e-04   5.3234257e+00   5.2780929e+00  -1.1253937e+06
   7.7825942e-10  -1.0915582e-04   5.3232977e+00   5.2782733e+00  -1.1177377e+06
   7.7892631e-10  -1.0841296e-04   5.3231707e+00   5.2784524e+00  -1.1101337e+06
   7.7959320e-10  -1.0767514e-04   5.3230445e+00   5.2786303e+00  -1.1025815e+06
   7.8026009e-10  -1.0694235e-04   5.3229191e+00   5.2788070e+00  -1.0950805e+06
   7.8092698e-10  -1.0621454e-04   5.3227946e+00   5.2789825e+00  -1.0876306e+06
   7.8159386e-10  -1.0549168e-04   5.3226710e+00   5.2791568e+00  -1.0802313e+06
   7.8226075e-10  -1.0477374e-04   5.3225482e+00   5.2793299e+00  -1.0728823e+06
   7.8292764e-10  -1.0406068e-04   5.3224262e+00   5.2795019e+00  -1.0655833e+06
   7.8359453e-10  -1.0335247e-04   5.3223050e+00   5.2796726e+00  -1.0583339e+06
   7.8426142e-10  -1.0264909e-04   5.3221847e+00   5.2798422e+00  -1.0511337e+06
   7.8492831e-10  -1.0195048e-04   5.3220651e+00   5.2800107e+00  -1.0439826e+06
   7.8559520e-10  -1.0125663e-04   5.3219464e+00   5.2801780e+00  -1.0368800e+06
   7.8626209e-10  -1.0056751e-04   5.3218285e+00   5.2803442e+00  -1.0298257e+06
   7.8692898e-10  -9.9883065e-05   5.3217114e+00   5.2805092e+00  -1.0228194e+06
   7.8759587e-10  -9.9203281e-05   5.3215951e+00   5.2806731e+00  -1.0158607e+06
   7.8826275e-10  -9.8528121e-05   5.3214796e+00   5.2808359e+00  -1.0089493e+06
   7.8892964e-10  -9.7857556e-05   5.3213648e+00   5.2809976e+00  -1.0020850e+06
   7.8959653e-10  -9.7191552e-05   5.3212509e+00   5.2811582e+00  -9.9526723e+05
   7.9026342e-10  -9.6530080e-05   5.3211377e+00   5.2813177e+00  -9.8849587e+05
   7.9093031e-10  -9.5873108e-05   5.3210253e+00   5.2814761e+00  -9.8177055e+05
   7.9159720e-10  -9.5220606e-05   5.3209136e+00   5.2816334e+00  -9.7509095e+05
   7.9226409e-10  -9.4572543e-05   5.3208027e+00   5.2817897e+00  -9.6845676e+05
   7.9293098e-10  -9.3928890e-05   5.3206925e+00   5.2819449e+00  -9.6186769e+05
   7.9359787e-10  -9.3289615e-05   5.3205831e+00   5.2820990e+00  -9.5532341e+05
   7.9426475e-10  -9.2654690e-05   5.3204745e+00   5.2822521e+00  -9.4882363e+05
   7.9493164e-10  -9.2024086e-05   5.3203665e+00   5.2824042e+00  -9.4236804e+05
   7.9559853e-10  -9.1397771e-05   5.3202593e+00   5.2825552e+00  -9.3595635e+05
   7.9626542e-10  -9.0775718e-05   5.3201529e+00   5.2827052e+00  -9.2958826e+05
   7.9693231e-10  -9.0157897e-05   5.3200471e+00   5.2828542e+00  -9.2326346e+05
   7.9759920e-10  -8.9544280e-05   5.3199421e+00   5.2830021e+00  -9.1698167e+05
   7.9826609e-10  -8.8934838e-05   5.3198378e+00   5.2831491e+00  -9.1074259e+05
   7.9893298e-10  -8.8329542e-05   5.3197342e+00   5.2832950e+00  -9.0454594e+05
   7.9959987e-10  -8.7728365e-05   5.3196313e+00   5.2834400e+00  -8.9839142e+05
   8.0026676e-10  -8.7131278e-05   5.3195290e+00   5.2835839e+00  -8.9227876e+05
   8.0093364e-10  -8.6538254e-05   5.3194275e+00   5.2837269e+00  -8.8620765e+05
   8.0160053e-10  -8.5949265e-05   5.3193267e+00   5.2838689e+00  -8.8017784e+05
   8.0226742e-10  -8.5364283e-05   5.3192266e+00   5.2840100e+00  -8.7418902e+05
   8.0293431e-10  -8.4783282e-05   5.3191271e+00   5.2841501e+00  -8.6824093e+05
   8.0360120e-10  -8.4206234e-05   5.3190283e+00   5.2842892e+00  -8.6233328e+05
   8.0426809e-10  -8.3633112e-05   5.3189302e+00   5.2844274e+00  -8.5646581e+05
   8.0493498e-10  -8.3063889e-05   5.3188327e+00   5.2845646e+00  -8.5063824e+05
   8.0560187e-10  -8.2498540e-05   5.3187359e+00   5.2847010e+00  -8.4485030e+05
   8.0626876e-10  -8.1937038e-05   5.3186398e+00   5.2848363e+00  -8.3910171e+05
   8.0693565e-10  -8.1379356e-05   5.3185443e+00   5.2849708e+00  -8.3339222e+05
   8.0760253e-10  -8.0825469e-05   5.3184495e+00   5.2851044e+00  -8.2772156e+05
   8.0826942e-10  -8.0275351e-05   5.3183553e+00   5.2852370e+00  -8.2208946e+05
   8.0893631e-10  -7.9728976e-05   5.3182617e+00   5.2853687e+00  -8.1649566e+05
   8.0960320e-10  -7.9186319e-05   5.3181688e+00   5.2854996e+00  -8.1093990e+05
   8.1027009e-10  -7.8647354e-05   5.3180765e+00   5.2856295e+00  -8.0542193e+05
   8.1093698e-10  -7.8112056e-05   5.3179849e+00   5.2857586e+00  -7.9994148e+05
   8.1160387e-10  -7.7580401e-05   5.3178938e+00   5.2858868e+00  -7.9449830e+05
   8.1227076e-10  -7.7052364e-05   5.3178034e+00   5.2860141e+00  -7.8909214e+05
   8.1293765e-10  -7.6527919e-05   5.3177136e+00   5.2861405e+00  -7.8372275e+05
   8.1360453e-10  -7.6007044e-05   5.3176244e+00   5.2862661e+00  -7.7838987e+05
   8.1427142e-10  -7.5489712e-05   5.3175358e+00   5.2863909e+00  -7.7309326e+05
   8.1493831e-10  -7.4975901e-05   5.3174478e+00   5.2865147e+00  -7.6783267e+05
   8.1560520e-10  -7.4465586e-05   5.3173604e+00   5.2866378e+00  -7.6260786e+05
   8.1627209e-10  -7.3958743e-05   5.3172736e+00   5.2867600e+00  -7.5741859e+05
   8.1693898e-10  -7.3455350e-05   5.3171874e+00   5.2868814e+00  -7.5226461e+05
   8.1760587e-10  -7.2955382e-05   5.3171017e+00   5.2870019e+00  -7.4714568e+05
   8.1827276e-10  -7.2458816e-05   5.3170167e+00   5.2871216e+00  -7.4206157e+05
   8.1893965e-10  -7.1965629e-05   5.3169322e+00   5.2872405e+00  -7.3701203e+05
   8.1960654e-10  -7.1475798e-05   5.3168483e+00   5.2873586e+00  -7.3199684e+05
   8.2027342e-10  -7.0989300e-05   5.3167650e+00   5.2874759e+00  -7.2701576e+05
   8.2094031e-10  -7.0506113e-05   5.3166822e+00   5.2875924e+00  -7.2206856e+05
   8.2160720e-10  -7.0026213e-05   5.3166000e+00   5.2877081e+00  -7.1715500e+05
   8.2227409e-10  -6.9549580e-05   5.3165184e+00   5.2878231e+00  -7.1227487e+05
   8.2294098e-10  -6.9076189e-05   5.3164373e+00   5.2879372e+00  -7.0742792e+05
   8.2360787e-10  -6.8606021e-05   5.3163568e+00   5.2880506e+00  -7.0261395e+05
   8.2427476e-10  -6.8139051e-05   5.3162768e+00   5.2881631e+00  -6.9783272e+05
   8.2494165e-10  -6.7675259e-05   5.3161973e+00   5.2882750e+00  -6.9308400e+05
   8.2560854e-10  -6.7214624e-05   5.3161184e+00   5.2883860e+00  -6.8836759e+05
   8.2627543e-10  -6.6757123e-05   5.3160400e+00   5.2884963e+00  -6.8368326e+05
   8.2694231e-10  -6.6302735e-05   5.3159622e+00   5.2886059e+00  -6.7903079e+05
   8.2760920e-10  -6.5851440e-05   5.3158849e+00   5.2887147e+00  -6.7440996e+05
   8.2827609e-10  -6.5403215e-05   5.3158081e+00   5.2888228e+00  -6.6982057e+05
   8.2894298e-10  -6.4958041e-05   5.3157318e+00   5.2889301e+00  -6.6526239e+05
   8.2960987e-10  -6.4515896e-05   5.3156561e+00   5.2890367e+00  -6.6073522e+05
   8.3027676e-10  -6.4076760e-05   5.3155808e+00   5.2891426e+00  -6.5623884e+05
   8.3094365e-10  -6.3640612e-05   5.3155061e+00   5.2892477e+00  -6.5177304e+05
   8.3161054e-10  -6.3207433e-05   5.3154319e+00   5.2893522e+00  -6.4733763e+05
   8.3227743e-10  -6.2777201e-05   5.3153582e+00   5.2894559e+00  -6.4293238e+05
   8.3294431e-10  -6.2349897e-05   5.3152850e+00   5.2895589e+00  -6.3855710e+05
   8.3361120e-10  -6.1925501e-05   5.3152123e+00   5.2896612e+00  -6.3421158e+05
   8.3427809e-10  -6.1503993e-05   5.3151400e+00   5.2897629e+00  -6.2989562e+05
   8.3494498e-10  -6.1085353e-05   5.3150683e+00   5.2898638e+00  -6.2560902e+05
   8.3561187e-10  -6.0669563e-05   5.3149971e+00   5.2899640e+00  -6.2135157e+05
   8.3627876e-10  -6.0256602e-05   5.3149263e+00   5.2900636e+00  -6.1712309e+05
   8.3694565e-10  -5.9846451e-05   5.3148560e+00   5.2901625e+00  -6.1292337e+05
   8.3761254e-10  -5.9439092e-05   5.3147862e+00   5.2902607e+00  -6.0875223e+05
   8.3827943e-10  -5.9034505e-05   5.3147169e+00   5.2903583e+00  -6.0460945e+05
   8.3894632e-10  -5.8632671e-05   5.3146480e+00   5.2904551e+00  -6.0049486e+05
   8.3961320e-10  -5.8233572e-05   5.3145796e+00   5.2905514e+00  -5.9640825e+05
   8.4028009e-10  -5.7837189e-05   5.3145117e+00   5.2906469e+00  -5.9234945e+05
   8.4094698e-10  -5.7443503e-05   5.3144443e+00   5.2907418e+00  -5.8831826e+05
   8.4161387e-10  -5.7052497e-05   5.3143772e+00   5.2908361e+00  -5.8431449e+05
   8.4228076e-10  -5.6664151e-05   5.3143107e+00   5.2909297e+00  -5.8033795e+05
   8.4294765e-10  -5.6278449e-05   5.3142446e+00   5.2910227e+00  -5.7638847e+05
   8.4361454e-10  -5.5895371e-05   5.3141789e+00   5.2911151e+00  -5.7246586e+05
   8.4428143e-10  -5.5514900e-05   5.3141137e+00   5.2912068e+00  -5.6856993e+05
   8.4494832e-10  -5.5137019e-05   5.3140490e+00   5.2912979e+00  -5.6470050e+05
   8.4561521e-10  -5.4761709e-05   5.3139847e+00   5.2913884e+00  -5.6085740e+05
   8.4628209e-10  -5.4388954e-05   5.3139208e+00   5.2914783e+00  -5.5704044e+05
   8.4694898e-10  -5.4018735e-05   5.3138573e+00   5.2915675e+00  -5.5324945e+05
   8.4761587e-10  -5.3651036e-05   5.3137943e+00   5.2916562e+00  -5.4948425e+05
   8.4828276e-10  -5.3285840e-05   5.3137317e+00   5.2917442e+00  -5.4574467e+05
   8.4894965e-10  -5.2923129e-05   5.3136695e+00   5.2918317e+00  -5.4203052e+05
   8.4961654e-10  -5.2562886e-05   5.3136078e+00   5.2919185e+00  -5.3834165e+05
   8.5028343e-10  -5.2205095e-05   5.3135465e+00   5.2920048e+00  -5.3467786e+05
   8.5095032e-10  -5.1849739e-05   5.3134856e+00   5.2920905e+00  -5.3103901e+05
   8.5161721e-10  -5.1496801e-05   5.3134251e+00   5.2921756e+00  -5.2742491e+05
   8.5228409e-10  -5.1146266e-05   5.3133650e+00   5.2922601e+00  -5.2383540e+05
   8.5295098e-10  -5.0798116e-05   5.3133053e+00   5.2923440e+00  -5.2027031e+05
   8.5361787e-10  -5.0452335e-05   5.3132460e+00   5.2924274e+00  -5.1672947e+05
   8.5428476e-10  -5.0108908e-05   5.3131872e+00   5.2925102e+00  -5.1321272e+05
   8.5495165e-10  -4.9767818e-05   5.3131287e+00   5.2925924e+00  -5.0971990e+05
   8.5561854e-10  -4.9429050e-05   5.3130706e+00   5.2926741e+00  -5.0625085e+05
   8.5628543e-10  -4.9092587e-05   5.3130130e+00   5.2927552e+00  -5.0280539e+05
   8.5695232e-10  -4.8758414e-05   5.3129557e+00   5.2928358e+00  -4.9938338e+05
   8.5761921e-10  -4.8426515e-05   5.3128988e+00   5.2929158e+00  -4.9598464e+05
   8.5828610e-10  -4.8096875e-05   5.3128423e+00   5.2929952e+00  -4.9260903e+05
   8.5895298e-10  -4.7769479e-05   5.3127861e+00   5.2930742e+00  -4.8925639e+05
   8.5961987e-10  -4.7444311e-05   5.3127304e+00   5.2931526e+00  -4.8592656e+05
   8.6028676e-10  -4.7121356e-05   5.3126750e+00   5.2932304e+00  -4.8261938e+05
   8.6095365e-10  -4.6800599e-05   5.3126200e+00   5.2933078e+00  -4.7933470e+05
   8.6162054e-10  -4.6482025e-05   5.3125654e+00   5.2933846e+00  -4.7607238e+05
   8.6228743e-10  -4.6165619e-05   5.3125112e+00   5.2934608e+00  -4.7283224e+05
   8.6295432e-10  -4.5851366e-05   5.3124573e+00   5.2935366e+00  -4.6961416e+05
   8.6362121e-10  -4.5539253e-05   5.3124038e+00   5.2936119e+00  -4.6641796e+05
   8.6428810e-10  -4.5229264e-05   5.3123507e+00   5.2936866e+00  -4.6324352e+05
   8.6495498e-10  -4.4921384e-05   5.3122979e+00   5.2937608e+00  -4.6009067e+05
   8.6562187e-10  -4.4615600e-05   5.3122454e+00   5.2938345e+00  -4.5695928e+05
   8.6628876e-10  -4.4311897e-05   5.3121934e+00   5.2939078e+00  -4.5384919e+05
   8.6695565e-10  -4.4010261e-05   5.3121417e+00   5.2939805e+00  -4.5076026e+05
   8.6762254e-10  -4.3710678e-05   5.3120903e+00   5.2940527e+00  -4.4769235e+05
   8.6828943e-10  -4.3413135e-05   5.3120393e+00   5.2941244e+00  -4.4464531e+05
   8.6895632e-10  -4.3117616e-05   5.3119886e+00   5.2941957e+00  -4.4161900e+05
   8.6962321e-10  -4.2824108e-05   5.3119383e+00   5.2942664e+00  -4.3861329e+05
   8.7029010e-10  -4.2532598e-05   5.3118883e+00   5.2943367e+00  -4.3562803e+05
   8.7095699e-10  -4.2243073e-05   5.3118387e+00   5.2944065e+00  -4.3266308e+05
   8.7162387e-10  -4.1955518e-05   5.3117894e+00   5.2944758e+00  -4.2971830e+05
   8.7229076e-10  -4.1669919e-05   5.3117404e+00   5.2945447e+00  -4.2679356e+05
   8.7295765e-10  -4.1386265e-05   5.3116917e+00   5.2946131e+00  -4.2388872e+05
   8.7362454e-10  -4.1104542e-05   5.3116434e+00   5.2946810e+00  -4.2100365e+05
   8.7429143e-10  -4.0824736e-05   5.3115955e+00   5.2947485e+00  -4.1813820e+05
   8.7495832e-10  -4.0546834e-05   5.3115478e+00   5.2948155e+00  -4.1529226e+05
   8.7562521e-10  -4.0270824e-05   5.3115005e+00   5.2948820e+00  -4.1246568e+05
   8.7629210e-10  -3.9996692e-05   5.3114535e+00   5.2949481e+00  -4.0965833e+05
   8.7695899e-10  -3.9724426e-05   5.3114068e+00   5.2950137e+00  -4.0687008e+05
   8.7762588e-10  -3.9454013e-05   5.3113604e+00   5.2950789e+00  -4.0410081e+05
   8.7829276e-10  -3.9185441e-05   5.3113144e+00   5.2951437e+00  -4.0135038e+05
   8.7895965e-10  -3.8918697e-05   5.3112686e+00   5.2952080e+00  -3.9861866e+05
   8.7962654e-10  -3.8653768e-05   5.3112232e+00   5.2952718e+00  -3.9590554e+05
   8.8029343e-10  -3.8390643e-05   5.3111781e+00   5.2953353e+00  -3.9321087e+05
   8.8096032e-10  -3.8129308e-05   5.3111333e+00   5.2953983e+00  -3.9053454e+05
   8.8162721e-10  -3.7869752e-05   5.3110887e+00   5.2954609e+00  -3.8787642e+05
   8.8229410e-10  -3.7611963e-05   5.3110445e+00   5.2955230e+00  -3.8523639e+05
   8.8296099e-10  -3.7355929e-05   5.3110006e+00   5.2955847e+00  -3.8261433e+05
   8.8362788e-10  -3.7101637e-05   5.3109570e+00   5.2956460e+00  -3.8001010e+05
   8.8429476e-10  -3.6849076e-05   5.3109137e+00   5.2957069e+00  -3.7742360e+05
   8.8496165e-10  -3.6598233e-05   5.3108707e+00   5.2957674e+00  -3.7485470e+05
   8.8562854e-10  -3.6349099e-05   5.3108280e+00   5.2958275e+00  -3.7230327e+05
   8.8629543e-10  -3.6101660e-05   5.3107855e+00   5.2958871e+00  -3.6976921e+05
   8.8696232e-10  -3.5855905e-05   5.3107434e+00   5.2959464e+00  -3.6725239e+05
   8.8762921e-10  -3.5611823e-05   5.3107015e+00   5.2960052e+00  -3.6475270e+05
   8.8829610e-10  -3.5369402e-05   5.3106599e+00   5.2960636e+00  -3.6227002e+05
   8.8896299e-10  -3.5128631e-05   5.3106186e+00   5.2961217e+00  -3.5980424e+05
   8.8962988e-10  -3.4889499e-05   5.3105776e+00   5.2961793e+00  -3.5735523e+05
   8.9029677e-10  -3.4651995e-05   5.3105369e+00   5.2962366e+00  -3.5492289e+05
   8.9096365e-10  -3.4416107e-05   5.3104964e+00   5.2962935e+00  -3.5250709e+05
   8.9163054e-10  -3.4181825e-05   5.3104563e+00   5.2963499e+00  -3.5010774e+05
   8.9229743e-10  -3.3949138e-05   5.3104163e+00   5.2964060e+00  -3.4772472e+05
   8.9296432e-10  -3.3718034e-05   5.3103767e+00   5.2964617e+00  -3.4535791e+05
   8.9363121e-10  -3.3488503e-05   5.3103373e+00   5.2965171e+00  -3.4300721e+05
   8.9429810e-10  -3.3260535e-05   5.3102982e+00   5.2965720e+00  -3.4067250e+05
   8.9496499e-10  -3.3034118e-05   5.3102594e+00   5.2966266e+00  -3.3835369e+05
   8.9563188e-10  -3.2809243e-05   5.3102208e+00   5.2966808e+00  -3.3605065e+05
   8.9629877e-10  -3.2585898e-05   5.3101825e+00   5.2967347e+00  -3.3376328e+05
   8.9696566e-10  -3.2364073e-05   5.3101445e+00   5.2967882e+00  -3.3149148e+05
   8.9763254e-10  -3.2143759e-05   5.3101067e+00   5.2968413e+00  -3.2923514e+05
   8.9829943e-10  -3.1924943e-05   5.3100692e+00   5.2968940e+00  -3.2699416e+05
   8.9896632e-10  -3.1707618e-05   5.3100319e+00   5.2969464e+00  -3.2476842e+05
   8.9963321e-10  -3.1491771e-05   5.3099949e+00   5.2969984e+00  -3.2255784e+05
   9.0030010e-10  -3.1277394e-05   5.3099581e+00   5.2970501e+00  -3.2036229e+05
   9.0096699e-10  -3.1064476e-05   5.3099216e+00   5.2971015e+00  -3.1818169e+05
   9.0163388e-10  -3.0853007e-05   5.3098853e+00   5.2971524e+00  -3.1601592e+05
   9.0230077e-10  -3.0642977e-05   5.3098493e+00   5.2972031e+00  -3.1386490e+05
   9.0296766e-10  -3.0434377e-05   5.3098135e+00   5.2972534e+00  -3.1172851e+05
   9.0363454e-10  -3.0227197e-05   5.3097779e+00   5.2973033e+00  -3.0960666e+05
   9.0430143e-10  -3.0021428e-05   5.3097426e+00   5.2973529e+00  -3.0749925e+05
   9.0496832e-10  -2.9817058e-05   5.3097076e+00   5.2974022e+00  -3.0540618e+05
   9.0563521e-10  -2.9614080e-05   5.3096728e+00   5.2974511e+00  -3.0332736e+05
   9.0630210e-10  -2.9412484e-05   5.3096382e+00   5.2974997e+00  -3.0126268e+05
   9.0696899e-10  -2.9212260e-05   5.3096038e+00   5.2975480e+00  -2.9921206e+05
   9.0763588e-10  -2.9013398e-05   5.3095697e+00   5.2975959e+00  -2.9717539e+05
   9.0830277e-10  -2.8815891e-05   5.3095358e+00   5.2976435e+00  -2.9515258e+05
   9.0896966e-10  -2.8619727e-05   5.3095022e+00   5.2976908e+00  -2.9314354e+05
   9.0963655e-10  -2.8424899e-05   5.3094688e+00   5.2977378e+00  -2.9114816e+05
   9.1030343e-10  -2.8231397e-05   5.3094356e+00   5.2977844e+00  -2.8916637e+05
   9.1097032e-10  -2.8039213e-05   5.3094026e+00   5.2978308e+00  -2.8719807e+05
   9.1163721e-10  -2.7848336e-05   5.3093699e+00   5.2978768e+00  -2.8524316e+05
   9.1230410e-10  -2.7658759e-05   5.3093373e+00   5.2979225e+00  -2.8330155e+05
   9.1297099e-10  -2.7470472e-05   5.3093050e+00   5.2979679e+00  -2.8137316e+05
   9.1363788e-10  -2.7283466e-05   5.3092729e+00   5.2980130e+00  -2.7945789e+05
   9.1430477e-10  -2.7097734e-05   5.3092411e+00   5.2980577e+00  -2.7755566e+05
   9.1497166e-10  -2.6913266e-05   5.3092094e+00   5.2981022e+00  -2.7566637e+05
   9.1563855e-10  -2.6730053e-05   5.3091780e+00   5.2981464e+00  -2.7378994e+05
   9.1630544e-10  -2.6548088e-05   5.3091468e+00   5.2981902e+00  -2.7192629e+05
   9.1697232e-10  -2.6367361e-05   5.3091158e+00   5.2982338e+00  -2.7007531e+05
   9.1763921e-10  -2.6187865e-05   5.3090850e+00   5.2982771e+00  -2.6823693e+05
   9.1830610e-10  -2.6009590e-05   5.3090544e+00   5.2983201e+00  -2.6641106e+05
   9.1897299e-10  -2.5832529e-05   5.3090240e+00   5.2983627e+00  -2.6459762e+05
   9.1963988e-10  -2.5656673e-05   5.3089939e+00   5.2984051e+00  -2.6279652e+05
   9.2030677e-10  -2.5482014e-05   5.3089639e+00   5.2984472e+00  -2.6100768e+05
   9.2097366e-10  -2.5308544e-05   5.3089341e+00   5.2984891e+00  -2.5923102e+05
   9.2164055e-10  -2.5136255e-05   5.3089046e+00   5.2985306e+00  -2.5746644e+05
   9.2230744e-10  -2.4965138e-05   5.3088752e+00   5.2985719e+00  -2.5571387e+05
   9.2297432e-10  -2.4795186e-05   5.3088461e+00   5.2986128e+00  -2.5397324e+05
   9.2364121e-10  -2.4626392e-05   5.3088171e+00   5.2986535e+00  -2.5224444e+05
   9.2430810e-10  -2.4458746e-05   5.3087883e+00   5.2986939e+00  -2.5052742e+05
   9.2497499e-10  -2.4292241e-05   5.3087598e+00   5.2987341e+00  -2.4882208e+05
   9.2564188e-10  -2.4126870e-05   5.3087314e+00   5.2987739e+00  -2.4712834e+05
   9.2630877e-10  -2.3962624e-05   5.3087032e+00   5.2988135e+00  -2.4544614e+05
   9.2697566e-10  -2.3799497e-05   5.3086752e+00   5.2988529e+00  -2.4377538e+05
   9.2764255e-10  -2.3637479e-05   5.3086474e+00   5.2988919e+00  -2.4211599e+05
   9.2830944e-10  -2.3476565e-05   5.3086198e+00   5.2989307e+00  -2.4046790e+05
   9.2897633e-10  -2.3316746e-05   5.3085924e+00   5.2989692e+00  -2.3883102e+05
   9.2964321e-10  -2.3158015e-05   5.3085652e+00   5.2990075e+00  -2.3720529e+05
   9.3031010e-10  -2.3000364e-05   5.3085381e+00   5.2990455e+00  -2.3559062e+05
   9.3097699e-10  -2.2843787e-05   5.3085112e+00   5.2990832e+00  -2.3398693e+05
   9.3164388e-10  -2.2688275e-05   5.3084846e+00   5.2991207e+00  -2.3239417e+05
   9.3231077e-10  -2.2533822e-05   5.3084580e+00   5.2991580e+00  -2.3081224e+05
   9.3297766e-10  -2.2380421e-05   5.3084317e+00   5.2991950e+00  -2.2924108e+05
   9.3364455e-10  -2.2228063e-05   5.3084056e+00   5.2992317e+00  -2.2768061e+05
   9.3431144e-10  -2.2076743e-05   5.3083796e+00   5.2992682e+00  -2.2613077e+05
   9.3497833e-10  -2.1926453e-05   5.3083538e+00   5.2993044e+00  -2.2459147e+05
   9.3564522e-10  -2.1777186e-05   5.3083282e+00   5.2993404e+00  -2.2306265e+05
   9.3631210e-10  -2.1628934e-05   5.3083028e+00   5.2993761e+00  -2.2154423e+05
   9.3697899e-10  -2.1481692e-05   5.3082775e+00   5.2994116e+00  -2.2003615e+05
   9.3764588e-10  -2.1335453e-05   5.3082524e+00   5.2994469e+00  -2.1853834e+05
   9.3831277e-10  -2.1190209e-05   5.3082275e+00   5.2994819e+00  -2.1705071e+05
   9.3897966e-10  -2.1045953e-05   5.3082027e+00   5.2995167e+00  -2.1557322e+05
   9.3964655e-10  -2.0902680e-05   5.3081782e+00   5.2995512e+00  -2.1410577e+05
   9.4031344e-10  -2.0760381e-05   5.3081537e+00   5.2995855e+00  -2.1264832e+05
   9.4098033e-10  -2.0619052e-05   5.3081295e+00   5.2996196e+00  -2.1120079e+05
   9.4164722e-10  -2.0478684e-05   5.3081054e+00   5.2996534e+00  -2.0976310e+05
   9.4231410e-10  -2.0339272e-05   5.3080815e+00   5.2996870e+00  -2.0833521e+05
   9.4298099e-10  -2.0200809e-05   5.3080577e+00   5.2997204e+00  -2.0691703e+05
   9.4364788e-10  -2.0063289e-05   5.3080341e+00   5.2997535e+00  -2.0550850e+05
   9.4431477e-10  -1.9926704e-05   5.3080107e+00   5.2997865e+00  -2.0410957e+05
   9.4498166e-10  -1.9791050e-05   5.3079874e+00   5.2998192e+00  -2.0272015e+05
   9.4564855e-10  -1.9656319e-05   5.3079643e+00   5.2998516e+00  -2.0134019e+05
   9.4631544e-10  -1.9522505e-05   5.3079413e+00   5.2998839e+00  -1.9996962e+05
   9.4698233e-10  -1.9389601e-05   5.3079185e+00   5.2999159e+00  -1.9860838e+05
   9.4764922e-10  -1.9257603e-05   5.3078959e+00   5.2999478e+00  -1.9725641e+05
   9.4831611e-10  -1.9126503e-05   5.3078734e+00   5.2999794e+00  -1.9591363e+05
   9.4898299e-10  -1.8996296e-05   5.3078510e+00   5.3000108e+00  -1.9458000e+05
   9.4964988e-10  -1.8866975e-05   5.3078288e+00   5.3000419e+00  -1.9325544e+05
   9.5031677e-10  -1.8738534e-05   5.3078068e+00   5.3000729e+00  -1.9193990e+05
   9.5098366e-10  -1.8610967e-05   5.3077849e+00   5.3001036e+00  -1.9063332e+05
   9.5165055e-10  -1.8484269e-05   5.3077632e+00   5.3001342e+00  -1.8933562e+05
   9.5231744e-10  -1.8358434e-05   5.3077416e+00   5.3001645e+00  -1.8804676e+05
   9.5298433e-10  -1.8233455e-05   5.3077201e+00   5.3001947e+00  -1.8676667e+05
   9.5365122e-10  -1.8109327e-05   5.3076988e+00   5.3002246e+00  -1.8549530e+05
   9.5431811e-10  -1.7986043e-05   5.3076777e+00   5.3002543e+00  -1.8423258e+05
   9.5498499e-10  -1.7863599e-05   5.3076566e+00   5.3002838e+00  -1.8297845e+05
   9.5565188e-10  -1.7741989e-05   5.3076358e+00   5.3003131e+00  -1.8173286e+05
   9.5631877e-10  -1.7621206e-05   5.3076150e+00   5.3003422e+00  -1.8049575e+05
   9.5698566e-10  -1.7501246e-05   5.3075945e+00   5.3003712e+00  -1.7926705e+05
   9.5765255e-10  -1.7382102e-05   5.3075740e+00   5.3003999e+00  -1.7804672e+05
   9.5831944e-10  -1.7263769e-05   5.3075537e+00   5.3004284e+00  -1.7683470e+05
   9.5898633e-10  -1.7146242e-05   5.3075335e+00   5.3004567e+00  -1.7563093e+05
   9.5965322e-10  -1.7029515e-05   5.3075135e+00   5.3004849e+00  -1.7443535e+05
   9.6032011e-10  -1.6913582e-05   5.3074936e+00   5.3005128e+00  -1.7324791e+05
   9.6098700e-10  -1.6798439e-05   5.3074738e+00   5.3005406e+00  -1.7206855e+05
   9.6165388e-10  -1.6684079e-05   5.3074542e+00   5.3005682e+00  -1.7089721e+05
   9.6232077e-10  -1.6570498e-05   5.3074347e+00   5.3005955e+00  -1.6973385e+05
   9.6298766e-10  -1.6457690e-05   5.3074154e+00   5.3006227e+00  -1.6857841e+05
   9.6365455e-10  -1.6345650e-05   5.3073961e+00   5.3006497e+00  -1.6743084e+05
   9.6432144e-10  -1.6234373e-05   5.3073770e+00   5.3006766e+00  -1.6629107e+05
   9.6498833e-10  -1.6123853e-05   5.3073581e+00   5.3007032e+00  -1.6515906e+05
   9.6565522e-10  -1.6014085e-05   5.3073392e+00   5.3007297e+00  -1.6403476e+05
   9.6632211e-10  -1.5905065e-05   5.3073205e+00   5.3007559e+00  -1.6291811e+05
   9.6698900e-10  -1.5796787e-05   5.3073019e+00   5.3007821e+00  -1.6180906e+05
   9.6765589e-10  -1.5689246e-05   5.3072835e+00   5.3008080e+00  -1.6070756e+05
   9.6832277e-10  -1.5582437e-05   5.3072651e+00   5.3008337e+00  -1.5961356e+05
   9.6898966e-10  -1.5476355e-05   5.3072469e+00   5.3008593e+00  -1.5852700e+05
   9.6965655e-10  -1.5370996e-05   5.3072289e+00   5.3008847e+00  -1.5744784e+05
   9.7032344e-10  -1.5266353e-05   5.3072109e+00   5.3009099e+00  -1.5637603e+05
   9.7099033e-10  -1.5162423e-05   5.3071931e+00   5.3009350e+00  -1.5531151e+05
   9.7165722e-10  -1.5059201e-05   5.3071753e+00   5.3009599e+00  -1.5425424e+05
   9.7232411e-10  -1.4956681e-05   5.3071577e+00   5.3009846e+00  -1.5320416e+05
   9.7299100e-10  -1.4854859e-05   5.3071403e+00   5.3010091e+00  -1.5216123e+05
   9.7365789e-10  -1.4753730e-05   5.3071229e+00   5.3010335e+00  -1.5112540e+05
   9.7432477e-10  -1.4653289e-05   5.3071057e+00   5.3010577e+00  -1.5009662e+05
   9.7499166e-10  -1.4553533e-05   5.3070886e+00   5.3010818e+00  -1.4907485e+05
