   0.0000000e+00  -1.1073073e-01   6.4375277e+00   1.1657617e-03  -5.2368509e+08
   6.6688896e-13  -1.1038179e-01   6.4381177e+00   1.1979587e-03  -5.2277042e+08
   1.3337779e-12  -1.1003346e-01   6.4387145e+00   1.2309878e-03  -5.2185580e+08
   2.0006669e-12  -1.0968574e-01   6.4393182e+00   1.2648688e-03  -5.2094125e+08
   2.6675559e-12  -1.0933863e-01   6.4399287e+00   1.2996221e-03  -5.2002676e+08
   3.3344448e-12  -1.0899213e-01   6.4405462e+00   1.3352683e-03  -5.1911233e+08
   4.0013338e-12  -1.0864624e-01   6.4411707e+00   1.3718286e-03  -5.1819796e+08
   4.6682227e-12  -1.0830097e-01   6.4418022e+00   1.4093245e-03  -5.1728365e+08
   5.3351117e-12  -1.0795630e-01   6.4424409e+00   1.4477783e-03  -5.1636941e+08
   6.0020007e-12  -1.0761224e-01   6.4430867e+00   1.4872123e-03  -5.1545522e+08
   6.6688896e-12  -1.0726879e-01   6.4437398e+00   1.5276497e-03  -5.1454110e+08
   7.3357786e-12  -1.0692595e-01   6.4444001e+00   1.5691139e-03  -5.1362704e+08
   8.0026676e-12  -1.0658372e-01   6.4450679e+00   1.6116289e-03  -5.1271304e+08
   8.6695565e-12  -1.0624209e-01   6.4457430e+00   1.6552192e-03  -5.1179910e+08
   9.3364455e-12  -1.0590108e-01   6.4464256e+00   1.6999099e-03  -5.1088523e+08
   1.0003334e-11  -1.0556068e-01   6.4471158e+00   1.7457264e-03  -5.0997141e+08
   1.0670223e-11  -1.0522089e-01   6.4478135e+00   1.7926949e-03  -5.0905766e+08
   1.1337112e-11  -1.0488170e-01   6.4485189e+00   1.8408420e-03  -5.0814397e+08
   1.2004001e-11  -1.0454313e-01   6.4492321e+00   1.8901947e-03  -5.0723034e+08
   1.2670890e-11  -1.0420516e-01   6.4499530e+00   1.9407809e-03  -5.0631678e+08
   1.3337779e-11  -1.0386781e-01   6.4506817e+00   1.9926289e-03  -5.0540327e+08
   1.4004668e-11  -1.0353106e-01   6.4514183e+00   2.0457674e-03  -5.0448983e+08
   1.4671557e-11  -1.0319492e-01   6.4521629e+00   2.1002261e-03  -5.0357645e+08
   1.5338446e-11  -1.0285939e-01   6.4529156e+00   2.1560349e-03  -5.0266314e+08
   1.6005335e-11  -1.0252447e-01   6.4536763e+00   2.2132245e-03  -5.0174988e+08
   1.6672224e-11  -1.0219016e-01   6.4544451e+00   2.2718263e-03  -5.0083669e+08
   1.7339113e-11  -1.0185646e-01   6.4552222e+00   2.3318722e-03  -4.9992355e+08
   1.8006002e-11  -1.0152337e-01   6.4560075e+00   2.3933948e-03  -4.9901048e+08
   1.8672891e-11  -1.0119089e-01   6.4568011e+00   2.4564272e-03  -4.9809747e+08
   1.9339780e-11  -1.0085901e-01   6.4576031e+00   2.5210035e-03  -4.9718453e+08
   2.0006669e-11  -1.0052774e-01   6.4584136e+00   2.5871582e-03  -4.9627164e+08
   2.0673558e-11  -1.0019709e-01   6.4592325e+00   2.6549265e-03  -4.9535882e+08
   2.1340447e-11  -9.9867039e-02   6.4600601e+00   2.7243445e-03  -4.9444606e+08
   2.2007336e-11  -9.9537599e-02   6.4608963e+00   2.7954489e-03  -4.9353336e+08
   2.2674225e-11  -9.9208768e-02   6.4617411e+00   2.8682770e-03  -4.9262072e+08
   2.3341114e-11  -9.8880545e-02   6.4625947e+00   2.9428670e-03  -4.9170814e+08
   2.4008003e-11  -9.8552931e-02   6.4634571e+00   3.0192578e-03  -4.9079562e+08
   2.4674892e-11  -9.8225925e-02   6.4643284e+00   3.0974891e-03  -4.8988316e+08
   2.5341781e-11  -9.7899528e-02   6.4652086e+00   3.1776013e-03  -4.8897077e+08
   2.6008670e-11  -9.7573740e-02   6.4660978e+00   3.2596356e-03  -4.8805843e+08
   2.6675559e-11  -9.7248560e-02   6.4669961e+00   3.3436341e-03  -4.8714616e+08
   2.7342447e-11  -9.6923988e-02   6.4679035e+00   3.4296395e-03  -4.8623395e+08
   2.8009336e-11  -9.6600024e-02   6.4688200e+00   3.5176956e-03  -4.8532179e+08
   2.8676225e-11  -9.6276669e-02   6.4697458e+00   3.6078468e-03  -4.8440970e+08
   2.9343114e-11  -9.5953922e-02   6.4706808e+00   3.7001386e-03  -4.8349767e+08
   3.0010003e-11  -9.5631783e-02   6.4716253e+00   3.7946170e-03  -4.8258569e+08
   3.0676892e-11  -9.5310252e-02   6.4725791e+00   3.8913292e-03  -4.8167378e+08
   3.1343781e-11  -9.4989330e-02   6.4735424e+00   3.9903233e-03  -4.8076193e+08
   3.2010670e-11  -9.4669015e-02   6.4745152e+00   4.0916480e-03  -4.7985013e+08
   3.2677559e-11  -9.4349309e-02   6.4754976e+00   4.1953532e-03  -4.7893840e+08
   3.3344448e-11  -9.4030211e-02   6.4764896e+00   4.3014897e-03  -4.7802672e+08
   3.4011337e-11  -9.3711720e-02   6.4774914e+00   4.4101091e-03  -4.7711510e+08
   3.4678226e-11  -9.3393838e-02   6.4785029e+00   4.5212642e-03  -4.7620354e+08
   3.5345115e-11  -9.3076563e-02   6.4795242e+00   4.6350086e-03  -4.7529204e+08
   3.6012004e-11  -9.2759896e-02   6.4805554e+00   4.7513968e-03  -4.7438060e+08
   3.6678893e-11  -9.2443837e-02   6.4815965e+00   4.8704847e-03  -4.7346921e+08
   3.7345782e-11  -9.2128386e-02   6.4826476e+00   4.9923288e-03  -4.7255788e+08
   3.8012671e-11  -9.1813543e-02   6.4837088e+00   5.1169868e-03  -4.7164661e+08
   3.8679560e-11  -9.1499307e-02   6.4847800e+00   5.2445175e-03  -4.7073540e+08
   3.9346449e-11  -9.1185679e-02   6.4858614e+00   5.3749808e-03  -4.6982424e+08
   4.0013338e-11  -9.0872658e-02   6.4869530e+00   5.5084376e-03  -4.6891314e+08
   4.0680227e-11  -9.0560245e-02   6.4880549e+00   5.6449499e-03  -4.6800210e+08
   4.1347116e-11  -9.0248440e-02   6.4891671e+00   5.7845809e-03  -4.6709111e+08
   4.2014005e-11  -8.9937242e-02   6.4902897e+00   5.9273948e-03  -4.6618018e+08
   4.2680894e-11  -8.9626652e-02   6.4914227e+00   6.0734570e-03  -4.6526930e+08
   4.3347783e-11  -8.9316669e-02   6.4925662e+00   6.2228342e-03  -4.6435848e+08
   4.4014672e-11  -8.9007293e-02   6.4937202e+00   6.3755942e-03  -4.6344771e+08
   4.4681561e-11  -8.8698525e-02   6.4948848e+00   6.5318058e-03  -4.6253700e+08
   4.5348449e-11  -8.8390364e-02   6.4960600e+00   6.6915394e-03  -4.6162634e+08
   4.6015338e-11  -8.8082811e-02   6.4972459e+00   6.8548663e-03  -4.6071574e+08
   4.6682227e-11  -8.7775864e-02   6.4984425e+00   7.0218593e-03  -4.5980519e+08
   4.7349116e-11  -8.7469525e-02   6.4996500e+00   7.1925922e-03  -4.5889469e+08
   4.8016005e-11  -8.7163793e-02   6.5008682e+00   7.3671404e-03  -4.5798424e+08
   4.8682894e-11  -8.6858668e-02   6.5020974e+00   7.5455803e-03  -4.5707385e+08
   4.9349783e-11  -8.6554151e-02   6.5033375e+00   7.7279899e-03  -4.5616351e+08
   5.0016672e-11  -8.6250240e-02   6.5045885e+00   7.9144482e-03  -4.5525322e+08
   5.0683561e-11  -8.5946937e-02   6.5058506e+00   8.1050359e-03  -4.5434298e+08
   5.1350450e-11  -8.5644240e-02   6.5071237e+00   8.2998349e-03  -4.5343279e+08
   5.2017339e-11  -8.5342151e-02   6.5084080e+00   8.4989286e-03  -4.5252266e+08
   5.2684228e-11  -8.5040668e-02   6.5097034e+00   8.7024016e-03  -4.5161257e+08
   5.3351117e-11  -8.4739792e-02   6.5110100e+00   8.9103401e-03  -4.5070253e+08
   5.4018006e-11  -8.4439524e-02   6.5123279e+00   9.1228317e-03  -4.4979254e+08
   5.4684895e-11  -8.4139862e-02   6.5136571e+00   9.3399655e-03  -4.4888261e+08
   5.5351784e-11  -8.3840806e-02   6.5149976e+00   9.5618320e-03  -4.4797271e+08
   5.6018673e-11  -8.3542358e-02   6.5163494e+00   9.7885234e-03  -4.4706287e+08
   5.6685562e-11  -8.3244517e-02   6.5177127e+00   1.0020133e-02  -4.4615308e+08
   5.7352451e-11  -8.2947282e-02   6.5190874e+00   1.0256756e-02  -4.4524333e+08
   5.8019340e-11  -8.2650653e-02   6.5204736e+00   1.0498490e-02  -4.4433363e+08
   5.8686229e-11  -8.2354632e-02   6.5218713e+00   1.0745432e-02  -4.4342397e+08
   5.9353118e-11  -8.2059217e-02   6.5232806e+00   1.0997682e-02  -4.4251436e+08
   6.0020007e-11  -8.1764409e-02   6.5247015e+00   1.1255342e-02  -4.4160480e+08
   6.0686896e-11  -8.1470207e-02   6.5261340e+00   1.1518515e-02  -4.4069528e+08
   6.1353785e-11  -8.1176612e-02   6.5275782e+00   1.1787306e-02  -4.3978580e+08
   6.2020674e-11  -8.0883623e-02   6.5290340e+00   1.2061820e-02  -4.3887637e+08
   6.2687563e-11  -8.0591241e-02   6.5305016e+00   1.2342167e-02  -4.3796698e+08
   6.3354451e-11  -8.0299465e-02   6.5319809e+00   1.2628456e-02  -4.3705764e+08
   6.4021340e-11  -8.0008296e-02   6.5334721e+00   1.2920799e-02  -4.3614834e+08
   6.4688229e-11  -7.9717733e-02   6.5349750e+00   1.3219308e-02  -4.3523908e+08
   6.5355118e-11  -7.9427776e-02   6.5364897e+00   1.3524100e-02  -4.3432986e+08
   6.6022007e-11  -7.9138426e-02   6.5380164e+00   1.3835291e-02  -4.3342068e+08
   6.6688896e-11  -7.8849682e-02   6.5395549e+00   1.4153000e-02  -4.3251154e+08
   6.7355785e-11  -7.8561544e-02   6.5411053e+00   1.4477346e-02  -4.3160244e+08
   6.8022674e-11  -7.8274013e-02   6.5426676e+00   1.4808454e-02  -4.3069338e+08
   6.8689563e-11  -7.7987088e-02   6.5442419e+00   1.5146446e-02  -4.2978437e+08
   6.9356452e-11  -7.7700769e-02   6.5458282e+00   1.5491450e-02  -4.2887538e+08
   7.0023341e-11  -7.7415056e-02   6.5474264e+00   1.5843592e-02  -4.2796644e+08
   7.0690230e-11  -7.7129949e-02   6.5490367e+00   1.6203004e-02  -4.2705753e+08
   7.1357119e-11  -7.6845449e-02   6.5506589e+00   1.6569817e-02  -4.2614866e+08
   7.2024008e-11  -7.6561554e-02   6.5522932e+00   1.6944165e-02  -4.2523983e+08
   7.2690897e-11  -7.6278266e-02   6.5539396e+00   1.7326183e-02  -4.2433103e+08
   7.3357786e-11  -7.5995584e-02   6.5555979e+00   1.7716011e-02  -4.2342227e+08
   7.4024675e-11  -7.5713508e-02   6.5572684e+00   1.8113787e-02  -4.2251354e+08
   7.4691564e-11  -7.5432038e-02   6.5589509e+00   1.8519654e-02  -4.2160485e+08
   7.5358453e-11  -7.5151173e-02   6.5606455e+00   1.8933756e-02  -4.2069619e+08
   7.6025342e-11  -7.4870915e-02   6.5623522e+00   1.9356239e-02  -4.1978756e+08
   7.6692231e-11  -7.4591263e-02   6.5640709e+00   1.9787252e-02  -4.1887897e+08
   7.7359120e-11  -7.4312217e-02   6.5658018e+00   2.0226943e-02  -4.1797040e+08
   7.8026009e-11  -7.4033776e-02   6.5675447e+00   2.0675467e-02  -4.1706187e+08
   7.8692898e-11  -7.3755942e-02   6.5692997e+00   2.1132978e-02  -4.1615337e+08
   7.9359787e-11  -7.3478713e-02   6.5710668e+00   2.1599632e-02  -4.1524490e+08
   8.0026676e-11  -7.3202090e-02   6.5728460e+00   2.2075590e-02  -4.1433646e+08
   8.0693565e-11  -7.2926073e-02   6.5746372e+00   2.2561011e-02  -4.1342804e+08
   8.1360453e-11  -7.2650662e-02   6.5764404e+00   2.3056060e-02  -4.1251966e+08
   8.2027342e-11  -7.2375857e-02   6.5782558e+00   2.3560902e-02  -4.1161130e+08
   8.2694231e-11  -7.2101657e-02   6.5800831e+00   2.4075706e-02  -4.1070298e+08
   8.3361120e-11  -7.1828063e-02   6.5819225e+00   2.4600641e-02  -4.0979467e+08
   8.4028009e-11  -7.1555075e-02   6.5837738e+00   2.5135881e-02  -4.0888640e+08
   8.4694898e-11  -7.1282692e-02   6.5856372e+00   2.5681601e-02  -4.0797815e+08
   8.5361787e-11  -7.1010916e-02   6.5875125e+00   2.6237977e-02  -4.0706992e+08
   8.6028676e-11  -7.0739745e-02   6.5893997e+00   2.6805190e-02  -4.0616173e+08
   8.6695565e-11  -7.0469179e-02   6.5912989e+00   2.7383421e-02  -4.0525355e+08
   8.7362454e-11  -7.0199220e-02   6.5932099e+00   2.7972856e-02  -4.0434540e+08
   8.8029343e-11  -6.9929866e-02   6.5951328e+00   2.8573680e-02  -4.0343727e+08
   8.8696232e-11  -6.9661117e-02   6.5970675e+00   2.9186084e-02  -4.0252916e+08
   8.9363121e-11  -6.9392974e-02   6.5990140e+00   2.9810260e-02  -4.0162108e+08
   9.0030010e-11  -6.9125437e-02   6.6009723e+00   3.0446400e-02  -4.0071302e+08
   9.0696899e-11  -6.8858505e-02   6.6029423e+00   3.1094703e-02  -3.9980497e+08
   9.1363788e-11  -6.8592179e-02   6.6049240e+00   3.1755367e-02  -3.9889695e+08
   9.2030677e-11  -6.8326459e-02   6.6069173e+00   3.2428594e-02  -3.9798895e+08
   9.2697566e-11  -6.8061344e-02   6.6089222e+00   3.3114589e-02  -3.9708097e+08
   9.3364455e-11  -6.7796834e-02   6.6109386e+00   3.3813558e-02  -3.9617301e+08
   9.4031344e-11  -6.7532930e-02   6.6129665e+00   3.4525710e-02  -3.9526506e+08
   9.4698233e-11  -6.7269632e-02   6.6150059e+00   3.5251258e-02  -3.9435713e+08
   9.5365122e-11  -6.7006939e-02   6.6170567e+00   3.5990416e-02  -3.9344922e+08
   9.6032011e-11  -6.6744851e-02   6.6191188e+00   3.6743401e-02  -3.9254133e+08
   9.6698900e-11  -6.6483369e-02   6.6211922e+00   3.7510432e-02  -3.9163346e+08
   9.7365789e-11  -6.6222493e-02   6.6232768e+00   3.8291733e-02  -3.9072560e+08
   9.8032678e-11  -6.5962222e-02   6.6253725e+00   3.9087527e-02  -3.8981775e+08
   9.8699567e-11  -6.5702556e-02   6.6274794e+00   3.9898043e-02  -3.8890992e+08
   9.9366455e-11  -6.5443496e-02   6.6295972e+00   4.0723511e-02  -3.8800211e+08
   1.0003334e-10  -6.5185041e-02   6.6317260e+00   4.1564163e-02  -3.8709431e+08
   1.0070023e-10  -6.4927191e-02   6.6338657e+00   4.2420236e-02  -3.8618652e+08
   1.0136712e-10  -6.4669947e-02   6.6360161e+00   4.3291967e-02  -3.8527875e+08
   1.0203401e-10  -6.4413309e-02   6.6381773e+00   4.4179597e-02  -3.8437099e+08
   1.0270090e-10  -6.4157275e-02   6.6403490e+00   4.5083371e-02  -3.8346324e+08
   1.0336779e-10  -6.3901847e-02   6.6425314e+00   4.6003533e-02  -3.8255551e+08
   1.0403468e-10  -6.3647025e-02   6.6447241e+00   4.6940334e-02  -3.8164779e+08
   1.0470157e-10  -6.3392808e-02   6.6469273e+00   4.7894025e-02  -3.8074008e+08
   1.0536846e-10  -6.3139196e-02   6.6491407e+00   4.8864860e-02  -3.7983238e+08
   1.0603535e-10  -6.2886190e-02   6.6513643e+00   4.9853097e-02  -3.7892469e+08
   1.0670223e-10  -6.2633788e-02   6.6535979e+00   5.0858995e-02  -3.7801701e+08
   1.0736912e-10  -6.2381993e-02   6.6558415e+00   5.1882818e-02  -3.7710934e+08
   1.0803601e-10  -6.2130802e-02   6.6580950e+00   5.2924830e-02  -3.7620169e+08
   1.0870290e-10  -6.1880217e-02   6.6603582e+00   5.3985300e-02  -3.7529404e+08
   1.0936979e-10  -6.1630237e-02   6.6626311e+00   5.5064498e-02  -3.7438640e+08
   1.1003668e-10  -6.1380862e-02   6.6649134e+00   5.6162698e-02  -3.7347877e+08
   1.1070357e-10  -6.1132093e-02   6.6672052e+00   5.7280177e-02  -3.7257115e+08
   1.1137046e-10  -6.0883929e-02   6.6695063e+00   5.8417213e-02  -3.7166354e+08
   1.1203735e-10  -6.0636371e-02   6.6718165e+00   5.9574089e-02  -3.7075594e+08
   1.1270423e-10  -6.0389417e-02   6.6741358e+00   6.0751089e-02  -3.6984835e+08
   1.1337112e-10  -6.0143069e-02   6.6764639e+00   6.1948499e-02  -3.6894076e+08
   1.1403801e-10  -5.9897326e-02   6.6788009e+00   6.3166611e-02  -3.6803319e+08
   1.1470490e-10  -5.9652189e-02   6.6811464e+00   6.4405717e-02  -3.6712562e+08
   1.1537179e-10  -5.9407656e-02   6.6835005e+00   6.5666112e-02  -3.6621806e+08
   1.1603868e-10  -5.9163729e-02   6.6858628e+00   6.6948095e-02  -3.6531051e+08
   1.1670557e-10  -5.8920407e-02   6.6882334e+00   6.8251966e-02  -3.6440296e+08
   1.1737246e-10  -5.8677691e-02   6.6906120e+00   6.9578029e-02  -3.6349543e+08
   1.1803935e-10  -5.8435579e-02   6.6929985e+00   7.0926590e-02  -3.6258790e+08
   1.1870624e-10  -5.8194073e-02   6.6953928e+00   7.2297958e-02  -3.6168038e+08
   1.1937312e-10  -5.7953172e-02   6.6977946e+00   7.3692445e-02  -3.6077287e+08
   1.2004001e-10  -5.7712877e-02   6.7002038e+00   7.5110364e-02  -3.5986537e+08
   1.2070690e-10  -5.7473186e-02   6.7026202e+00   7.6552033e-02  -3.5895788e+08
   1.2137379e-10  -5.7234101e-02   6.7050437e+00   7.8017772e-02  -3.5805039e+08
   1.2204068e-10  -5.6995621e-02   6.7074741e+00   7.9507902e-02  -3.5714291e+08
   1.2270757e-10  -5.6757746e-02   6.7099113e+00   8.1022747e-02  -3.5623545e+08
   1.2337446e-10  -5.6520476e-02   6.7123549e+00   8.2562636e-02  -3.5532799e+08
   1.2404135e-10  -5.6283812e-02   6.7148049e+00   8.4127898e-02  -3.5442054e+08
   1.2470824e-10  -5.6047753e-02   6.7172610e+00   8.5718865e-02  -3.5351310e+08
   1.2537513e-10  -5.5812298e-02   6.7197231e+00   8.7335872e-02  -3.5260567e+08
   1.2604201e-10  -5.5577449e-02   6.7221909e+00   8.8979257e-02  -3.5169825e+08
   1.2670890e-10  -5.5343206e-02   6.7246643e+00   9.0649359e-02  -3.5079084e+08
   1.2737579e-10  -5.5109567e-02   6.7271431e+00   9.2346520e-02  -3.4988344e+08
   1.2804268e-10  -5.4876534e-02   6.7296270e+00   9.4071086e-02  -3.4897606e+08
   1.2870957e-10  -5.4644105e-02   6.7321159e+00   9.5823402e-02  -3.4806868e+08
   1.2937646e-10  -5.4412282e-02   6.7346094e+00   9.7603819e-02  -3.4716132e+08
   1.3004335e-10  -5.4181064e-02   6.7371075e+00   9.9412688e-02  -3.4625397e+08
   1.3071024e-10  -5.3950451e-02   6.7396098e+00   1.0125036e-01  -3.4534664e+08
   1.3137713e-10  -5.3720443e-02   6.7421163e+00   1.0311720e-01  -3.4443932e+08
   1.3204401e-10  -5.3491040e-02   6.7446265e+00   1.0501356e-01  -3.4353201e+08
   1.3271090e-10  -5.3262242e-02   6.7471403e+00   1.0693980e-01  -3.4262472e+08
   1.3337779e-10  -5.3034050e-02   6.7496575e+00   1.0889628e-01  -3.4171744e+08
   1.3404468e-10  -5.2806462e-02   6.7521777e+00   1.1088337e-01  -3.4081019e+08
   1.3471157e-10  -5.2579479e-02   6.7547009e+00   1.1290144e-01  -3.3990295e+08
   1.3537846e-10  -5.2353102e-02   6.7572266e+00   1.1495085e-01  -3.3899573e+08
   1.3604535e-10  -5.2127329e-02   6.7597547e+00   1.1703198e-01  -3.3808853e+08
   1.3671224e-10  -5.1902162e-02   6.7622849e+00   1.1914520e-01  -3.3718135e+08
   1.3737913e-10  -5.1677600e-02   6.7648170e+00   1.2129088e-01  -3.3627419e+08
   1.3804602e-10  -5.1453642e-02   6.7673506e+00   1.2346941e-01  -3.3536705e+08
   1.3871290e-10  -5.1230289e-02   6.7698856e+00   1.2568115e-01  -3.3445994e+08
   1.3937979e-10  -5.1007542e-02   6.7724216e+00   1.2792649e-01  -3.3355285e+08
   1.4004668e-10  -5.0785399e-02   6.7749583e+00   1.3020581e-01  -3.3264579e+08
   1.4071357e-10  -5.0563862e-02   6.7774956e+00   1.3251949e-01  -3.3173875e+08
   1.4138046e-10  -5.0342929e-02   6.7800330e+00   1.3486793e-01  -3.3083175e+08
   1.4204735e-10  -5.0122601e-02   6.7825704e+00   1.3725150e-01  -3.2992477e+08
   1.4271424e-10  -4.9902878e-02   6.7851073e+00   1.3967060e-01  -3.2901783e+08
   1.4338113e-10  -4.9683759e-02   6.7876436e+00   1.4212561e-01  -3.2811091e+08
   1.4404802e-10  -4.9465246e-02   6.7901790e+00   1.4461692e-01  -3.2720403e+08
   1.4471490e-10  -4.9247337e-02   6.7927130e+00   1.4714493e-01  -3.2629719e+08
   1.4538179e-10  -4.9030033e-02   6.7952455e+00   1.4971003e-01  -3.2539038e+08
   1.4604868e-10  -4.8813334e-02   6.7977761e+00   1.5231262e-01  -3.2448362e+08
   1.4671557e-10  -4.8597240e-02   6.8003045e+00   1.5495309e-01  -3.2357689e+08
   1.4738246e-10  -4.8381750e-02   6.8028304e+00   1.5763183e-01  -3.2267020e+08
   1.4804935e-10  -4.8166865e-02   6.8053534e+00   1.6034925e-01  -3.2176356e+08
   1.4871624e-10  -4.7952585e-02   6.8078733e+00   1.6310575e-01  -3.2085697e+08
   1.4938313e-10  -4.7738909e-02   6.8103897e+00   1.6590171e-01  -3.1995042e+08
   1.5005002e-10  -4.7525837e-02   6.8129023e+00   1.6873755e-01  -3.1904392e+08
   1.5071691e-10  -4.7313371e-02   6.8154107e+00   1.7161366e-01  -3.1813747e+08
   1.5138379e-10  -4.7101508e-02   6.8179146e+00   1.7453045e-01  -3.1723108e+08
   1.5205068e-10  -4.6890251e-02   6.8204137e+00   1.7748831e-01  -3.1632475e+08
   1.5271757e-10  -4.6679597e-02   6.8229076e+00   1.8048765e-01  -3.1541847e+08
   1.5338446e-10  -4.6469548e-02   6.8253960e+00   1.8352887e-01  -3.1451225e+08
   1.5405135e-10  -4.6260104e-02   6.8278785e+00   1.8661237e-01  -3.1360610e+08
   1.5471824e-10  -4.6051263e-02   6.8303547e+00   1.8973856e-01  -3.1270001e+08
   1.5538513e-10  -4.5843027e-02   6.8328244e+00   1.9290784e-01  -3.1179398e+08
   1.5605202e-10  -4.5635395e-02   6.8352871e+00   1.9612060e-01  -3.1088803e+08
   1.5671891e-10  -4.5428368e-02   6.8377425e+00   1.9937727e-01  -3.0998216e+08
   1.5738580e-10  -4.5221944e-02   6.8401902e+00   2.0267823e-01  -3.0907635e+08
   1.5805268e-10  -4.5016124e-02   6.8426298e+00   2.0602388e-01  -3.0817063e+08
   1.5871957e-10  -4.4810909e-02   6.8450610e+00   2.0941464e-01  -3.0726499e+08
   1.5938646e-10  -4.4606297e-02   6.8474834e+00   2.1285090e-01  -3.0635943e+08
   1.6005335e-10  -4.4402290e-02   6.8498966e+00   2.1633306e-01  -3.0545396e+08
   1.6072024e-10  -4.4198886e-02   6.8523002e+00   2.1986152e-01  -3.0454858e+08
   1.6138713e-10  -4.3996086e-02   6.8546938e+00   2.2343668e-01  -3.0364330e+08
   1.6205402e-10  -4.3793889e-02   6.8570771e+00   2.2705894e-01  -3.0273811e+08
   1.6272091e-10  -4.3592296e-02   6.8594496e+00   2.3072869e-01  -3.0183302e+08
   1.6338780e-10  -4.3391307e-02   6.8618110e+00   2.3444634e-01  -3.0092804e+08
   1.6405468e-10  -4.3190922e-02   6.8641609e+00   2.3821226e-01  -3.0002316e+08
   1.6472157e-10  -4.2991139e-02   6.8664988e+00   2.4202687e-01  -2.9911839e+08
   1.6538846e-10  -4.2791960e-02   6.8688243e+00   2.4589055e-01  -2.9821374e+08
   1.6605535e-10  -4.2593385e-02   6.8711371e+00   2.4980369e-01  -2.9730920e+08
   1.6672224e-10  -4.2395412e-02   6.8734367e+00   2.5376667e-01  -2.9640479e+08
   1.6738913e-10  -4.2198043e-02   6.8757228e+00   2.5777989e-01  -2.9550051e+08
   1.6805602e-10  -4.2001277e-02   6.8779949e+00   2.6184373e-01  -2.9459635e+08
   1.6872291e-10  -4.1805114e-02   6.8802526e+00   2.6595857e-01  -2.9369233e+08
   1.6938980e-10  -4.1609553e-02   6.8824954e+00   2.7012479e-01  -2.9278844e+08
   1.7005669e-10  -4.1414596e-02   6.8847231e+00   2.7434277e-01  -2.9188470e+08
   1.7072357e-10  -4.1220240e-02   6.8869350e+00   2.7861288e-01  -2.9098110e+08
   1.7139046e-10  -4.1026488e-02   6.8891309e+00   2.8293550e-01  -2.9007766e+08
   1.7205735e-10  -4.0833338e-02   6.8913103e+00   2.8731100e-01  -2.8917437e+08
   1.7272424e-10  -4.0640790e-02   6.8934728e+00   2.9173974e-01  -2.8827124e+08
   1.7339113e-10  -4.0448845e-02   6.8956178e+00   2.9622210e-01  -2.8736828e+08
   1.7405802e-10  -4.0257502e-02   6.8977451e+00   3.0075842e-01  -2.8646549e+08
   1.7472491e-10  -4.0066760e-02   6.8998542e+00   3.0534907e-01  -2.8556287e+08
   1.7539180e-10  -3.9876621e-02   6.9019446e+00   3.0999441e-01  -2.8466043e+08
   1.7605869e-10  -3.9687084e-02   6.9040159e+00   3.1469478e-01  -2.8375817e+08
   1.7672558e-10  -3.9498148e-02   6.9060677e+00   3.1945053e-01  -2.8285611e+08
   1.7739246e-10  -3.9309813e-02   6.9080996e+00   3.2426201e-01  -2.8195424e+08
   1.7805935e-10  -3.9122080e-02   6.9101110e+00   3.2912955e-01  -2.8105257e+08
   1.7872624e-10  -3.8934948e-02   6.9121016e+00   3.3405350e-01  -2.8015111e+08
   1.7939313e-10  -3.8748418e-02   6.9140709e+00   3.3903418e-01  -2.7924986e+08
   1.8006002e-10  -3.8562488e-02   6.9160184e+00   3.4407192e-01  -2.7834883e+08
   1.8072691e-10  -3.8377159e-02   6.9179438e+00   3.4916704e-01  -2.7744802e+08
   1.8139380e-10  -3.8192431e-02   6.9198466e+00   3.5431987e-01  -2.7654745e+08
   1.8206069e-10  -3.8008304e-02   6.9217264e+00   3.5953072e-01  -2.7564710e+08
   1.8272758e-10  -3.7824776e-02   6.9235827e+00   3.6479989e-01  -2.7474700e+08
   1.8339446e-10  -3.7641849e-02   6.9254150e+00   3.7012769e-01  -2.7384715e+08
   1.8406135e-10  -3.7459522e-02   6.9272229e+00   3.7551443e-01  -2.7294755e+08
   1.8472824e-10  -3.7277795e-02   6.9290061e+00   3.8096038e-01  -2.7204821e+08
   1.8539513e-10  -3.7096668e-02   6.9307639e+00   3.8646585e-01  -2.7114914e+08
   1.8606202e-10  -3.6916140e-02   6.9324961e+00   3.9203111e-01  -2.7025034e+08
   1.8672891e-10  -3.6736211e-02   6.9342021e+00   3.9765645e-01  -2.6935183e+08
   1.8739580e-10  -3.6556882e-02   6.9358815e+00   4.0334213e-01  -2.6845360e+08
   1.8806269e-10  -3.6378151e-02   6.9375339e+00   4.0908841e-01  -2.6755566e+08
   1.8872958e-10  -3.6200019e-02   6.9391588e+00   4.1489557e-01  -2.6665803e+08
   1.8939647e-10  -3.6022486e-02   6.9407558e+00   4.2076384e-01  -2.6576071e+08
   1.9006335e-10  -3.5845551e-02   6.9423245e+00   4.2669349e-01  -2.6486370e+08
   1.9073024e-10  -3.5669214e-02   6.9438643e+00   4.3268475e-01  -2.6396702e+08
   1.9139713e-10  -3.5493475e-02   6.9453749e+00   4.3873784e-01  -2.6307067e+08
   1.9206402e-10  -3.5318334e-02   6.9468559e+00   4.4485301e-01  -2.6217465e+08
   1.9273091e-10  -3.5143790e-02   6.9483068e+00   4.5103047e-01  -2.6127899e+08
   1.9339780e-10  -3.4969843e-02   6.9497271e+00   4.5727044e-01  -2.6038368e+08
   1.9406469e-10  -3.4796494e-02   6.9511165e+00   4.6357311e-01  -2.5948873e+08
   1.9473158e-10  -3.4623741e-02   6.9524745e+00   4.6993869e-01  -2.5859415e+08
   1.9539847e-10  -3.4451584e-02   6.9538007e+00   4.7636738e-01  -2.5769995e+08
   1.9606536e-10  -3.4280024e-02   6.9550946e+00   4.8285935e-01  -2.5680614e+08
   1.9673224e-10  -3.4109059e-02   6.9563559e+00   4.8941478e-01  -2.5591273e+08
   1.9739913e-10  -3.3938691e-02   6.9575841e+00   4.9603384e-01  -2.5501972e+08
   1.9806602e-10  -3.3768917e-02   6.9587788e+00   5.0271669e-01  -2.5412712e+08
   1.9873291e-10  -3.3599739e-02   6.9599395e+00   5.0946348e-01  -2.5323495e+08
   1.9939980e-10  -3.3431156e-02   6.9610660e+00   5.1627436e-01  -2.5234321e+08
   2.0006669e-10  -3.3263167e-02   6.9621577e+00   5.2314947e-01  -2.5145191e+08
   2.0073358e-10  -3.3095773e-02   6.9632142e+00   5.3008892e-01  -2.5056105e+08
   2.0140047e-10  -3.2928973e-02   6.9642352e+00   5.3709285e-01  -2.4967066e+08
   2.0206736e-10  -3.2762766e-02   6.9652203e+00   5.4416136e-01  -2.4878074e+08
   2.0273424e-10  -3.2597152e-02   6.9661689e+00   5.5129456e-01  -2.4789129e+08
   2.0340113e-10  -3.2432132e-02   6.9670809e+00   5.5849253e-01  -2.4700233e+08
   2.0406802e-10  -3.2267704e-02   6.9679557e+00   5.6575537e-01  -2.4611387e+08
   2.0473491e-10  -3.2103869e-02   6.9687930e+00   5.7308314e-01  -2.4522591e+08
   2.0540180e-10  -3.1940625e-02   6.9695924e+00   5.8047592e-01  -2.4433847e+08
   2.0606869e-10  -3.1777973e-02   6.9703535e+00   5.8793376e-01  -2.4345156e+08
   2.0673558e-10  -3.1615913e-02   6.9710760e+00   5.9545670e-01  -2.4256519e+08
   2.0740247e-10  -3.1454443e-02   6.9717594e+00   6.0304480e-01  -2.4167936e+08
   2.0806936e-10  -3.1293564e-02   6.9724035e+00   6.1069807e-01  -2.4079410e+08
   2.0873625e-10  -3.1133276e-02   6.9730078e+00   6.1841653e-01  -2.3990940e+08
   2.0940313e-10  -3.0973577e-02   6.9735720e+00   6.2620020e-01  -2.3902528e+08
   2.1007002e-10  -3.0814467e-02   6.9740957e+00   6.3404908e-01  -2.3814175e+08
   2.1073691e-10  -3.0655947e-02   6.9745786e+00   6.4196315e-01  -2.3725883e+08
   2.1140380e-10  -3.0498015e-02   6.9750204e+00   6.4994239e-01  -2.3637651e+08
   2.1207069e-10  -3.0340671e-02   6.9754207e+00   6.5798677e-01  -2.3549482e+08
   2.1273758e-10  -3.0183915e-02   6.9757792e+00   6.6609626e-01  -2.3461377e+08
   2.1340447e-10  -3.0027747e-02   6.9760955e+00   6.7427080e-01  -2.3373336e+08
   2.1407136e-10  -2.9872165e-02   6.9763694e+00   6.8251034e-01  -2.3285361e+08
   2.1473825e-10  -2.9717170e-02   6.9766005e+00   6.9081480e-01  -2.3197453e+08
   2.1540514e-10  -2.9562761e-02   6.9767886e+00   6.9918410e-01  -2.3109613e+08
   2.1607202e-10  -2.9408937e-02   6.9769332e+00   7.0761815e-01  -2.3021842e+08
   2.1673891e-10  -2.9255699e-02   6.9770342e+00   7.1611684e-01  -2.2934141e+08
   2.1740580e-10  -2.9103045e-02   6.9770912e+00   7.2468007e-01  -2.2846513e+08
   2.1807269e-10  -2.8950976e-02   6.9771039e+00   7.3330772e-01  -2.2758957e+08
   2.1873958e-10  -2.8799490e-02   6.9770721e+00   7.4199964e-01  -2.2671475e+08
   2.1940647e-10  -2.8648587e-02   6.9769955e+00   7.5075570e-01  -2.2584069e+08
   2.2007336e-10  -2.8498267e-02   6.9768739e+00   7.5957574e-01  -2.2496739e+08
   2.2074025e-10  -2.8348529e-02   6.9767069e+00   7.6845959e-01  -2.2409487e+08
   2.2140714e-10  -2.8199373e-02   6.9764943e+00   7.7740709e-01  -2.2322314e+08
   2.2207402e-10  -2.8050797e-02   6.9762360e+00   7.8641803e-01  -2.2235221e+08
   2.2274091e-10  -2.7902803e-02   6.9759315e+00   7.9549223e-01  -2.2148210e+08
   2.2340780e-10  -2.7755388e-02   6.9755808e+00   8.0462948e-01  -2.2061282e+08
   2.2407469e-10  -2.7608553e-02   6.9751836e+00   8.1382955e-01  -2.1974438e+08
   2.2474158e-10  -2.7462296e-02   6.9747396e+00   8.2309223e-01  -2.1887680e+08
   2.2540847e-10  -2.7316618e-02   6.9742487e+00   8.3241726e-01  -2.1801008e+08
   2.2607536e-10  -2.7171518e-02   6.9737107e+00   8.4180440e-01  -2.1714425e+08
   2.2674225e-10  -2.7026995e-02   6.9731253e+00   8.5125338e-01  -2.1627931e+08
   2.2740914e-10  -2.6883048e-02   6.9724924e+00   8.6076394e-01  -2.1541528e+08
   2.2807603e-10  -2.6739677e-02   6.9718118e+00   8.7033579e-01  -2.1455217e+08
   2.2874291e-10  -2.6596882e-02   6.9710834e+00   8.7996863e-01  -2.1369000e+08
   2.2940980e-10  -2.6454661e-02   6.9703070e+00   8.8966217e-01  -2.1282877e+08
   2.3007669e-10  -2.6313014e-02   6.9694823e+00   8.9941608e-01  -2.1196851e+08
   2.3074358e-10  -2.6171941e-02   6.9686094e+00   9.0923005e-01  -2.1110922e+08
   2.3141047e-10  -2.6031440e-02   6.9676879e+00   9.1910372e-01  -2.1025092e+08
   2.3207736e-10  -2.5891512e-02   6.9667179e+00   9.2903677e-01  -2.0939363e+08
   2.3274425e-10  -2.5752154e-02   6.9656992e+00   9.3902883e-01  -2.0853736e+08
   2.3341114e-10  -2.5613368e-02   6.9646316e+00   9.4907953e-01  -2.0768211e+08
   2.3407803e-10  -2.5475151e-02   6.9635151e+00   9.5918850e-01  -2.0682792e+08
   2.3474491e-10  -2.5337504e-02   6.9623496e+00   9.6935534e-01  -2.0597478e+08
   2.3541180e-10  -2.5200426e-02   6.9611350e+00   9.7957967e-01  -2.0512272e+08
   2.3607869e-10  -2.5063915e-02   6.9598711e+00   9.8986106e-01  -2.0427174e+08
   2.3674558e-10  -2.4927971e-02   6.9585580e+00   1.0001991e+00  -2.0342187e+08
   2.3741247e-10  -2.4792594e-02   6.9571956e+00   1.0105934e+00  -2.0257312e+08
   2.3807936e-10  -2.4657783e-02   6.9557837e+00   1.0210434e+00  -2.0172550e+08
   2.3874625e-10  -2.4523536e-02   6.9543224e+00   1.0315488e+00  -2.0087902e+08
   2.3941314e-10  -2.4389853e-02   6.9528117e+00   1.0421091e+00  -2.0003371e+08
   2.4008003e-10  -2.4256734e-02   6.9512514e+00   1.0527238e+00  -1.9918957e+08
   2.4074692e-10  -2.4124178e-02   6.9496416e+00   1.0633924e+00  -1.9834662e+08
   2.4141380e-10  -2.3992183e-02   6.9479823e+00   1.0741145e+00  -1.9750488e+08
   2.4208069e-10  -2.3860749e-02   6.9462735e+00   1.0848895e+00  -1.9666435e+08
   2.4274758e-10  -2.3729875e-02   6.9445151e+00   1.0957170e+00  -1.9582506e+08
   2.4341447e-10  -2.3599561e-02   6.9427072e+00   1.1065964e+00  -1.9498702e+08
   2.4408136e-10  -2.3469805e-02   6.9408498e+00   1.1175273e+00  -1.9415024e+08
   2.4474825e-10  -2.3340606e-02   6.9389429e+00   1.1285090e+00  -1.9331474e+08
   2.4541514e-10  -2.3211965e-02   6.9369866e+00   1.1395410e+00  -1.9248053e+08
   2.4608203e-10  -2.3083879e-02   6.9349810e+00   1.1506228e+00  -1.9164763e+08
   2.4674892e-10  -2.2956348e-02   6.9329260e+00   1.1617539e+00  -1.9081605e+08
   2.4741581e-10  -2.2829372e-02   6.9308218e+00   1.1729336e+00  -1.8998581e+08
   2.4808269e-10  -2.2702949e-02   6.9286684e+00   1.1841614e+00  -1.8915692e+08
   2.4874958e-10  -2.2577078e-02   6.9264659e+00   1.1954368e+00  -1.8832940e+08
   2.4941647e-10  -2.2451758e-02   6.9242144e+00   1.2067590e+00  -1.8750325e+08
   2.5008336e-10  -2.2326989e-02   6.9219140e+00   1.2181276e+00  -1.8667851e+08
   2.5075025e-10  -2.2202769e-02   6.9195648e+00   1.2295418e+00  -1.8585518e+08
   2.5141714e-10  -2.2079099e-02   6.9171669e+00   1.2410012e+00  -1.8503327e+08
   2.5208403e-10  -2.1955975e-02   6.9147205e+00   1.2525051e+00  -1.8421280e+08
   2.5275092e-10  -2.1833399e-02   6.9122257e+00   1.2640528e+00  -1.8339379e+08
   2.5341781e-10  -2.1711368e-02   6.9096826e+00   1.2756437e+00  -1.8257625e+08
   2.5408469e-10  -2.1589882e-02   6.9070914e+00   1.2872772e+00  -1.8176019e+08
   2.5475158e-10  -2.1468939e-02   6.9044522e+00   1.2989527e+00  -1.8094564e+08
   2.5541847e-10  -2.1348539e-02   6.9017652e+00   1.3106694e+00  -1.8013260e+08
   2.5608536e-10  -2.1228681e-02   6.8990307e+00   1.3224267e+00  -1.7932109e+08
   2.5675225e-10  -2.1109364e-02   6.8962486e+00   1.3342239e+00  -1.7851112e+08
   2.5741914e-10  -2.0990586e-02   6.8934194e+00   1.3460605e+00  -1.7770271e+08
   2.5808603e-10  -2.0872347e-02   6.8905431e+00   1.3579356e+00  -1.7689587e+08
   2.5875292e-10  -2.0754646e-02   6.8876200e+00   1.3698487e+00  -1.7609062e+08
   2.5941981e-10  -2.0637481e-02   6.8846502e+00   1.3817989e+00  -1.7528698e+08
   2.6008670e-10  -2.0520851e-02   6.8816340e+00   1.3937857e+00  -1.7448495e+08
   2.6075358e-10  -2.0404756e-02   6.8785717e+00   1.4058083e+00  -1.7368455e+08
   2.6142047e-10  -2.0289193e-02   6.8754635e+00   1.4178660e+00  -1.7288579e+08
   2.6208736e-10  -2.0174163e-02   6.8723096e+00   1.4299582e+00  -1.7208870e+08
   2.6275425e-10  -2.0059664e-02   6.8691102e+00   1.4420840e+00  -1.7129328e+08
   2.6342114e-10  -1.9945695e-02   6.8658657e+00   1.4542428e+00  -1.7049955e+08
   2.6408803e-10  -1.9832255e-02   6.8625762e+00   1.4664339e+00  -1.6970751e+08
   2.6475492e-10  -1.9719342e-02   6.8592422e+00   1.4786565e+00  -1.6891720e+08
   2.6542181e-10  -1.9606956e-02   6.8558638e+00   1.4909098e+00  -1.6812862e+08
   2.6608870e-10  -1.9495095e-02   6.8524413e+00   1.5031933e+00  -1.6734178e+08
   2.6675559e-10  -1.9383759e-02   6.8489751e+00   1.5155061e+00  -1.6655669e+08
   2.6742247e-10  -1.9272945e-02   6.8454654e+00   1.5278474e+00  -1.6577338e+08
   2.6808936e-10  -1.9162653e-02   6.8419125e+00   1.5402166e+00  -1.6499186e+08
   2.6875625e-10  -1.9052882e-02   6.8383168e+00   1.5526129e+00  -1.6421213e+08
   2.6942314e-10  -1.8943630e-02   6.8346786e+00   1.5650356e+00  -1.6343421e+08
   2.7009003e-10  -1.8834896e-02   6.8309982e+00   1.5774838e+00  -1.6265813e+08
   2.7075692e-10  -1.8726679e-02   6.8272760e+00   1.5899569e+00  -1.6188388e+08
   2.7142381e-10  -1.8618978e-02   6.8235122e+00   1.6024540e+00  -1.6111148e+08
   2.7209070e-10  -1.8511792e-02   6.8197072e+00   1.6149745e+00  -1.6034095e+08
   2.7275759e-10  -1.8405118e-02   6.8158615e+00   1.6275176e+00  -1.5957229e+08
   2.7342447e-10  -1.8298957e-02   6.8119752e+00   1.6400825e+00  -1.5880553e+08
   2.7409136e-10  -1.8193306e-02   6.8080489e+00   1.6526684e+00  -1.5804067e+08
   2.7475825e-10  -1.8088165e-02   6.8040828e+00   1.6652746e+00  -1.5727773e+08
   2.7542514e-10  -1.7983532e-02   6.8000774e+00   1.6779004e+00  -1.5651672e+08
   2.7609203e-10  -1.7879406e-02   6.7960330e+00   1.6905449e+00  -1.5575765e+08
   2.7675892e-10  -1.7775785e-02   6.7919500e+00   1.7032074e+00  -1.5500054e+08
   2.7742581e-10  -1.7672669e-02   6.7878287e+00   1.7158871e+00  -1.5424539e+08
   2.7809270e-10  -1.7570055e-02   6.7836697e+00   1.7285833e+00  -1.5349222e+08
   2.7875959e-10  -1.7467943e-02   6.7794732e+00   1.7412952e+00  -1.5274105e+08
   2.7942648e-10  -1.7366332e-02   6.7752397e+00   1.7540221e+00  -1.5199187e+08
   2.8009336e-10  -1.7265219e-02   6.7709696e+00   1.7667631e+00  -1.5124471e+08
   2.8076025e-10  -1.7164604e-02   6.7666633e+00   1.7795175e+00  -1.5049958e+08
   2.8142714e-10  -1.7064486e-02   6.7623212e+00   1.7922846e+00  -1.4975649e+08
   2.8209403e-10  -1.6964862e-02   6.7579437e+00   1.8050636e+00  -1.4901544e+08
   2.8276092e-10  -1.6865731e-02   6.7535313e+00   1.8178538e+00  -1.4827646e+08
   2.8342781e-10  -1.6767093e-02   6.7490844e+00   1.8306542e+00  -1.4753954e+08
   2.8409470e-10  -1.6668946e-02   6.7446033e+00   1.8434644e+00  -1.4680471e+08
   2.8476159e-10  -1.6571288e-02   6.7400887e+00   1.8562833e+00  -1.4607198e+08
   2.8542848e-10  -1.6474117e-02   6.7355407e+00   1.8691104e+00  -1.4534135e+08
   2.8609537e-10  -1.6377434e-02   6.7309600e+00   1.8819449e+00  -1.4461283e+08
   2.8676225e-10  -1.6281235e-02   6.7263470e+00   1.8947859e+00  -1.4388644e+08
   2.8742914e-10  -1.6185521e-02   6.7217021e+00   1.9076328e+00  -1.4316218e+08
   2.8809603e-10  -1.6090288e-02   6.7170257e+00   1.9204849e+00  -1.4244008e+08
   2.8876292e-10  -1.5995536e-02   6.7123183e+00   1.9333413e+00  -1.4172012e+08
   2.8942981e-10  -1.5901264e-02   6.7075804e+00   1.9462013e+00  -1.4100234e+08
   2.9009670e-10  -1.5807470e-02   6.7028124e+00   1.9590643e+00  -1.4028673e+08
   2.9076359e-10  -1.5714152e-02   6.6980147e+00   1.9719294e+00  -1.3957330e+08
   2.9143048e-10  -1.5621309e-02   6.6931879e+00   1.9847960e+00  -1.3886207e+08
   2.9209737e-10  -1.5528940e-02   6.6883324e+00   1.9976633e+00  -1.3815304e+08
   2.9276425e-10  -1.5437043e-02   6.6834487e+00   2.0105306e+00  -1.3744623e+08
   2.9343114e-10  -1.5345617e-02   6.6785371e+00   2.0233972e+00  -1.3674164e+08
   2.9409803e-10  -1.5254660e-02   6.6735983e+00   2.0362623e+00  -1.3603928e+08
   2.9476492e-10  -1.5164170e-02   6.6686326e+00   2.0491254e+00  -1.3533916e+08
   2.9543181e-10  -1.5074147e-02   6.6636405e+00   2.0619855e+00  -1.3464128e+08
   2.9609870e-10  -1.4984588e-02   6.6586225e+00   2.0748421e+00  -1.3394567e+08
   2.9676559e-10  -1.4895492e-02   6.6535791e+00   2.0876945e+00  -1.3325231e+08
   2.9743248e-10  -1.4806858e-02   6.6485107e+00   2.1005419e+00  -1.3256123e+08
   2.9809937e-10  -1.4718684e-02   6.6434179e+00   2.1133837e+00  -1.3187243e+08
   2.9876626e-10  -1.4630969e-02   6.6383010e+00   2.1262192e+00  -1.3118592e+08
   2.9943314e-10  -1.4543711e-02   6.6331606e+00   2.1390477e+00  -1.3050170e+08
   3.0010003e-10  -1.4456908e-02   6.6279972e+00   2.1518686e+00  -1.2981979e+08
   3.0076692e-10  -1.4370559e-02   6.6228111e+00   2.1646811e+00  -1.2914019e+08
   3.0143381e-10  -1.4284663e-02   6.6176029e+00   2.1774846e+00  -1.2846290e+08
   3.0210070e-10  -1.4199218e-02   6.6123731e+00   2.1902785e+00  -1.2778794e+08
   3.0276759e-10  -1.4114222e-02   6.6071222e+00   2.2030621e+00  -1.2711530e+08
   3.0343448e-10  -1.4029674e-02   6.6018505e+00   2.2158348e+00  -1.2644501e+08
   3.0410137e-10  -1.3945572e-02   6.5965586e+00   2.2285958e+00  -1.2577705e+08
   3.0476826e-10  -1.3861914e-02   6.5912470e+00   2.2413447e+00  -1.2511145e+08
   3.0543515e-10  -1.3778700e-02   6.5859162e+00   2.2540807e+00  -1.2444820e+08
   3.0610203e-10  -1.3695927e-02   6.5805665e+00   2.2668032e+00  -1.2378732e+08
   3.0676892e-10  -1.3613595e-02   6.5751985e+00   2.2795116e+00  -1.2312880e+08
   3.0743581e-10  -1.3531700e-02   6.5698127e+00   2.2922054e+00  -1.2247265e+08
   3.0810270e-10  -1.3450243e-02   6.5644095e+00   2.3048838e+00  -1.2181888e+08
   3.0876959e-10  -1.3369220e-02   6.5589894e+00   2.3175463e+00  -1.2116749e+08
   3.0943648e-10  -1.3288632e-02   6.5535529e+00   2.3301923e+00  -1.2051850e+08
   3.1010337e-10  -1.3208475e-02   6.5481004e+00   2.3428213e+00  -1.1987189e+08
   3.1077026e-10  -1.3128748e-02   6.5426324e+00   2.3554326e+00  -1.1922768e+08
   3.1143715e-10  -1.3049451e-02   6.5371493e+00   2.3680256e+00  -1.1858588e+08
   3.1210403e-10  -1.2970581e-02   6.5316517e+00   2.3805999e+00  -1.1794647e+08
   3.1277092e-10  -1.2892136e-02   6.5261400e+00   2.3931548e+00  -1.1730948e+08
   3.1343781e-10  -1.2814115e-02   6.5206146e+00   2.4056898e+00  -1.1667491e+08
   3.1410470e-10  -1.2736517e-02   6.5150760e+00   2.4182043e+00  -1.1604275e+08
   3.1477159e-10  -1.2659339e-02   6.5095246e+00   2.4306978e+00  -1.1541301e+08
   3.1543848e-10  -1.2582581e-02   6.5039610e+00   2.4431698e+00  -1.1478570e+08
   3.1610537e-10  -1.2506240e-02   6.4983856e+00   2.4556197e+00  -1.1416082e+08
   3.1677226e-10  -1.2430315e-02   6.4927987e+00   2.4680470e+00  -1.1353837e+08
   3.1743915e-10  -1.2354804e-02   6.4872009e+00   2.4804513e+00  -1.1291835e+08
   3.1810604e-10  -1.2279706e-02   6.4815926e+00   2.4928319e+00  -1.1230077e+08
   3.1877292e-10  -1.2205020e-02   6.4759743e+00   2.5051884e+00  -1.1168563e+08
   3.1943981e-10  -1.2130742e-02   6.4703464e+00   2.5175204e+00  -1.1107294e+08
   3.2010670e-10  -1.2056872e-02   6.4647093e+00   2.5298273e+00  -1.1046268e+08
   3.2077359e-10  -1.1983409e-02   6.4590634e+00   2.5421086e+00  -1.0985488e+08
   3.2144048e-10  -1.1910350e-02   6.4534093e+00   2.5543639e+00  -1.0924952e+08
   3.2210737e-10  -1.1837694e-02   6.4477472e+00   2.5665927e+00  -1.0864662e+08
   3.2277426e-10  -1.1765439e-02   6.4420777e+00   2.5787945e+00  -1.0804616e+08
   3.2344115e-10  -1.1693583e-02   6.4364012e+00   2.5909690e+00  -1.0744817e+08
   3.2410804e-10  -1.1622126e-02   6.4307181e+00   2.6031156e+00  -1.0685262e+08
   3.2477492e-10  -1.1551065e-02   6.4250288e+00   2.6152339e+00  -1.0625954e+08
   3.2544181e-10  -1.1480399e-02   6.4193338e+00   2.6273236e+00  -1.0566891e+08
   3.2610870e-10  -1.1410126e-02   6.4136333e+00   2.6393841e+00  -1.0508074e+08
   3.2677559e-10  -1.1340244e-02   6.4079280e+00   2.6514151e+00  -1.0449502e+08
   3.2744248e-10  -1.1270752e-02   6.4022181e+00   2.6634161e+00  -1.0391177e+08
   3.2810937e-10  -1.1201648e-02   6.3965040e+00   2.6753868e+00  -1.0333098e+08
   3.2877626e-10  -1.1132931e-02   6.3907862e+00   2.6873267e+00  -1.0275265e+08
   3.2944315e-10  -1.1064598e-02   6.3850651e+00   2.6992355e+00  -1.0217678e+08
   3.3011004e-10  -1.0996649e-02   6.3793410e+00   2.7111128e+00  -1.0160337e+08
   3.3077693e-10  -1.0929081e-02   6.3736143e+00   2.7229583e+00  -1.0103242e+08
   3.3144381e-10  -1.0861894e-02   6.3678855e+00   2.7347715e+00  -1.0046393e+08
   3.3211070e-10  -1.0795084e-02   6.3621549e+00   2.7465521e+00  -9.9897900e+07
   3.3277759e-10  -1.0728651e-02   6.3564228e+00   2.7582997e+00  -9.9334330e+07
   3.3344448e-10  -1.0662594e-02   6.3506898e+00   2.7700140e+00  -9.8773217e+07
   3.3411137e-10  -1.0596909e-02   6.3449560e+00   2.7816947e+00  -9.8214563e+07
   3.3477826e-10  -1.0531597e-02   6.3392220e+00   2.7933415e+00  -9.7658364e+07
   3.3544515e-10  -1.0466654e-02   6.3334880e+00   2.8049539e+00  -9.7104621e+07
   3.3611204e-10  -1.0402080e-02   6.3277544e+00   2.8165318e+00  -9.6553332e+07
   3.3677893e-10  -1.0337873e-02   6.3220216e+00   2.8280747e+00  -9.6004496e+07
   3.3744582e-10  -1.0274031e-02   6.3162900e+00   2.8395825e+00  -9.5458110e+07
   3.3811270e-10  -1.0210552e-02   6.3105598e+00   2.8510547e+00  -9.4914174e+07
   3.3877959e-10  -1.0147436e-02   6.3048314e+00   2.8624911e+00  -9.4372685e+07
   3.3944648e-10  -1.0084679e-02   6.2991053e+00   2.8738914e+00  -9.3833641e+07
   3.4011337e-10  -1.0022282e-02   6.2933816e+00   2.8852554e+00  -9.3297041e+07
   3.4078026e-10  -9.9602414e-03   6.2876608e+00   2.8965828e+00  -9.2762882e+07
   3.4144715e-10  -9.8985563e-03   6.2819432e+00   2.9078732e+00  -9.2231162e+07
   3.4211404e-10  -9.8372249e-03   6.2762290e+00   2.9191265e+00  -9.1701878e+07
   3.4278093e-10  -9.7762458e-03   6.2705187e+00   2.9303425e+00  -9.1175027e+07
   3.4344782e-10  -9.7156171e-03   6.2648125e+00   2.9415207e+00  -9.0650608e+07
   3.4411470e-10  -9.6553374e-03   6.2591108e+00   2.9526611e+00  -9.0128616e+07
   3.4478159e-10  -9.5954050e-03   6.2534138e+00   2.9637634e+00  -8.9609050e+07
   3.4544848e-10  -9.5358183e-03   6.2477219e+00   2.9748274e+00  -8.9091906e+07
   3.4611537e-10  -9.4765756e-03   6.2420354e+00   2.9858528e+00  -8.8577181e+07
   3.4678226e-10  -9.4176754e-03   6.2363546e+00   2.9968395e+00  -8.8064871e+07
   3.4744915e-10  -9.3591161e-03   6.2306798e+00   3.0077872e+00  -8.7554974e+07
   3.4811604e-10  -9.3008960e-03   6.2250112e+00   3.0186957e+00  -8.7047485e+07
   3.4878293e-10  -9.2430135e-03   6.2193491e+00   3.0295649e+00  -8.6542400e+07
   3.4944982e-10  -9.1854671e-03   6.2136939e+00   3.0403945e+00  -8.6039718e+07
   3.5011671e-10  -9.1282551e-03   6.2080458e+00   3.0511844e+00  -8.5539432e+07
   3.5078359e-10  -9.0713759e-03   6.2024051e+00   3.0619345e+00  -8.5041540e+07
   3.5145048e-10  -9.0148280e-03   6.1967721e+00   3.0726444e+00  -8.4546037e+07
   3.5211737e-10  -8.9586097e-03   6.1911469e+00   3.0833141e+00  -8.4052919e+07
   3.5278426e-10  -8.9027195e-03   6.1855300e+00   3.0939434e+00  -8.3562182e+07
   3.5345115e-10  -8.8471558e-03   6.1799216e+00   3.1045322e+00  -8.3073821e+07
   3.5411804e-10  -8.7919169e-03   6.1743218e+00   3.1150803e+00  -8.2587832e+07
   3.5478493e-10  -8.7370014e-03   6.1687310e+00   3.1255876e+00  -8.2104211e+07
   3.5545182e-10  -8.6824076e-03   6.1631494e+00   3.1360539e+00  -8.1622952e+07
   3.5611871e-10  -8.6281340e-03   6.1575773e+00   3.1464791e+00  -8.1144051e+07
   3.5678560e-10  -8.5741789e-03   6.1520148e+00   3.1568631e+00  -8.0667503e+07
   3.5745248e-10  -8.5205409e-03   6.1464623e+00   3.1672058e+00  -8.0193304e+07
   3.5811937e-10  -8.4672183e-03   6.1409200e+00   3.1775070e+00  -7.9721447e+07
   3.5878626e-10  -8.4142097e-03   6.1353880e+00   3.1877666e+00  -7.9251929e+07
   3.5945315e-10  -8.3615133e-03   6.1298667e+00   3.1979846e+00  -7.8784743e+07
   3.6012004e-10  -8.3091278e-03   6.1243562e+00   3.2081609e+00  -7.8319885e+07
   3.6078693e-10  -8.2570515e-03   6.1188568e+00   3.2182952e+00  -7.7857349e+07
   3.6145382e-10  -8.2052828e-03   6.1133686e+00   3.2283877e+00  -7.7397129e+07
   3.6212071e-10  -8.1538204e-03   6.1078919e+00   3.2384381e+00  -7.6939220e+07
   3.6278760e-10  -8.1026625e-03   6.1024270e+00   3.2484465e+00  -7.6483617e+07
   3.6345448e-10  -8.0518077e-03   6.0969739e+00   3.2584126e+00  -7.6030314e+07
   3.6412137e-10  -8.0012544e-03   6.0915329e+00   3.2683365e+00  -7.5579305e+07
   3.6478826e-10  -7.9510011e-03   6.0861042e+00   3.2782181e+00  -7.5130584e+07
   3.6545515e-10  -7.9010464e-03   6.0806879e+00   3.2880574e+00  -7.4684145e+07
   3.6612204e-10  -7.8513886e-03   6.0752844e+00   3.2978542e+00  -7.4239982e+07
   3.6678893e-10  -7.8020262e-03   6.0698936e+00   3.3076086e+00  -7.3798090e+07
   3.6745582e-10  -7.7529578e-03   6.0645160e+00   3.3173204e+00  -7.3358461e+07
   3.6812271e-10  -7.7041818e-03   6.0591515e+00   3.3269897e+00  -7.2921090e+07
   3.6878960e-10  -7.6556967e-03   6.0538004e+00   3.3366164e+00  -7.2485971e+07
   3.6945649e-10  -7.6075011e-03   6.0484629e+00   3.3462005e+00  -7.2053098e+07
   3.7012337e-10  -7.5595934e-03   6.0431391e+00   3.3557419e+00  -7.1622463e+07
   3.7079026e-10  -7.5119721e-03   6.0378292e+00   3.3652407e+00  -7.1194060e+07
   3.7145715e-10  -7.4646358e-03   6.0325333e+00   3.3746968e+00  -7.0767884e+07
   3.7212404e-10  -7.4175830e-03   6.0272516e+00   3.3841101e+00  -7.0343926e+07
   3.7279093e-10  -7.3708122e-03   6.0219843e+00   3.3934807e+00  -6.9922182e+07
   3.7345782e-10  -7.3243218e-03   6.0167315e+00   3.4028086e+00  -6.9502643e+07
   3.7412471e-10  -7.2781106e-03   6.0114934e+00   3.4120938e+00  -6.9085304e+07
   3.7479160e-10  -7.2321769e-03   6.0062700e+00   3.4213362e+00  -6.8670157e+07
   3.7545849e-10  -7.1865193e-03   6.0010616e+00   3.4305359e+00  -6.8257196e+07
   3.7612538e-10  -7.1411364e-03   5.9958683e+00   3.4396929e+00  -6.7846414e+07
   3.7679226e-10  -7.0960268e-03   5.9906902e+00   3.4488071e+00  -6.7437803e+07
   3.7745915e-10  -7.0511889e-03   5.9855274e+00   3.4578787e+00  -6.7031358e+07
   3.7812604e-10  -7.0066214e-03   5.9803801e+00   3.4669076e+00  -6.6627070e+07
   3.7879293e-10  -6.9623227e-03   5.9752483e+00   3.4758938e+00  -6.6224932e+07
   3.7945982e-10  -6.9182915e-03   5.9701323e+00   3.4848374e+00  -6.5824938e+07
   3.8012671e-10  -6.8745264e-03   5.9650321e+00   3.4937383e+00  -6.5427081e+07
   3.8079360e-10  -6.8310258e-03   5.9599479e+00   3.5025967e+00  -6.5031353e+07
   3.8146049e-10  -6.7877885e-03   5.9548797e+00   3.5114126e+00  -6.4637746e+07
   3.8212738e-10  -6.7448130e-03   5.9498277e+00   3.5201859e+00  -6.4246254e+07
   3.8279426e-10  -6.7020978e-03   5.9447920e+00   3.5289168e+00  -6.3856870e+07
   3.8346115e-10  -6.6596416e-03   5.9397727e+00   3.5376053e+00  -6.3469585e+07
   3.8412804e-10  -6.6174430e-03   5.9347698e+00   3.5462514e+00  -6.3084393e+07
   3.8479493e-10  -6.5755006e-03   5.9297835e+00   3.5548551e+00  -6.2701286e+07
   3.8546182e-10  -6.5338129e-03   5.9248139e+00   3.5634166e+00  -6.2320256e+07
   3.8612871e-10  -6.4923787e-03   5.9198611e+00   3.5719359e+00  -6.1941296e+07
   3.8679560e-10  -6.4511965e-03   5.9149251e+00   3.5804130e+00  -6.1564399e+07
   3.8746249e-10  -6.4102650e-03   5.9100060e+00   3.5888481e+00  -6.1189557e+07
   3.8812938e-10  -6.3695828e-03   5.9051040e+00   3.5972411e+00  -6.0816762e+07
   3.8879627e-10  -6.3291485e-03   5.9002190e+00   3.6055921e+00  -6.0446007e+07
   3.8946315e-10  -6.2889608e-03   5.8953513e+00   3.6139012e+00  -6.0077283e+07
   3.9013004e-10  -6.2490183e-03   5.8905008e+00   3.6221685e+00  -5.9710584e+07
   3.9079693e-10  -6.2093197e-03   5.8856677e+00   3.6303941e+00  -5.9345902e+07
   3.9146382e-10  -6.1698636e-03   5.8808519e+00   3.6385779e+00  -5.8983229e+07
   3.9213071e-10  -6.1306487e-03   5.8760536e+00   3.6467202e+00  -5.8622556e+07
   3.9279760e-10  -6.0916737e-03   5.8712729e+00   3.6548210e+00  -5.8263878e+07
   3.9346449e-10  -6.0529372e-03   5.8665098e+00   3.6628803e+00  -5.7907184e+07
   3.9413138e-10  -6.0144379e-03   5.8617643e+00   3.6708983e+00  -5.7552469e+07
   3.9479827e-10  -5.9761745e-03   5.8570366e+00   3.6788750e+00  -5.7199723e+07
   3.9546516e-10  -5.9381457e-03   5.8523266e+00   3.6868106e+00  -5.6848939e+07
   3.9613204e-10  -5.9003502e-03   5.8476345e+00   3.6947051e+00  -5.6500110e+07
   3.9679893e-10  -5.8627867e-03   5.8429602e+00   3.7025585e+00  -5.6153226e+07
   3.9746582e-10  -5.8254539e-03   5.8383039e+00   3.7103711e+00  -5.5808282e+07
   3.9813271e-10  -5.7883504e-03   5.8336656e+00   3.7181430e+00  -5.5465267e+07
   3.9879960e-10  -5.7514751e-03   5.8290453e+00   3.7258741e+00  -5.5124175e+07
   3.9946649e-10  -5.7148266e-03   5.8244430e+00   3.7335646e+00  -5.4784998e+07
   4.0013338e-10  -5.6784036e-03   5.8198589e+00   3.7412146e+00  -5.4447727e+07
   4.0080027e-10  -5.6422050e-03   5.8152929e+00   3.7488243e+00  -5.4112355e+07
   4.0146716e-10  -5.6062294e-03   5.8107451e+00   3.7563937e+00  -5.3778873e+07
   4.0213404e-10  -5.5704755e-03   5.8062155e+00   3.7639229e+00  -5.3447274e+07
   4.0280093e-10  -5.5349421e-03   5.8017042e+00   3.7714121e+00  -5.3117550e+07
   4.0346782e-10  -5.4996281e-03   5.7972111e+00   3.7788613e+00  -5.2789693e+07
   4.0413471e-10  -5.4645320e-03   5.7927364e+00   3.7862707e+00  -5.2463694e+07
   4.0480160e-10  -5.4296527e-03   5.7882800e+00   3.7936404e+00  -5.2139545e+07
   4.0546849e-10  -5.3949890e-03   5.7838419e+00   3.8009704e+00  -5.1817240e+07
   4.0613538e-10  -5.3605396e-03   5.7794223e+00   3.8082610e+00  -5.1496769e+07
   4.0680227e-10  -5.3263034e-03   5.7750210e+00   3.8155123e+00  -5.1178124e+07
   4.0746916e-10  -5.2922790e-03   5.7706382e+00   3.8227243e+00  -5.0861298e+07
   4.0813605e-10  -5.2584653e-03   5.7662738e+00   3.8298971e+00  -5.0546282e+07
   4.0880293e-10  -5.2248611e-03   5.7619278e+00   3.8370310e+00  -5.0233069e+07
   4.0946982e-10  -5.1914651e-03   5.7576003e+00   3.8441260e+00  -4.9921650e+07
   4.1013671e-10  -5.1582763e-03   5.7532913e+00   3.8511823e+00  -4.9612018e+07
   4.1080360e-10  -5.1252933e-03   5.7490008e+00   3.8581999e+00  -4.9304164e+07
   4.1147049e-10  -5.0925151e-03   5.7447288e+00   3.8651791e+00  -4.8998080e+07
   4.1213738e-10  -5.0599403e-03   5.7404753e+00   3.8721199e+00  -4.8693758e+07
   4.1280427e-10  -5.0275680e-03   5.7362403e+00   3.8790224e+00  -4.8391191e+07
   4.1347116e-10  -4.9953969e-03   5.7320238e+00   3.8858869e+00  -4.8090369e+07
   4.1413805e-10  -4.9634257e-03   5.7278259e+00   3.8927134e+00  -4.7791286e+07
   4.1480493e-10  -4.9316535e-03   5.7236464e+00   3.8995020e+00  -4.7493933e+07
   4.1547182e-10  -4.9000790e-03   5.7194855e+00   3.9062530e+00  -4.7198302e+07
   4.1613871e-10  -4.8687011e-03   5.7153430e+00   3.9129663e+00  -4.6904385e+07
   4.1680560e-10  -4.8375186e-03   5.7112191e+00   3.9196423e+00  -4.6612175e+07
   4.1747249e-10  -4.8065304e-03   5.7071137e+00   3.9262810e+00  -4.6321662e+07
   4.1813938e-10  -4.7757354e-03   5.7030268e+00   3.9328825e+00  -4.6032839e+07
   4.1880627e-10  -4.7451324e-03   5.6989584e+00   3.9394469e+00  -4.5745699e+07
   4.1947316e-10  -4.7147204e-03   5.6949084e+00   3.9459746e+00  -4.5460232e+07
   4.2014005e-10  -4.6844982e-03   5.6908769e+00   3.9524654e+00  -4.5176432e+07
   4.2080694e-10  -4.6544647e-03   5.6868639e+00   3.9589197e+00  -4.4894290e+07
   4.2147382e-10  -4.6246188e-03   5.6828693e+00   3.9653375e+00  -4.4613798e+07
   4.2214071e-10  -4.5949595e-03   5.6788931e+00   3.9717190e+00  -4.4334948e+07
   4.2280760e-10  -4.5654855e-03   5.6749354e+00   3.9780643e+00  -4.4057733e+07
   4.2347449e-10  -4.5361959e-03   5.6709960e+00   3.9843736e+00  -4.3782144e+07
   4.2414138e-10  -4.5070895e-03   5.6670750e+00   3.9906470e+00  -4.3508174e+07
   4.2480827e-10  -4.4781653e-03   5.6631724e+00   3.9968847e+00  -4.3235814e+07
   4.2547516e-10  -4.4494221e-03   5.6592881e+00   4.0030868e+00  -4.2965058e+07
   4.2614205e-10  -4.4208591e-03   5.6554221e+00   4.0092534e+00  -4.2695896e+07
   4.2680894e-10  -4.3924749e-03   5.6515744e+00   4.0153847e+00  -4.2428321e+07
   4.2747583e-10  -4.3642688e-03   5.6477449e+00   4.0214809e+00  -4.2162326e+07
   4.2814271e-10  -4.3362394e-03   5.6439337e+00   4.0275421e+00  -4.1897901e+07
   4.2880960e-10  -4.3083859e-03   5.6401407e+00   4.0335683e+00  -4.1635041e+07
   4.2947649e-10  -4.2807072e-03   5.6363659e+00   4.0395599e+00  -4.1373736e+07
   4.3014338e-10  -4.2532022e-03   5.6326093e+00   4.0455169e+00  -4.1113979e+07
   4.3081027e-10  -4.2258699e-03   5.6288707e+00   4.0514395e+00  -4.0855763e+07
   4.3147716e-10  -4.1987093e-03   5.6251503e+00   4.0573278e+00  -4.0599079e+07
   4.3214405e-10  -4.1717194e-03   5.6214479e+00   4.0631820e+00  -4.0343920e+07
   4.3281094e-10  -4.1448992e-03   5.6177636e+00   4.0690022e+00  -4.0090278e+07
   4.3347783e-10  -4.1182476e-03   5.6140972e+00   4.0747885e+00  -3.9838145e+07
   4.3414471e-10  -4.0917636e-03   5.6104489e+00   4.0805412e+00  -3.9587514e+07
   4.3481160e-10  -4.0654463e-03   5.6068184e+00   4.0862604e+00  -3.9338377e+07
   4.3547849e-10  -4.0392946e-03   5.6032059e+00   4.0919462e+00  -3.9090727e+07
   4.3614538e-10  -4.0133076e-03   5.5996112e+00   4.0975988e+00  -3.8844555e+07
   4.3681227e-10  -3.9874843e-03   5.5960343e+00   4.1032182e+00  -3.8599854e+07
   4.3747916e-10  -3.9618236e-03   5.5924752e+00   4.1088048e+00  -3.8356617e+07
   4.3814605e-10  -3.9363247e-03   5.5889339e+00   4.1143586e+00  -3.8114837e+07
   4.3881294e-10  -3.9109866e-03   5.5854102e+00   4.1198797e+00  -3.7874504e+07
   4.3947983e-10  -3.8858082e-03   5.5819042e+00   4.1253684e+00  -3.7635613e+07
   4.4014672e-10  -3.8607887e-03   5.5784159e+00   4.1308248e+00  -3.7398155e+07
   4.4081360e-10  -3.8359271e-03   5.5749451e+00   4.1362489e+00  -3.7162123e+07
   4.4148049e-10  -3.8112224e-03   5.5714918e+00   4.1416411e+00  -3.6927510e+07
   4.4214738e-10  -3.7866737e-03   5.5680560e+00   4.1470013e+00  -3.6694307e+07
   4.4281427e-10  -3.7622800e-03   5.5646377e+00   4.1523299e+00  -3.6462509e+07
   4.4348116e-10  -3.7380405e-03   5.5612368e+00   4.1576269e+00  -3.6232107e+07
   4.4414805e-10  -3.7139541e-03   5.5578533e+00   4.1628924e+00  -3.6003093e+07
   4.4481494e-10  -3.6900200e-03   5.5544870e+00   4.1681267e+00  -3.5775462e+07
   4.4548183e-10  -3.6662373e-03   5.5511380e+00   4.1733299e+00  -3.5549204e+07
   4.4614872e-10  -3.6426050e-03   5.5478063e+00   4.1785021e+00  -3.5324313e+07
   4.4681561e-10  -3.6191222e-03   5.5444917e+00   4.1836434e+00  -3.5100783e+07
   4.4748249e-10  -3.5957880e-03   5.5411942e+00   4.1887541e+00  -3.4878604e+07
   4.4814938e-10  -3.5726016e-03   5.5379138e+00   4.1938343e+00  -3.4657771e+07
   4.4881627e-10  -3.5495620e-03   5.5346504e+00   4.1988841e+00  -3.4438276e+07
   4.4948316e-10  -3.5266683e-03   5.5314040e+00   4.2039037e+00  -3.4220111e+07
   4.5015005e-10  -3.5039196e-03   5.5281745e+00   4.2088932e+00  -3.4003270e+07
   4.5081694e-10  -3.4813152e-03   5.5249619e+00   4.2138528e+00  -3.3787746e+07
   4.5148383e-10  -3.4588540e-03   5.5217661e+00   4.2187826e+00  -3.3573531e+07
   4.5215072e-10  -3.4365352e-03   5.5185871e+00   4.2236828e+00  -3.3360618e+07
   4.5281761e-10  -3.4143581e-03   5.5154248e+00   4.2285535e+00  -3.3149000e+07
   4.5348449e-10  -3.3923216e-03   5.5122791e+00   4.2333949e+00  -3.2938671e+07
   4.5415138e-10  -3.3704249e-03   5.5091501e+00   4.2382071e+00  -3.2729623e+07
   4.5481827e-10  -3.3486672e-03   5.5060376e+00   4.2429903e+00  -3.2521849e+07
   4.5548516e-10  -3.3270477e-03   5.5029416e+00   4.2477446e+00  -3.2315342e+07
   4.5615205e-10  -3.3055655e-03   5.4998621e+00   4.2524702e+00  -3.2110095e+07
   4.5681894e-10  -3.2842197e-03   5.4967990e+00   4.2571672e+00  -3.1906102e+07
   4.5748583e-10  -3.2630095e-03   5.4937522e+00   4.2618357e+00  -3.1703355e+07
   4.5815272e-10  -3.2419342e-03   5.4907217e+00   4.2664760e+00  -3.1501848e+07
   4.5881961e-10  -3.2209928e-03   5.4877074e+00   4.2710881e+00  -3.1301574e+07
   4.5948650e-10  -3.2001845e-03   5.4847092e+00   4.2756722e+00  -3.1102526e+07
   4.6015338e-10  -3.1795086e-03   5.4817272e+00   4.2802284e+00  -3.0904696e+07
   4.6082027e-10  -3.1589643e-03   5.4787613e+00   4.2847570e+00  -3.0708079e+07
   4.6148716e-10  -3.1385506e-03   5.4758113e+00   4.2892580e+00  -3.0512668e+07
   4.6215405e-10  -3.1182669e-03   5.4728773e+00   4.2937315e+00  -3.0318456e+07
   4.6282094e-10  -3.0981123e-03   5.4699592e+00   4.2981778e+00  -3.0125436e+07
   4.6348783e-10  -3.0780860e-03   5.4670569e+00   4.3025970e+00  -2.9933602e+07
   4.6415472e-10  -3.0581872e-03   5.4641704e+00   4.3069891e+00  -2.9742947e+07
   4.6482161e-10  -3.0384152e-03   5.4612996e+00   4.3113545e+00  -2.9553464e+07
   4.6548850e-10  -3.0187692e-03   5.4584444e+00   4.3156931e+00  -2.9365147e+07
   4.6615539e-10  -2.9992484e-03   5.4556048e+00   4.3200052e+00  -2.9177989e+07
   4.6682227e-10  -2.9798520e-03   5.4527808e+00   4.3242908e+00  -2.8991984e+07
   4.6748916e-10  -2.9605793e-03   5.4499722e+00   4.3285502e+00  -2.8807126e+07
   4.6815605e-10  -2.9414294e-03   5.4471791e+00   4.3327835e+00  -2.8623407e+07
   4.6882294e-10  -2.9224017e-03   5.4444013e+00   4.3369908e+00  -2.8440821e+07
   4.6948983e-10  -2.9034954e-03   5.4416388e+00   4.3411722e+00  -2.8259363e+07
   4.7015672e-10  -2.8847098e-03   5.4388915e+00   4.3453279e+00  -2.8079025e+07
   4.7082361e-10  -2.8660440e-03   5.4361594e+00   4.3494580e+00  -2.7899801e+07
   4.7149050e-10  -2.8474974e-03   5.4334424e+00   4.3535628e+00  -2.7721686e+07
   4.7215739e-10  -2.8290692e-03   5.4307405e+00   4.3576422e+00  -2.7544671e+07
   4.7282427e-10  -2.8107587e-03   5.4280536e+00   4.3616965e+00  -2.7368752e+07
   4.7349116e-10  -2.7925651e-03   5.4253816e+00   4.3657257e+00  -2.7193923e+07
   4.7415805e-10  -2.7744878e-03   5.4227245e+00   4.3697301e+00  -2.7020176e+07
   4.7482494e-10  -2.7565260e-03   5.4200822e+00   4.3737098e+00  -2.6847505e+07
   4.7549183e-10  -2.7386789e-03   5.4174546e+00   4.3776648e+00  -2.6675906e+07
   4.7615872e-10  -2.7209460e-03   5.4148417e+00   4.3815954e+00  -2.6505370e+07
   4.7682561e-10  -2.7033264e-03   5.4122435e+00   4.3855016e+00  -2.6335893e+07
   4.7749250e-10  -2.6858195e-03   5.4096598e+00   4.3893837e+00  -2.6167468e+07
   4.7815939e-10  -2.6684246e-03   5.4070906e+00   4.3932417e+00  -2.6000089e+07
   4.7882628e-10  -2.6511409e-03   5.4045359e+00   4.3970758e+00  -2.5833750e+07
   4.7949316e-10  -2.6339679e-03   5.4019956e+00   4.4008861e+00  -2.5668445e+07
   4.8016005e-10  -2.6169047e-03   5.3994695e+00   4.4046727e+00  -2.5504169e+07
   4.8082694e-10  -2.5999508e-03   5.3969578e+00   4.4084358e+00  -2.5340914e+07
   4.8149383e-10  -2.5831053e-03   5.3944602e+00   4.4121755e+00  -2.5178676e+07
   4.8216072e-10  -2.5663678e-03   5.3919768e+00   4.4158919e+00  -2.5017448e+07
   4.8282761e-10  -2.5497374e-03   5.3895074e+00   4.4195853e+00  -2.4857224e+07
   4.8349450e-10  -2.5332135e-03   5.3870521e+00   4.4232556e+00  -2.4697999e+07
   4.8416139e-10  -2.5167955e-03   5.3846107e+00   4.4269030e+00  -2.4539767e+07
   4.8482828e-10  -2.5004827e-03   5.3821832e+00   4.4305278e+00  -2.4382522e+07
   4.8549517e-10  -2.4842744e-03   5.3797695e+00   4.4341299e+00  -2.4226258e+07
   4.8616205e-10  -2.4681700e-03   5.3773696e+00   4.4377095e+00  -2.4070970e+07
   4.8682894e-10  -2.4521689e-03   5.3749833e+00   4.4412668e+00  -2.3916652e+07
   4.8749583e-10  -2.4362703e-03   5.3726108e+00   4.4448018e+00  -2.3763298e+07
   4.8816272e-10  -2.4204737e-03   5.3702518e+00   4.4483148e+00  -2.3610902e+07
   4.8882961e-10  -2.4047784e-03   5.3679063e+00   4.4518058e+00  -2.3459459e+07
   4.8949650e-10  -2.3891838e-03   5.3655743e+00   4.4552750e+00  -2.3308964e+07
   4.9016339e-10  -2.3736892e-03   5.3632557e+00   4.4587224e+00  -2.3159410e+07
   4.9083028e-10  -2.3582941e-03   5.3609504e+00   4.4621482e+00  -2.3010793e+07
   4.9149717e-10  -2.3429977e-03   5.3586583e+00   4.4655526e+00  -2.2863106e+07
   4.9216405e-10  -2.3277996e-03   5.3563795e+00   4.4689357e+00  -2.2716345e+07
   4.9283094e-10  -2.3126990e-03   5.3541139e+00   4.4722975e+00  -2.2570503e+07
   4.9349783e-10  -2.2976953e-03   5.3518613e+00   4.4756382e+00  -2.2425576e+07
   4.9416472e-10  -2.2827880e-03   5.3496217e+00   4.4789579e+00  -2.2281557e+07
   4.9483161e-10  -2.2679765e-03   5.3473951e+00   4.4822568e+00  -2.2138442e+07
   4.9549850e-10  -2.2532601e-03   5.3451814e+00   4.4855350e+00  -2.1996226e+07
   4.9616539e-10  -2.2386382e-03   5.3429806e+00   4.4887926e+00  -2.1854902e+07
   4.9683228e-10  -2.2241103e-03   5.3407925e+00   4.4920296e+00  -2.1714465e+07
   4.9749917e-10  -2.2096757e-03   5.3386172e+00   4.4952463e+00  -2.1574912e+07
   4.9816606e-10  -2.1953339e-03   5.3364545e+00   4.4984428e+00  -2.1436235e+07
   4.9883294e-10  -2.1810843e-03   5.3343044e+00   4.5016191e+00  -2.1298430e+07
   4.9949983e-10  -2.1669264e-03   5.3321668e+00   4.5047754e+00  -2.1161491e+07
   5.0016672e-10  -2.1528594e-03   5.3300417e+00   4.5079119e+00  -2.1025415e+07
   5.0083361e-10  -2.1388829e-03   5.3279291e+00   4.5110285e+00  -2.0890194e+07
   5.0150050e-10  -2.1249964e-03   5.3258287e+00   4.5141255e+00  -2.0755825e+07
   5.0216739e-10  -2.1111991e-03   5.3237407e+00   4.5172029e+00  -2.0622302e+07
   5.0283428e-10  -2.0974906e-03   5.3216649e+00   4.5202609e+00  -2.0489620e+07
   5.0350117e-10  -2.0838703e-03   5.3196013e+00   4.5232996e+00  -2.0357774e+07
   5.0416806e-10  -2.0703377e-03   5.3175498e+00   4.5263191e+00  -2.0226760e+07
   5.0483494e-10  -2.0568921e-03   5.3155104e+00   4.5293195e+00  -2.0096571e+07
   5.0550183e-10  -2.0435331e-03   5.3134829e+00   4.5323010e+00  -1.9967203e+07
   5.0616872e-10  -2.0302601e-03   5.3114674e+00   4.5352635e+00  -1.9838652e+07
   5.0683561e-10  -2.0170726e-03   5.3094637e+00   4.5382074e+00  -1.9710912e+07
   5.0750250e-10  -2.0039700e-03   5.3074719e+00   4.5411326e+00  -1.9583978e+07
   5.0816939e-10  -1.9909517e-03   5.3054918e+00   4.5440393e+00  -1.9457846e+07
   5.0883628e-10  -1.9780173e-03   5.3035234e+00   4.5469275e+00  -1.9332511e+07
   5.0950317e-10  -1.9651663e-03   5.3015667e+00   4.5497975e+00  -1.9207968e+07
   5.1017006e-10  -1.9523980e-03   5.2996215e+00   4.5526493e+00  -1.9084211e+07
   5.1083695e-10  -1.9397120e-03   5.2976879e+00   4.5554829e+00  -1.8961238e+07
   5.1150383e-10  -1.9271077e-03   5.2957657e+00   4.5582986e+00  -1.8839042e+07
   5.1217072e-10  -1.9145847e-03   5.2938549e+00   4.5610965e+00  -1.8717619e+07
   5.1283761e-10  -1.9021424e-03   5.2919555e+00   4.5638766e+00  -1.8596964e+07
   5.1350450e-10  -1.8897803e-03   5.2900673e+00   4.5666390e+00  -1.8477073e+07
   5.1417139e-10  -1.8774979e-03   5.2881904e+00   4.5693839e+00  -1.8357941e+07
   5.1483828e-10  -1.8652948e-03   5.2863247e+00   4.5721113e+00  -1.8239563e+07
   5.1550517e-10  -1.8531703e-03   5.2844700e+00   4.5748214e+00  -1.8121935e+07
   5.1617206e-10  -1.8411240e-03   5.2826265e+00   4.5775143e+00  -1.8005053e+07
   5.1683895e-10  -1.8291553e-03   5.2807939e+00   4.5801900e+00  -1.7888911e+07
   5.1750584e-10  -1.8172640e-03   5.2789722e+00   4.5828488e+00  -1.7773506e+07
   5.1817272e-10  -1.8054493e-03   5.2771615e+00   4.5854906e+00  -1.7658832e+07
   5.1883961e-10  -1.7937108e-03   5.2753615e+00   4.5881155e+00  -1.7544886e+07
   5.1950650e-10  -1.7820481e-03   5.2735724e+00   4.5907238e+00  -1.7431663e+07
   5.2017339e-10  -1.7704607e-03   5.2717939e+00   4.5933155e+00  -1.7319158e+07
   5.2084028e-10  -1.7589481e-03   5.2700261e+00   4.5958906e+00  -1.7207367e+07
   5.2150717e-10  -1.7475097e-03   5.2682689e+00   4.5984493e+00  -1.7096286e+07
   5.2217406e-10  -1.7361453e-03   5.2665223e+00   4.6009918e+00  -1.6985911e+07
   5.2284095e-10  -1.7248542e-03   5.2647861e+00   4.6035180e+00  -1.6876237e+07
   5.2350784e-10  -1.7136360e-03   5.2630604e+00   4.6060280e+00  -1.6767259e+07
   5.2417472e-10  -1.7024902e-03   5.2613451e+00   4.6085221e+00  -1.6658974e+07
   5.2484161e-10  -1.6914164e-03   5.2596400e+00   4.6110003e+00  -1.6551378e+07
   5.2550850e-10  -1.6804142e-03   5.2579453e+00   4.6134626e+00  -1.6444466e+07
   5.2617539e-10  -1.6694830e-03   5.2562608e+00   4.6159092e+00  -1.6338233e+07
   5.2684228e-10  -1.6586225e-03   5.2545864e+00   4.6183402e+00  -1.6232677e+07
   5.2750917e-10  -1.6478321e-03   5.2529221e+00   4.6207557e+00  -1.6127792e+07
   5.2817606e-10  -1.6371114e-03   5.2512679e+00   4.6231557e+00  -1.6023574e+07
   5.2884295e-10  -1.6264600e-03   5.2496236e+00   4.6255403e+00  -1.5920020e+07
   5.2950984e-10  -1.6158775e-03   5.2479894e+00   4.6279098e+00  -1.5817125e+07
   5.3017673e-10  -1.6053634e-03   5.2463649e+00   4.6302641e+00  -1.5714886e+07
   5.3084361e-10  -1.5949172e-03   5.2447504e+00   4.6326033e+00  -1.5613298e+07
   5.3151050e-10  -1.5845385e-03   5.2431456e+00   4.6349275e+00  -1.5512357e+07
   5.3217739e-10  -1.5742270e-03   5.2415505e+00   4.6372369e+00  -1.5412059e+07
   5.3284428e-10  -1.5639821e-03   5.2399652e+00   4.6395315e+00  -1.5312401e+07
   5.3351117e-10  -1.5538035e-03   5.2383894e+00   4.6418114e+00  -1.5213378e+07
   5.3417806e-10  -1.5436907e-03   5.2368232e+00   4.6440767e+00  -1.5114986e+07
   5.3484495e-10  -1.5336433e-03   5.2352665e+00   4.6463274e+00  -1.5017222e+07
   5.3551184e-10  -1.5236610e-03   5.2337193e+00   4.6485638e+00  -1.4920082e+07
   5.3617873e-10  -1.5137431e-03   5.2321815e+00   4.6507858e+00  -1.4823561e+07
   5.3684562e-10  -1.5038895e-03   5.2306531e+00   4.6529936e+00  -1.4727656e+07
   5.3751250e-10  -1.4940996e-03   5.2291340e+00   4.6551872e+00  -1.4632364e+07
   5.3817939e-10  -1.4843730e-03   5.2276241e+00   4.6573668e+00  -1.4537680e+07
   5.3884628e-10  -1.4747094e-03   5.2261234e+00   4.6595324e+00  -1.4443601e+07
   5.3951317e-10  -1.4651083e-03   5.2246319e+00   4.6616840e+00  -1.4350122e+07
   5.4018006e-10  -1.4555694e-03   5.2231495e+00   4.6638219e+00  -1.4257241e+07
   5.4084695e-10  -1.4460922e-03   5.2216762e+00   4.6659461e+00  -1.4164953e+07
   5.4151384e-10  -1.4366764e-03   5.2202118e+00   4.6680566e+00  -1.4073255e+07
   5.4218073e-10  -1.4273215e-03   5.2187565e+00   4.6701535e+00  -1.3982143e+07
   5.4284762e-10  -1.4180272e-03   5.2173100e+00   4.6722370e+00  -1.3891613e+07
   5.4351450e-10  -1.4087930e-03   5.2158724e+00   4.6743072e+00  -1.3801662e+07
   5.4418139e-10  -1.3996187e-03   5.2144435e+00   4.6763640e+00  -1.3712287e+07
   5.4484828e-10  -1.3905037e-03   5.2130235e+00   4.6784076e+00  -1.3623483e+07
   5.4551517e-10  -1.3814479e-03   5.2116121e+00   4.6804380e+00  -1.3535248e+07
   5.4618206e-10  -1.3724506e-03   5.2102094e+00   4.6824554e+00  -1.3447577e+07
   5.4684895e-10  -1.3635116e-03   5.2088153e+00   4.6844599e+00  -1.3360467e+07
   5.4751584e-10  -1.3546306e-03   5.2074298e+00   4.6864514e+00  -1.3273914e+07
   5.4818273e-10  -1.3458071e-03   5.2060528e+00   4.6884301e+00  -1.3187916e+07
   5.4884962e-10  -1.3370407e-03   5.2046842e+00   4.6903961e+00  -1.3102469e+07
   5.4951651e-10  -1.3283312e-03   5.2033241e+00   4.6923495e+00  -1.3017569e+07
   5.5018339e-10  -1.3196780e-03   5.2019723e+00   4.6942903e+00  -1.2933212e+07
   5.5085028e-10  -1.3110810e-03   5.2006289e+00   4.6962186e+00  -1.2849396e+07
   5.5151717e-10  -1.3025397e-03   5.1992937e+00   4.6981344e+00  -1.2766117e+07
   5.5218406e-10  -1.2940537e-03   5.1979668e+00   4.7000380e+00  -1.2683372e+07
   5.5285095e-10  -1.2856228e-03   5.1966480e+00   4.7019293e+00  -1.2601157e+07
   5.5351784e-10  -1.2772465e-03   5.1953374e+00   4.7038084e+00  -1.2519469e+07
   5.5418473e-10  -1.2689245e-03   5.1940348e+00   4.7056754e+00  -1.2438305e+07
   5.5485162e-10  -1.2606564e-03   5.1927403e+00   4.7075303e+00  -1.2357662e+07
   5.5551851e-10  -1.2524420e-03   5.1914538e+00   4.7093733e+00  -1.2277536e+07
   5.5618540e-10  -1.2442808e-03   5.1901752e+00   4.7112045e+00  -1.2197923e+07
   5.5685228e-10  -1.2361725e-03   5.1889046e+00   4.7130238e+00  -1.2118822e+07
   5.5751917e-10  -1.2281169e-03   5.1876418e+00   4.7148314e+00  -1.2040228e+07
   5.5818606e-10  -1.2201134e-03   5.1863868e+00   4.7166273e+00  -1.1962138e+07
   5.5885295e-10  -1.2121619e-03   5.1851396e+00   4.7184117e+00  -1.1884550e+07
   5.5951984e-10  -1.2042620e-03   5.1839001e+00   4.7201845e+00  -1.1807460e+07
   5.6018673e-10  -1.1964133e-03   5.1826683e+00   4.7219459e+00  -1.1730865e+07
   5.6085362e-10  -1.1886155e-03   5.1814441e+00   4.7236960e+00  -1.1654762e+07
   5.6152051e-10  -1.1808683e-03   5.1802275e+00   4.7254348e+00  -1.1579147e+07
   5.6218740e-10  -1.1731714e-03   5.1790185e+00   4.7271623e+00  -1.1504018e+07
   5.6285428e-10  -1.1655244e-03   5.1778170e+00   4.7288787e+00  -1.1429372e+07
   5.6352117e-10  -1.1579270e-03   5.1766229e+00   4.7305840e+00  -1.1355206e+07
   5.6418806e-10  -1.1503790e-03   5.1754362e+00   4.7322783e+00  -1.1281516e+07
   5.6485495e-10  -1.1428799e-03   5.1742569e+00   4.7339616e+00  -1.1208299e+07
   5.6552184e-10  -1.1354295e-03   5.1730850e+00   4.7356341e+00  -1.1135554e+07
   5.6618873e-10  -1.1280274e-03   5.1719203e+00   4.7372958e+00  -1.1063276e+07
   5.6685562e-10  -1.1206734e-03   5.1707629e+00   4.7389467e+00  -1.0991463e+07
   5.6752251e-10  -1.1133671e-03   5.1696127e+00   4.7405870e+00  -1.0920111e+07
   5.6818940e-10  -1.1061083e-03   5.1684696e+00   4.7422166e+00  -1.0849219e+07
   5.6885629e-10  -1.0988966e-03   5.1673336e+00   4.7438358e+00  -1.0778782e+07
   5.6952317e-10  -1.0917317e-03   5.1662048e+00   4.7454445e+00  -1.0708799e+07
   5.7019006e-10  -1.0846133e-03   5.1650830e+00   4.7470427e+00  -1.0639266e+07
   5.7085695e-10  -1.0775412e-03   5.1639681e+00   4.7486307e+00  -1.0570180e+07
   5.7152384e-10  -1.0705150e-03   5.1628602e+00   4.7502084e+00  -1.0501539e+07
   5.7219073e-10  -1.0635344e-03   5.1617593e+00   4.7517758e+00  -1.0433340e+07
   5.7285762e-10  -1.0565991e-03   5.1606652e+00   4.7533332e+00  -1.0365580e+07
   5.7352451e-10  -1.0497089e-03   5.1595779e+00   4.7548804e+00  -1.0298256e+07
   5.7419140e-10  -1.0428634e-03   5.1584974e+00   4.7564177e+00  -1.0231366e+07
   5.7485829e-10  -1.0360624e-03   5.1574237e+00   4.7579450e+00  -1.0164907e+07
   5.7552518e-10  -1.0293056e-03   5.1563567e+00   4.7594624e+00  -1.0098875e+07
   5.7619206e-10  -1.0225927e-03   5.1552964e+00   4.7609700e+00  -1.0033269e+07
   5.7685895e-10  -1.0159234e-03   5.1542427e+00   4.7624679e+00  -9.9680854e+06
   5.7752584e-10  -1.0092974e-03   5.1531956e+00   4.7639560e+00  -9.9033219e+06
   5.7819273e-10  -1.0027144e-03   5.1521550e+00   4.7654345e+00  -9.8389757e+06
   5.7885962e-10  -9.9617427e-04   5.1511210e+00   4.7669035e+00  -9.7750441e+06
   5.7952651e-10  -9.8967660e-04   5.1500934e+00   4.7683629e+00  -9.7115247e+06
   5.8019340e-10  -9.8322116e-04   5.1490723e+00   4.7698129e+00  -9.6484147e+06
   5.8086029e-10  -9.7680767e-04   5.1480575e+00   4.7712535e+00  -9.5857116e+06
   5.8152718e-10  -9.7043586e-04   5.1470492e+00   4.7726848e+00  -9.5234127e+06
   5.8219406e-10  -9.6410546e-04   5.1460471e+00   4.7741067e+00  -9.4615156e+06
   5.8286095e-10  -9.5781621e-04   5.1450514e+00   4.7755195e+00  -9.4000176e+06
   5.8352784e-10  -9.5156784e-04   5.1440619e+00   4.7769231e+00  -9.3389163e+06
   5.8419473e-10  -9.4536008e-04   5.1430786e+00   4.7783177e+00  -9.2782091e+06
   5.8486162e-10  -9.3919268e-04   5.1421015e+00   4.7797032e+00  -9.2178936e+06
   5.8552851e-10  -9.3306537e-04   5.1411305e+00   4.7810797e+00  -9.1579672e+06
   5.8619540e-10  -9.2697790e-04   5.1401656e+00   4.7824473e+00  -9.0984275e+06
   5.8686229e-10  -9.2093001e-04   5.1392068e+00   4.7838060e+00  -9.0392720e+06
   5.8752918e-10  -9.1492143e-04   5.1382540e+00   4.7851559e+00  -8.9804983e+06
   5.8819607e-10  -9.0895193e-04   5.1373072e+00   4.7864971e+00  -8.9221039e+06
   5.8886295e-10  -9.0302124e-04   5.1363664e+00   4.7878296e+00  -8.8640865e+06
   5.8952984e-10  -8.9712912e-04   5.1354315e+00   4.7891534e+00  -8.8064437e+06
   5.9019673e-10  -8.9127532e-04   5.1345025e+00   4.7904687e+00  -8.7491731e+06
   5.9086362e-10  -8.8545959e-04   5.1335793e+00   4.7917754e+00  -8.6922722e+06
   5.9153051e-10  -8.7968168e-04   5.1326619e+00   4.7930736e+00  -8.6357388e+06
   5.9219740e-10  -8.7394135e-04   5.1317503e+00   4.7943634e+00  -8.5795706e+06
   5.9286429e-10  -8.6823836e-04   5.1308445e+00   4.7956449e+00  -8.5237651e+06
   5.9353118e-10  -8.6257246e-04   5.1299444e+00   4.7969180e+00  -8.4683202e+06
   5.9419807e-10  -8.5694342e-04   5.1290499e+00   4.7981829e+00  -8.4132334e+06
   5.9486495e-10  -8.5135099e-04   5.1281611e+00   4.7994396e+00  -8.3585026e+06
   5.9553184e-10  -8.4579495e-04   5.1272779e+00   4.8006881e+00  -8.3041254e+06
   5.9619873e-10  -8.4027506e-04   5.1264003e+00   4.8019285e+00  -8.2500997e+06
   5.9686562e-10  -8.3479107e-04   5.1255282e+00   4.8031609e+00  -8.1964231e+06
   5.9753251e-10  -8.2934277e-04   5.1246616e+00   4.8043852e+00  -8.1430934e+06
   5.9819940e-10  -8.2392992e-04   5.1238005e+00   4.8056016e+00  -8.0901085e+06
   5.9886629e-10  -8.1855229e-04   5.1229449e+00   4.8068101e+00  -8.0374661e+06
   5.9953318e-10  -8.1320965e-04   5.1220946e+00   4.8080108e+00  -7.9851640e+06
   6.0020007e-10  -8.0790178e-04   5.1212497e+00   4.8092037e+00  -7.9332002e+06
   6.0086696e-10  -8.0262845e-04   5.1204102e+00   4.8103888e+00  -7.8815724e+06
   6.0153384e-10  -7.9738944e-04   5.1195759e+00   4.8115662e+00  -7.8302784e+06
   6.0220073e-10  -7.9218452e-04   5.1187470e+00   4.8127360e+00  -7.7793162e+06
   6.0286762e-10  -7.8701348e-04   5.1179233e+00   4.8138982e+00  -7.7286837e+06
   6.0353451e-10  -7.8187610e-04   5.1171048e+00   4.8150528e+00  -7.6783786e+06
   6.0420140e-10  -7.7677216e-04   5.1162915e+00   4.8162000e+00  -7.6283991e+06
   6.0486829e-10  -7.7170144e-04   5.1154833e+00   4.8173397e+00  -7.5787428e+06
   6.0553518e-10  -7.6666373e-04   5.1146803e+00   4.8184719e+00  -7.5294079e+06
   6.0620207e-10  -7.6165881e-04   5.1138823e+00   4.8195969e+00  -7.4803923e+06
   6.0686896e-10  -7.5668647e-04   5.1130894e+00   4.8207145e+00  -7.4316938e+06
   6.0753585e-10  -7.5174651e-04   5.1123015e+00   4.8218248e+00  -7.3833105e+06
   6.0820273e-10  -7.4683871e-04   5.1115186e+00   4.8229280e+00  -7.3352404e+06
   6.0886962e-10  -7.4196286e-04   5.1107407e+00   4.8240239e+00  -7.2874815e+06
   6.0953651e-10  -7.3711876e-04   5.1099677e+00   4.8251128e+00  -7.2400317e+06
   6.1020340e-10  -7.3230620e-04   5.1091997e+00   4.8261945e+00  -7.1928891e+06
   6.1087029e-10  -7.2752497e-04   5.1084365e+00   4.8272693e+00  -7.1460518e+06
   6.1153718e-10  -7.2277488e-04   5.1076781e+00   4.8283370e+00  -7.0995178e+06
   6.1220407e-10  -7.1805573e-04   5.1069246e+00   4.8293978e+00  -7.0532851e+06
   6.1287096e-10  -7.1336730e-04   5.1061758e+00   4.8304517e+00  -7.0073518e+06
   6.1353785e-10  -7.0870941e-04   5.1054318e+00   4.8314988e+00  -6.9617160e+06
   6.1420473e-10  -7.0408185e-04   5.1046925e+00   4.8325390e+00  -6.9163758e+06
   6.1487162e-10  -6.9948443e-04   5.1039579e+00   4.8335725e+00  -6.8713293e+06
   6.1553851e-10  -6.9491696e-04   5.1032280e+00   4.8345992e+00  -6.8265747e+06
   6.1620540e-10  -6.9037923e-04   5.1025028e+00   4.8356193e+00  -6.7821100e+06
   6.1687229e-10  -6.8587107e-04   5.1017821e+00   4.8366328e+00  -6.7379333e+06
   6.1753918e-10  -6.8139226e-04   5.1010660e+00   4.8376396e+00  -6.6940430e+06
   6.1820607e-10  -6.7694264e-04   5.1003545e+00   4.8386399e+00  -6.6504370e+06
   6.1887296e-10  -6.7252200e-04   5.0996475e+00   4.8396337e+00  -6.6071137e+06
   6.1953985e-10  -6.6813015e-04   5.0989450e+00   4.8406210e+00  -6.5640711e+06
   6.2020674e-10  -6.6376692e-04   5.0982470e+00   4.8416020e+00  -6.5213076e+06
   6.2087362e-10  -6.5943211e-04   5.0975534e+00   4.8425765e+00  -6.4788212e+06
   6.2154051e-10  -6.5512555e-04   5.0968642e+00   4.8435447e+00  -6.4366102e+06
   6.2220740e-10  -6.5084704e-04   5.0961795e+00   4.8445065e+00  -6.3946729e+06
   6.2287429e-10  -6.4659642e-04   5.0954991e+00   4.8454622e+00  -6.3530075e+06
   6.2354118e-10  -6.4237348e-04   5.0948230e+00   4.8464116e+00  -6.3116122e+06
   6.2420807e-10  -6.3817807e-04   5.0941512e+00   4.8473548e+00  -6.2704854e+06
   6.2487496e-10  -6.3400999e-04   5.0934837e+00   4.8482919e+00  -6.2296252e+06
   6.2554185e-10  -6.2986907e-04   5.0928205e+00   4.8492229e+00  -6.1890301e+06
   6.2620874e-10  -6.2575514e-04   5.0921615e+00   4.8501478e+00  -6.1486982e+06
   6.2687563e-10  -6.2166802e-04   5.0915067e+00   4.8510667e+00  -6.1086279e+06
   6.2754251e-10  -6.1760753e-04   5.0908561e+00   4.8519796e+00  -6.0688175e+06
   6.2820940e-10  -6.1357350e-04   5.0902096e+00   4.8528866e+00  -6.0292654e+06
   6.2887629e-10  -6.0956577e-04   5.0895672e+00   4.8537877e+00  -5.9899699e+06
   6.2954318e-10  -6.0558416e-04   5.0889290e+00   4.8546829e+00  -5.9509293e+06
   6.3021007e-10  -6.0162850e-04   5.0882948e+00   4.8555723e+00  -5.9121420e+06
   6.3087696e-10  -5.9769862e-04   5.0876647e+00   4.8564559e+00  -5.8736064e+06
   6.3154385e-10  -5.9379435e-04   5.0870386e+00   4.8573337e+00  -5.8353208e+06
   6.3221074e-10  -5.8991554e-04   5.0864165e+00   4.8582058e+00  -5.7972837e+06
   6.3287763e-10  -5.8606201e-04   5.0857984e+00   4.8590723e+00  -5.7594934e+06
   6.3354451e-10  -5.8223360e-04   5.0851842e+00   4.8599331e+00  -5.7219484e+06
   6.3421140e-10  -5.7843015e-04   5.0845739e+00   4.8607883e+00  -5.6846471e+06
   6.3487829e-10  -5.7465149e-04   5.0839676e+00   4.8616379e+00  -5.6475879e+06
   6.3554518e-10  -5.7089747e-04   5.0833651e+00   4.8624820e+00  -5.6107693e+06
   6.3621207e-10  -5.6716792e-04   5.0827665e+00   4.8633206e+00  -5.5741897e+06
   6.3687896e-10  -5.6346268e-04   5.0821717e+00   4.8641537e+00  -5.5378475e+06
   6.3754585e-10  -5.5978160e-04   5.0815807e+00   4.8649814e+00  -5.5017414e+06
   6.3821274e-10  -5.5612453e-04   5.0809934e+00   4.8658037e+00  -5.4658696e+06
   6.3887963e-10  -5.5249130e-04   5.0804100e+00   4.8666207e+00  -5.4302308e+06
   6.3954652e-10  -5.4888175e-04   5.0798303e+00   4.8674323e+00  -5.3948234e+06
   6.4021340e-10  -5.4529575e-04   5.0792542e+00   4.8682386e+00  -5.3596459e+06
   6.4088029e-10  -5.4173313e-04   5.0786819e+00   4.8690397e+00  -5.3246969e+06
   6.4154718e-10  -5.3819374e-04   5.0781133e+00   4.8698356e+00  -5.2899749e+06
   6.4221407e-10  -5.3467742e-04   5.0775482e+00   4.8706263e+00  -5.2554784e+06
   6.4288096e-10  -5.3118404e-04   5.0769868e+00   4.8714118e+00  -5.2212059e+06
   6.4354785e-10  -5.2771345e-04   5.0764290e+00   4.8721922e+00  -5.1871561e+06
   6.4421474e-10  -5.2426548e-04   5.0758748e+00   4.8729675e+00  -5.1533275e+06
   6.4488163e-10  -5.2084000e-04   5.0753241e+00   4.8737378e+00  -5.1197187e+06
   6.4554852e-10  -5.1743686e-04   5.0747769e+00   4.8745030e+00  -5.0863282e+06
   6.4621541e-10  -5.1405592e-04   5.0742333e+00   4.8752633e+00  -5.0531546e+06
   6.4688229e-10  -5.1069703e-04   5.0736931e+00   4.8760186e+00  -5.0201966e+06
   6.4754918e-10  -5.0736005e-04   5.0731564e+00   4.8767690e+00  -4.9874527e+06
   6.4821607e-10  -5.0404483e-04   5.0726232e+00   4.8775145e+00  -4.9549216e+06
   6.4888296e-10  -5.0075124e-04   5.0720933e+00   4.8782551e+00  -4.9226020e+06
   6.4954985e-10  -4.9747912e-04   5.0715669e+00   4.8789909e+00  -4.8904923e+06
   6.5021674e-10  -4.9422836e-04   5.0710438e+00   4.8797219e+00  -4.8585914e+06
   6.5088363e-10  -4.9099880e-04   5.0705241e+00   4.8804482e+00  -4.8268978e+06
   6.5155052e-10  -4.8779030e-04   5.0700077e+00   4.8811697e+00  -4.7954102e+06
   6.5221741e-10  -4.8460274e-04   5.0694947e+00   4.8818865e+00  -4.7641272e+06
   6.5288429e-10  -4.8143597e-04   5.0689849e+00   4.8825986e+00  -4.7330477e+06
   6.5355118e-10  -4.7828986e-04   5.0684784e+00   4.8833061e+00  -4.7021701e+06
   6.5421807e-10  -4.7516427e-04   5.0679751e+00   4.8840090e+00  -4.6714933e+06
   6.5488496e-10  -4.7205908e-04   5.0674751e+00   4.8847072e+00  -4.6410160e+06
   6.5555185e-10  -4.6897415e-04   5.0669783e+00   4.8854010e+00  -4.6107368e+06
   6.5621874e-10  -4.6590934e-04   5.0664847e+00   4.8860902e+00  -4.5806545e+06
   6.5688563e-10  -4.6286453e-04   5.0659943e+00   4.8867749e+00  -4.5507678e+06
   6.5755252e-10  -4.5983958e-04   5.0655070e+00   4.8874552e+00  -4.5210754e+06
   6.5821941e-10  -4.5683437e-04   5.0650228e+00   4.8881310e+00  -4.4915761e+06
   6.5888630e-10  -4.5384877e-04   5.0645417e+00   4.8888024e+00  -4.4622687e+06
   6.5955318e-10  -4.5088265e-04   5.0640638e+00   4.8894694e+00  -4.4331518e+06
   6.6022007e-10  -4.4793589e-04   5.0635889e+00   4.8901321e+00  -4.4042244e+06
   6.6088696e-10  -4.4500836e-04   5.0631171e+00   4.8907904e+00  -4.3754850e+06
   6.6155385e-10  -4.4209992e-04   5.0626483e+00   4.8914445e+00  -4.3469326e+06
   6.6222074e-10  -4.3921047e-04   5.0621825e+00   4.8920943e+00  -4.3185660e+06
   6.6288763e-10  -4.3633988e-04   5.0617197e+00   4.8927398e+00  -4.2903838e+06
   6.6355452e-10  -4.3348801e-04   5.0612599e+00   4.8933812e+00  -4.2623850e+06
   6.6422141e-10  -4.3065476e-04   5.0608030e+00   4.8940183e+00  -4.2345684e+06
   6.6488830e-10  -4.2784000e-04   5.0603491e+00   4.8946514e+00  -4.2069327e+06
   6.6555519e-10  -4.2504361e-04   5.0598981e+00   4.8952802e+00  -4.1794768e+06
   6.6622207e-10  -4.2226546e-04   5.0594500e+00   4.8959050e+00  -4.1521996e+06
   6.6688896e-10  -4.1950545e-04   5.0590048e+00   4.8965257e+00  -4.1250998e+06
   6.6755585e-10  -4.1676346e-04   5.0585624e+00   4.8971423e+00  -4.0981764e+06
   6.6822274e-10  -4.1403936e-04   5.0581229e+00   4.8977550e+00  -4.0714281e+06
   6.6888963e-10  -4.1133304e-04   5.0576863e+00   4.8983636e+00  -4.0448540e+06
   6.6955652e-10  -4.0864438e-04   5.0572524e+00   4.8989682e+00  -4.0184527e+06
   6.7022341e-10  -4.0597328e-04   5.0568213e+00   4.8995689e+00  -3.9922233e+06
   6.7089030e-10  -4.0331961e-04   5.0563930e+00   4.9001657e+00  -3.9661646e+06
   6.7155719e-10  -4.0068326e-04   5.0559675e+00   4.9007586e+00  -3.9402755e+06
   6.7222407e-10  -3.9806412e-04   5.0555447e+00   4.9013476e+00  -3.9145549e+06
   6.7289096e-10  -3.9546207e-04   5.0551247e+00   4.9019328e+00  -3.8890018e+06
   6.7355785e-10  -3.9287701e-04   5.0547073e+00   4.9025142e+00  -3.8636149e+06
   6.7422474e-10  -3.9030883e-04   5.0542926e+00   4.9030918e+00  -3.8383933e+06
   6.7489163e-10  -3.8775741e-04   5.0538806e+00   4.9036656e+00  -3.8133359e+06
   6.7555852e-10  -3.8522265e-04   5.0534713e+00   4.9042356e+00  -3.7884417e+06
   6.7622541e-10  -3.8270444e-04   5.0530646e+00   4.9048019e+00  -3.7637095e+06
   6.7689230e-10  -3.8020266e-04   5.0526605e+00   4.9053646e+00  -3.7391383e+06
   6.7755919e-10  -3.7771722e-04   5.0522590e+00   4.9059235e+00  -3.7147271e+06
   6.7822608e-10  -3.7524801e-04   5.0518601e+00   4.9064789e+00  -3.6904748e+06
   6.7889296e-10  -3.7279491e-04   5.0514638e+00   4.9070305e+00  -3.6663804e+06
   6.7955985e-10  -3.7035783e-04   5.0510700e+00   4.9075786e+00  -3.6424430e+06
   6.8022674e-10  -3.6793667e-04   5.0506788e+00   4.9081231e+00  -3.6186614e+06
   6.8089363e-10  -3.6553131e-04   5.0502901e+00   4.9086641e+00  -3.5950347e+06
   6.8156052e-10  -3.6314166e-04   5.0499039e+00   4.9092015e+00  -3.5715618e+06
   6.8222741e-10  -3.6076760e-04   5.0495202e+00   4.9097354e+00  -3.5482418e+06
   6.8289430e-10  -3.5840906e-04   5.0491390e+00   4.9102659e+00  -3.5250737e+06
   6.8356119e-10  -3.5606591e-04   5.0487603e+00   4.9107929e+00  -3.5020565e+06
   6.8422808e-10  -3.5373806e-04   5.0483839e+00   4.9113164e+00  -3.4791891e+06
   6.8489496e-10  -3.5142541e-04   5.0480100e+00   4.9118365e+00  -3.4564708e+06
   6.8556185e-10  -3.4912786e-04   5.0476386e+00   4.9123532e+00  -3.4339004e+06
   6.8622874e-10  -3.4684531e-04   5.0472695e+00   4.9128665e+00  -3.4114770e+06
   6.8689563e-10  -3.4457767e-04   5.0469028e+00   4.9133765e+00  -3.3891997e+06
   6.8756252e-10  -3.4232484e-04   5.0465385e+00   4.9138832e+00  -3.3670675e+06
   6.8822941e-10  -3.4008672e-04   5.0461765e+00   4.9143865e+00  -3.3450795e+06
   6.8889630e-10  -3.3786322e-04   5.0458168e+00   4.9148866e+00  -3.3232347e+06
   6.8956319e-10  -3.3565423e-04   5.0454595e+00   4.9153834e+00  -3.3015322e+06
   6.9023008e-10  -3.3345967e-04   5.0451045e+00   4.9158770e+00  -3.2799712e+06
   6.9089697e-10  -3.3127945e-04   5.0447518e+00   4.9163673e+00  -3.2585506e+06
   6.9156385e-10  -3.2911346e-04   5.0444014e+00   4.9168544e+00  -3.2372696e+06
   6.9223074e-10  -3.2696162e-04   5.0440532e+00   4.9173384e+00  -3.2161272e+06
   6.9289763e-10  -3.2482383e-04   5.0437073e+00   4.9178192e+00  -3.1951226e+06
   6.9356452e-10  -3.2270000e-04   5.0433636e+00   4.9182968e+00  -3.1742549e+06
   6.9423141e-10  -3.2059005e-04   5.0430221e+00   4.9187714e+00  -3.1535231e+06
   6.9489830e-10  -3.1849387e-04   5.0426829e+00   4.9192428e+00  -3.1329265e+06
   6.9556519e-10  -3.1641139e-04   5.0423458e+00   4.9197111e+00  -3.1124641e+06
   6.9623208e-10  -3.1434251e-04   5.0420109e+00   4.9201764e+00  -3.0921350e+06
   6.9689897e-10  -3.1228714e-04   5.0416782e+00   4.9206387e+00  -3.0719384e+06
   6.9756586e-10  -3.1024520e-04   5.0413476e+00   4.9210979e+00  -3.0518734e+06
   6.9823274e-10  -3.0821659e-04   5.0410192e+00   4.9215542e+00  -3.0319392e+06
   6.9889963e-10  -3.0620123e-04   5.0406929e+00   4.9220074e+00  -3.0121350e+06
   6.9956652e-10  -3.0419904e-04   5.0403687e+00   4.9224577e+00  -2.9924598e+06
   7.0023341e-10  -3.0220993e-04   5.0400466e+00   4.9229051e+00  -2.9729129e+06
   7.0090030e-10  -3.0023381e-04   5.0397266e+00   4.9233495e+00  -2.9534933e+06
   7.0156719e-10  -2.9827060e-04   5.0394086e+00   4.9237910e+00  -2.9342004e+06
   7.0223408e-10  -2.9632021e-04   5.0390927e+00   4.9242297e+00  -2.9150332e+06
   7.0290097e-10  -2.9438256e-04   5.0387789e+00   4.9246655e+00  -2.8959910e+06
   7.0356786e-10  -2.9245757e-04   5.0384670e+00   4.9250984e+00  -2.8770729e+06
   7.0423474e-10  -2.9054516e-04   5.0381572e+00   4.9255285e+00  -2.8582781e+06
   7.0490163e-10  -2.8864524e-04   5.0378494e+00   4.9259558e+00  -2.8396059e+06
   7.0556852e-10  -2.8675773e-04   5.0375436e+00   4.9263803e+00  -2.8210554e+06
   7.0623541e-10  -2.8488255e-04   5.0372398e+00   4.9268020e+00  -2.8026258e+06
   7.0690230e-10  -2.8301962e-04   5.0369380e+00   4.9272210e+00  -2.7843164e+06
   7.0756919e-10  -2.8116886e-04   5.0366381e+00   4.9276373e+00  -2.7661264e+06
   7.0823608e-10  -2.7933020e-04   5.0363401e+00   4.9280508e+00  -2.7480550e+06
   7.0890297e-10  -2.7750354e-04   5.0360441e+00   4.9284616e+00  -2.7301014e+06
   7.0956986e-10  -2.7568882e-04   5.0357499e+00   4.9288697e+00  -2.7122649e+06
   7.1023675e-10  -2.7388596e-04   5.0354577e+00   4.9292752e+00  -2.6945447e+06
   7.1090363e-10  -2.7209487e-04   5.0351674e+00   4.9296780e+00  -2.6769400e+06
   7.1157052e-10  -2.7031549e-04   5.0348790e+00   4.9300782e+00  -2.6594502e+06
   7.1223741e-10  -2.6854773e-04   5.0345924e+00   4.9304758e+00  -2.6420744e+06
   7.1290430e-10  -2.6679152e-04   5.0343077e+00   4.9308708e+00  -2.6248119e+06
   7.1357119e-10  -2.6504679e-04   5.0340248e+00   4.9312632e+00  -2.6076620e+06
   7.1423808e-10  -2.6331345e-04   5.0337438e+00   4.9316530e+00  -2.5906239e+06
   7.1490497e-10  -2.6159145e-04   5.0334646e+00   4.9320403e+00  -2.5736970e+06
   7.1557186e-10  -2.5988069e-04   5.0331871e+00   4.9324250e+00  -2.5568805e+06
   7.1623875e-10  -2.5818111e-04   5.0329115e+00   4.9328073e+00  -2.5401736e+06
   7.1690564e-10  -2.5649264e-04   5.0326377e+00   4.9331870e+00  -2.5235757e+06
   7.1757252e-10  -2.5481520e-04   5.0323657e+00   4.9335643e+00  -2.5070861e+06
   7.1823941e-10  -2.5314872e-04   5.0320954e+00   4.9339391e+00  -2.4907040e+06
   7.1890630e-10  -2.5149313e-04   5.0318268e+00   4.9343114e+00  -2.4744288e+06
   7.1957319e-10  -2.4984836e-04   5.0315600e+00   4.9346814e+00  -2.4582598e+06
   7.2024008e-10  -2.4821433e-04   5.0312950e+00   4.9350488e+00  -2.4421962e+06
   7.2090697e-10  -2.4659098e-04   5.0310316e+00   4.9354139e+00  -2.4262374e+06
   7.2157386e-10  -2.4497825e-04   5.0307700e+00   4.9357767e+00  -2.4103827e+06
   7.2224075e-10  -2.4337605e-04   5.0305100e+00   4.9361370e+00  -2.3946315e+06
   7.2290764e-10  -2.4178432e-04   5.0302518e+00   4.9364950e+00  -2.3789830e+06
   7.2357452e-10  -2.4020299e-04   5.0299952e+00   4.9368506e+00  -2.3634366e+06
   7.2424141e-10  -2.3863199e-04   5.0297403e+00   4.9372039e+00  -2.3479916e+06
   7.2490830e-10  -2.3707127e-04   5.0294870e+00   4.9375550e+00  -2.3326474e+06
   7.2557519e-10  -2.3552074e-04   5.0292354e+00   4.9379037e+00  -2.3174033e+06
   7.2624208e-10  -2.3398034e-04   5.0289854e+00   4.9382501e+00  -2.3022587e+06
   7.2690897e-10  -2.3245002e-04   5.0287370e+00   4.9385943e+00  -2.2872128e+06
   7.2757586e-10  -2.3092969e-04   5.0284903e+00   4.9389362e+00  -2.2722652e+06
   7.2824275e-10  -2.2941930e-04   5.0282451e+00   4.9392759e+00  -2.2574151e+06
   7.2890964e-10  -2.2791878e-04   5.0280015e+00   4.9396134e+00  -2.2426618e+06
   7.2957653e-10  -2.2642806e-04   5.0277595e+00   4.9399486e+00  -2.2280049e+06
   7.3024341e-10  -2.2494709e-04   5.0275191e+00   4.9402817e+00  -2.2134436e+06
   7.3091030e-10  -2.2347580e-04   5.0272803e+00   4.9406126e+00  -2.1989773e+06
   7.3157719e-10  -2.2201412e-04   5.0270429e+00   4.9409414e+00  -2.1846054e+06
   7.3224408e-10  -2.2056200e-04   5.0268072e+00   4.9412679e+00  -2.1703273e+06
   7.3291097e-10  -2.1911937e-04   5.0265729e+00   4.9415924e+00  -2.1561423e+06
   7.3357786e-10  -2.1768616e-04   5.0263402e+00   4.9419147e+00  -2.1420500e+06
   7.3424475e-10  -2.1626233e-04   5.0261090e+00   4.9422349e+00  -2.1280496e+06
   7.3491164e-10  -2.1484780e-04   5.0258793e+00   4.9425531e+00  -2.1141406e+06
   7.3557853e-10  -2.1344251e-04   5.0256511e+00   4.9428691e+00  -2.1003223e+06
   7.3624542e-10  -2.1204641e-04   5.0254243e+00   4.9431831e+00  -2.0865943e+06
   7.3691230e-10  -2.1065944e-04   5.0251991e+00   4.9434951e+00  -2.0729558e+06
   7.3757919e-10  -2.0928153e-04   5.0249753e+00   4.9438049e+00  -2.0594064e+06
   7.3824608e-10  -2.0791263e-04   5.0247529e+00   4.9441128e+00  -2.0459454e+06
   7.3891297e-10  -2.0655268e-04   5.0245320e+00   4.9444187e+00  -2.0325722e+06
   7.3957986e-10  -2.0520161e-04   5.0243126e+00   4.9447225e+00  -2.0192864e+06
   7.4024675e-10  -2.0385938e-04   5.0240945e+00   4.9450244e+00  -2.0060872e+06
   7.4091364e-10  -2.0252592e-04   5.0238779e+00   4.9453243e+00  -1.9929742e+06
   7.4158053e-10  -2.0120117e-04   5.0236627e+00   4.9456222e+00  -1.9799469e+06
   7.4224742e-10  -1.9988509e-04   5.0234488e+00   4.9459182e+00  -1.9670045e+06
   7.4291430e-10  -1.9857761e-04   5.0232364e+00   4.9462123e+00  -1.9541466e+06
   7.4358119e-10  -1.9727867e-04   5.0230254e+00   4.9465044e+00  -1.9413727e+06
   7.4424808e-10  -1.9598823e-04   5.0228157e+00   4.9467946e+00  -1.9286822e+06
   7.4491497e-10  -1.9470622e-04   5.0226073e+00   4.9470830e+00  -1.9160745e+06
   7.4558186e-10  -1.9343259e-04   5.0224004e+00   4.9473694e+00  -1.9035491e+06
   7.4624875e-10  -1.9216729e-04   5.0221948e+00   4.9476540e+00  -1.8911055e+06
   7.4691564e-10  -1.9091026e-04   5.0219905e+00   4.9479367e+00  -1.8787431e+06
   7.4758253e-10  -1.8966145e-04   5.0217875e+00   4.9482175e+00  -1.8664614e+06
   7.4824942e-10  -1.8842080e-04   5.0215859e+00   4.9484966e+00  -1.8542600e+06
   7.4891631e-10  -1.8718826e-04   5.0213855e+00   4.9487738e+00  -1.8421381e+06
   7.4958319e-10  -1.8596378e-04   5.0211865e+00   4.9490491e+00  -1.8300955e+06
   7.5025008e-10  -1.8474730e-04   5.0209888e+00   4.9493227e+00  -1.8181314e+06
   7.5091697e-10  -1.8353877e-04   5.0207923e+00   4.9495945e+00  -1.8062455e+06
   7.5158386e-10  -1.8233815e-04   5.0205971e+00   4.9498645e+00  -1.7944371e+06
   7.5225075e-10  -1.8114538e-04   5.0204032e+00   4.9501328e+00  -1.7827059e+06
   7.5291764e-10  -1.7996040e-04   5.0202106e+00   4.9503993e+00  -1.7710513e+06
   7.5358453e-10  -1.7878317e-04   5.0200192e+00   4.9506641e+00  -1.7594727e+06
   7.5425142e-10  -1.7761364e-04   5.0198290e+00   4.9509271e+00  -1.7479698e+06
   7.5491831e-10  -1.7645175e-04   5.0196401e+00   4.9511884e+00  -1.7365420e+06
   7.5558520e-10  -1.7529746e-04   5.0194524e+00   4.9514480e+00  -1.7251888e+06
   7.5625208e-10  -1.7415072e-04   5.0192660e+00   4.9517059e+00  -1.7139098e+06
   7.5691897e-10  -1.7301147e-04   5.0190807e+00   4.9519621e+00  -1.7027043e+06
   7.5758586e-10  -1.7187967e-04   5.0188967e+00   4.9522167e+00  -1.6915721e+06
   7.5825275e-10  -1.7075527e-04   5.0187138e+00   4.9524695e+00  -1.6805126e+06
   7.5891964e-10  -1.6963822e-04   5.0185322e+00   4.9527208e+00  -1.6695253e+06
   7.5958653e-10  -1.6852848e-04   5.0183517e+00   4.9529703e+00  -1.6586097e+06
   7.6025342e-10  -1.6742599e-04   5.0181724e+00   4.9532183e+00  -1.6477655e+06
   7.6092031e-10  -1.6633071e-04   5.0179942e+00   4.9534646e+00  -1.6369920e+06
   7.6158720e-10  -1.6524259e-04   5.0178172e+00   4.9537093e+00  -1.6262889e+06
   7.6225408e-10  -1.6416159e-04   5.0176414e+00   4.9539524e+00  -1.6156557e+06
   7.6292097e-10  -1.6308765e-04   5.0174667e+00   4.9541940e+00  -1.6050920e+06
   7.6358786e-10  -1.6202073e-04   5.0172932e+00   4.9544339e+00  -1.5945973e+06
   7.6425475e-10  -1.6096080e-04   5.0171208e+00   4.9546723e+00  -1.5841711e+06
   7.6492164e-10  -1.5990779e-04   5.0169495e+00   4.9549091e+00  -1.5738130e+06
   7.6558853e-10  -1.5886166e-04   5.0167793e+00   4.9551444e+00  -1.5635225e+06
   7.6625542e-10  -1.5782238e-04   5.0166102e+00   4.9553781e+00  -1.5532993e+06
   7.6692231e-10  -1.5678989e-04   5.0164422e+00   4.9556103e+00  -1.5431428e+06
   7.6758920e-10  -1.5576416e-04   5.0162753e+00   4.9558410e+00  -1.5330527e+06
   7.6825609e-10  -1.5474513e-04   5.0161095e+00   4.9560702e+00  -1.5230284e+06
   7.6892297e-10  -1.5373276e-04   5.0159448e+00   4.9562979e+00  -1.5130697e+06
   7.6958986e-10  -1.5272701e-04   5.0157812e+00   4.9565241e+00  -1.5031760e+06
   7.7025675e-10  -1.5172784e-04   5.0156186e+00   4.9567488e+00  -1.4933469e+06
   7.7092364e-10  -1.5073520e-04   5.0154570e+00   4.9569720e+00  -1.4835821e+06
   7.7159053e-10  -1.4974906e-04   5.0152966e+00   4.9571938e+00  -1.4738810e+06
   7.7225742e-10  -1.4876936e-04   5.0151371e+00   4.9574141e+00  -1.4642433e+06
   7.7292431e-10  -1.4779607e-04   5.0149787e+00   4.9576330e+00  -1.4546686e+06
   7.7359120e-10  -1.4682914e-04   5.0148214e+00   4.9578505e+00  -1.4451564e+06
   7.7425809e-10  -1.4586854e-04   5.0146650e+00   4.9580665e+00  -1.4357063e+06
   7.7492497e-10  -1.4491422e-04   5.0145097e+00   4.9582811e+00  -1.4263180e+06
   7.7559186e-10  -1.4396613e-04   5.0143554e+00   4.9584944e+00  -1.4169910e+06
   7.7625875e-10  -1.4302425e-04   5.0142021e+00   4.9587062e+00  -1.4077249e+06
   7.7692564e-10  -1.4208853e-04   5.0140498e+00   4.9589166e+00  -1.3985194e+06
   7.7759253e-10  -1.4115892e-04   5.0138985e+00   4.9591257e+00  -1.3893740e+06
   7.7825942e-10  -1.4023540e-04   5.0137481e+00   4.9593334e+00  -1.3802884e+06
   7.7892631e-10  -1.3931791e-04   5.0135988e+00   4.9595397e+00  -1.3712621e+06
   7.7959320e-10  -1.3840643e-04   5.0134504e+00   4.9597447e+00  -1.3622948e+06
   7.8026009e-10  -1.3750090e-04   5.0133030e+00   4.9599484e+00  -1.3533861e+06
   7.8092698e-10  -1.3660130e-04   5.0131565e+00   4.9601507e+00  -1.3445355e+06
   7.8159386e-10  -1.3570757e-04   5.0130110e+00   4.9603517e+00  -1.3357428e+06
   7.8226075e-10  -1.3481970e-04   5.0128665e+00   4.9605514e+00  -1.3270076e+06
   7.8292764e-10  -1.3393763e-04   5.0127229e+00   4.9607497e+00  -1.3183294e+06
   7.8359453e-10  -1.3306133e-04   5.0125802e+00   4.9609468e+00  -1.3097080e+06
   7.8426142e-10  -1.3219076e-04   5.0124385e+00   4.9611426e+00  -1.3011428e+06
   7.8492831e-10  -1.3132588e-04   5.0122976e+00   4.9613371e+00  -1.2926336e+06
   7.8559520e-10  -1.3046666e-04   5.0121577e+00   4.9615303e+00  -1.2841801e+06
   7.8626209e-10  -1.2961306e-04   5.0120187e+00   4.9617223e+00  -1.2757817e+06
   7.8692898e-10  -1.2876504e-04   5.0118806e+00   4.9619130e+00  -1.2674383e+06
   7.8759587e-10  -1.2792256e-04   5.0117434e+00   4.9621025e+00  -1.2591493e+06
   7.8826275e-10  -1.2708560e-04   5.0116072e+00   4.9622907e+00  -1.2509145e+06
   7.8892964e-10  -1.2625411e-04   5.0114717e+00   4.9624777e+00  -1.2427336e+06
   7.8959653e-10  -1.2542806e-04   5.0113372e+00   4.9626635e+00  -1.2346060e+06
   7.9026342e-10  -1.2460741e-04   5.0112036e+00   4.9628480e+00  -1.2265316e+06
   7.9093031e-10  -1.2379212e-04   5.0110708e+00   4.9630314e+00  -1.2185100e+06
   7.9159720e-10  -1.2298217e-04   5.0109389e+00   4.9632135e+00  -1.2105408e+06
   7.9226409e-10  -1.2217752e-04   5.0108078e+00   4.9633945e+00  -1.2026236e+06
   7.9293098e-10  -1.2137813e-04   5.0106776e+00   4.9635743e+00  -1.1947582e+06
   7.9359787e-10  -1.2058397e-04   5.0105483e+00   4.9637529e+00  -1.1869442e+06
   7.9426475e-10  -1.1979500e-04   5.0104197e+00   4.9639303e+00  -1.1791812e+06
   7.9493164e-10  -1.1901119e-04   5.0102921e+00   4.9641066e+00  -1.1714690e+06
   7.9559853e-10  -1.1823251e-04   5.0101652e+00   4.9642817e+00  -1.1638072e+06
   7.9626542e-10  -1.1745892e-04   5.0100392e+00   4.9644557e+00  -1.1561955e+06
   7.9693231e-10  -1.1669039e-04   5.0099140e+00   4.9646285e+00  -1.1486335e+06
   7.9759920e-10  -1.1592688e-04   5.0097896e+00   4.9648002e+00  -1.1411209e+06
   7.9826609e-10  -1.1516838e-04   5.0096661e+00   4.9649708e+00  -1.1336574e+06
   7.9893298e-10  -1.1441483e-04   5.0095433e+00   4.9651403e+00  -1.1262427e+06
   7.9959987e-10  -1.1366621e-04   5.0094213e+00   4.9653086e+00  -1.1188764e+06
   8.0026676e-10  -1.1292248e-04   5.0093002e+00   4.9654759e+00  -1.1115583e+06
   8.0093364e-10  -1.1218362e-04   5.0091798e+00   4.9656421e+00  -1.1042881e+06
   8.0160053e-10  -1.1144960e-04   5.0090602e+00   4.9658071e+00  -1.0970653e+06
   8.0226742e-10  -1.1072037e-04   5.0089414e+00   4.9659711e+00  -1.0898898e+06
   8.0293431e-10  -1.0999592e-04   5.0088234e+00   4.9661341e+00  -1.0827611e+06
   8.0360120e-10  -1.0927620e-04   5.0087061e+00   4.9662959e+00  -1.0756790e+06
   8.0426809e-10  -1.0856119e-04   5.0085896e+00   4.9664567e+00  -1.0686433e+06
   8.0493498e-10  -1.0785086e-04   5.0084738e+00   4.9666165e+00  -1.0616535e+06
   8.0560187e-10  -1.0714517e-04   5.0083588e+00   4.9667752e+00  -1.0547094e+06
   8.0626876e-10  -1.0644410e-04   5.0082446e+00   4.9669328e+00  -1.0478107e+06
   8.0693565e-10  -1.0574761e-04   5.0081311e+00   4.9670895e+00  -1.0409570e+06
   8.0760253e-10  -1.0505568e-04   5.0080183e+00   4.9672451e+00  -1.0341482e+06
   8.0826942e-10  -1.0436828e-04   5.0079063e+00   4.9673997e+00  -1.0273839e+06
   8.0893631e-10  -1.0368537e-04   5.0077950e+00   4.9675532e+00  -1.0206638e+06
   8.0960320e-10  -1.0300693e-04   5.0076845e+00   4.9677058e+00  -1.0139876e+06
   8.1027009e-10  -1.0233293e-04   5.0075746e+00   4.9678574e+00  -1.0073551e+06
   8.1093698e-10  -1.0166333e-04   5.0074655e+00   4.9680080e+00  -1.0007659e+06
   8.1160387e-10  -1.0099812e-04   5.0073571e+00   4.9681576e+00  -9.9421975e+05
   8.1227076e-10  -1.0033725e-04   5.0072494e+00   4.9683062e+00  -9.8771642e+05
   8.1293765e-10  -9.9680714e-05   5.0071423e+00   4.9684539e+00  -9.8125561e+05
   8.1360453e-10  -9.9028468e-05   5.0070360e+00   4.9686005e+00  -9.7483702e+05
   8.1427142e-10  -9.8380488e-05   5.0069304e+00   4.9687463e+00  -9.6846040e+05
   8.1493831e-10  -9.7736747e-05   5.0068255e+00   4.9688910e+00  -9.6212545e+05
   8.1560520e-10  -9.7097217e-05   5.0067212e+00   4.9690349e+00  -9.5583192e+05
   8.1627209e-10  -9.6461871e-05   5.0066177e+00   4.9691777e+00  -9.4957953e+05
   8.1693898e-10  -9.5830680e-05   5.0065148e+00   4.9693197e+00  -9.4336802e+05
   8.1760587e-10  -9.5203618e-05   5.0064126e+00   4.9694607e+00  -9.3719710e+05
   8.1827276e-10  -9.4580658e-05   5.0063110e+00   4.9696008e+00  -9.3106653e+05
   8.1893965e-10  -9.3961773e-05   5.0062101e+00   4.9697400e+00  -9.2497604e+05
   8.1960654e-10  -9.3346937e-05   5.0061099e+00   4.9698782e+00  -9.1892536e+05
   8.2027342e-10  -9.2736122e-05   5.0060103e+00   4.9700156e+00  -9.1291424e+05
   8.2094031e-10  -9.2129303e-05   5.0059114e+00   4.9701521e+00  -9.0694241e+05
   8.2160720e-10  -9.1526454e-05   5.0058131e+00   4.9702877e+00  -9.0100963e+05
   8.2227409e-10  -9.0927548e-05   5.0057155e+00   4.9704223e+00  -8.9511563e+05
   8.2294098e-10  -9.0332560e-05   5.0056185e+00   4.9705561e+00  -8.8926016e+05
   8.2360787e-10  -8.9741464e-05   5.0055221e+00   4.9706891e+00  -8.8344298e+05
   8.2427476e-10  -8.9154234e-05   5.0054263e+00   4.9708211e+00  -8.7766382e+05
   8.2494165e-10  -8.8570847e-05   5.0053312e+00   4.9709523e+00  -8.7192245e+05
   8.2560854e-10  -8.7991275e-05   5.0052367e+00   4.9710827e+00  -8.6621861e+05
   8.2627543e-10  -8.7415495e-05   5.0051428e+00   4.9712122e+00  -8.6055207e+05
   8.2694231e-10  -8.6843482e-05   5.0050496e+00   4.9713408e+00  -8.5492257e+05
   8.2760920e-10  -8.6275210e-05   5.0049569e+00   4.9714686e+00  -8.4932988e+05
   8.2827609e-10  -8.5710656e-05   5.0048649e+00   4.9715956e+00  -8.4377375e+05
   8.2894298e-10  -8.5149795e-05   5.0047734e+00   4.9717217e+00  -8.3825395e+05
   8.2960987e-10  -8.4592603e-05   5.0046825e+00   4.9718470e+00  -8.3277024e+05
   8.3027676e-10  -8.4039057e-05   5.0045923e+00   4.9719715e+00  -8.2732238e+05
   8.3094365e-10  -8.3489131e-05   5.0045026e+00   4.9720951e+00  -8.2191014e+05
   8.3161054e-10  -8.2942803e-05   5.0044135e+00   4.9722180e+00  -8.1653329e+05
   8.3227743e-10  -8.2400049e-05   5.0043250e+00   4.9723401e+00  -8.1119159e+05
   8.3294431e-10  -8.1860846e-05   5.0042371e+00   4.9724613e+00  -8.0588482e+05
   8.3361120e-10  -8.1325170e-05   5.0041497e+00   4.9725818e+00  -8.0061274e+05
   8.3427809e-10  -8.0792999e-05   5.0040629e+00   4.9727015e+00  -7.9537514e+05
   8.3494498e-10  -8.0264309e-05   5.0039767e+00   4.9728204e+00  -7.9017178e+05
   8.3561187e-10  -7.9739077e-05   5.0038910e+00   4.9729385e+00  -7.8500245e+05
   8.3627876e-10  -7.9217282e-05   5.0038059e+00   4.9730558e+00  -7.7986691e+05
   8.3694565e-10  -7.8698901e-05   5.0037214e+00   4.9731724e+00  -7.7476496e+05
   8.3761254e-10  -7.8183910e-05   5.0036374e+00   4.9732882e+00  -7.6969636e+05
   8.3827943e-10  -7.7672289e-05   5.0035539e+00   4.9734033e+00  -7.6466091e+05
   8.3894632e-10  -7.7164015e-05   5.0034710e+00   4.9735176e+00  -7.5965838e+05
   8.3961320e-10  -7.6659066e-05   5.0033887e+00   4.9736311e+00  -7.5468857e+05
   8.4028009e-10  -7.6157421e-05   5.0033069e+00   4.9737440e+00  -7.4975125e+05
   8.4094698e-10  -7.5659058e-05   5.0032256e+00   4.9738560e+00  -7.4484621e+05
   8.4161387e-10  -7.5163955e-05   5.0031448e+00   4.9739674e+00  -7.3997325e+05
   8.4228076e-10  -7.4672091e-05   5.0030646e+00   4.9740780e+00  -7.3513215e+05
   8.4294765e-10  -7.4183444e-05   5.0029849e+00   4.9741879e+00  -7.3032271e+05
   8.4361454e-10  -7.3697995e-05   5.0029057e+00   4.9742970e+00  -7.2554472e+05
   8.4428143e-10  -7.3215722e-05   5.0028270e+00   4.9744055e+00  -7.2079797e+05
   8.4494832e-10  -7.2736604e-05   5.0027489e+00   4.9745132e+00  -7.1608226e+05
   8.4561521e-10  -7.2260620e-05   5.0026712e+00   4.9746203e+00  -7.1139739e+05
   8.4628209e-10  -7.1787751e-05   5.0025941e+00   4.9747266e+00  -7.0674315e+05
   8.4694898e-10  -7.1317975e-05   5.0025174e+00   4.9748323e+00  -7.0211935e+05
   8.4761587e-10  -7.0851273e-05   5.0024413e+00   4.9749372e+00  -6.9752578e+05
   8.4828276e-10  -7.0387624e-05   5.0023657e+00   4.9750415e+00  -6.9296226e+05
   8.4894965e-10  -6.9927009e-05   5.0022905e+00   4.9751451e+00  -6.8842857e+05
   8.4961654e-10  -6.9469407e-05   5.0022159e+00   4.9752480e+00  -6.8392454e+05
   8.5028343e-10  -6.9014799e-05   5.0021417e+00   4.9753502e+00  -6.7944996e+05
   8.5095032e-10  -6.8563165e-05   5.0020680e+00   4.9754518e+00  -6.7500464e+05
   8.5161721e-10  -6.8114486e-05   5.0019948e+00   4.9755527e+00  -6.7058839e+05
   8.5228409e-10  -6.7668742e-05   5.0019221e+00   4.9756529e+00  -6.6620102e+05
   8.5295098e-10  -6.7225915e-05   5.0018498e+00   4.9757525e+00  -6.6184234e+05
   8.5361787e-10  -6.6785985e-05   5.0017781e+00   4.9758514e+00  -6.5751217e+05
   8.5428476e-10  -6.6348934e-05   5.0017067e+00   4.9759497e+00  -6.5321032e+05
   8.5495165e-10  -6.5914742e-05   5.0016359e+00   4.9760474e+00  -6.4893659e+05
   8.5561854e-10  -6.5483390e-05   5.0015655e+00   4.9761444e+00  -6.4469082e+05
   8.5628543e-10  -6.5054861e-05   5.0014956e+00   4.9762407e+00  -6.4047282e+05
   8.5695232e-10  -6.4629136e-05   5.0014261e+00   4.9763365e+00  -6.3628240e+05
   8.5761921e-10  -6.4206196e-05   5.0013571e+00   4.9764316e+00  -6.3211938e+05
   8.5828610e-10  -6.3786023e-05   5.0012886e+00   4.9765261e+00  -6.2798359e+05
   8.5895298e-10  -6.3368599e-05   5.0012204e+00   4.9766200e+00  -6.2387485e+05
   8.5961987e-10  -6.2953906e-05   5.0011528e+00   4.9767132e+00  -6.1979298e+05
   8.6028676e-10  -6.2541927e-05   5.0010856e+00   4.9768059e+00  -6.1573780e+05
   8.6095365e-10  -6.2132643e-05   5.0010188e+00   4.9768979e+00  -6.1170915e+05
   8.6162054e-10  -6.1726037e-05   5.0009524e+00   4.9769893e+00  -6.0770684e+05
   8.6228743e-10  -6.1322091e-05   5.0008865e+00   4.9770802e+00  -6.0373071e+05
   8.6295432e-10  -6.0920788e-05   5.0008210e+00   4.9771704e+00  -5.9978059e+05
   8.6362121e-10  -6.0522111e-05   5.0007559e+00   4.9772601e+00  -5.9585630e+05
   8.6428810e-10  -6.0126043e-05   5.0006913e+00   4.9773491e+00  -5.9195767e+05
   8.6495498e-10  -5.9732565e-05   5.0006271e+00   4.9774376e+00  -5.8808455e+05
   8.6562187e-10  -5.9341663e-05   5.0005633e+00   4.9775255e+00  -5.8423675e+05
   8.6628876e-10  -5.8953318e-05   5.0004999e+00   4.9776129e+00  -5.8041412e+05
   8.6695565e-10  -5.8567514e-05   5.0004370e+00   4.9776996e+00  -5.7661649e+05
   8.6762254e-10  -5.8184234e-05   5.0003744e+00   4.9777858e+00  -5.7284370e+05
   8.6828943e-10  -5.7803462e-05   5.0003123e+00   4.9778715e+00  -5.6909559e+05
   8.6895632e-10  -5.7425181e-05   5.0002505e+00   4.9779565e+00  -5.6537199e+05
   8.6962321e-10  -5.7049376e-05   5.0001892e+00   4.9780410e+00  -5.6167275e+05
   8.7029010e-10  -5.6676029e-05   5.0001283e+00   4.9781250e+00  -5.5799770e+05
   8.7095699e-10  -5.6305125e-05   5.0000677e+00   4.9782084e+00  -5.5434668e+05
   8.7162387e-10  -5.5936649e-05   5.0000076e+00   4.9782913e+00  -5.5071955e+05
   8.7229076e-10  -5.5570583e-05   4.9999478e+00   4.9783736e+00  -5.4711614e+05
   8.7295765e-10  -5.5206912e-05   4.9998885e+00   4.9784554e+00  -5.4353630e+05
   8.7362454e-10  -5.4845621e-05   4.9998295e+00   4.9785366e+00  -5.3997988e+05
   8.7429143e-10  -5.4486693e-05   4.9997709e+00   4.9786173e+00  -5.3644671e+05
   8.7495832e-10  -5.4130115e-05   4.9997127e+00   4.9786975e+00  -5.3293666e+05
   8.7562521e-10  -5.3775869e-05   4.9996549e+00   4.9787772e+00  -5.2944956e+05
   8.7629210e-10  -5.3423942e-05   4.9995975e+00   4.9788563e+00  -5.2598528e+05
   8.7695899e-10  -5.3074317e-05   4.9995404e+00   4.9789350e+00  -5.2254365e+05
   8.7762588e-10  -5.2726979e-05   4.9994837e+00   4.9790131e+00  -5.1912453e+05
   8.7829276e-10  -5.2381915e-05   4.9994274e+00   4.9790907e+00  -5.1572778e+05
   8.7895965e-10  -5.2039108e-05   4.9993714e+00   4.9791678e+00  -5.1235325e+05
   8.7962654e-10  -5.1698544e-05   4.9993158e+00   4.9792443e+00  -5.0900079e+05
   8.8029343e-10  -5.1360209e-05   4.9992606e+00   4.9793204e+00  -5.0567025e+05
   8.8096032e-10  -5.1024088e-05   4.9992057e+00   4.9793960e+00  -5.0236151e+05
   8.8162721e-10  -5.0690166e-05   4.9991512e+00   4.9794711e+00  -4.9907440e+05
   8.8229410e-10  -5.0358429e-05   4.9990971e+00   4.9795457e+00  -4.9580880e+05
   8.8296099e-10  -5.0028862e-05   4.9990433e+00   4.9796198e+00  -4.9256456e+05
   8.8362788e-10  -4.9701452e-05   4.9989898e+00   4.9796934e+00  -4.8934153e+05
   8.8429476e-10  -4.9376184e-05   4.9989367e+00   4.9797666e+00  -4.8613960e+05
   8.8496165e-10  -4.9053045e-05   4.9988840e+00   4.9798393e+00  -4.8295860e+05
   8.8562854e-10  -4.8732020e-05   4.9988316e+00   4.9799114e+00  -4.7979842e+05
   8.8629543e-10  -4.8413096e-05   4.9987795e+00   4.9799832e+00  -4.7665890e+05
   8.8696232e-10  -4.8096259e-05   4.9987278e+00   4.9800544e+00  -4.7353992e+05
   8.8762921e-10  -4.7781494e-05   4.9986764e+00   4.9801252e+00  -4.7044135e+05
   8.8829610e-10  -4.7468790e-05   4.9986253e+00   4.9801955e+00  -4.6736304e+05
   8.8896299e-10  -4.7158131e-05   4.9985746e+00   4.9802654e+00  -4.6430487e+05
   8.8962988e-10  -4.6849506e-05   4.9985242e+00   4.9803348e+00  -4.6126670e+05
   8.9029677e-10  -4.6542900e-05   4.9984742e+00   4.9804037e+00  -4.5824841e+05
   8.9096365e-10  -4.6238300e-05   4.9984244e+00   4.9804722e+00  -4.5524987e+05
   8.9163054e-10  -4.5935693e-05   4.9983750e+00   4.9805403e+00  -4.5227093e+05
   8.9229743e-10  -4.5635066e-05   4.9983260e+00   4.9806079e+00  -4.4931149e+05
   8.9296432e-10  -4.5336407e-05   4.9982772e+00   4.9806751e+00  -4.4637140e+05
   8.9363121e-10  -4.5039702e-05   4.9982288e+00   4.9807418e+00  -4.4345055e+05
   8.9429810e-10  -4.4744938e-05   4.9981806e+00   4.9808081e+00  -4.4054880e+05
   8.9496499e-10  -4.4452103e-05   4.9981328e+00   4.9808739e+00  -4.3766604e+05
   8.9563188e-10  -4.4161185e-05   4.9980853e+00   4.9809393e+00  -4.3480213e+05
   8.9629877e-10  -4.3872170e-05   4.9980381e+00   4.9810043e+00  -4.3195696e+05
   8.9696566e-10  -4.3585046e-05   4.9979912e+00   4.9810689e+00  -4.2913040e+05
   8.9763254e-10  -4.3299801e-05   4.9979447e+00   4.9811330e+00  -4.2632233e+05
   8.9829943e-10  -4.3016423e-05   4.9978984e+00   4.9811968e+00  -4.2353263e+05
   8.9896632e-10  -4.2734898e-05   4.9978524e+00   4.9812601e+00  -4.2076118e+05
   8.9963321e-10  -4.2455217e-05   4.9978068e+00   4.9813230e+00  -4.1800786e+05
   9.0030010e-10  -4.2177365e-05   4.9977614e+00   4.9813855e+00  -4.1527256e+05
   9.0096699e-10  -4.1901331e-05   4.9977163e+00   4.9814475e+00  -4.1255514e+05
   9.0163388e-10  -4.1627104e-05   4.9976716e+00   4.9815092e+00  -4.0985551e+05
   9.0230077e-10  -4.1354671e-05   4.9976271e+00   4.9815705e+00  -4.0717353e+05
   9.0296766e-10  -4.1084021e-05   4.9975829e+00   4.9816313e+00  -4.0450910e+05
   9.0363454e-10  -4.0815142e-05   4.9975390e+00   4.9816918e+00  -4.0186210e+05
   9.0430143e-10  -4.0548022e-05   4.9974953e+00   4.9817519e+00  -3.9923242e+05
   9.0496832e-10  -4.0282651e-05   4.9974520e+00   4.9818115e+00  -3.9661994e+05
   9.0563521e-10  -4.0019016e-05   4.9974090e+00   4.9818708e+00  -3.9402455e+05
   9.0630210e-10  -3.9757106e-05   4.9973662e+00   4.9819297e+00  -3.9144614e+05
   9.0696899e-10  -3.9496910e-05   4.9973237e+00   4.9819882e+00  -3.8888460e+05
   9.0763588e-10  -3.9238416e-05   4.9972815e+00   4.9820464e+00  -3.8633982e+05
   9.0830277e-10  -3.8981614e-05   4.9972396e+00   4.9821041e+00  -3.8381168e+05
   9.0896966e-10  -3.8726493e-05   4.9971979e+00   4.9821615e+00  -3.8130009e+05
   9.0963655e-10  -3.8473041e-05   4.9971565e+00   4.9822185e+00  -3.7880492e+05
   9.1030343e-10  -3.8221248e-05   4.9971154e+00   4.9822751e+00  -3.7632608e+05
   9.1097032e-10  -3.7971102e-05   4.9970745e+00   4.9823313e+00  -3.7386346e+05
   9.1163721e-10  -3.7722593e-05   4.9970340e+00   4.9823872e+00  -3.7141694e+05
   9.1230410e-10  -3.7475711e-05   4.9969936e+00   4.9824427e+00  -3.6898644e+05
   9.1297099e-10  -3.7230444e-05   4.9969536e+00   4.9824979e+00  -3.6657183e+05
   9.1363788e-10  -3.6986782e-05   4.9969138e+00   4.9825527e+00  -3.6417302e+05
   9.1430477e-10  -3.6744714e-05   4.9968743e+00   4.9826071e+00  -3.6178991e+05
   9.1497166e-10  -3.6504231e-05   4.9968350e+00   4.9826612e+00  -3.5942238e+05
   9.1563855e-10  -3.6265321e-05   4.9967960e+00   4.9827149e+00  -3.5707035e+05
   9.1630544e-10  -3.6027975e-05   4.9967572e+00   4.9827683e+00  -3.5473370e+05
   9.1697232e-10  -3.5792182e-05   4.9967187e+00   4.9828213e+00  -3.5241234e+05
   9.1763921e-10  -3.5557932e-05   4.9966804e+00   4.9828740e+00  -3.5010617e+05
   9.1830610e-10  -3.5325215e-05   4.9966424e+00   4.9829263e+00  -3.4781509e+05
   9.1897299e-10  -3.5094020e-05   4.9966047e+00   4.9829783e+00  -3.4553899e+05
   9.1963988e-10  -3.4864339e-05   4.9965672e+00   4.9830300e+00  -3.4327779e+05
   9.2030677e-10  -3.4636161e-05   4.9965299e+00   4.9830813e+00  -3.4103138e+05
   9.2097366e-10  -3.4409476e-05   4.9964929e+00   4.9831323e+00  -3.3879966e+05
   9.2164055e-10  -3.4184274e-05   4.9964561e+00   4.9831829e+00  -3.3658255e+05
   9.2230744e-10  -3.3960546e-05   4.9964196e+00   4.9832332e+00  -3.3437995e+05
   9.2297432e-10  -3.3738282e-05   4.9963833e+00   4.9832832e+00  -3.3219175e+05
   9.2364121e-10  -3.3517473e-05   4.9963472e+00   4.9833329e+00  -3.3001787e+05
   9.2430810e-10  -3.3298109e-05   4.9963114e+00   4.9833822e+00  -3.2785821e+05
   9.2497499e-10  -3.3080180e-05   4.9962758e+00   4.9834312e+00  -3.2571269e+05
   9.2564188e-10  -3.2863677e-05   4.9962404e+00   4.9834799e+00  -3.2358120e+05
   9.2630877e-10  -3.2648591e-05   4.9962053e+00   4.9835283e+00  -3.2146366e+05
   9.2697566e-10  -3.2434913e-05   4.9961704e+00   4.9835763e+00  -3.1935997e+05
   9.2764255e-10  -3.2222633e-05   4.9961357e+00   4.9836240e+00  -3.1727004e+05
   9.2830944e-10  -3.2011742e-05   4.9961013e+00   4.9836715e+00  -3.1519379e+05
   9.2897633e-10  -3.1802231e-05   4.9960670e+00   4.9837186e+00  -3.1313112e+05
   9.2964321e-10  -3.1594092e-05   4.9960330e+00   4.9837654e+00  -3.1108195e+05
   9.3031010e-10  -3.1387314e-05   4.9959993e+00   4.9838119e+00  -3.0904619e+05
   9.3097699e-10  -3.1181890e-05   4.9959657e+00   4.9838581e+00  -3.0702374e+05
   9.3164388e-10  -3.0977810e-05   4.9959324e+00   4.9839040e+00  -3.0501453e+05
   9.3231077e-10  -3.0775065e-05   4.9958993e+00   4.9839496e+00  -3.0301847e+05
   9.3297766e-10  -3.0573647e-05   4.9958664e+00   4.9839949e+00  -3.0103546e+05
   9.3364455e-10  -3.0373548e-05   4.9958337e+00   4.9840399e+00  -2.9906543e+05
   9.3431144e-10  -3.0174758e-05   4.9958012e+00   4.9840846e+00  -2.9710829e+05
   9.3497833e-10  -2.9977268e-05   4.9957689e+00   4.9841290e+00  -2.9516395e+05
   9.3564522e-10  -2.9781072e-05   4.9957369e+00   4.9841731e+00  -2.9323233e+05
   9.3631210e-10  -2.9586159e-05   4.9957051e+00   4.9842169e+00  -2.9131336e+05
   9.3697899e-10  -2.9392522e-05   4.9956734e+00   4.9842605e+00  -2.8940694e+05
   9.3764588e-10  -2.9200151e-05   4.9956420e+00   4.9843037e+00  -2.8751299e+05
   9.3831277e-10  -2.9009040e-05   4.9956108e+00   4.9843467e+00  -2.8563144e+05
   9.3897966e-10  -2.8819180e-05   4.9955798e+00   4.9843894e+00  -2.8376219e+05
   9.3964655e-10  -2.8630562e-05   4.9955490e+00   4.9844318e+00  -2.8190518e+05
   9.4031344e-10  -2.8443178e-05   4.9955184e+00   4.9844739e+00  -2.8006031e+05
   9.4098033e-10  -2.8257021e-05   4.9954879e+00   4.9845158e+00  -2.7822752e+05
   9.4164722e-10  -2.8072082e-05   4.9954577e+00   4.9845574e+00  -2.7640672e+05
   9.4231410e-10  -2.7888353e-05   4.9954277e+00   4.9845987e+00  -2.7459784e+05
   9.4298099e-10  -2.7705827e-05   4.9953979e+00   4.9846398e+00  -2.7280079e+05
   9.4364788e-10  -2.7524495e-05   4.9953683e+00   4.9846805e+00  -2.7101549e+05
   9.4431477e-10  -2.7344350e-05   4.9953388e+00   4.9847210e+00  -2.6924188e+05
   9.4498166e-10  -2.7165383e-05   4.9953096e+00   4.9847613e+00  -2.6747988e+05
   9.4564855e-10  -2.6987588e-05   4.9952806e+00   4.9848013e+00  -2.6572940e+05
   9.4631544e-10  -2.6810957e-05   4.9952517e+00   4.9848410e+00  -2.6399038e+05
   9.4698233e-10  -2.6635481e-05   4.9952230e+00   4.9848805e+00  -2.6226273e+05
   9.4764922e-10  -2.6461154e-05   4.9951946e+00   4.9849197e+00  -2.6054639e+05
   9.4831611e-10  -2.6287968e-05   4.9951663e+00   4.9849586e+00  -2.5884128e+05
   9.4898299e-10  -2.6115915e-05   4.9951382e+00   4.9849973e+00  -2.5714733e+05
   9.4964988e-10  -2.5944988e-05   4.9951102e+00   4.9850357e+00  -2.5546446e+05
   9.5031677e-10  -2.5775179e-05   4.9950825e+00   4.9850739e+00  -2.5379260e+05
   9.5098366e-10  -2.5606482e-05   4.9950549e+00   4.9851118e+00  -2.5213169e+05
   9.5165055e-10  -2.5438889e-05   4.9950276e+00   4.9851495e+00  -2.5048164e+05
   9.5231744e-10  -2.5272393e-05   4.9950004e+00   4.9851870e+00  -2.4884238e+05
   9.5298433e-10  -2.5106986e-05   4.9949733e+00   4.9852242e+00  -2.4721386e+05
   9.5365122e-10  -2.4942662e-05   4.9949465e+00   4.9852611e+00  -2.4559598e+05
   9.5431811e-10  -2.4779414e-05   4.9949198e+00   4.9852978e+00  -2.4398870e+05
   9.5498499e-10  -2.4617233e-05   4.9948933e+00   4.9853343e+00  -2.4239193e+05
   9.5565188e-10  -2.4456114e-05   4.9948670e+00   4.9853705e+00  -2.4080561e+05
   9.5631877e-10  -2.4296050e-05   4.9948409e+00   4.9854065e+00  -2.3922967e+05
   9.5698566e-10  -2.4137033e-05   4.9948149e+00   4.9854423e+00  -2.3766404e+05
   9.5765255e-10  -2.3979056e-05   4.9947891e+00   4.9854778e+00  -2.3610866e+05
   9.5831944e-10  -2.3822114e-05   4.9947634e+00   4.9855131e+00  -2.3456346e+05
   9.5898633e-10  -2.3666199e-05   4.9947380e+00   4.9855482e+00  -2.3302836e+05
   9.5965322e-10  -2.3511304e-05   4.9947126e+00   4.9855830e+00  -2.3150331e+05
   9.6032011e-10  -2.3357422e-05   4.9946875e+00   4.9856176e+00  -2.2998824e+05
   9.6098700e-10  -2.3204548e-05   4.9946625e+00   4.9856520e+00  -2.2848308e+05
   9.6165388e-10  -2.3052674e-05   4.9946377e+00   4.9856861e+00  -2.2698778e+05
   9.6232077e-10  -2.2901795e-05   4.9946131e+00   4.9857201e+00  -2.2550225e+05
   9.6298766e-10  -2.2751902e-05   4.9945886e+00   4.9857538e+00  -2.2402645e+05
   9.6365455e-10  -2.2602991e-05   4.9945642e+00   4.9857873e+00  -2.2256031e+05
   9.6432144e-10  -2.2455054e-05   4.9945401e+00   4.9858205e+00  -2.2110375e+05
   9.6498833e-10  -2.2308086e-05   4.9945161e+00   4.9858536e+00  -2.1965673e+05
   9.6565522e-10  -2.2162079e-05   4.9944922e+00   4.9858864e+00  -2.1821918e+05
   9.6632211e-10  -2.2017028e-05   4.9944685e+00   4.9859190e+00  -2.1679104e+05
   9.6698900e-10  -2.1872926e-05   4.9944450e+00   4.9859514e+00  -2.1537224e+05
   9.6765589e-10  -2.1729767e-05   4.9944216e+00   4.9859836e+00  -2.1396272e+05
   9.6832277e-10  -2.1587545e-05   4.9943983e+00   4.9860156e+00  -2.1256243e+05
   9.6898966e-10  -2.1446254e-05   4.9943753e+00   4.9860474e+00  -2.1117130e+05
   9.6965655e-10  -2.1305887e-05   4.9943523e+00   4.9860789e+00  -2.0978927e+05
   9.7032344e-10  -2.1166439e-05   4.9943295e+00   4.9861103e+00  -2.0841629e+05
   9.7099033e-10  -2.1027904e-05   4.9943069e+00   4.9861415e+00  -2.0705229e+05
   9.7165722e-10  -2.0890276e-05   4.9942844e+00   4.9861724e+00  -2.0569722e+05
   9.7232411e-10  -2.0753548e-05   4.9942621e+00   4.9862031e+00  -2.0435101e+05
   9.7299100e-10  -2.0617715e-05   4.9942399e+00   4.9862337e+00  -2.0301361e+05
   9.7365789e-10  -2.0482771e-05   4.9942178e+00   4.9862640e+00  -2.0168497e+05
   9.7432477e-10  -2.0348710e-05   4.9941959e+00   4.9862942e+00  -2.0036502e+05
   9.7499166e-10  -2.0215526e-05   4.9941742e+00   4.9863241e+00  -1.9905370e+05
