   0.0000000e+00  -1.1399094e-01   6.4079008e+00   9.0038569e-04  -5.2288471e+08
   6.6688896e-13  -1.1364254e-01   6.4080849e+00   9.2515616e-04  -5.2196474e+08
   1.3337779e-12  -1.1329476e-01   6.4082709e+00   9.5056300e-04  -5.2104479e+08
   2.0006669e-12  -1.1294759e-01   6.4084588e+00   9.7662122e-04  -5.2012487e+08
   2.6675559e-12  -1.1260103e-01   6.4086487e+00   1.0033462e-03  -5.1920497e+08
   3.3344448e-12  -1.1225509e-01   6.4088405e+00   1.0307536e-03  -5.1828510e+08
   4.0013338e-12  -1.1190976e-01   6.4090343e+00   1.0588594e-03  -5.1736526e+08
   4.6682227e-12  -1.1156504e-01   6.4092301e+00   1.0876801e-03  -5.1644544e+08
   5.3351117e-12  -1.1122094e-01   6.4094278e+00   1.1172322e-03  -5.1552565e+08
   6.0020007e-12  -1.1087745e-01   6.4096276e+00   1.1475327e-03  -5.1460588e+08
   6.6688896e-12  -1.1053457e-01   6.4098293e+00   1.1785992e-03  -5.1368614e+08
   7.3357786e-12  -1.1019231e-01   6.4100331e+00   1.2104494e-03  -5.1276643e+08
   8.0026676e-12  -1.0985066e-01   6.4102389e+00   1.2431013e-03  -5.1184674e+08
   8.6695565e-12  -1.0950962e-01   6.4104467e+00   1.2765734e-03  -5.1092708e+08
   9.3364455e-12  -1.0916920e-01   6.4106566e+00   1.3108847e-03  -5.1000745e+08
   1.0003334e-11  -1.0882939e-01   6.4108685e+00   1.3460544e-03  -5.0908785e+08
   1.0670223e-11  -1.0849019e-01   6.4110825e+00   1.3821022e-03  -5.0816827e+08
   1.1337112e-11  -1.0815161e-01   6.4112986e+00   1.4190480e-03  -5.0724872e+08
   1.2004001e-11  -1.0781364e-01   6.4115168e+00   1.4569124e-03  -5.0632920e+08
   1.2670890e-11  -1.0747628e-01   6.4117371e+00   1.4957163e-03  -5.0540970e+08
   1.3337779e-11  -1.0713954e-01   6.4119594e+00   1.5354809e-03  -5.0449024e+08
   1.4004668e-11  -1.0680341e-01   6.4121839e+00   1.5762280e-03  -5.0357080e+08
   1.4671557e-11  -1.0646789e-01   6.4124105e+00   1.6179797e-03  -5.0265139e+08
   1.5338446e-11  -1.0613299e-01   6.4126392e+00   1.6607586e-03  -5.0173201e+08
   1.6005335e-11  -1.0579870e-01   6.4128701e+00   1.7045879e-03  -5.0081266e+08
   1.6672224e-11  -1.0546502e-01   6.4131031e+00   1.7494909e-03  -4.9989334e+08
   1.7339113e-11  -1.0513196e-01   6.4133383e+00   1.7954918e-03  -4.9897404e+08
   1.8006002e-11  -1.0479951e-01   6.4135756e+00   1.8426149e-03  -4.9805478e+08
   1.8672891e-11  -1.0446767e-01   6.4138151e+00   1.8908851e-03  -4.9713554e+08
   1.9339780e-11  -1.0413644e-01   6.4140567e+00   1.9403280e-03  -4.9621634e+08
   2.0006669e-11  -1.0380583e-01   6.4143006e+00   1.9909694e-03  -4.9529716e+08
   2.0673558e-11  -1.0347583e-01   6.4145466e+00   2.0428358e-03  -4.9437802e+08
   2.1340447e-11  -1.0314645e-01   6.4147948e+00   2.0959541e-03  -4.9345890e+08
   2.2007336e-11  -1.0281767e-01   6.4150452e+00   2.1503517e-03  -4.9253982e+08
   2.2674225e-11  -1.0248951e-01   6.4152979e+00   2.2060566e-03  -4.9162076e+08
   2.3341114e-11  -1.0216197e-01   6.4155527e+00   2.2630974e-03  -4.9070174e+08
   2.4008003e-11  -1.0183503e-01   6.4158097e+00   2.3215032e-03  -4.8978275e+08
   2.4674892e-11  -1.0150871e-01   6.4160690e+00   2.3813036e-03  -4.8886379e+08
   2.5341781e-11  -1.0118300e-01   6.4163304e+00   2.4425287e-03  -4.8794486e+08
   2.6008670e-11  -1.0085791e-01   6.4165941e+00   2.5052093e-03  -4.8702596e+08
   2.6675559e-11  -1.0053342e-01   6.4168601e+00   2.5693768e-03  -4.8610709e+08
   2.7342447e-11  -1.0020955e-01   6.4171282e+00   2.6350632e-03  -4.8518826e+08
   2.8009336e-11  -9.9886296e-02   6.4173986e+00   2.7023009e-03  -4.8426946e+08
   2.8676225e-11  -9.9563652e-02   6.4176712e+00   2.7711230e-03  -4.8335069e+08
   2.9343114e-11  -9.9241620e-02   6.4179461e+00   2.8415635e-03  -4.8243195e+08
   3.0010003e-11  -9.8920201e-02   6.4182232e+00   2.9136565e-03  -4.8151325e+08
   3.0676892e-11  -9.8599395e-02   6.4185026e+00   2.9874373e-03  -4.8059458e+08
   3.1343781e-11  -9.8279202e-02   6.4187841e+00   3.0629414e-03  -4.7967594e+08
   3.2010670e-11  -9.7959621e-02   6.4190680e+00   3.1402051e-03  -4.7875734e+08
   3.2677559e-11  -9.7640653e-02   6.4193541e+00   3.2192655e-03  -4.7783877e+08
   3.3344448e-11  -9.7322298e-02   6.4196424e+00   3.3001602e-03  -4.7692024e+08
   3.4011337e-11  -9.7004555e-02   6.4199329e+00   3.3829275e-03  -4.7600174e+08
   3.4678226e-11  -9.6687424e-02   6.4202257e+00   3.4676066e-03  -4.7508327e+08
   3.5345115e-11  -9.6370907e-02   6.4205208e+00   3.5542370e-03  -4.7416484e+08
   3.6012004e-11  -9.6055002e-02   6.4208180e+00   3.6428594e-03  -4.7324645e+08
   3.6678893e-11  -9.5739709e-02   6.4211175e+00   3.7335149e-03  -4.7232809e+08
   3.7345782e-11  -9.5425029e-02   6.4214193e+00   3.8262453e-03  -4.7140976e+08
   3.8012671e-11  -9.5110961e-02   6.4217232e+00   3.9210933e-03  -4.7049147e+08
   3.8679560e-11  -9.4797506e-02   6.4220294e+00   4.0181025e-03  -4.6957322e+08
   3.9346449e-11  -9.4484663e-02   6.4223378e+00   4.1173168e-03  -4.6865501e+08
   4.0013338e-11  -9.4172432e-02   6.4226484e+00   4.2187814e-03  -4.6773683e+08
   4.0680227e-11  -9.3860814e-02   6.4229612e+00   4.3225418e-03  -4.6681869e+08
   4.1347116e-11  -9.3549808e-02   6.4232762e+00   4.4286447e-03  -4.6590059e+08
   4.2014005e-11  -9.3239415e-02   6.4235934e+00   4.5371375e-03  -4.6498252e+08
   4.2680894e-11  -9.2929634e-02   6.4239128e+00   4.6480681e-03  -4.6406449e+08
   4.3347783e-11  -9.2620465e-02   6.4242344e+00   4.7614857e-03  -4.6314650e+08
   4.4014672e-11  -9.2311908e-02   6.4245581e+00   4.8774401e-03  -4.6222855e+08
   4.4681561e-11  -9.2003964e-02   6.4248840e+00   4.9959819e-03  -4.6131064e+08
   4.5348449e-11  -9.1696632e-02   6.4252120e+00   5.1171627e-03  -4.6039277e+08
   4.6015338e-11  -9.1389912e-02   6.4255422e+00   5.2410348e-03  -4.5947494e+08
   4.6682227e-11  -9.1083804e-02   6.4258745e+00   5.3676517e-03  -4.5855715e+08
   4.7349116e-11  -9.0778308e-02   6.4262089e+00   5.4970673e-03  -4.5763940e+08
   4.8016005e-11  -9.0473424e-02   6.4265455e+00   5.6293370e-03  -4.5672169e+08
   4.8682894e-11  -9.0169153e-02   6.4268841e+00   5.7645166e-03  -4.5580402e+08
   4.9349783e-11  -8.9865493e-02   6.4272248e+00   5.9026631e-03  -4.5488639e+08
   5.0016672e-11  -8.9562445e-02   6.4275675e+00   6.0438343e-03  -4.5396880e+08
   5.0683561e-11  -8.9260010e-02   6.4279123e+00   6.1880891e-03  -4.5305126e+08
   5.1350450e-11  -8.8958186e-02   6.4282591e+00   6.3354873e-03  -4.5213376e+08
   5.2017339e-11  -8.8656974e-02   6.4286080e+00   6.4860897e-03  -4.5121630e+08
   5.2684228e-11  -8.8356375e-02   6.4289588e+00   6.6399579e-03  -4.5029889e+08
   5.3351117e-11  -8.8056387e-02   6.4293116e+00   6.7971547e-03  -4.4938152e+08
   5.4018006e-11  -8.7757010e-02   6.4296664e+00   6.9577439e-03  -4.4846420e+08
   5.4684895e-11  -8.7458246e-02   6.4300231e+00   7.1217903e-03  -4.4754692e+08
   5.5351784e-11  -8.7160093e-02   6.4303818e+00   7.2893596e-03  -4.4662968e+08
   5.6018673e-11  -8.6862553e-02   6.4307423e+00   7.4605186e-03  -4.4571249e+08
   5.6685562e-11  -8.6565624e-02   6.4311047e+00   7.6353353e-03  -4.4479535e+08
   5.7352451e-11  -8.6269306e-02   6.4314690e+00   7.8138787e-03  -4.4387825e+08
   5.8019340e-11  -8.5973600e-02   6.4318351e+00   7.9962188e-03  -4.4296120e+08
   5.8686229e-11  -8.5678506e-02   6.4322030e+00   8.1824266e-03  -4.4204420e+08
   5.9353118e-11  -8.5384024e-02   6.4325727e+00   8.3725745e-03  -4.4112725e+08
   6.0020007e-11  -8.5090153e-02   6.4329441e+00   8.5667358e-03  -4.4021035e+08
   6.0686896e-11  -8.4796893e-02   6.4333173e+00   8.7649849e-03  -4.3929349e+08
   6.1353785e-11  -8.4504245e-02   6.4336921e+00   8.9673975e-03  -4.3837668e+08
   6.2020674e-11  -8.4212209e-02   6.4340686e+00   9.1740503e-03  -4.3745993e+08
   6.2687563e-11  -8.3920784e-02   6.4344468e+00   9.3850212e-03  -4.3654323e+08
   6.3354451e-11  -8.3629970e-02   6.4348266e+00   9.6003893e-03  -4.3562657e+08
   6.4021340e-11  -8.3339768e-02   6.4352079e+00   9.8202348e-03  -4.3470997e+08
   6.4688229e-11  -8.3050177e-02   6.4355908e+00   1.0044639e-02  -4.3379342e+08
   6.5355118e-11  -8.2761197e-02   6.4359752e+00   1.0273685e-02  -4.3287693e+08
   6.6022007e-11  -8.2472829e-02   6.4363611e+00   1.0507457e-02  -4.3196049e+08
   6.6688896e-11  -8.2185072e-02   6.4367484e+00   1.0746039e-02  -4.3104410e+08
   6.7355785e-11  -8.1897926e-02   6.4371371e+00   1.0989518e-02  -4.3012777e+08
   6.8022674e-11  -8.1611391e-02   6.4375272e+00   1.1237982e-02  -4.2921149e+08
   6.8689563e-11  -8.1325467e-02   6.4379186e+00   1.1491518e-02  -4.2829527e+08
   6.9356452e-11  -8.1040155e-02   6.4383113e+00   1.1750219e-02  -4.2737911e+08
   7.0023341e-11  -8.0755453e-02   6.4387053e+00   1.2014174e-02  -4.2646300e+08
   7.0690230e-11  -8.0471362e-02   6.4391004e+00   1.2283477e-02  -4.2554696e+08
   7.1357119e-11  -8.0187883e-02   6.4394967e+00   1.2558222e-02  -4.2463097e+08
   7.2024008e-11  -7.9905014e-02   6.4398942e+00   1.2838504e-02  -4.2371504e+08
   7.2690897e-11  -7.9622756e-02   6.4402927e+00   1.3124420e-02  -4.2279917e+08
   7.3357786e-11  -7.9341109e-02   6.4406922e+00   1.3416067e-02  -4.2188337e+08
   7.4024675e-11  -7.9060073e-02   6.4410927e+00   1.3713546e-02  -4.2096762e+08
   7.4691564e-11  -7.8779648e-02   6.4414941e+00   1.4016956e-02  -4.2005194e+08
   7.5358453e-11  -7.8499833e-02   6.4418964e+00   1.4326400e-02  -4.1913632e+08
   7.6025342e-11  -7.8220629e-02   6.4422995e+00   1.4641982e-02  -4.1822077e+08
   7.6692231e-11  -7.7942035e-02   6.4427034e+00   1.4963806e-02  -4.1730528e+08
   7.7359120e-11  -7.7664053e-02   6.4431081e+00   1.5291979e-02  -4.1638986e+08
   7.8026009e-11  -7.7386680e-02   6.4435134e+00   1.5626607e-02  -4.1547451e+08
   7.8692898e-11  -7.7109919e-02   6.4439193e+00   1.5967802e-02  -4.1455922e+08
   7.9359787e-11  -7.6833767e-02   6.4443257e+00   1.6315672e-02  -4.1364400e+08
   8.0026676e-11  -7.6558227e-02   6.4447327e+00   1.6670331e-02  -4.1272886e+08
   8.0693565e-11  -7.6283296e-02   6.4451401e+00   1.7031890e-02  -4.1181378e+08
   8.1360453e-11  -7.6008976e-02   6.4455478e+00   1.7400466e-02  -4.1089877e+08
   8.2027342e-11  -7.5735266e-02   6.4459559e+00   1.7776175e-02  -4.0998384e+08
   8.2694231e-11  -7.5462166e-02   6.4463642e+00   1.8159135e-02  -4.0906898e+08
   8.3361120e-11  -7.5189677e-02   6.4467727e+00   1.8549464e-02  -4.0815419e+08
   8.4028009e-11  -7.4917797e-02   6.4471813e+00   1.8947284e-02  -4.0723948e+08
   8.4694898e-11  -7.4646528e-02   6.4475900e+00   1.9352718e-02  -4.0632485e+08
   8.5361787e-11  -7.4375869e-02   6.4479986e+00   1.9765888e-02  -4.0541030e+08
   8.6028676e-11  -7.4105819e-02   6.4484072e+00   2.0186921e-02  -4.0449582e+08
   8.6695565e-11  -7.3836380e-02   6.4488156e+00   2.0615943e-02  -4.0358142e+08
   8.7362454e-11  -7.3567550e-02   6.4492238e+00   2.1053083e-02  -4.0266711e+08
   8.8029343e-11  -7.3299330e-02   6.4496316e+00   2.1498471e-02  -4.0175287e+08
   8.8696232e-11  -7.3031720e-02   6.4500391e+00   2.1952238e-02  -4.0083872e+08
   8.9363121e-11  -7.2764720e-02   6.4504461e+00   2.2414517e-02  -3.9992466e+08
   9.0030010e-11  -7.2498329e-02   6.4508525e+00   2.2885444e-02  -3.9901068e+08
   9.0696899e-11  -7.2232548e-02   6.4512584e+00   2.3365154e-02  -3.9809678e+08
   9.1363788e-11  -7.1967377e-02   6.4516635e+00   2.3853785e-02  -3.9718298e+08
   9.2030677e-11  -7.1702815e-02   6.4520679e+00   2.4351478e-02  -3.9626926e+08
   9.2697566e-11  -7.1438862e-02   6.4524713e+00   2.4858371e-02  -3.9535563e+08
   9.3364455e-11  -7.1175519e-02   6.4528738e+00   2.5374610e-02  -3.9444210e+08
   9.4031344e-11  -7.0912784e-02   6.4532753e+00   2.5900336e-02  -3.9352866e+08
   9.4698233e-11  -7.0650660e-02   6.4536757e+00   2.6435697e-02  -3.9261532e+08
   9.5365122e-11  -7.0389144e-02   6.4540748e+00   2.6980840e-02  -3.9170207e+08
   9.6032011e-11  -7.0128237e-02   6.4544726e+00   2.7535913e-02  -3.9078892e+08
   9.6698900e-11  -6.9867940e-02   6.4548689e+00   2.8101068e-02  -3.8987586e+08
   9.7365789e-11  -6.9608251e-02   6.4552638e+00   2.8676457e-02  -3.8896291e+08
   9.8032678e-11  -6.9349171e-02   6.4556571e+00   2.9262233e-02  -3.8805006e+08
   9.8699567e-11  -6.9090701e-02   6.4560487e+00   2.9858552e-02  -3.8713731e+08
   9.9366455e-11  -6.8832838e-02   6.4564384e+00   3.0465571e-02  -3.8622467e+08
   1.0003334e-10  -6.8575585e-02   6.4568263e+00   3.1083450e-02  -3.8531214e+08
   1.0070023e-10  -6.8318940e-02   6.4572122e+00   3.1712348e-02  -3.8439971e+08
   1.0136712e-10  -6.8062904e-02   6.4575959e+00   3.2352427e-02  -3.8348739e+08
   1.0203401e-10  -6.7807476e-02   6.4579774e+00   3.3003852e-02  -3.8257519e+08
   1.0270090e-10  -6.7552657e-02   6.4583566e+00   3.3666787e-02  -3.8166309e+08
   1.0336779e-10  -6.7298446e-02   6.4587334e+00   3.4341400e-02  -3.8075111e+08
   1.0403468e-10  -6.7044843e-02   6.4591076e+00   3.5027858e-02  -3.7983925e+08
   1.0470157e-10  -6.6791848e-02   6.4594792e+00   3.5726333e-02  -3.7892751e+08
   1.0536846e-10  -6.6539461e-02   6.4598480e+00   3.6436995e-02  -3.7801589e+08
   1.0603535e-10  -6.6287683e-02   6.4602139e+00   3.7160020e-02  -3.7710439e+08
   1.0670223e-10  -6.6036512e-02   6.4605767e+00   3.7895580e-02  -3.7619301e+08
   1.0736912e-10  -6.5785949e-02   6.4609365e+00   3.8643855e-02  -3.7528176e+08
   1.0803601e-10  -6.5535994e-02   6.4612930e+00   3.9405020e-02  -3.7437063e+08
   1.0870290e-10  -6.5286646e-02   6.4616462e+00   4.0179258e-02  -3.7345964e+08
   1.0936979e-10  -6.5037907e-02   6.4619958e+00   4.0966748e-02  -3.7254878e+08
   1.1003668e-10  -6.4789774e-02   6.4623418e+00   4.1767675e-02  -3.7163805e+08
   1.1070357e-10  -6.4542249e-02   6.4626841e+00   4.2582224e-02  -3.7072745e+08
   1.1137046e-10  -6.4295331e-02   6.4630225e+00   4.3410579e-02  -3.6981700e+08
   1.1203735e-10  -6.4049021e-02   6.4633569e+00   4.4252930e-02  -3.6890668e+08
   1.1270423e-10  -6.3803317e-02   6.4636871e+00   4.5109466e-02  -3.6799651e+08
   1.1337112e-10  -6.3558221e-02   6.4640131e+00   4.5980379e-02  -3.6708648e+08
   1.1403801e-10  -6.3313732e-02   6.4643347e+00   4.6865860e-02  -3.6617659e+08
   1.1470490e-10  -6.3069849e-02   6.4646517e+00   4.7766104e-02  -3.6526686e+08
   1.1537179e-10  -6.2826573e-02   6.4649640e+00   4.8681307e-02  -3.6435727e+08
   1.1603868e-10  -6.2583904e-02   6.4652714e+00   4.9611667e-02  -3.6344784e+08
   1.1670557e-10  -6.2341841e-02   6.4655740e+00   5.0557381e-02  -3.6253857e+08
   1.1737246e-10  -6.2100385e-02   6.4658713e+00   5.1518651e-02  -3.6162945e+08
   1.1803935e-10  -6.1859535e-02   6.4661635e+00   5.2495679e-02  -3.6072049e+08
   1.1870624e-10  -6.1619291e-02   6.4664502e+00   5.3488667e-02  -3.5981170e+08
   1.1937312e-10  -6.1379653e-02   6.4667313e+00   5.4497821e-02  -3.5890307e+08
   1.2004001e-10  -6.1140621e-02   6.4670068e+00   5.5523347e-02  -3.5799461e+08
   1.2070690e-10  -6.0902195e-02   6.4672763e+00   5.6565453e-02  -3.5708632e+08
   1.2137379e-10  -6.0664375e-02   6.4675399e+00   5.7624348e-02  -3.5617820e+08
   1.2204068e-10  -6.0427161e-02   6.4677973e+00   5.8700242e-02  -3.5527026e+08
   1.2270757e-10  -6.0190552e-02   6.4680483e+00   5.9793348e-02  -3.5436249e+08
   1.2337446e-10  -5.9954548e-02   6.4682928e+00   6.0903880e-02  -3.5345491e+08
   1.2404135e-10  -5.9719150e-02   6.4685307e+00   6.2032052e-02  -3.5254751e+08
   1.2470824e-10  -5.9484357e-02   6.4687618e+00   6.3178079e-02  -3.5164030e+08
   1.2537513e-10  -5.9250168e-02   6.4689859e+00   6.4342181e-02  -3.5073328e+08
   1.2604201e-10  -5.9016585e-02   6.4692028e+00   6.5524575e-02  -3.4982645e+08
   1.2670890e-10  -5.8783607e-02   6.4694125e+00   6.6725483e-02  -3.4891982e+08
   1.2737579e-10  -5.8551233e-02   6.4696146e+00   6.7945124e-02  -3.4801338e+08
   1.2804268e-10  -5.8319463e-02   6.4698091e+00   6.9183722e-02  -3.4710715e+08
   1.2870957e-10  -5.8088298e-02   6.4699957e+00   7.0441501e-02  -3.4620112e+08
   1.2937646e-10  -5.7857737e-02   6.4701744e+00   7.1718687e-02  -3.4529530e+08
   1.3004335e-10  -5.7627780e-02   6.4703449e+00   7.3015504e-02  -3.4438969e+08
   1.3071024e-10  -5.7398428e-02   6.4705070e+00   7.4332181e-02  -3.4348429e+08
   1.3137713e-10  -5.7169679e-02   6.4706606e+00   7.5668946e-02  -3.4257911e+08
   1.3204401e-10  -5.6941533e-02   6.4708055e+00   7.7026029e-02  -3.4167415e+08
   1.3271090e-10  -5.6713991e-02   6.4709415e+00   7.8403662e-02  -3.4076942e+08
   1.3337779e-10  -5.6487053e-02   6.4710684e+00   7.9802074e-02  -3.3986491e+08
   1.3404468e-10  -5.6260717e-02   6.4711861e+00   8.1221501e-02  -3.3896063e+08
   1.3471157e-10  -5.6034985e-02   6.4712943e+00   8.2662174e-02  -3.3805659e+08
   1.3537846e-10  -5.5809855e-02   6.4713929e+00   8.4124330e-02  -3.3715279e+08
   1.3604535e-10  -5.5585328e-02   6.4714817e+00   8.5608205e-02  -3.3624922e+08
   1.3671224e-10  -5.5361404e-02   6.4715604e+00   8.7114033e-02  -3.3534590e+08
   1.3737913e-10  -5.5138082e-02   6.4716289e+00   8.8642054e-02  -3.3444283e+08
   1.3804602e-10  -5.4915363e-02   6.4716871e+00   9.0192506e-02  -3.3354002e+08
   1.3871290e-10  -5.4693245e-02   6.4717347e+00   9.1765628e-02  -3.3263745e+08
   1.3937979e-10  -5.4471729e-02   6.4717714e+00   9.3361659e-02  -3.3173515e+08
   1.4004668e-10  -5.4250815e-02   6.4717972e+00   9.4980841e-02  -3.3083311e+08
   1.4071357e-10  -5.4030503e-02   6.4718118e+00   9.6623416e-02  -3.2993134e+08
   1.4138046e-10  -5.3810791e-02   6.4718151e+00   9.8289624e-02  -3.2902984e+08
   1.4204735e-10  -5.3591681e-02   6.4718067e+00   9.9979709e-02  -3.2812862e+08
   1.4271424e-10  -5.3373172e-02   6.4717866e+00   1.0169391e-01  -3.2722767e+08
   1.4338113e-10  -5.3155264e-02   6.4717545e+00   1.0343248e-01  -3.2632701e+08
   1.4404802e-10  -5.2937956e-02   6.4717102e+00   1.0519566e-01  -3.2542664e+08
   1.4471490e-10  -5.2721249e-02   6.4716535e+00   1.0698369e-01  -3.2452655e+08
   1.4538179e-10  -5.2505141e-02   6.4715842e+00   1.0879682e-01  -3.2362677e+08
   1.4604868e-10  -5.2289634e-02   6.4715021e+00   1.1063529e-01  -3.2272728e+08
   1.4671557e-10  -5.2074727e-02   6.4714069e+00   1.1249935e-01  -3.2182810e+08
   1.4738246e-10  -5.1860419e-02   6.4712986e+00   1.1438925e-01  -3.2092923e+08
   1.4804935e-10  -5.1646710e-02   6.4711768e+00   1.1630524e-01  -3.2003067e+08
   1.4871624e-10  -5.1433601e-02   6.4710414e+00   1.1824755e-01  -3.1913243e+08
   1.4938313e-10  -5.1221091e-02   6.4708921e+00   1.2021643e-01  -3.1823451e+08
   1.5005002e-10  -5.1009179e-02   6.4707287e+00   1.2221214e-01  -3.1733692e+08
   1.5071691e-10  -5.0797866e-02   6.4705511e+00   1.2423492e-01  -3.1643967e+08
   1.5138379e-10  -5.0587151e-02   6.4703589e+00   1.2628502e-01  -3.1554275e+08
   1.5205068e-10  -5.0377034e-02   6.4701521e+00   1.2836269e-01  -3.1464617e+08
   1.5271757e-10  -5.0167515e-02   6.4699303e+00   1.3046816e-01  -3.1374993e+08
   1.5338446e-10  -4.9958593e-02   6.4696933e+00   1.3260169e-01  -3.1285405e+08
   1.5405135e-10  -4.9750269e-02   6.4694410e+00   1.3476353e-01  -3.1195852e+08
   1.5471824e-10  -4.9542542e-02   6.4691731e+00   1.3695392e-01  -3.1106336e+08
   1.5538513e-10  -4.9335412e-02   6.4688894e+00   1.3917311e-01  -3.1016856e+08
   1.5605202e-10  -4.9128878e-02   6.4685897e+00   1.4142133e-01  -3.0927413e+08
   1.5671891e-10  -4.8922941e-02   6.4682737e+00   1.4369885e-01  -3.0838008e+08
   1.5738580e-10  -4.8717600e-02   6.4679412e+00   1.4600590e-01  -3.0748641e+08
   1.5805268e-10  -4.8512854e-02   6.4675921e+00   1.4834273e-01  -3.0659312e+08
   1.5871957e-10  -4.8308705e-02   6.4672261e+00   1.5070958e-01  -3.0570023e+08
   1.5938646e-10  -4.8105150e-02   6.4668429e+00   1.5310670e-01  -3.0480773e+08
   1.6005335e-10  -4.7902191e-02   6.4664424e+00   1.5553432e-01  -3.0391564e+08
   1.6072024e-10  -4.7699826e-02   6.4660243e+00   1.5799270e-01  -3.0302396e+08
   1.6138713e-10  -4.7498056e-02   6.4655884e+00   1.6048206e-01  -3.0213269e+08
   1.6205402e-10  -4.7296880e-02   6.4651344e+00   1.6300266e-01  -3.0124184e+08
   1.6272091e-10  -4.7096298e-02   6.4646623e+00   1.6555472e-01  -3.0035141e+08
   1.6338780e-10  -4.6896310e-02   6.4641717e+00   1.6813849e-01  -2.9946142e+08
   1.6405468e-10  -4.6696915e-02   6.4636623e+00   1.7075421e-01  -2.9857186e+08
   1.6472157e-10  -4.6498113e-02   6.4631341e+00   1.7340211e-01  -2.9768274e+08
   1.6538846e-10  -4.6299903e-02   6.4625867e+00   1.7608242e-01  -2.9679407e+08
   1.6605535e-10  -4.6102287e-02   6.4620200e+00   1.7879539e-01  -2.9590586e+08
   1.6672224e-10  -4.5905262e-02   6.4614337e+00   1.8154124e-01  -2.9501810e+08
   1.6738913e-10  -4.5708829e-02   6.4608276e+00   1.8432020e-01  -2.9413082e+08
   1.6805602e-10  -4.5512988e-02   6.4602014e+00   1.8713251e-01  -2.9324400e+08
   1.6872291e-10  -4.5317738e-02   6.4595550e+00   1.8997839e-01  -2.9235766e+08
   1.6938980e-10  -4.5123079e-02   6.4588882e+00   1.9285806e-01  -2.9147181e+08
   1.7005669e-10  -4.4929010e-02   6.4582006e+00   1.9577177e-01  -2.9058644e+08
   1.7072357e-10  -4.4735532e-02   6.4574922e+00   1.9871971e-01  -2.8970158e+08
   1.7139046e-10  -4.4542643e-02   6.4567625e+00   2.0170213e-01  -2.8881721e+08
   1.7205735e-10  -4.4350344e-02   6.4560116e+00   2.0471924e-01  -2.8793336e+08
   1.7272424e-10  -4.4158634e-02   6.4552390e+00   2.0777125e-01  -2.8705002e+08
   1.7339113e-10  -4.3967513e-02   6.4544447e+00   2.1085839e-01  -2.8616721e+08
   1.7405802e-10  -4.3776981e-02   6.4536284e+00   2.1398087e-01  -2.8528492e+08
   1.7472491e-10  -4.3587036e-02   6.4527898e+00   2.1713889e-01  -2.8440317e+08
   1.7539180e-10  -4.3397680e-02   6.4519288e+00   2.2033268e-01  -2.8352197e+08
   1.7605869e-10  -4.3208910e-02   6.4510451e+00   2.2356243e-01  -2.8264131e+08
   1.7672558e-10  -4.3020728e-02   6.4501385e+00   2.2682835e-01  -2.8176121e+08
   1.7739246e-10  -4.2833133e-02   6.4492089e+00   2.3013066e-01  -2.8088167e+08
   1.7805935e-10  -4.2646123e-02   6.4482560e+00   2.3346953e-01  -2.8000270e+08
   1.7872624e-10  -4.2459700e-02   6.4472795e+00   2.3684519e-01  -2.7912431e+08
   1.7939313e-10  -4.2273862e-02   6.4462793e+00   2.4025781e-01  -2.7824650e+08
   1.8006002e-10  -4.2088609e-02   6.4452552e+00   2.4370760e-01  -2.7736928e+08
   1.8072691e-10  -4.1903941e-02   6.4442069e+00   2.4719474e-01  -2.7649266e+08
   1.8139380e-10  -4.1719858e-02   6.4431343e+00   2.5071943e-01  -2.7561665e+08
   1.8206069e-10  -4.1536358e-02   6.4420372e+00   2.5428184e-01  -2.7474125e+08
   1.8272758e-10  -4.1353441e-02   6.4409152e+00   2.5788216e-01  -2.7386647e+08
   1.8339446e-10  -4.1171108e-02   6.4397683e+00   2.6152058e-01  -2.7299231e+08
   1.8406135e-10  -4.0989357e-02   6.4385963e+00   2.6519725e-01  -2.7211879e+08
   1.8472824e-10  -4.0808189e-02   6.4373989e+00   2.6891237e-01  -2.7124592e+08
   1.8539513e-10  -4.0627602e-02   6.4361759e+00   2.7266609e-01  -2.7037369e+08
   1.8606202e-10  -4.0447597e-02   6.4349272e+00   2.7645859e-01  -2.6950211e+08
   1.8672891e-10  -4.0268172e-02   6.4336525e+00   2.8029003e-01  -2.6863121e+08
   1.8739580e-10  -4.0089328e-02   6.4323517e+00   2.8416056e-01  -2.6776097e+08
   1.8806269e-10  -3.9911064e-02   6.4310246e+00   2.8807035e-01  -2.6689142e+08
   1.8872958e-10  -3.9733380e-02   6.4296709e+00   2.9201955e-01  -2.6602255e+08
   1.8939647e-10  -3.9556274e-02   6.4282906e+00   2.9600831e-01  -2.6515438e+08
   1.9006335e-10  -3.9379747e-02   6.4268833e+00   3.0003677e-01  -2.6428691e+08
   1.9073024e-10  -3.9203799e-02   6.4254490e+00   3.0410509e-01  -2.6342015e+08
   1.9139713e-10  -3.9028428e-02   6.4239874e+00   3.0821338e-01  -2.6255411e+08
   1.9206402e-10  -3.8853634e-02   6.4224984e+00   3.1236180e-01  -2.6168880e+08
   1.9273091e-10  -3.8679417e-02   6.4209818e+00   3.1655047e-01  -2.6082422e+08
   1.9339780e-10  -3.8505776e-02   6.4194374e+00   3.2077953e-01  -2.5996039e+08
   1.9406469e-10  -3.8332710e-02   6.4178650e+00   3.2504908e-01  -2.5909731e+08
   1.9473158e-10  -3.8160220e-02   6.4162646e+00   3.2935926e-01  -2.5823498e+08
   1.9539847e-10  -3.7988304e-02   6.4146358e+00   3.3371018e-01  -2.5737343e+08
   1.9606536e-10  -3.7816963e-02   6.4129786e+00   3.3810194e-01  -2.5651265e+08
   1.9673224e-10  -3.7646195e-02   6.4112928e+00   3.4253466e-01  -2.5565265e+08
   1.9739913e-10  -3.7476001e-02   6.4095782e+00   3.4700844e-01  -2.5479345e+08
   1.9806602e-10  -3.7306378e-02   6.4078348e+00   3.5152338e-01  -2.5393505e+08
   1.9873291e-10  -3.7137328e-02   6.4060622e+00   3.5607957e-01  -2.5307746e+08
   1.9939980e-10  -3.6968850e-02   6.4042604e+00   3.6067710e-01  -2.5222068e+08
   2.0006669e-10  -3.6800942e-02   6.4024293e+00   3.6531606e-01  -2.5136473e+08
   2.0073358e-10  -3.6633605e-02   6.4005686e+00   3.6999653e-01  -2.5050962e+08
   2.0140047e-10  -3.6466837e-02   6.3986783e+00   3.7471858e-01  -2.4965535e+08
   2.0206736e-10  -3.6300639e-02   6.3967582e+00   3.7948228e-01  -2.4880193e+08
   2.0273424e-10  -3.6135009e-02   6.3948081e+00   3.8428770e-01  -2.4794937e+08
   2.0340113e-10  -3.5969947e-02   6.3928281e+00   3.8913491e-01  -2.4709769e+08
   2.0406802e-10  -3.5805453e-02   6.3908178e+00   3.9402396e-01  -2.4624688e+08
   2.0473491e-10  -3.5641526e-02   6.3887772e+00   3.9895490e-01  -2.4539695e+08
   2.0540180e-10  -3.5478165e-02   6.3867062e+00   4.0392778e-01  -2.4454793e+08
   2.0606869e-10  -3.5315370e-02   6.3846046e+00   4.0894265e-01  -2.4369980e+08
   2.0673558e-10  -3.5153140e-02   6.3824724e+00   4.1399954e-01  -2.4285259e+08
   2.0740247e-10  -3.4991475e-02   6.3803094e+00   4.1909848e-01  -2.4200631e+08
   2.0806936e-10  -3.4830373e-02   6.3781156e+00   4.2423950e-01  -2.4116095e+08
   2.0873625e-10  -3.4669835e-02   6.3758907e+00   4.2942263e-01  -2.4031654e+08
   2.0940313e-10  -3.4509859e-02   6.3736348e+00   4.3464788e-01  -2.3947307e+08
   2.1007002e-10  -3.4350445e-02   6.3713476e+00   4.3991527e-01  -2.3863056e+08
   2.1073691e-10  -3.4191592e-02   6.3690292e+00   4.4522480e-01  -2.3778902e+08
   2.1140380e-10  -3.4033301e-02   6.3666795e+00   4.5057647e-01  -2.3694846e+08
   2.1207069e-10  -3.3875569e-02   6.3642983e+00   4.5597029e-01  -2.3610888e+08
   2.1273758e-10  -3.3718396e-02   6.3618855e+00   4.6140624e-01  -2.3527030e+08
   2.1340447e-10  -3.3561783e-02   6.3594411e+00   4.6688431e-01  -2.3443272e+08
   2.1407136e-10  -3.3405727e-02   6.3569651e+00   4.7240448e-01  -2.3359615e+08
   2.1473825e-10  -3.3250229e-02   6.3544573e+00   4.7796672e-01  -2.3276061e+08
   2.1540514e-10  -3.3095287e-02   6.3519177e+00   4.8357102e-01  -2.3192610e+08
   2.1607202e-10  -3.2940901e-02   6.3493462e+00   4.8921732e-01  -2.3109262e+08
   2.1673891e-10  -3.2787071e-02   6.3467427e+00   4.9490559e-01  -2.3026020e+08
   2.1740580e-10  -3.2633795e-02   6.3441073e+00   5.0063580e-01  -2.2942884e+08
   2.1807269e-10  -3.2481073e-02   6.3414398e+00   5.0640787e-01  -2.2859854e+08
   2.1873958e-10  -3.2328904e-02   6.3387402e+00   5.1222176e-01  -2.2776933e+08
   2.1940647e-10  -3.2177287e-02   6.3360085e+00   5.1807741e-01  -2.2694120e+08
   2.2007336e-10  -3.2026222e-02   6.3332446e+00   5.2397474e-01  -2.2611417e+08
   2.2074025e-10  -3.1875708e-02   6.3304485e+00   5.2991369e-01  -2.2528824e+08
   2.2140714e-10  -3.1725745e-02   6.3276201e+00   5.3589417e-01  -2.2446343e+08
   2.2207402e-10  -3.1576331e-02   6.3247595e+00   5.4191611e-01  -2.2363974e+08
   2.2274091e-10  -3.1427465e-02   6.3218666e+00   5.4797940e-01  -2.2281719e+08
   2.2340780e-10  -3.1279147e-02   6.3189414e+00   5.5408396e-01  -2.2199578e+08
   2.2407469e-10  -3.1131377e-02   6.3159839e+00   5.6022969e-01  -2.2117553e+08
   2.2474158e-10  -3.0984153e-02   6.3129941e+00   5.6641647e-01  -2.2035643e+08
   2.2540847e-10  -3.0837475e-02   6.3099719e+00   5.7264420e-01  -2.1953851e+08
   2.2607536e-10  -3.0691341e-02   6.3069175e+00   5.7891276e-01  -2.1872177e+08
   2.2674225e-10  -3.0545752e-02   6.3038307e+00   5.8522203e-01  -2.1790622e+08
   2.2740914e-10  -3.0400705e-02   6.3007116e+00   5.9157187e-01  -2.1709187e+08
   2.2807603e-10  -3.0256202e-02   6.2975602e+00   5.9796216e-01  -2.1627873e+08
   2.2874291e-10  -3.0112239e-02   6.2943765e+00   6.0439275e-01  -2.1546681e+08
   2.2940980e-10  -2.9968818e-02   6.2911605e+00   6.1086350e-01  -2.1465612e+08
   2.3007669e-10  -2.9825937e-02   6.2879124e+00   6.1737426e-01  -2.1384666e+08
   2.3074358e-10  -2.9683595e-02   6.2846320e+00   6.2392487e-01  -2.1303845e+08
   2.3141047e-10  -2.9541791e-02   6.2813195e+00   6.3051517e-01  -2.1223150e+08
   2.3207736e-10  -2.9400525e-02   6.2779748e+00   6.3714499e-01  -2.1142582e+08
   2.3274425e-10  -2.9259795e-02   6.2745981e+00   6.4381417e-01  -2.1062141e+08
   2.3341114e-10  -2.9119601e-02   6.2711893e+00   6.5052252e-01  -2.0981829e+08
   2.3407803e-10  -2.8979942e-02   6.2677486e+00   6.5726986e-01  -2.0901646e+08
   2.3474491e-10  -2.8840817e-02   6.2642759e+00   6.6405601e-01  -2.0821593e+08
   2.3541180e-10  -2.8702226e-02   6.2607714e+00   6.7088076e-01  -2.0741672e+08
   2.3607869e-10  -2.8564166e-02   6.2572351e+00   6.7774393e-01  -2.0661883e+08
   2.3674558e-10  -2.8426638e-02   6.2536670e+00   6.8464530e-01  -2.0582227e+08
   2.3741247e-10  -2.8289641e-02   6.2500673e+00   6.9158466e-01  -2.0502705e+08
   2.3807936e-10  -2.8153173e-02   6.2464361e+00   6.9856181e-01  -2.0423318e+08
   2.3874625e-10  -2.8017235e-02   6.2427734e+00   7.0557652e-01  -2.0344067e+08
   2.3941314e-10  -2.7881823e-02   6.2390792e+00   7.1262857e-01  -2.0264954e+08
   2.4008003e-10  -2.7746939e-02   6.2353538e+00   7.1971772e-01  -2.0185978e+08
   2.4074692e-10  -2.7612581e-02   6.2315972e+00   7.2684375e-01  -2.0107140e+08
   2.4141380e-10  -2.7478748e-02   6.2278095e+00   7.3400641e-01  -2.0028443e+08
   2.4208069e-10  -2.7345439e-02   6.2239907e+00   7.4120545e-01  -1.9949886e+08
   2.4274758e-10  -2.7212653e-02   6.2201411e+00   7.4844064e-01  -1.9871470e+08
   2.4341447e-10  -2.7080390e-02   6.2162608e+00   7.5571170e-01  -1.9793197e+08
   2.4408136e-10  -2.6948647e-02   6.2123497e+00   7.6301839e-01  -1.9715067e+08
   2.4474825e-10  -2.6817426e-02   6.2084081e+00   7.7036044e-01  -1.9637082e+08
   2.4541514e-10  -2.6686723e-02   6.2044362e+00   7.7773757e-01  -1.9559242e+08
   2.4608203e-10  -2.6556539e-02   6.2004339e+00   7.8514953e-01  -1.9481547e+08
   2.4674892e-10  -2.6426872e-02   6.1964015e+00   7.9259602e-01  -1.9404000e+08
   2.4741581e-10  -2.6297722e-02   6.1923392e+00   8.0007676e-01  -1.9326600e+08
   2.4808269e-10  -2.6169087e-02   6.1882469e+00   8.0759147e-01  -1.9249350e+08
   2.4874958e-10  -2.6040967e-02   6.1841250e+00   8.1513986e-01  -1.9172248e+08
   2.4941647e-10  -2.5913360e-02   6.1799734e+00   8.2272162e-01  -1.9095298e+08
   2.5008336e-10  -2.5786266e-02   6.1757925e+00   8.3033647e-01  -1.9018498e+08
   2.5075025e-10  -2.5659683e-02   6.1715824e+00   8.3798409e-01  -1.8941851e+08
   2.5141714e-10  -2.5533611e-02   6.1673431e+00   8.4566417e-01  -1.8865357e+08
   2.5208403e-10  -2.5408048e-02   6.1630750e+00   8.5337640e-01  -1.8789017e+08
   2.5275092e-10  -2.5282993e-02   6.1587781e+00   8.6112047e-01  -1.8712832e+08
   2.5341781e-10  -2.5158446e-02   6.1544526e+00   8.6889606e-01  -1.8636803e+08
   2.5408469e-10  -2.5034405e-02   6.1500988e+00   8.7670283e-01  -1.8560930e+08
   2.5475158e-10  -2.4910869e-02   6.1457167e+00   8.8454046e-01  -1.8485215e+08
   2.5541847e-10  -2.4787838e-02   6.1413067e+00   8.9240862e-01  -1.8409658e+08
   2.5608536e-10  -2.4665310e-02   6.1368688e+00   9.0030696e-01  -1.8334260e+08
   2.5675225e-10  -2.4543284e-02   6.1324032e+00   9.0823516e-01  -1.8259022e+08
   2.5741914e-10  -2.4421759e-02   6.1279102e+00   9.1619286e-01  -1.8183945e+08
   2.5808603e-10  -2.4300733e-02   6.1233900e+00   9.2417972e-01  -1.8109029e+08
   2.5875292e-10  -2.4180207e-02   6.1188427e+00   9.3219539e-01  -1.8034276e+08
   2.5941981e-10  -2.4060179e-02   6.1142686e+00   9.4023952e-01  -1.7959686e+08
   2.6008670e-10  -2.3940647e-02   6.1096679e+00   9.4831174e-01  -1.7885260e+08
   2.6075358e-10  -2.3821611e-02   6.1050408e+00   9.5641170e-01  -1.7810998e+08
   2.6142047e-10  -2.3703069e-02   6.1003875e+00   9.6453903e-01  -1.7736903e+08
   2.6208736e-10  -2.3585021e-02   6.0957082e+00   9.7269336e-01  -1.7662974e+08
   2.6275425e-10  -2.3467465e-02   6.0910031e+00   9.8087434e-01  -1.7589212e+08
   2.6342114e-10  -2.3350400e-02   6.0862726e+00   9.8908157e-01  -1.7515618e+08
   2.6408803e-10  -2.3233826e-02   6.0815167e+00   9.9731470e-01  -1.7442193e+08
   2.6475492e-10  -2.3117740e-02   6.0767358e+00   1.0055733e+00  -1.7368937e+08
   2.6542181e-10  -2.3002142e-02   6.0719300e+00   1.0138571e+00  -1.7295851e+08
   2.6608870e-10  -2.2887031e-02   6.0670997e+00   1.0221656e+00  -1.7222937e+08
   2.6675559e-10  -2.2772405e-02   6.0622450e+00   1.0304985e+00  -1.7150194e+08
   2.6742247e-10  -2.2658264e-02   6.0573662e+00   1.0388553e+00  -1.7077624e+08
   2.6808936e-10  -2.2544606e-02   6.0524636e+00   1.0472358e+00  -1.7005227e+08
   2.6875625e-10  -2.2431430e-02   6.0475374e+00   1.0556394e+00  -1.6933005e+08
   2.6942314e-10  -2.2318735e-02   6.0425878e+00   1.0640658e+00  -1.6860956e+08
   2.7009003e-10  -2.2206520e-02   6.0376150e+00   1.0725146e+00  -1.6789084e+08
   2.7075692e-10  -2.2094783e-02   6.0326195e+00   1.0809854e+00  -1.6717387e+08
   2.7142381e-10  -2.1983524e-02   6.0276014e+00   1.0894778e+00  -1.6645867e+08
   2.7209070e-10  -2.1872741e-02   6.0225609e+00   1.0979914e+00  -1.6574524e+08
   2.7275759e-10  -2.1762433e-02   6.0174984e+00   1.1065258e+00  -1.6503360e+08
   2.7342447e-10  -2.1652599e-02   6.0124140e+00   1.1150806e+00  -1.6432375e+08
   2.7409136e-10  -2.1543237e-02   6.0073082e+00   1.1236554e+00  -1.6361569e+08
   2.7475825e-10  -2.1434347e-02   6.0021811e+00   1.1322497e+00  -1.6290943e+08
   2.7542514e-10  -2.1325928e-02   5.9970329e+00   1.1408632e+00  -1.6220498e+08
   2.7609203e-10  -2.1217977e-02   5.9918641e+00   1.1494954e+00  -1.6150235e+08
   2.7675892e-10  -2.1110494e-02   5.9866749e+00   1.1581460e+00  -1.6080154e+08
   2.7742581e-10  -2.1003478e-02   5.9814654e+00   1.1668144e+00  -1.6010255e+08
   2.7809270e-10  -2.0896927e-02   5.9762361e+00   1.1755004e+00  -1.5940540e+08
   2.7875959e-10  -2.0790841e-02   5.9709872e+00   1.1842035e+00  -1.5871008e+08
   2.7942648e-10  -2.0685217e-02   5.9657190e+00   1.1929233e+00  -1.5801662e+08
   2.8009336e-10  -2.0580056e-02   5.9604318e+00   1.2016593e+00  -1.5732500e+08
   2.8076025e-10  -2.0475354e-02   5.9551257e+00   1.2104111e+00  -1.5663524e+08
   2.8142714e-10  -2.0371112e-02   5.9498013e+00   1.2191784e+00  -1.5594735e+08
   2.8209403e-10  -2.0267329e-02   5.9444586e+00   1.2279606e+00  -1.5526132e+08
   2.8276092e-10  -2.0164001e-02   5.9390981e+00   1.2367575e+00  -1.5457717e+08
   2.8342781e-10  -2.0061130e-02   5.9337200e+00   1.2455685e+00  -1.5389490e+08
   2.8409470e-10  -1.9958712e-02   5.9283246e+00   1.2543932e+00  -1.5321451e+08
   2.8476159e-10  -1.9856748e-02   5.9229122e+00   1.2632312e+00  -1.5253601e+08
   2.8542848e-10  -1.9755236e-02   5.9174830e+00   1.2720822e+00  -1.5185941e+08
   2.8609537e-10  -1.9654174e-02   5.9120375e+00   1.2809456e+00  -1.5118472e+08
   2.8676225e-10  -1.9553561e-02   5.9065758e+00   1.2898211e+00  -1.5051192e+08
   2.8742914e-10  -1.9453396e-02   5.9010983e+00   1.2987082e+00  -1.4984104e+08
   2.8809603e-10  -1.9353678e-02   5.8956053e+00   1.3076065e+00  -1.4917208e+08
   2.8876292e-10  -1.9254405e-02   5.8900971e+00   1.3165156e+00  -1.4850504e+08
   2.8942981e-10  -1.9155577e-02   5.8845739e+00   1.3254351e+00  -1.4783992e+08
   2.9009670e-10  -1.9057191e-02   5.8790361e+00   1.3343645e+00  -1.4717673e+08
   2.9076359e-10  -1.8959247e-02   5.8734840e+00   1.3433034e+00  -1.4651548e+08
   2.9143048e-10  -1.8861743e-02   5.8679178e+00   1.3522515e+00  -1.4585617e+08
   2.9209737e-10  -1.8764678e-02   5.8623380e+00   1.3612083e+00  -1.4519880e+08
   2.9276425e-10  -1.8668051e-02   5.8567447e+00   1.3701733e+00  -1.4454338e+08
   2.9343114e-10  -1.8571860e-02   5.8511383e+00   1.3791462e+00  -1.4388992e+08
   2.9409803e-10  -1.8476105e-02   5.8455191e+00   1.3881265e+00  -1.4323841e+08
   2.9476492e-10  -1.8380783e-02   5.8398873e+00   1.3971139e+00  -1.4258886e+08
   2.9543181e-10  -1.8285893e-02   5.8342434e+00   1.4061079e+00  -1.4194127e+08
   2.9609870e-10  -1.8191435e-02   5.8285875e+00   1.4151081e+00  -1.4129565e+08
   2.9676559e-10  -1.8097407e-02   5.8229201e+00   1.4241141e+00  -1.4065201e+08
   2.9743248e-10  -1.8003807e-02   5.8172413e+00   1.4331255e+00  -1.4001034e+08
   2.9809937e-10  -1.7910634e-02   5.8115516e+00   1.4421418e+00  -1.3937065e+08
   2.9876626e-10  -1.7817887e-02   5.8058511e+00   1.4511627e+00  -1.3873294e+08
   2.9943314e-10  -1.7725565e-02   5.8001403e+00   1.4601878e+00  -1.3809722e+08
   3.0010003e-10  -1.7633666e-02   5.7944194e+00   1.4692166e+00  -1.3746349e+08
   3.0076692e-10  -1.7542190e-02   5.7886886e+00   1.4782488e+00  -1.3683175e+08
   3.0143381e-10  -1.7451133e-02   5.7829484e+00   1.4872839e+00  -1.3620200e+08
   3.0210070e-10  -1.7360496e-02   5.7771990e+00   1.4963215e+00  -1.3557426e+08
   3.0276759e-10  -1.7270277e-02   5.7714408e+00   1.5053614e+00  -1.3494851e+08
   3.0343448e-10  -1.7180475e-02   5.7656739e+00   1.5144029e+00  -1.3432477e+08
   3.0410137e-10  -1.7091088e-02   5.7598987e+00   1.5234459e+00  -1.3370304e+08
   3.0476826e-10  -1.7002114e-02   5.7541156e+00   1.5324898e+00  -1.3308332e+08
   3.0543515e-10  -1.6913554e-02   5.7483248e+00   1.5415342e+00  -1.3246561e+08
   3.0610203e-10  -1.6825404e-02   5.7425266e+00   1.5505789e+00  -1.3184991e+08
   3.0676892e-10  -1.6737665e-02   5.7367213e+00   1.5596234e+00  -1.3123623e+08
   3.0743581e-10  -1.6650334e-02   5.7309092e+00   1.5686672e+00  -1.3062457e+08
   3.0810270e-10  -1.6563411e-02   5.7250905e+00   1.5777101e+00  -1.3001493e+08
   3.0876959e-10  -1.6476893e-02   5.7192657e+00   1.5867517e+00  -1.2940732e+08
   3.0943648e-10  -1.6390780e-02   5.7134350e+00   1.5957915e+00  -1.2880173e+08
   3.1010337e-10  -1.6305070e-02   5.7075986e+00   1.6048292e+00  -1.2819817e+08
   3.1077026e-10  -1.6219762e-02   5.7017569e+00   1.6138645e+00  -1.2759663e+08
   3.1143715e-10  -1.6134854e-02   5.6959102e+00   1.6228969e+00  -1.2699713e+08
   3.1210403e-10  -1.6050345e-02   5.6900587e+00   1.6319261e+00  -1.2639966e+08
   3.1277092e-10  -1.5966235e-02   5.6842027e+00   1.6409517e+00  -1.2580422e+08
   3.1343781e-10  -1.5882520e-02   5.6783426e+00   1.6499733e+00  -1.2521082e+08
   3.1410470e-10  -1.5799201e-02   5.6724786e+00   1.6589907e+00  -1.2461946e+08
   3.1477159e-10  -1.5716275e-02   5.6666109e+00   1.6680033e+00  -1.2403013e+08
   3.1543848e-10  -1.5633742e-02   5.6607400e+00   1.6770110e+00  -1.2344284e+08
   3.1610537e-10  -1.5551600e-02   5.6548659e+00   1.6860132e+00  -1.2285759e+08
   3.1677226e-10  -1.5469847e-02   5.6489892e+00   1.6950098e+00  -1.2227439e+08
   3.1743915e-10  -1.5388483e-02   5.6431099e+00   1.7040003e+00  -1.2169322e+08
   3.1810604e-10  -1.5307506e-02   5.6372284e+00   1.7129843e+00  -1.2111410e+08
   3.1877292e-10  -1.5226914e-02   5.6313450e+00   1.7219616e+00  -1.2053702e+08
   3.1943981e-10  -1.5146706e-02   5.6254599e+00   1.7309318e+00  -1.1996199e+08
   3.2010670e-10  -1.5066882e-02   5.6195734e+00   1.7398945e+00  -1.1938900e+08
   3.2077359e-10  -1.4987438e-02   5.6136858e+00   1.7488495e+00  -1.1881805e+08
   3.2144048e-10  -1.4908375e-02   5.6077973e+00   1.7577963e+00  -1.1824916e+08
   3.2210737e-10  -1.4829691e-02   5.6019083e+00   1.7667348e+00  -1.1768230e+08
   3.2277426e-10  -1.4751384e-02   5.5960189e+00   1.7756645e+00  -1.1711749e+08
   3.2344115e-10  -1.4673452e-02   5.5901295e+00   1.7845850e+00  -1.1655473e+08
   3.2410804e-10  -1.4595896e-02   5.5842403e+00   1.7934962e+00  -1.1599402e+08
   3.2477492e-10  -1.4518713e-02   5.5783515e+00   1.8023977e+00  -1.1543535e+08
   3.2544181e-10  -1.4441902e-02   5.5724635e+00   1.8112892e+00  -1.1487872e+08
   3.2610870e-10  -1.4365461e-02   5.5665764e+00   1.8201703e+00  -1.1432414e+08
   3.2677559e-10  -1.4289390e-02   5.5606906e+00   1.8290408e+00  -1.1377161e+08
   3.2744248e-10  -1.4213686e-02   5.5548063e+00   1.8379003e+00  -1.1322112e+08
   3.2810937e-10  -1.4138349e-02   5.5489237e+00   1.8467486e+00  -1.1267268e+08
   3.2877626e-10  -1.4063377e-02   5.5430431e+00   1.8555854e+00  -1.1212627e+08
   3.2944315e-10  -1.3988769e-02   5.5371647e+00   1.8644103e+00  -1.1158192e+08
   3.3011004e-10  -1.3914523e-02   5.5312888e+00   1.8732231e+00  -1.1103960e+08
   3.3077693e-10  -1.3840638e-02   5.5254156e+00   1.8820234e+00  -1.1049933e+08
   3.3144381e-10  -1.3767113e-02   5.5195454e+00   1.8908111e+00  -1.0996109e+08
   3.3211070e-10  -1.3693946e-02   5.5136783e+00   1.8995858e+00  -1.0942490e+08
   3.3277759e-10  -1.3621136e-02   5.5078148e+00   1.9083472e+00  -1.0889074e+08
   3.3344448e-10  -1.3548682e-02   5.5019548e+00   1.9170951e+00  -1.0835862e+08
   3.3411137e-10  -1.3476582e-02   5.4960988e+00   1.9258292e+00  -1.0782854e+08
   3.3477826e-10  -1.3404835e-02   5.4902469e+00   1.9345492e+00  -1.0730050e+08
   3.3544515e-10  -1.3333439e-02   5.4843994e+00   1.9432549e+00  -1.0677448e+08
   3.3611204e-10  -1.3262394e-02   5.4785565e+00   1.9519460e+00  -1.0625050e+08
   3.3677893e-10  -1.3191697e-02   5.4727183e+00   1.9606222e+00  -1.0572855e+08
   3.3744582e-10  -1.3121348e-02   5.4668852e+00   1.9692833e+00  -1.0520863e+08
   3.3811270e-10  -1.3051345e-02   5.4610574e+00   1.9779291e+00  -1.0469074e+08
   3.3877959e-10  -1.2981687e-02   5.4552350e+00   1.9865593e+00  -1.0417487e+08
   3.3944648e-10  -1.2912372e-02   5.4494183e+00   1.9951736e+00  -1.0366102e+08
   3.4011337e-10  -1.2843399e-02   5.4436075e+00   2.0037718e+00  -1.0314920e+08
   3.4078026e-10  -1.2774767e-02   5.4378028e+00   2.0123536e+00  -1.0263940e+08
   3.4144715e-10  -1.2706474e-02   5.4320044e+00   2.0209189e+00  -1.0213161e+08
   3.4211404e-10  -1.2638520e-02   5.4262125e+00   2.0294674e+00  -1.0162584e+08
   3.4278093e-10  -1.2570902e-02   5.4204274e+00   2.0379989e+00  -1.0112209e+08
   3.4344782e-10  -1.2503619e-02   5.4146492e+00   2.0465131e+00  -1.0062035e+08
   3.4411470e-10  -1.2436670e-02   5.4088781e+00   2.0550099e+00  -1.0012061e+08
   3.4478159e-10  -1.2370054e-02   5.4031143e+00   2.0634889e+00  -9.9622885e+07
   3.4544848e-10  -1.2303770e-02   5.3973581e+00   2.0719501e+00  -9.9127162e+07
   3.4611537e-10  -1.2237815e-02   5.3916095e+00   2.0803931e+00  -9.8633442e+07
   3.4678226e-10  -1.2172189e-02   5.3858689e+00   2.0888178e+00  -9.8141721e+07
   3.4744915e-10  -1.2106890e-02   5.3801363e+00   2.0972239e+00  -9.7651996e+07
   3.4811604e-10  -1.2041918e-02   5.3744120e+00   2.1056114e+00  -9.7164266e+07
   3.4878293e-10  -1.1977270e-02   5.3686962e+00   2.1139799e+00  -9.6678528e+07
   3.4944982e-10  -1.1912945e-02   5.3629890e+00   2.1223292e+00  -9.6194777e+07
   3.5011671e-10  -1.1848942e-02   5.3572906e+00   2.1306593e+00  -9.5713013e+07
   3.5078359e-10  -1.1785260e-02   5.3516012e+00   2.1389698e+00  -9.5233231e+07
   3.5145048e-10  -1.1721898e-02   5.3459210e+00   2.1472607e+00  -9.4755430e+07
   3.5211737e-10  -1.1658853e-02   5.3402501e+00   2.1555316e+00  -9.4279605e+07
   3.5278426e-10  -1.1596125e-02   5.3345887e+00   2.1637825e+00  -9.3805753e+07
   3.5345115e-10  -1.1533713e-02   5.3289370e+00   2.1720132e+00  -9.3333872e+07
   3.5411804e-10  -1.1471615e-02   5.3232951e+00   2.1802235e+00  -9.2863959e+07
   3.5478493e-10  -1.1409829e-02   5.3176632e+00   2.1884132e+00  -9.2396009e+07
   3.5545182e-10  -1.1348355e-02   5.3120415e+00   2.1965821e+00  -9.1930020e+07
   3.5611871e-10  -1.1287191e-02   5.3064301e+00   2.2047302e+00  -9.1465989e+07
   3.5678560e-10  -1.1226336e-02   5.3008292e+00   2.2128572e+00  -9.1003911e+07
   3.5745248e-10  -1.1165789e-02   5.2952389e+00   2.2209629e+00  -9.0543783e+07
   3.5811937e-10  -1.1105548e-02   5.2896594e+00   2.2290473e+00  -9.0085602e+07
   3.5878626e-10  -1.1045612e-02   5.2840909e+00   2.2371102e+00  -8.9629365e+07
   3.5945315e-10  -1.0985979e-02   5.2785333e+00   2.2451514e+00  -8.9175067e+07
   3.6012004e-10  -1.0926649e-02   5.2729871e+00   2.2531707e+00  -8.8722705e+07
   3.6078693e-10  -1.0867620e-02   5.2674521e+00   2.2611681e+00  -8.8272275e+07
   3.6145382e-10  -1.0808891e-02   5.2619287e+00   2.2691435e+00  -8.7823773e+07
   3.6212071e-10  -1.0750461e-02   5.2564170e+00   2.2770965e+00  -8.7377195e+07
   3.6278760e-10  -1.0692327e-02   5.2509170e+00   2.2850272e+00  -8.6932538e+07
   3.6345448e-10  -1.0634490e-02   5.2454289e+00   2.2929354e+00  -8.6489798e+07
   3.6412137e-10  -1.0576947e-02   5.2399528e+00   2.3008210e+00  -8.6048970e+07
   3.6478826e-10  -1.0519698e-02   5.2344889e+00   2.3086839e+00  -8.5610051e+07
   3.6545515e-10  -1.0462741e-02   5.2290373e+00   2.3165238e+00  -8.5173036e+07
   3.6612204e-10  -1.0406075e-02   5.2235982e+00   2.3243408e+00  -8.4737922e+07
   3.6678893e-10  -1.0349698e-02   5.2181716e+00   2.3321347e+00  -8.4304704e+07
   3.6745582e-10  -1.0293610e-02   5.2127576e+00   2.3399053e+00  -8.3873377e+07
   3.6812271e-10  -1.0237809e-02   5.2073564e+00   2.3476526e+00  -8.3443939e+07
   3.6878960e-10  -1.0182294e-02   5.2019681e+00   2.3553765e+00  -8.3016383e+07
   3.6945649e-10  -1.0127063e-02   5.1965929e+00   2.3630769e+00  -8.2590707e+07
   3.7012337e-10  -1.0072115e-02   5.1912307e+00   2.3707536e+00  -8.2166906e+07
   3.7079026e-10  -1.0017450e-02   5.1858818e+00   2.3784066e+00  -8.1744975e+07
   3.7145715e-10  -9.9630656e-03   5.1805462e+00   2.3860358e+00  -8.1324909e+07
   3.7212404e-10  -9.9089607e-03   5.1752241e+00   2.3936410e+00  -8.0906705e+07
   3.7279093e-10  -9.8551341e-03   5.1699155e+00   2.4012222e+00  -8.0490358e+07
   3.7345782e-10  -9.8015847e-03   5.1646206e+00   2.4087793e+00  -8.0075863e+07
   3.7412471e-10  -9.7483111e-03   5.1593394e+00   2.4163122e+00  -7.9663215e+07
   3.7479160e-10  -9.6953122e-03   5.1540721e+00   2.4238209e+00  -7.9252411e+07
   3.7545849e-10  -9.6425867e-03   5.1488187e+00   2.4313052e+00  -7.8843444e+07
   3.7612538e-10  -9.5901335e-03   5.1435794e+00   2.4387650e+00  -7.8436312e+07
   3.7679226e-10  -9.5379511e-03   5.1383541e+00   2.4462004e+00  -7.8031008e+07
   3.7745915e-10  -9.4860386e-03   5.1331431e+00   2.4536112e+00  -7.7627528e+07
   3.7812604e-10  -9.4343946e-03   5.1279464e+00   2.4609973e+00  -7.7225867e+07
   3.7879293e-10  -9.3830179e-03   5.1227641e+00   2.4683588e+00  -7.6826021e+07
   3.7945982e-10  -9.3319073e-03   5.1175963e+00   2.4756954e+00  -7.6427985e+07
   3.8012671e-10  -9.2810617e-03   5.1124430e+00   2.4830072e+00  -7.6031753e+07
   3.8079360e-10  -9.2304797e-03   5.1073044e+00   2.4902941e+00  -7.5637321e+07
   3.8146049e-10  -9.1801603e-03   5.1021804e+00   2.4975560e+00  -7.5244683e+07
   3.8212738e-10  -9.1301022e-03   5.0970713e+00   2.5047929e+00  -7.4853836e+07
   3.8279426e-10  -9.0803043e-03   5.0919770e+00   2.5120048e+00  -7.4464773e+07
   3.8346115e-10  -9.0307652e-03   5.0868976e+00   2.5191915e+00  -7.4077490e+07
   3.8412804e-10  -8.9814839e-03   5.0818333e+00   2.5263531e+00  -7.3691981e+07
   3.8479493e-10  -8.9324592e-03   5.0767840e+00   2.5334894e+00  -7.3308242e+07
   3.8546182e-10  -8.8836899e-03   5.0717499e+00   2.5406005e+00  -7.2926268e+07
   3.8612871e-10  -8.8351748e-03   5.0667310e+00   2.5476863e+00  -7.2546053e+07
   3.8679560e-10  -8.7869128e-03   5.0617273e+00   2.5547467e+00  -7.2167592e+07
   3.8746249e-10  -8.7389026e-03   5.0567390e+00   2.5617818e+00  -7.1790880e+07
   3.8812938e-10  -8.6911431e-03   5.0517661e+00   2.5687914e+00  -7.1415911e+07
   3.8879627e-10  -8.6436332e-03   5.0468086e+00   2.5757756e+00  -7.1042682e+07
   3.8946315e-10  -8.5963717e-03   5.0418666e+00   2.5827343e+00  -7.0671185e+07
   3.9013004e-10  -8.5493574e-03   5.0369402e+00   2.5896675e+00  -7.0301417e+07
   3.9079693e-10  -8.5025893e-03   5.0320294e+00   2.5965752e+00  -6.9933371e+07
   3.9146382e-10  -8.4560660e-03   5.0271343e+00   2.6034572e+00  -6.9567042e+07
   3.9213071e-10  -8.4097866e-03   5.0222549e+00   2.6103138e+00  -6.9202426e+07
   3.9279760e-10  -8.3637498e-03   5.0173912e+00   2.6171447e+00  -6.8839516e+07
   3.9346449e-10  -8.3179545e-03   5.0125434e+00   2.6239499e+00  -6.8478308e+07
   3.9413138e-10  -8.2723996e-03   5.0077114e+00   2.6307295e+00  -6.8118795e+07
   3.9479827e-10  -8.2270840e-03   5.0028953e+00   2.6374835e+00  -6.7760973e+07
   3.9546516e-10  -8.1820064e-03   4.9980952e+00   2.6442118e+00  -6.7404836e+07
   3.9613204e-10  -8.1371660e-03   4.9933110e+00   2.6509144e+00  -6.7050379e+07
   3.9679893e-10  -8.0925613e-03   4.9885428e+00   2.6575913e+00  -6.6697596e+07
   3.9746582e-10  -8.0481915e-03   4.9837907e+00   2.6642425e+00  -6.6346482e+07
   3.9813271e-10  -8.0040553e-03   4.9790547e+00   2.6708680e+00  -6.5997031e+07
   3.9879960e-10  -7.9601517e-03   4.9743349e+00   2.6774677e+00  -6.5649237e+07
   3.9946649e-10  -7.9164796e-03   4.9696312e+00   2.6840418e+00  -6.5303096e+07
   4.0013338e-10  -7.8730378e-03   4.9649436e+00   2.6905901e+00  -6.4958602e+07
   4.0080027e-10  -7.8298252e-03   4.9602723e+00   2.6971127e+00  -6.4615749e+07
   4.0146716e-10  -7.7868408e-03   4.9556173e+00   2.7036096e+00  -6.4274531e+07
   4.0213404e-10  -7.7440835e-03   4.9509785e+00   2.7100807e+00  -6.3934943e+07
   4.0280093e-10  -7.7015522e-03   4.9463560e+00   2.7165261e+00  -6.3596980e+07
   4.0346782e-10  -7.6592457e-03   4.9417499e+00   2.7229459e+00  -6.3260636e+07
   4.0413471e-10  -7.6171631e-03   4.9371601e+00   2.7293399e+00  -6.2925905e+07
   4.0480160e-10  -7.5753033e-03   4.9325867e+00   2.7357083e+00  -6.2592782e+07
   4.0546849e-10  -7.5336651e-03   4.9280296e+00   2.7420509e+00  -6.2261261e+07
   4.0613538e-10  -7.4922476e-03   4.9234890e+00   2.7483679e+00  -6.1931337e+07
   4.0680227e-10  -7.4510496e-03   4.9189648e+00   2.7546593e+00  -6.1603003e+07
   4.0746916e-10  -7.4100701e-03   4.9144571e+00   2.7609250e+00  -6.1276255e+07
   4.0813605e-10  -7.3693080e-03   4.9099658e+00   2.7671651e+00  -6.0951086e+07
   4.0880293e-10  -7.3287623e-03   4.9054910e+00   2.7733796e+00  -6.0627491e+07
   4.0946982e-10  -7.2884319e-03   4.9010327e+00   2.7795685e+00  -6.0305465e+07
   4.1013671e-10  -7.2483159e-03   4.8965909e+00   2.7857319e+00  -5.9985001e+07
   4.1080360e-10  -7.2084131e-03   4.8921656e+00   2.7918697e+00  -5.9666094e+07
   4.1147049e-10  -7.1687225e-03   4.8877568e+00   2.7979820e+00  -5.9348738e+07
   4.1213738e-10  -7.1292431e-03   4.8833646e+00   2.8040688e+00  -5.9032928e+07
   4.1280427e-10  -7.0899738e-03   4.8789889e+00   2.8101302e+00  -5.8718658e+07
   4.1347116e-10  -7.0509137e-03   4.8746297e+00   2.8161661e+00  -5.8405922e+07
   4.1413805e-10  -7.0120617e-03   4.8702871e+00   2.8221766e+00  -5.8094714e+07
   4.1480493e-10  -6.9734167e-03   4.8659610e+00   2.8281618e+00  -5.7785030e+07
   4.1547182e-10  -6.9349778e-03   4.8616515e+00   2.8341216e+00  -5.7476863e+07
   4.1613871e-10  -6.8967440e-03   4.8573585e+00   2.8400560e+00  -5.7170207e+07
   4.1680560e-10  -6.8587143e-03   4.8530821e+00   2.8459653e+00  -5.6865057e+07
   4.1747249e-10  -6.8208876e-03   4.8488223e+00   2.8518492e+00  -5.6561407e+07
   4.1813938e-10  -6.7832630e-03   4.8445790e+00   2.8577080e+00  -5.6259251e+07
   4.1880627e-10  -6.7458394e-03   4.8403522e+00   2.8635416e+00  -5.5958584e+07
   4.1947316e-10  -6.7086159e-03   4.8361420e+00   2.8693500e+00  -5.5659400e+07
   4.2014005e-10  -6.6715914e-03   4.8319484e+00   2.8751334e+00  -5.5361694e+07
   4.2080694e-10  -6.6347651e-03   4.8277713e+00   2.8808917e+00  -5.5065459e+07
   4.2147382e-10  -6.5981359e-03   4.8236107e+00   2.8866250e+00  -5.4770690e+07
   4.2214071e-10  -6.5617028e-03   4.8194666e+00   2.8923333e+00  -5.4477381e+07
   4.2280760e-10  -6.5254649e-03   4.8153391e+00   2.8980167e+00  -5.4185526e+07
   4.2347449e-10  -6.4894212e-03   4.8112280e+00   2.9036752e+00  -5.3895121e+07
   4.2414138e-10  -6.4535707e-03   4.8071335e+00   2.9093089e+00  -5.3606158e+07
   4.2480827e-10  -6.4179125e-03   4.8030554e+00   2.9149177e+00  -5.3318633e+07
   4.2547516e-10  -6.3824456e-03   4.7989938e+00   2.9205019e+00  -5.3032539e+07
   4.2614205e-10  -6.3471691e-03   4.7949487e+00   2.9260613e+00  -5.2747872e+07
   4.2680894e-10  -6.3120820e-03   4.7909200e+00   2.9315961e+00  -5.2464625e+07
   4.2747583e-10  -6.2771834e-03   4.7869078e+00   2.9371063e+00  -5.2182792e+07
   4.2814271e-10  -6.2424723e-03   4.7829119e+00   2.9425919e+00  -5.1902368e+07
   4.2880960e-10  -6.2079478e-03   4.7789325e+00   2.9480531e+00  -5.1623348e+07
   4.2947649e-10  -6.1736089e-03   4.7749695e+00   2.9534897e+00  -5.1345726e+07
   4.3014338e-10  -6.1394548e-03   4.7710228e+00   2.9589020e+00  -5.1069495e+07
   4.3081027e-10  -6.1054845e-03   4.7670925e+00   2.9642900e+00  -5.0794651e+07
   4.3147716e-10  -6.0716970e-03   4.7631785e+00   2.9696537e+00  -5.0521187e+07
   4.3214405e-10  -6.0380915e-03   4.7592808e+00   2.9749931e+00  -5.0249098e+07
   4.3281094e-10  -6.0046671e-03   4.7553994e+00   2.9803084e+00  -4.9978379e+07
   4.3347783e-10  -5.9714227e-03   4.7515343e+00   2.9855995e+00  -4.9709023e+07
   4.3414471e-10  -5.9383576e-03   4.7476854e+00   2.9908666e+00  -4.9441026e+07
   4.3481160e-10  -5.9054708e-03   4.7438527e+00   2.9961097e+00  -4.9174381e+07
   4.3547849e-10  -5.8727614e-03   4.7400363e+00   3.0013288e+00  -4.8909083e+07
   4.3614538e-10  -5.8402286e-03   4.7362360e+00   3.0065241e+00  -4.8645126e+07
   4.3681227e-10  -5.8078713e-03   4.7324519e+00   3.0116955e+00  -4.8382504e+07
   4.3747916e-10  -5.7756888e-03   4.7286839e+00   3.0168431e+00  -4.8121213e+07
   4.3814605e-10  -5.7436802e-03   4.7249320e+00   3.0219671e+00  -4.7861246e+07
   4.3881294e-10  -5.7118445e-03   4.7211961e+00   3.0270674e+00  -4.7602598e+07
   4.3947983e-10  -5.6801809e-03   4.7174764e+00   3.0321441e+00  -4.7345264e+07
   4.4014672e-10  -5.6486885e-03   4.7137726e+00   3.0371973e+00  -4.7089237e+07
   4.4081360e-10  -5.6173665e-03   4.7100848e+00   3.0422271e+00  -4.6834512e+07
   4.4148049e-10  -5.5862140e-03   4.7064130e+00   3.0472335e+00  -4.6581084e+07
   4.4214738e-10  -5.5552301e-03   4.7027571e+00   3.0522165e+00  -4.6328947e+07
   4.4281427e-10  -5.5244139e-03   4.6991172e+00   3.0571763e+00  -4.6078096e+07
   4.4348116e-10  -5.4937646e-03   4.6954931e+00   3.0621128e+00  -4.5828524e+07
   4.4414805e-10  -5.4632814e-03   4.6918848e+00   3.0670263e+00  -4.5580228e+07
   4.4481494e-10  -5.4329634e-03   4.6882923e+00   3.0719167e+00  -4.5333200e+07
   4.4548183e-10  -5.4028097e-03   4.6847157e+00   3.0767841e+00  -4.5087436e+07
   4.4614872e-10  -5.3728196e-03   4.6811547e+00   3.0816285e+00  -4.4842930e+07
   4.4681561e-10  -5.3429921e-03   4.6776095e+00   3.0864501e+00  -4.4599676e+07
   4.4748249e-10  -5.3133265e-03   4.6740800e+00   3.0912489e+00  -4.4357670e+07
   4.4814938e-10  -5.2838218e-03   4.6705661e+00   3.0960250e+00  -4.4116905e+07
   4.4881627e-10  -5.2544774e-03   4.6670678e+00   3.1007784e+00  -4.3877377e+07
   4.4948316e-10  -5.2252923e-03   4.6635851e+00   3.1055092e+00  -4.3639079e+07
   4.5015005e-10  -5.1962658e-03   4.6601179e+00   3.1102176e+00  -4.3402007e+07
   4.5081694e-10  -5.1673970e-03   4.6566662e+00   3.1149034e+00  -4.3166155e+07
   4.5148383e-10  -5.1386851e-03   4.6532300e+00   3.1195669e+00  -4.2931518e+07
   4.5215072e-10  -5.1101294e-03   4.6498092e+00   3.1242081e+00  -4.2698089e+07
   4.5281761e-10  -5.0817289e-03   4.6464038e+00   3.1288270e+00  -4.2465865e+07
   4.5348449e-10  -5.0534829e-03   4.6430138e+00   3.1334238e+00  -4.2234839e+07
   4.5415138e-10  -5.0253907e-03   4.6396391e+00   3.1379985e+00  -4.2005007e+07
   4.5481827e-10  -4.9974513e-03   4.6362797e+00   3.1425512e+00  -4.1776362e+07
   4.5548516e-10  -4.9696641e-03   4.6329355e+00   3.1470819e+00  -4.1548900e+07
   4.5615205e-10  -4.9420282e-03   4.6296065e+00   3.1515908e+00  -4.1322615e+07
   4.5681894e-10  -4.9145428e-03   4.6262926e+00   3.1560778e+00  -4.1097502e+07
   4.5748583e-10  -4.8872072e-03   4.6229939e+00   3.1605431e+00  -4.0873556e+07
   4.5815272e-10  -4.8600206e-03   4.6197103e+00   3.1649868e+00  -4.0650771e+07
   4.5881961e-10  -4.8329822e-03   4.6164417e+00   3.1694089e+00  -4.0429142e+07
   4.5948650e-10  -4.8060913e-03   4.6131881e+00   3.1738095e+00  -4.0208665e+07
   4.6015338e-10  -4.7793470e-03   4.6099495e+00   3.1781886e+00  -3.9989332e+07
   4.6082027e-10  -4.7527487e-03   4.6067257e+00   3.1825464e+00  -3.9771141e+07
   4.6148716e-10  -4.7262955e-03   4.6035169e+00   3.1868829e+00  -3.9554084e+07
   4.6215405e-10  -4.6999867e-03   4.6003229e+00   3.1911982e+00  -3.9338158e+07
   4.6282094e-10  -4.6738216e-03   4.5971437e+00   3.1954923e+00  -3.9123357e+07
   4.6348783e-10  -4.6477994e-03   4.5939792e+00   3.1997654e+00  -3.8909675e+07
   4.6415472e-10  -4.6219194e-03   4.5908295e+00   3.2040175e+00  -3.8697108e+07
   4.6482161e-10  -4.5961807e-03   4.5876944e+00   3.2082487e+00  -3.8485651e+07
   4.6548850e-10  -4.5705828e-03   4.5845739e+00   3.2124591e+00  -3.8275298e+07
   4.6615539e-10  -4.5451247e-03   4.5814680e+00   3.2166487e+00  -3.8066044e+07
   4.6682227e-10  -4.5198059e-03   4.5783767e+00   3.2208176e+00  -3.7857884e+07
   4.6748916e-10  -4.4946256e-03   4.5752998e+00   3.2249659e+00  -3.7650814e+07
   4.6815605e-10  -4.4695830e-03   4.5722374e+00   3.2290937e+00  -3.7444827e+07
   4.6882294e-10  -4.4446775e-03   4.5691894e+00   3.2332010e+00  -3.7239920e+07
   4.6948983e-10  -4.4199083e-03   4.5661557e+00   3.2372880e+00  -3.7036087e+07
   4.7015672e-10  -4.3952747e-03   4.5631364e+00   3.2413546e+00  -3.6833322e+07
   4.7082361e-10  -4.3707760e-03   4.5601313e+00   3.2454011e+00  -3.6631622e+07
   4.7149050e-10  -4.3464114e-03   4.5571404e+00   3.2494274e+00  -3.6430980e+07
   4.7215739e-10  -4.3221804e-03   4.5541637e+00   3.2534336e+00  -3.6231393e+07
   4.7282427e-10  -4.2980821e-03   4.5512012e+00   3.2574198e+00  -3.6032855e+07
   4.7349116e-10  -4.2741159e-03   4.5482527e+00   3.2613861e+00  -3.5835360e+07
   4.7415805e-10  -4.2502811e-03   4.5453183e+00   3.2653325e+00  -3.5638905e+07
   4.7482494e-10  -4.2265770e-03   4.5423978e+00   3.2692592e+00  -3.5443485e+07
   4.7549183e-10  -4.2030028e-03   4.5394913e+00   3.2731662e+00  -3.5249094e+07
   4.7615872e-10  -4.1795580e-03   4.5365987e+00   3.2770536e+00  -3.5055727e+07
   4.7682561e-10  -4.1562419e-03   4.5337200e+00   3.2809215e+00  -3.4863380e+07
   4.7749250e-10  -4.1330537e-03   4.5308551e+00   3.2847699e+00  -3.4672048e+07
   4.7815939e-10  -4.1099928e-03   4.5280039e+00   3.2885989e+00  -3.4481726e+07
   4.7882628e-10  -4.0870584e-03   4.5251664e+00   3.2924086e+00  -3.4292409e+07
   4.7949316e-10  -4.0642501e-03   4.5223426e+00   3.2961991e+00  -3.4104093e+07
   4.8016005e-10  -4.0415670e-03   4.5195325e+00   3.2999704e+00  -3.3916772e+07
   4.8082694e-10  -4.0190085e-03   4.5167359e+00   3.3037227e+00  -3.3730442e+07
   4.8149383e-10  -3.9965740e-03   4.5139528e+00   3.3074560e+00  -3.3545099e+07
   4.8216072e-10  -3.9742628e-03   4.5111832e+00   3.3111704e+00  -3.3360736e+07
   4.8282761e-10  -3.9520742e-03   4.5084270e+00   3.3148659e+00  -3.3177351e+07
   4.8349450e-10  -3.9300076e-03   4.5056842e+00   3.3185427e+00  -3.2994937e+07
   4.8416139e-10  -3.9080623e-03   4.5029547e+00   3.3222007e+00  -3.2813491e+07
   4.8482828e-10  -3.8862378e-03   4.5002386e+00   3.3258402e+00  -3.2633007e+07
   4.8549517e-10  -3.8645333e-03   4.4975356e+00   3.3294611e+00  -3.2453482e+07
   4.8616205e-10  -3.8429483e-03   4.4948459e+00   3.3330636e+00  -3.2274910e+07
   4.8682894e-10  -3.8214820e-03   4.4921693e+00   3.3366477e+00  -3.2097286e+07
   4.8749583e-10  -3.8001339e-03   4.4895058e+00   3.3402135e+00  -3.1920607e+07
   4.8816272e-10  -3.7789034e-03   4.4868553e+00   3.3437611e+00  -3.1744867e+07
   4.8882961e-10  -3.7577897e-03   4.4842178e+00   3.3472905e+00  -3.1570062e+07
   4.8949650e-10  -3.7367923e-03   4.4815933e+00   3.3508019e+00  -3.1396188e+07
   4.9016339e-10  -3.7159106e-03   4.4789817e+00   3.3542952e+00  -3.1223239e+07
   4.9083028e-10  -3.6951439e-03   4.4763829e+00   3.3577706e+00  -3.1051212e+07
   4.9149717e-10  -3.6744917e-03   4.4737970e+00   3.3612282e+00  -3.0880102e+07
   4.9216405e-10  -3.6539533e-03   4.4712238e+00   3.3646681e+00  -3.0709904e+07
   4.9283094e-10  -3.6335281e-03   4.4686633e+00   3.3680902e+00  -3.0540614e+07
   4.9349783e-10  -3.6132155e-03   4.4661154e+00   3.3714947e+00  -3.0372228e+07
   4.9416472e-10  -3.5930150e-03   4.4635802e+00   3.3748817e+00  -3.0204740e+07
   4.9483161e-10  -3.5729258e-03   4.4610575e+00   3.3782512e+00  -3.0038148e+07
   4.9549850e-10  -3.5529475e-03   4.4585474e+00   3.3816033e+00  -2.9872445e+07
   4.9616539e-10  -3.5330794e-03   4.4560497e+00   3.3849382e+00  -2.9707628e+07
   4.9683228e-10  -3.5133210e-03   4.4535644e+00   3.3882557e+00  -2.9543693e+07
   4.9749917e-10  -3.4936715e-03   4.4510915e+00   3.3915562e+00  -2.9380635e+07
   4.9816606e-10  -3.4741306e-03   4.4486309e+00   3.3948395e+00  -2.9218449e+07
   4.9883294e-10  -3.4546975e-03   4.4461826e+00   3.3981058e+00  -2.9057133e+07
   4.9949983e-10  -3.4353718e-03   4.4437465e+00   3.4013552e+00  -2.8896680e+07
   5.0016672e-10  -3.4161528e-03   4.4413226e+00   3.4045877e+00  -2.8737087e+07
   5.0083361e-10  -3.3970399e-03   4.4389108e+00   3.4078035e+00  -2.8578349e+07
   5.0150050e-10  -3.3780327e-03   4.4365110e+00   3.4110025e+00  -2.8420463e+07
   5.0216739e-10  -3.3591304e-03   4.4341234e+00   3.4141849e+00  -2.8263425e+07
   5.0283428e-10  -3.3403326e-03   4.4317476e+00   3.4173507e+00  -2.8107229e+07
   5.0350117e-10  -3.3216388e-03   4.4293838e+00   3.4205001e+00  -2.7951871e+07
   5.0416806e-10  -3.3030482e-03   4.4270319e+00   3.4236330e+00  -2.7797348e+07
   5.0483494e-10  -3.2845605e-03   4.4246919e+00   3.4267496e+00  -2.7643656e+07
   5.0550183e-10  -3.2661750e-03   4.4223636e+00   3.4298499e+00  -2.7490789e+07
   5.0616872e-10  -3.2478911e-03   4.4200470e+00   3.4329340e+00  -2.7338745e+07
   5.0683561e-10  -3.2297084e-03   4.4177422e+00   3.4360020e+00  -2.7187519e+07
   5.0750250e-10  -3.2116263e-03   4.4154490e+00   3.4390539e+00  -2.7037106e+07
   5.0816939e-10  -3.1936443e-03   4.4131673e+00   3.4420899e+00  -2.6887503e+07
   5.0883628e-10  -3.1757618e-03   4.4108973e+00   3.4451100e+00  -2.6738706e+07
   5.0950317e-10  -3.1579782e-03   4.4086387e+00   3.4481142e+00  -2.6590710e+07
   5.1017006e-10  -3.1402931e-03   4.4063915e+00   3.4511027e+00  -2.6443512e+07
   5.1083695e-10  -3.1227059e-03   4.4041558e+00   3.4540755e+00  -2.6297108e+07
   5.1150383e-10  -3.1052161e-03   4.4019314e+00   3.4570327e+00  -2.6151493e+07
   5.1217072e-10  -3.0878232e-03   4.3997183e+00   3.4599744e+00  -2.6006663e+07
   5.1283761e-10  -3.0705265e-03   4.3975165e+00   3.4629005e+00  -2.5862615e+07
   5.1350450e-10  -3.0533257e-03   4.3953259e+00   3.4658113e+00  -2.5719345e+07
   5.1417139e-10  -3.0362202e-03   4.3931464e+00   3.4687068e+00  -2.5576849e+07
   5.1483828e-10  -3.0192095e-03   4.3909781e+00   3.4715870e+00  -2.5435122e+07
   5.1550517e-10  -3.0022931e-03   4.3888208e+00   3.4744520e+00  -2.5294161e+07
   5.1617206e-10  -2.9854704e-03   4.3866746e+00   3.4773019e+00  -2.5153962e+07
   5.1683895e-10  -2.9687410e-03   4.3845393e+00   3.4801368e+00  -2.5014521e+07
   5.1750584e-10  -2.9521043e-03   4.3824149e+00   3.4829567e+00  -2.4875834e+07
   5.1817272e-10  -2.9355599e-03   4.3803014e+00   3.4857617e+00  -2.4737898e+07
   5.1883961e-10  -2.9191072e-03   4.3781988e+00   3.4885518e+00  -2.4600709e+07
   5.1950650e-10  -2.9027458e-03   4.3761069e+00   3.4913272e+00  -2.4464262e+07
   5.2017339e-10  -2.8864752e-03   4.3740257e+00   3.4940880e+00  -2.4328554e+07
   5.2084028e-10  -2.8702948e-03   4.3719553e+00   3.4968340e+00  -2.4193581e+07
   5.2150717e-10  -2.8542042e-03   4.3698955e+00   3.4995656e+00  -2.4059340e+07
   5.2217406e-10  -2.8382029e-03   4.3678463e+00   3.5022826e+00  -2.3925826e+07
   5.2284095e-10  -2.8222903e-03   4.3658076e+00   3.5049853e+00  -2.3793037e+07
   5.2350784e-10  -2.8064662e-03   4.3637795e+00   3.5076736e+00  -2.3660968e+07
   5.2417472e-10  -2.7907298e-03   4.3617617e+00   3.5103476e+00  -2.3529615e+07
   5.2484161e-10  -2.7750809e-03   4.3597544e+00   3.5130074e+00  -2.3398975e+07
   5.2550850e-10  -2.7595188e-03   4.3577575e+00   3.5156530e+00  -2.3269045e+07
   5.2617539e-10  -2.7440432e-03   4.3557709e+00   3.5182846e+00  -2.3139820e+07
   5.2684228e-10  -2.7286535e-03   4.3537945e+00   3.5209022e+00  -2.3011297e+07
   5.2750917e-10  -2.7133493e-03   4.3518284e+00   3.5235059e+00  -2.2883473e+07
   5.2817606e-10  -2.6981301e-03   4.3498725e+00   3.5260956e+00  -2.2756343e+07
   5.2884295e-10  -2.6829955e-03   4.3479267e+00   3.5286716e+00  -2.2629904e+07
   5.2950984e-10  -2.6679449e-03   4.3459909e+00   3.5312338e+00  -2.2504153e+07
   5.3017673e-10  -2.6529781e-03   4.3440653e+00   3.5337824e+00  -2.2379086e+07
   5.3084361e-10  -2.6380944e-03   4.3421496e+00   3.5363173e+00  -2.2254700e+07
   5.3151050e-10  -2.6232934e-03   4.3402439e+00   3.5388387e+00  -2.2130990e+07
   5.3217739e-10  -2.6085748e-03   4.3383480e+00   3.5413467e+00  -2.2007955e+07
   5.3284428e-10  -2.5939379e-03   4.3364621e+00   3.5438412e+00  -2.1885589e+07
   5.3351117e-10  -2.5793825e-03   4.3345859e+00   3.5463224e+00  -2.1763890e+07
   5.3417806e-10  -2.5649080e-03   4.3327195e+00   3.5487903e+00  -2.1642853e+07
   5.3484495e-10  -2.5505140e-03   4.3308629e+00   3.5512450e+00  -2.1522477e+07
   5.3551184e-10  -2.5362001e-03   4.3290159e+00   3.5536865e+00  -2.1402757e+07
   5.3617873e-10  -2.5219658e-03   4.3271786e+00   3.5561150e+00  -2.1283689e+07
   5.3684562e-10  -2.5078107e-03   4.3253509e+00   3.5585304e+00  -2.1165271e+07
   5.3751250e-10  -2.4937344e-03   4.3235327e+00   3.5609329e+00  -2.1047499e+07
   5.3817939e-10  -2.4797364e-03   4.3217240e+00   3.5633225e+00  -2.0930370e+07
   5.3884628e-10  -2.4658163e-03   4.3199248e+00   3.5656993e+00  -2.0813880e+07
   5.3951317e-10  -2.4519737e-03   4.3181350e+00   3.5680633e+00  -2.0698026e+07
   5.4018006e-10  -2.4382082e-03   4.3163545e+00   3.5704146e+00  -2.0582805e+07
   5.4084695e-10  -2.4245192e-03   4.3145834e+00   3.5727532e+00  -2.0468213e+07
   5.4151384e-10  -2.4109066e-03   4.3128216e+00   3.5750793e+00  -2.0354248e+07
   5.4218073e-10  -2.3973697e-03   4.3110690e+00   3.5773929e+00  -2.0240905e+07
   5.4284762e-10  -2.3839082e-03   4.3093257e+00   3.5796940e+00  -2.0128181e+07
   5.4351450e-10  -2.3705216e-03   4.3075914e+00   3.5819827e+00  -2.0016075e+07
   5.4418139e-10  -2.3572097e-03   4.3058663e+00   3.5842591e+00  -1.9904581e+07
   5.4484828e-10  -2.3439719e-03   4.3041503e+00   3.5865233e+00  -1.9793697e+07
   5.4551517e-10  -2.3308078e-03   4.3024433e+00   3.5887752e+00  -1.9683420e+07
   5.4618206e-10  -2.3177171e-03   4.3007453e+00   3.5910150e+00  -1.9573746e+07
   5.4684895e-10  -2.3046994e-03   4.2990562e+00   3.5932427e+00  -1.9464673e+07
   5.4751584e-10  -2.2917542e-03   4.2973760e+00   3.5954583e+00  -1.9356197e+07
   5.4818273e-10  -2.2788811e-03   4.2957047e+00   3.5976621e+00  -1.9248315e+07
   5.4884962e-10  -2.2660798e-03   4.2940422e+00   3.5998539e+00  -1.9141024e+07
   5.4951651e-10  -2.2533499e-03   4.2923885e+00   3.6020338e+00  -1.9034321e+07
   5.5018339e-10  -2.2406909e-03   4.2907435e+00   3.6042020e+00  -1.8928203e+07
   5.5085028e-10  -2.2281025e-03   4.2891072e+00   3.6063585e+00  -1.8822666e+07
   5.5151717e-10  -2.2155844e-03   4.2874796e+00   3.6085033e+00  -1.8717708e+07
   5.5218406e-10  -2.2031360e-03   4.2858605e+00   3.6106364e+00  -1.8613326e+07
   5.5285095e-10  -2.1907570e-03   4.2842501e+00   3.6127581e+00  -1.8509516e+07
   5.5351784e-10  -2.1784471e-03   4.2826481e+00   3.6148682e+00  -1.8406275e+07
   5.5418473e-10  -2.1662059e-03   4.2810547e+00   3.6169669e+00  -1.8303602e+07
   5.5485162e-10  -2.1540329e-03   4.2794696e+00   3.6190543e+00  -1.8201491e+07
   5.5551851e-10  -2.1419279e-03   4.2778930e+00   3.6211303e+00  -1.8099941e+07
   5.5618540e-10  -2.1298904e-03   4.2763248e+00   3.6231951e+00  -1.7998949e+07
   5.5685228e-10  -2.1179201e-03   4.2747648e+00   3.6252487e+00  -1.7898512e+07
   5.5751917e-10  -2.1060165e-03   4.2732132e+00   3.6272911e+00  -1.7798626e+07
   5.5818606e-10  -2.0941795e-03   4.2716698e+00   3.6293224e+00  -1.7699289e+07
   5.5885295e-10  -2.0824085e-03   4.2701346e+00   3.6313427e+00  -1.7600498e+07
   5.5951984e-10  -2.0707031e-03   4.2686076e+00   3.6333521e+00  -1.7502249e+07
   5.6018673e-10  -2.0590632e-03   4.2670886e+00   3.6353505e+00  -1.7404541e+07
   5.6085362e-10  -2.0474882e-03   4.2655778e+00   3.6373380e+00  -1.7307370e+07
   5.6152051e-10  -2.0359779e-03   4.2640750e+00   3.6393148e+00  -1.7210734e+07
   5.6218740e-10  -2.0245318e-03   4.2625802e+00   3.6412808e+00  -1.7114629e+07
   5.6285428e-10  -2.0131496e-03   4.2610934e+00   3.6432360e+00  -1.7019053e+07
   5.6352117e-10  -2.0018311e-03   4.2596145e+00   3.6451807e+00  -1.6924002e+07
   5.6418806e-10  -1.9905757e-03   4.2581435e+00   3.6471148e+00  -1.6829475e+07
   5.6485495e-10  -1.9793832e-03   4.2566804e+00   3.6490383e+00  -1.6735468e+07
   5.6552184e-10  -1.9682532e-03   4.2552250e+00   3.6509514e+00  -1.6641979e+07
   5.6618873e-10  -1.9571855e-03   4.2537775e+00   3.6528540e+00  -1.6549005e+07
   5.6685562e-10  -1.9461795e-03   4.2523376e+00   3.6547462e+00  -1.6456542e+07
   5.6752251e-10  -1.9352351e-03   4.2509055e+00   3.6566282e+00  -1.6364589e+07
   5.6818940e-10  -1.9243518e-03   4.2494810e+00   3.6584999e+00  -1.6273143e+07
   5.6885629e-10  -1.9135293e-03   4.2480641e+00   3.6603613e+00  -1.6182200e+07
   5.6952317e-10  -1.9027673e-03   4.2466549e+00   3.6622126e+00  -1.6091759e+07
   5.7019006e-10  -1.8920655e-03   4.2452531e+00   3.6640538e+00  -1.6001817e+07
   5.7085695e-10  -1.8814235e-03   4.2438589e+00   3.6658850e+00  -1.5912370e+07
   5.7152384e-10  -1.8708409e-03   4.2424722e+00   3.6677061e+00  -1.5823416e+07
   5.7219073e-10  -1.8603176e-03   4.2410928e+00   3.6695173e+00  -1.5734953e+07
   5.7285762e-10  -1.8498531e-03   4.2397209e+00   3.6713186e+00  -1.5646979e+07
   5.7352451e-10  -1.8394470e-03   4.2383563e+00   3.6731101e+00  -1.5559489e+07
   5.7419140e-10  -1.8290992e-03   4.2369991e+00   3.6748917e+00  -1.5472482e+07
   5.7485829e-10  -1.8188093e-03   4.2356491e+00   3.6766637e+00  -1.5385956e+07
   5.7552518e-10  -1.8085769e-03   4.2343064e+00   3.6784259e+00  -1.5299907e+07
   5.7619206e-10  -1.7984017e-03   4.2329709e+00   3.6801784e+00  -1.5214333e+07
   5.7685895e-10  -1.7882834e-03   4.2316426e+00   3.6819214e+00  -1.5129232e+07
   5.7752584e-10  -1.7782218e-03   4.2303214e+00   3.6836549e+00  -1.5044601e+07
   5.7819273e-10  -1.7682164e-03   4.2290074e+00   3.6853788e+00  -1.4960437e+07
   5.7885962e-10  -1.7582670e-03   4.2277004e+00   3.6870933e+00  -1.4876738e+07
   5.7952651e-10  -1.7483733e-03   4.2264004e+00   3.6887984e+00  -1.4793502e+07
   5.8019340e-10  -1.7385349e-03   4.2251074e+00   3.6904942e+00  -1.4710726e+07
   5.8086029e-10  -1.7287516e-03   4.2238214e+00   3.6921807e+00  -1.4628407e+07
   5.8152718e-10  -1.7190230e-03   4.2225423e+00   3.6938579e+00  -1.4546543e+07
   5.8219406e-10  -1.7093489e-03   4.2212702e+00   3.6955259e+00  -1.4465132e+07
   5.8286095e-10  -1.6997289e-03   4.2200048e+00   3.6971848e+00  -1.4384171e+07
   5.8352784e-10  -1.6901628e-03   4.2187464e+00   3.6988345e+00  -1.4303658e+07
   5.8419473e-10  -1.6806502e-03   4.2174946e+00   3.7004753e+00  -1.4223590e+07
   5.8486162e-10  -1.6711909e-03   4.2162497e+00   3.7021070e+00  -1.4143965e+07
   5.8552851e-10  -1.6617845e-03   4.2150115e+00   3.7037297e+00  -1.4064780e+07
   5.8619540e-10  -1.6524308e-03   4.2137799e+00   3.7053435e+00  -1.3986034e+07
   5.8686229e-10  -1.6431295e-03   4.2125550e+00   3.7069485e+00  -1.3907724e+07
   5.8752918e-10  -1.6338803e-03   4.2113368e+00   3.7085447e+00  -1.3829847e+07
   5.8819607e-10  -1.6246828e-03   4.2101251e+00   3.7101320e+00  -1.3752401e+07
   5.8886295e-10  -1.6155369e-03   4.2089200e+00   3.7117107e+00  -1.3675384e+07
   5.8952984e-10  -1.6064421e-03   4.2077214e+00   3.7132807e+00  -1.3598794e+07
   5.9019673e-10  -1.5973984e-03   4.2065292e+00   3.7148420e+00  -1.3522628e+07
   5.9086362e-10  -1.5884052e-03   4.2053436e+00   3.7163947e+00  -1.3446884e+07
   5.9153051e-10  -1.5794625e-03   4.2041643e+00   3.7179389e+00  -1.3371559e+07
   5.9219740e-10  -1.5705698e-03   4.2029914e+00   3.7194746e+00  -1.3296652e+07
   5.9286429e-10  -1.5617270e-03   4.2018249e+00   3.7210019e+00  -1.3222159e+07
   5.9353118e-10  -1.5529337e-03   4.2006647e+00   3.7225207e+00  -1.3148080e+07
   5.9419807e-10  -1.5441897e-03   4.1995108e+00   3.7240312e+00  -1.3074411e+07
   5.9486495e-10  -1.5354947e-03   4.1983632e+00   3.7255334e+00  -1.3001151e+07
   5.9553184e-10  -1.5268484e-03   4.1972218e+00   3.7270273e+00  -1.2928297e+07
   5.9619873e-10  -1.5182505e-03   4.1960866e+00   3.7285129e+00  -1.2855847e+07
   5.9686562e-10  -1.5097009e-03   4.1949575e+00   3.7299904e+00  -1.2783799e+07
   5.9753251e-10  -1.5011991e-03   4.1938346e+00   3.7314597e+00  -1.2712150e+07
   5.9819940e-10  -1.4927450e-03   4.1927178e+00   3.7329209e+00  -1.2640899e+07
   5.9886629e-10  -1.4843383e-03   4.1916070e+00   3.7343741e+00  -1.2570043e+07
   5.9953318e-10  -1.4759787e-03   4.1905023e+00   3.7358192e+00  -1.2499580e+07
   6.0020007e-10  -1.4676660e-03   4.1894035e+00   3.7372564e+00  -1.2429509e+07
   6.0086696e-10  -1.4593999e-03   4.1883108e+00   3.7386856e+00  -1.2359826e+07
   6.0153384e-10  -1.4511801e-03   4.1872240e+00   3.7401070e+00  -1.2290530e+07
   6.0220073e-10  -1.4430065e-03   4.1861431e+00   3.7415205e+00  -1.2221619e+07
   6.0286762e-10  -1.4348786e-03   4.1850681e+00   3.7429262e+00  -1.2153090e+07
   6.0353451e-10  -1.4267963e-03   4.1839989e+00   3.7443241e+00  -1.2084942e+07
   6.0420140e-10  -1.4187594e-03   4.1829356e+00   3.7457144e+00  -1.2017173e+07
   6.0486829e-10  -1.4107675e-03   4.1818780e+00   3.7470969e+00  -1.1949779e+07
   6.0553518e-10  -1.4028205e-03   4.1808262e+00   3.7484718e+00  -1.1882761e+07
   6.0620207e-10  -1.3949180e-03   4.1797802e+00   3.7498391e+00  -1.1816114e+07
   6.0686896e-10  -1.3870598e-03   4.1787398e+00   3.7511989e+00  -1.1749838e+07
   6.0753585e-10  -1.3792457e-03   4.1777051e+00   3.7525511e+00  -1.1683930e+07
   6.0820273e-10  -1.3714755e-03   4.1766761e+00   3.7538959e+00  -1.1618388e+07
   6.0886962e-10  -1.3637488e-03   4.1756527e+00   3.7552332e+00  -1.1553211e+07
   6.0953651e-10  -1.3560655e-03   4.1746348e+00   3.7565631e+00  -1.1488396e+07
   6.1020340e-10  -1.3484253e-03   4.1736225e+00   3.7578857e+00  -1.1423942e+07
   6.1087029e-10  -1.3408280e-03   4.1726157e+00   3.7592009e+00  -1.1359845e+07
   6.1153718e-10  -1.3332732e-03   4.1716145e+00   3.7605089e+00  -1.1296105e+07
   6.1220407e-10  -1.3257609e-03   4.1706187e+00   3.7618097e+00  -1.1232720e+07
   6.1287096e-10  -1.3182908e-03   4.1696283e+00   3.7631032e+00  -1.1169687e+07
   6.1353785e-10  -1.3108625e-03   4.1686433e+00   3.7643896e+00  -1.1107005e+07
   6.1420473e-10  -1.3034760e-03   4.1676638e+00   3.7656688e+00  -1.1044672e+07
   6.1487162e-10  -1.2961309e-03   4.1666896e+00   3.7669410e+00  -1.0982685e+07
   6.1553851e-10  -1.2888270e-03   4.1657207e+00   3.7682061e+00  -1.0921043e+07
   6.1620540e-10  -1.2815641e-03   4.1647571e+00   3.7694642e+00  -1.0859744e+07
   6.1687229e-10  -1.2743420e-03   4.1637988e+00   3.7707154e+00  -1.0798787e+07
   6.1753918e-10  -1.2671604e-03   4.1628457e+00   3.7719596e+00  -1.0738169e+07
   6.1820607e-10  -1.2600192e-03   4.1618978e+00   3.7731969e+00  -1.0677888e+07
   6.1887296e-10  -1.2529180e-03   4.1609551e+00   3.7744274e+00  -1.0617942e+07
   6.1953985e-10  -1.2458567e-03   4.1600176e+00   3.7756510e+00  -1.0558331e+07
   6.2020674e-10  -1.2388351e-03   4.1590852e+00   3.7768678e+00  -1.0499051e+07
   6.2087362e-10  -1.2318529e-03   4.1581580e+00   3.7780779e+00  -1.0440102e+07
   6.2154051e-10  -1.2249098e-03   4.1572358e+00   3.7792813e+00  -1.0381481e+07
   6.2220740e-10  -1.2180058e-03   4.1563186e+00   3.7804780e+00  -1.0323186e+07
   6.2287429e-10  -1.2111405e-03   4.1554065e+00   3.7816681e+00  -1.0265217e+07
   6.2354118e-10  -1.2043138e-03   4.1544994e+00   3.7828516e+00  -1.0207570e+07
   6.2420807e-10  -1.1975255e-03   4.1535973e+00   3.7840285e+00  -1.0150244e+07
   6.2487496e-10  -1.1907752e-03   4.1527001e+00   3.7851989e+00  -1.0093238e+07
   6.2554185e-10  -1.1840629e-03   4.1518078e+00   3.7863628e+00  -1.0036549e+07
   6.2620874e-10  -1.1773882e-03   4.1509205e+00   3.7875202e+00  -9.9801767e+06
   6.2687563e-10  -1.1707511e-03   4.1500380e+00   3.7886712e+00  -9.9241183e+06
   6.2754251e-10  -1.1641512e-03   4.1491603e+00   3.7898157e+00  -9.8683724e+06
   6.2820940e-10  -1.1575885e-03   4.1482875e+00   3.7909540e+00  -9.8129373e+06
   6.2887629e-10  -1.1510625e-03   4.1474194e+00   3.7920859e+00  -9.7578112e+06
   6.2954318e-10  -1.1445733e-03   4.1465561e+00   3.7932115e+00  -9.7029926e+06
   6.3021007e-10  -1.1381205e-03   4.1456976e+00   3.7943309e+00  -9.6484796e+06
   6.3087696e-10  -1.1317040e-03   4.1448438e+00   3.7954441e+00  -9.5942706e+06
   6.3154385e-10  -1.1253235e-03   4.1439947e+00   3.7965510e+00  -9.5403640e+06
   6.3221074e-10  -1.1189788e-03   4.1431502e+00   3.7976518e+00  -9.4867581e+06
   6.3287763e-10  -1.1126698e-03   4.1423104e+00   3.7987465e+00  -9.4334512e+06
   6.3354451e-10  -1.1063963e-03   4.1414752e+00   3.7998351e+00  -9.3804417e+06
   6.3421140e-10  -1.1001580e-03   4.1406446e+00   3.8009177e+00  -9.3277280e+06
   6.3487829e-10  -1.0939548e-03   4.1398185e+00   3.8019942e+00  -9.2753084e+06
   6.3554518e-10  -1.0877864e-03   4.1389970e+00   3.8030648e+00  -9.2231813e+06
   6.3621207e-10  -1.0816527e-03   4.1381801e+00   3.8041294e+00  -9.1713451e+06
   6.3687896e-10  -1.0755535e-03   4.1373676e+00   3.8051880e+00  -9.1197983e+06
   6.3754585e-10  -1.0694886e-03   4.1365596e+00   3.8062408e+00  -9.0685392e+06
   6.3821274e-10  -1.0634577e-03   4.1357560e+00   3.8072877e+00  -9.0175662e+06
   6.3887963e-10  -1.0574608e-03   4.1349569e+00   3.8083288e+00  -8.9668778e+06
   6.3954652e-10  -1.0514975e-03   4.1341622e+00   3.8093641e+00  -8.9164724e+06
   6.4021340e-10  -1.0455678e-03   4.1333718e+00   3.8103937e+00  -8.8663484e+06
   6.4088029e-10  -1.0396714e-03   4.1325858e+00   3.8114175e+00  -8.8165044e+06
   6.4154718e-10  -1.0338082e-03   4.1318042e+00   3.8124356e+00  -8.7669387e+06
   6.4221407e-10  -1.0279779e-03   4.1310268e+00   3.8134480e+00  -8.7176498e+06
   6.4288096e-10  -1.0221804e-03   4.1302537e+00   3.8144548e+00  -8.6686363e+06
   6.4354785e-10  -1.0164155e-03   4.1294849e+00   3.8154560e+00  -8.6198965e+06
   6.4421474e-10  -1.0106831e-03   4.1287204e+00   3.8164516e+00  -8.5714290e+06
   6.4488163e-10  -1.0049828e-03   4.1279600e+00   3.8174417e+00  -8.5232323e+06
   6.4554852e-10  -9.9931463e-04   4.1272039e+00   3.8184262e+00  -8.4753048e+06
   6.4621541e-10  -9.9367831e-04   4.1264519e+00   3.8194053e+00  -8.4276452e+06
   6.4688229e-10  -9.8807369e-04   4.1257040e+00   3.8203789e+00  -8.3802519e+06
   6.4754918e-10  -9.8250058e-04   4.1249603e+00   3.8213471e+00  -8.3331234e+06
   6.4821607e-10  -9.7695882e-04   4.1242207e+00   3.8223099e+00  -8.2862584e+06
   6.4888296e-10  -9.7144823e-04   4.1234852e+00   3.8232673e+00  -8.2396553e+06
   6.4954985e-10  -9.6596863e-04   4.1227538e+00   3.8242194e+00  -8.1933127e+06
   6.5021674e-10  -9.6051985e-04   4.1220263e+00   3.8251661e+00  -8.1472292e+06
   6.5088363e-10  -9.5510172e-04   4.1213029e+00   3.8261076e+00  -8.1014033e+06
   6.5155052e-10  -9.4971407e-04   4.1205835e+00   3.8270439e+00  -8.0558336e+06
   6.5221741e-10  -9.4435672e-04   4.1198681e+00   3.8279749e+00  -8.0105187e+06
   6.5288429e-10  -9.3902951e-04   4.1191566e+00   3.8289007e+00  -7.9654573e+06
   6.5355118e-10  -9.3373226e-04   4.1184491e+00   3.8298214e+00  -7.9206478e+06
   6.5421807e-10  -9.2846482e-04   4.1177455e+00   3.8307369e+00  -7.8760889e+06
   6.5488496e-10  -9.2322701e-04   4.1170457e+00   3.8316473e+00  -7.8317792e+06
   6.5555185e-10  -9.1801867e-04   4.1163498e+00   3.8325527e+00  -7.7877174e+06
   6.5621874e-10  -9.1283963e-04   4.1156578e+00   3.8334529e+00  -7.7439021e+06
   6.5688563e-10  -9.0768973e-04   4.1149696e+00   3.8343482e+00  -7.7003318e+06
   6.5755252e-10  -9.0256881e-04   4.1142852e+00   3.8352385e+00  -7.6570054e+06
   6.5821941e-10  -8.9747670e-04   4.1136046e+00   3.8361238e+00  -7.6139213e+06
   6.5888630e-10  -8.9241324e-04   4.1129278e+00   3.8370041e+00  -7.5710783e+06
   6.5955318e-10  -8.8737828e-04   4.1122547e+00   3.8378796e+00  -7.5284751e+06
   6.6022007e-10  -8.8237165e-04   4.1115853e+00   3.8387501e+00  -7.4861102e+06
   6.6088696e-10  -8.7739319e-04   4.1109197e+00   3.8396158e+00  -7.4439825e+06
   6.6155385e-10  -8.7244276e-04   4.1102577e+00   3.8404766e+00  -7.4020905e+06
   6.6222074e-10  -8.6752018e-04   4.1095994e+00   3.8413327e+00  -7.3604331e+06
   6.6288763e-10  -8.6262530e-04   4.1089447e+00   3.8421839e+00  -7.3190088e+06
   6.6355452e-10  -8.5775798e-04   4.1082937e+00   3.8430305e+00  -7.2778164e+06
   6.6422141e-10  -8.5291804e-04   4.1076462e+00   3.8438722e+00  -7.2368546e+06
   6.6488830e-10  -8.4810536e-04   4.1070024e+00   3.8447093e+00  -7.1961221e+06
   6.6555519e-10  -8.4331975e-04   4.1063621e+00   3.8455417e+00  -7.1556177e+06
   6.6622207e-10  -8.3856109e-04   4.1057254e+00   3.8463694e+00  -7.1153401e+06
   6.6688896e-10  -8.3382921e-04   4.1050922e+00   3.8471926e+00  -7.0752881e+06
   6.6755585e-10  -8.2912397e-04   4.1044625e+00   3.8480111e+00  -7.0354603e+06
   6.6822274e-10  -8.2444522e-04   4.1038363e+00   3.8488250e+00  -6.9958556e+06
   6.6888963e-10  -8.1979281e-04   4.1032136e+00   3.8496344e+00  -6.9564727e+06
   6.6955652e-10  -8.1516658e-04   4.1025943e+00   3.8504393e+00  -6.9173105e+06
   6.7022341e-10  -8.1056640e-04   4.1019785e+00   3.8512397e+00  -6.8783675e+06
   6.7089030e-10  -8.0599212e-04   4.1013661e+00   3.8520356e+00  -6.8396428e+06
   6.7155719e-10  -8.0144360e-04   4.1007570e+00   3.8528270e+00  -6.8011349e+06
   6.7222407e-10  -7.9692068e-04   4.1001514e+00   3.8536140e+00  -6.7628428e+06
   6.7289096e-10  -7.9242323e-04   4.0995491e+00   3.8543966e+00  -6.7247653e+06
   6.7355785e-10  -7.8795110e-04   4.0989502e+00   3.8551749e+00  -6.6869011e+06
   6.7422474e-10  -7.8350415e-04   4.0983545e+00   3.8559488e+00  -6.6492491e+06
   6.7489163e-10  -7.7908224e-04   4.0977622e+00   3.8567183e+00  -6.6118080e+06
   6.7555852e-10  -7.7468524e-04   4.0971732e+00   3.8574836e+00  -6.5745768e+06
   6.7622541e-10  -7.7031299e-04   4.0965875e+00   3.8582445e+00  -6.5375543e+06
   6.7689230e-10  -7.6596537e-04   4.0960050e+00   3.8590013e+00  -6.5007393e+06
   6.7755919e-10  -7.6164222e-04   4.0954257e+00   3.8597537e+00  -6.4641306e+06
   6.7822608e-10  -7.5734343e-04   4.0948496e+00   3.8605020e+00  -6.4277271e+06
   6.7889296e-10  -7.5306884e-04   4.0942768e+00   3.8612461e+00  -6.3915277e+06
   6.7955985e-10  -7.4881833e-04   4.0937071e+00   3.8619860e+00  -6.3555312e+06
   6.8022674e-10  -7.4459176e-04   4.0931406e+00   3.8627218e+00  -6.3197365e+06
   6.8089363e-10  -7.4038899e-04   4.0925773e+00   3.8634534e+00  -6.2841425e+06
   6.8156052e-10  -7.3620989e-04   4.0920171e+00   3.8641810e+00  -6.2487481e+06
   6.8222741e-10  -7.3205433e-04   4.0914600e+00   3.8649045e+00  -6.2135522e+06
   6.8289430e-10  -7.2792218e-04   4.0909059e+00   3.8656239e+00  -6.1785536e+06
   6.8356119e-10  -7.2381331e-04   4.0903550e+00   3.8663393e+00  -6.1437513e+06
   6.8422808e-10  -7.1972758e-04   4.0898071e+00   3.8670507e+00  -6.1091441e+06
   6.8489496e-10  -7.1566486e-04   4.0892623e+00   3.8677581e+00  -6.0747311e+06
   6.8556185e-10  -7.1162503e-04   4.0887205e+00   3.8684616e+00  -6.0405111e+06
   6.8622874e-10  -7.0760796e-04   4.0881818e+00   3.8691611e+00  -6.0064830e+06
   6.8689563e-10  -7.0361352e-04   4.0876460e+00   3.8698567e+00  -5.9726458e+06
   6.8756252e-10  -6.9964158e-04   4.0871132e+00   3.8705484e+00  -5.9389983e+06
   6.8822941e-10  -6.9569201e-04   4.0865833e+00   3.8712362e+00  -5.9055397e+06
   6.8889630e-10  -6.9176470e-04   4.0860565e+00   3.8719202e+00  -5.8722688e+06
   6.8956319e-10  -6.8785952e-04   4.0855325e+00   3.8726003e+00  -5.8391845e+06
   6.9023008e-10  -6.8397633e-04   4.0850115e+00   3.8732767e+00  -5.8062858e+06
   6.9089697e-10  -6.8011503e-04   4.0844933e+00   3.8739492e+00  -5.7735718e+06
   6.9156385e-10  -6.7627548e-04   4.0839781e+00   3.8746180e+00  -5.7410413e+06
   6.9223074e-10  -6.7245757e-04   4.0834657e+00   3.8752830e+00  -5.7086934e+06
   6.9289763e-10  -6.6866117e-04   4.0829561e+00   3.8759443e+00  -5.6765270e+06
   6.9356452e-10  -6.6488616e-04   4.0824494e+00   3.8766019e+00  -5.6445411e+06
   6.9423141e-10  -6.6113242e-04   4.0819456e+00   3.8772558e+00  -5.6127347e+06
   6.9489830e-10  -6.5739983e-04   4.0814445e+00   3.8779060e+00  -5.5811068e+06
   6.9556519e-10  -6.5368828e-04   4.0809462e+00   3.8785526e+00  -5.5496565e+06
   6.9623208e-10  -6.4999765e-04   4.0804507e+00   3.8791956e+00  -5.5183827e+06
   6.9689897e-10  -6.4632781e-04   4.0799580e+00   3.8798349e+00  -5.4872845e+06
   6.9756586e-10  -6.4267865e-04   4.0794680e+00   3.8804707e+00  -5.4563608e+06
   6.9823274e-10  -6.3905006e-04   4.0789807e+00   3.8811029e+00  -5.4256107e+06
   6.9889963e-10  -6.3544192e-04   4.0784962e+00   3.8817316e+00  -5.3950333e+06
   6.9956652e-10  -6.3185411e-04   4.0780143e+00   3.8823567e+00  -5.3646276e+06
   7.0023341e-10  -6.2828653e-04   4.0775351e+00   3.8829784e+00  -5.3343925e+06
   7.0090030e-10  -6.2473905e-04   4.0770587e+00   3.8835965e+00  -5.3043273e+06
   7.0156719e-10  -6.2121156e-04   4.0765848e+00   3.8842112e+00  -5.2744308e+06
   7.0223408e-10  -6.1770396e-04   4.0761136e+00   3.8848224e+00  -5.2447023e+06
   7.0290097e-10  -6.1421613e-04   4.0756450e+00   3.8854302e+00  -5.2151407e+06
   7.0356786e-10  -6.1074796e-04   4.0751791e+00   3.8860346e+00  -5.1857451e+06
   7.0423474e-10  -6.0729934e-04   4.0747157e+00   3.8866357e+00  -5.1565146e+06
   7.0490163e-10  -6.0387015e-04   4.0742550e+00   3.8872333e+00  -5.1274482e+06
   7.0556852e-10  -6.0046030e-04   4.0737968e+00   3.8878276e+00  -5.0985452e+06
   7.0623541e-10  -5.9706967e-04   4.0733411e+00   3.8884185e+00  -5.0698044e+06
   7.0690230e-10  -5.9369815e-04   4.0728880e+00   3.8890061e+00  -5.0412251e+06
   7.0756919e-10  -5.9034564e-04   4.0724374e+00   3.8895905e+00  -5.0128064e+06
   7.0823608e-10  -5.8701202e-04   4.0719894e+00   3.8901715e+00  -4.9845473e+06
   7.0890297e-10  -5.8369720e-04   4.0715438e+00   3.8907493e+00  -4.9564469e+06
   7.0956986e-10  -5.8040107e-04   4.0711007e+00   3.8913239e+00  -4.9285045e+06
   7.1023675e-10  -5.7712352e-04   4.0706601e+00   3.8918952e+00  -4.9007190e+06
   7.1090363e-10  -5.7386445e-04   4.0702220e+00   3.8924633e+00  -4.8730896e+06
   7.1157052e-10  -5.7062375e-04   4.0697863e+00   3.8930283e+00  -4.8456155e+06
   7.1223741e-10  -5.6740133e-04   4.0693530e+00   3.8935900e+00  -4.8182957e+06
   7.1290430e-10  -5.6419707e-04   4.0689222e+00   3.8941486e+00  -4.7911295e+06
   7.1357119e-10  -5.6101088e-04   4.0684937e+00   3.8947041e+00  -4.7641159e+06
   7.1423808e-10  -5.5784266e-04   4.0680677e+00   3.8952564e+00  -4.7372541e+06
   7.1490497e-10  -5.5469229e-04   4.0676440e+00   3.8958057e+00  -4.7105433e+06
   7.1557186e-10  -5.5155970e-04   4.0672227e+00   3.8963518e+00  -4.6839826e+06
   7.1623875e-10  -5.4844476e-04   4.0668037e+00   3.8968949e+00  -4.6575712e+06
   7.1690564e-10  -5.4534739e-04   4.0663871e+00   3.8974350e+00  -4.6313083e+06
   7.1757252e-10  -5.4226749e-04   4.0659728e+00   3.8979720e+00  -4.6051929e+06
   7.1823941e-10  -5.3920495e-04   4.0655609e+00   3.8985060e+00  -4.5792244e+06
   7.1890630e-10  -5.3615968e-04   4.0651512e+00   3.8990370e+00  -4.5534018e+06
   7.1957319e-10  -5.3313159e-04   4.0647438e+00   3.8995650e+00  -4.5277244e+06
   7.2024008e-10  -5.3012057e-04   4.0643387e+00   3.9000901e+00  -4.5021913e+06
   7.2090697e-10  -5.2712653e-04   4.0639359e+00   3.9006122e+00  -4.4768018e+06
   7.2157386e-10  -5.2414938e-04   4.0635353e+00   3.9011314e+00  -4.4515550e+06
   7.2224075e-10  -5.2118901e-04   4.0631369e+00   3.9016476e+00  -4.4264501e+06
   7.2290764e-10  -5.1824535e-04   4.0627408e+00   3.9021610e+00  -4.4014864e+06
   7.2357452e-10  -5.1531828e-04   4.0623469e+00   3.9026714e+00  -4.3766631e+06
   7.2424141e-10  -5.1240772e-04   4.0619552e+00   3.9031790e+00  -4.3519794e+06
   7.2490830e-10  -5.0951358e-04   4.0615657e+00   3.9036838e+00  -4.3274344e+06
   7.2557519e-10  -5.0663576e-04   4.0611783e+00   3.9041857e+00  -4.3030275e+06
   7.2624208e-10  -5.0377417e-04   4.0607931e+00   3.9046848e+00  -4.2787578e+06
   7.2690897e-10  -5.0092872e-04   4.0604101e+00   3.9051811e+00  -4.2546246e+06
   7.2757586e-10  -4.9809932e-04   4.0600292e+00   3.9056746e+00  -4.2306271e+06
   7.2824275e-10  -4.9528588e-04   4.0596505e+00   3.9061653e+00  -4.2067646e+06
   7.2890964e-10  -4.9248831e-04   4.0592739e+00   3.9066533e+00  -4.1830363e+06
   7.2957653e-10  -4.8970652e-04   4.0588993e+00   3.9071385e+00  -4.1594414e+06
   7.3024341e-10  -4.8694042e-04   4.0585269e+00   3.9076210e+00  -4.1359793e+06
   7.3091030e-10  -4.8418993e-04   4.0581566e+00   3.9081008e+00  -4.1126491e+06
   7.3157719e-10  -4.8145494e-04   4.0577883e+00   3.9085779e+00  -4.0894501e+06
   7.3224408e-10  -4.7873539e-04   4.0574221e+00   3.9090523e+00  -4.0663817e+06
   7.3291097e-10  -4.7603118e-04   4.0570579e+00   3.9095240e+00  -4.0434430e+06
   7.3357786e-10  -4.7334222e-04   4.0566958e+00   3.9099931e+00  -4.0206334e+06
   7.3424475e-10  -4.7066843e-04   4.0563357e+00   3.9104596e+00  -3.9979521e+06
   7.3491164e-10  -4.6800973e-04   4.0559776e+00   3.9109234e+00  -3.9753984e+06
   7.3557853e-10  -4.6536602e-04   4.0556215e+00   3.9113846e+00  -3.9529715e+06
   7.3624542e-10  -4.6273723e-04   4.0552674e+00   3.9118432e+00  -3.9306709e+06
   7.3691230e-10  -4.6012327e-04   4.0549153e+00   3.9122993e+00  -3.9084957e+06
   7.3757919e-10  -4.5752406e-04   4.0545652e+00   3.9127528e+00  -3.8864453e+06
   7.3824608e-10  -4.5493951e-04   4.0542170e+00   3.9132037e+00  -3.8645190e+06
   7.3891297e-10  -4.5236954e-04   4.0538708e+00   3.9136521e+00  -3.8427160e+06
   7.3957986e-10  -4.4981407e-04   4.0535265e+00   3.9140980e+00  -3.8210358e+06
   7.4024675e-10  -4.4727302e-04   4.0531841e+00   3.9145414e+00  -3.7994775e+06
   7.4091364e-10  -4.4474631e-04   4.0528437e+00   3.9149822e+00  -3.7780406e+06
   7.4158053e-10  -4.4223385e-04   4.0525052e+00   3.9154206e+00  -3.7567243e+06
   7.4224742e-10  -4.3973557e-04   4.0521685e+00   3.9158566e+00  -3.7355279e+06
   7.4291430e-10  -4.3725138e-04   4.0518338e+00   3.9162900e+00  -3.7144509e+06
   7.4358119e-10  -4.3478121e-04   4.0515009e+00   3.9167211e+00  -3.6934925e+06
   7.4424808e-10  -4.3232498e-04   4.0511699e+00   3.9171497e+00  -3.6726520e+06
   7.4491497e-10  -4.2988261e-04   4.0508407e+00   3.9175759e+00  -3.6519289e+06
   7.4558186e-10  -4.2745402e-04   4.0505134e+00   3.9179997e+00  -3.6313224e+06
   7.4624875e-10  -4.2503914e-04   4.0501879e+00   3.9184211e+00  -3.6108318e+06
   7.4691564e-10  -4.2263788e-04   4.0498642e+00   3.9188402e+00  -3.5904566e+06
   7.4758253e-10  -4.2025017e-04   4.0495424e+00   3.9192569e+00  -3.5701962e+06
   7.4824942e-10  -4.1787593e-04   4.0492224e+00   3.9196712e+00  -3.5500497e+06
   7.4891631e-10  -4.1551509e-04   4.0489041e+00   3.9200833e+00  -3.5300167e+06
   7.4958319e-10  -4.1316758e-04   4.0485876e+00   3.9204930e+00  -3.5100965e+06
   7.5025008e-10  -4.1083331e-04   4.0482729e+00   3.9209004e+00  -3.4902884e+06
   7.5091697e-10  -4.0851222e-04   4.0479600e+00   3.9213055e+00  -3.4705918e+06
   7.5158386e-10  -4.0620422e-04   4.0476488e+00   3.9217083e+00  -3.4510061e+06
   7.5225075e-10  -4.0390925e-04   4.0473394e+00   3.9221089e+00  -3.4315307e+06
   7.5291764e-10  -4.0162723e-04   4.0470317e+00   3.9225072e+00  -3.4121649e+06
   7.5358453e-10  -3.9935809e-04   4.0467257e+00   3.9229032e+00  -3.3929082e+06
   7.5425142e-10  -3.9710175e-04   4.0464215e+00   3.9232971e+00  -3.3737599e+06
   7.5491831e-10  -3.9485815e-04   4.0461189e+00   3.9236887e+00  -3.3547194e+06
   7.5558520e-10  -3.9262721e-04   4.0458181e+00   3.9240781e+00  -3.3357862e+06
   7.5625208e-10  -3.9040887e-04   4.0455189e+00   3.9244653e+00  -3.3169595e+06
   7.5691897e-10  -3.8820304e-04   4.0452214e+00   3.9248503e+00  -3.2982389e+06
   7.5758586e-10  -3.8600966e-04   4.0449256e+00   3.9252332e+00  -3.2796237e+06
   7.5825275e-10  -3.8382867e-04   4.0446314e+00   3.9256139e+00  -3.2611134e+06
   7.5891964e-10  -3.8165998e-04   4.0443389e+00   3.9259925e+00  -3.2427073e+06
   7.5958653e-10  -3.7950353e-04   4.0440481e+00   3.9263690e+00  -3.2244048e+06
   7.6025342e-10  -3.7735925e-04   4.0437588e+00   3.9267433e+00  -3.2062054e+06
   7.6092031e-10  -3.7522708e-04   4.0434712e+00   3.9271155e+00  -3.1881086e+06
   7.6158720e-10  -3.7310694e-04   4.0431852e+00   3.9274856e+00  -3.1701136e+06
   7.6225408e-10  -3.7099877e-04   4.0429008e+00   3.9278537e+00  -3.1522200e+06
   7.6292097e-10  -3.6890250e-04   4.0426180e+00   3.9282196e+00  -3.1344272e+06
   7.6358786e-10  -3.6681806e-04   4.0423368e+00   3.9285835e+00  -3.1167346e+06
   7.6425475e-10  -3.6474539e-04   4.0420571e+00   3.9289454e+00  -3.0991417e+06
   7.6492164e-10  -3.6268442e-04   4.0417790e+00   3.9293052e+00  -3.0816479e+06
   7.6558853e-10  -3.6063508e-04   4.0415025e+00   3.9296630e+00  -3.0642526e+06
   7.6625542e-10  -3.5859731e-04   4.0412276e+00   3.9300188e+00  -3.0469553e+06
   7.6692231e-10  -3.5657104e-04   4.0409542e+00   3.9303726e+00  -3.0297555e+06
   7.6758920e-10  -3.5455621e-04   4.0406823e+00   3.9307243e+00  -3.0126526e+06
   7.6825609e-10  -3.5255275e-04   4.0404119e+00   3.9310741e+00  -2.9956460e+06
   7.6892297e-10  -3.5056061e-04   4.0401431e+00   3.9314220e+00  -2.9787352e+06
   7.6958986e-10  -3.4857971e-04   4.0398757e+00   3.9317679e+00  -2.9619197e+06
   7.7025675e-10  -3.4660999e-04   4.0396099e+00   3.9321118e+00  -2.9451989e+06
   7.7092364e-10  -3.4465139e-04   4.0393456e+00   3.9324538e+00  -2.9285724e+06
   7.7159053e-10  -3.4270385e-04   4.0390827e+00   3.9327938e+00  -2.9120395e+06
   7.7225742e-10  -3.4076731e-04   4.0388213e+00   3.9331320e+00  -2.8955998e+06
   7.7292431e-10  -3.3884169e-04   4.0385614e+00   3.9334682e+00  -2.8792527e+06
   7.7359120e-10  -3.3692695e-04   4.0383030e+00   3.9338026e+00  -2.8629977e+06
   7.7425809e-10  -3.3502302e-04   4.0380460e+00   3.9341350e+00  -2.8468343e+06
   7.7492497e-10  -3.3312984e-04   4.0377904e+00   3.9344656e+00  -2.8307620e+06
   7.7559186e-10  -3.3124734e-04   4.0375363e+00   3.9347944e+00  -2.8147803e+06
   7.7625875e-10  -3.2937548e-04   4.0372836e+00   3.9351212e+00  -2.7988886e+06
   7.7692564e-10  -3.2751418e-04   4.0370323e+00   3.9354463e+00  -2.7830865e+06
   7.7759253e-10  -3.2566339e-04   4.0367824e+00   3.9357695e+00  -2.7673734e+06
   7.7825942e-10  -3.2382305e-04   4.0365340e+00   3.9360909e+00  -2.7517489e+06
   7.7892631e-10  -3.2199310e-04   4.0362869e+00   3.9364104e+00  -2.7362124e+06
   7.7959320e-10  -3.2017348e-04   4.0360412e+00   3.9367282e+00  -2.7207635e+06
   7.8026009e-10  -3.1836414e-04   4.0357969e+00   3.9370442e+00  -2.7054017e+06
   7.8092698e-10  -3.1656501e-04   4.0355540e+00   3.9373584e+00  -2.6901265e+06
   7.8159386e-10  -3.1477605e-04   4.0353124e+00   3.9376708e+00  -2.6749373e+06
   7.8226075e-10  -3.1299718e-04   4.0350722e+00   3.9379815e+00  -2.6598338e+06
   7.8292764e-10  -3.1122835e-04   4.0348334e+00   3.9382904e+00  -2.6448153e+06
   7.8359453e-10  -3.0946952e-04   4.0345958e+00   3.9385976e+00  -2.6298816e+06
   7.8426142e-10  -3.0772061e-04   4.0343597e+00   3.9389031e+00  -2.6150320e+06
   7.8492831e-10  -3.0598159e-04   4.0341248e+00   3.9392068e+00  -2.6002661e+06
   7.8559520e-10  -3.0425238e-04   4.0338913e+00   3.9395088e+00  -2.5855835e+06
   7.8626209e-10  -3.0253293e-04   4.0336590e+00   3.9398091e+00  -2.5709836e+06
   7.8692898e-10  -3.0082319e-04   4.0334281e+00   3.9401078e+00  -2.5564660e+06
   7.8759587e-10  -2.9912311e-04   4.0331985e+00   3.9404047e+00  -2.5420303e+06
   7.8826275e-10  -2.9743263e-04   4.0329702e+00   3.9407000e+00  -2.5276759e+06
   7.8892964e-10  -2.9575169e-04   4.0327431e+00   3.9409936e+00  -2.5134024e+06
   7.8959653e-10  -2.9408025e-04   4.0325174e+00   3.9412855e+00  -2.4992095e+06
   7.9026342e-10  -2.9241825e-04   4.0322929e+00   3.9415758e+00  -2.4850965e+06
   7.9093031e-10  -2.9076563e-04   4.0320696e+00   3.9418645e+00  -2.4710631e+06
   7.9159720e-10  -2.8912234e-04   4.0318476e+00   3.9421515e+00  -2.4571088e+06
   7.9226409e-10  -2.8748833e-04   4.0316269e+00   3.9424369e+00  -2.4432332e+06
   7.9293098e-10  -2.8586355e-04   4.0314074e+00   3.9427208e+00  -2.4294359e+06
   7.9359787e-10  -2.8424795e-04   4.0311891e+00   3.9430030e+00  -2.4157163e+06
   7.9426475e-10  -2.8264147e-04   4.0309721e+00   3.9432836e+00  -2.4020741e+06
   7.9493164e-10  -2.8104406e-04   4.0307563e+00   3.9435626e+00  -2.3885087e+06
   7.9559853e-10  -2.7945567e-04   4.0305417e+00   3.9438401e+00  -2.3750199e+06
   7.9626542e-10  -2.7787626e-04   4.0303283e+00   3.9441160e+00  -2.3616072e+06
   7.9693231e-10  -2.7630576e-04   4.0301161e+00   3.9443904e+00  -2.3482700e+06
   7.9759920e-10  -2.7474413e-04   4.0299051e+00   3.9446632e+00  -2.3350081e+06
   7.9826609e-10  -2.7319133e-04   4.0296952e+00   3.9449344e+00  -2.3218210e+06
   7.9893298e-10  -2.7164729e-04   4.0294866e+00   3.9452042e+00  -2.3087082e+06
   7.9959987e-10  -2.7011197e-04   4.0292791e+00   3.9454724e+00  -2.2956694e+06
   8.0026676e-10  -2.6858532e-04   4.0290728e+00   3.9457391e+00  -2.2827041e+06
   8.0093364e-10  -2.6706730e-04   4.0288677e+00   3.9460043e+00  -2.2698119e+06
   8.0160053e-10  -2.6555785e-04   4.0286637e+00   3.9462680e+00  -2.2569924e+06
   8.0226742e-10  -2.6405692e-04   4.0284609e+00   3.9465302e+00  -2.2442452e+06
   8.0293431e-10  -2.6256447e-04   4.0282592e+00   3.9467909e+00  -2.2315699e+06
   8.0360120e-10  -2.6108045e-04   4.0280586e+00   3.9470502e+00  -2.2189661e+06
   8.0426809e-10  -2.5960482e-04   4.0278592e+00   3.9473080e+00  -2.2064333e+06
   8.0493498e-10  -2.5813751e-04   4.0276609e+00   3.9475644e+00  -2.1939713e+06
   8.0560187e-10  -2.5667850e-04   4.0274637e+00   3.9478193e+00  -2.1815795e+06
   8.0626876e-10  -2.5522772e-04   4.0272676e+00   3.9480727e+00  -2.1692577e+06
   8.0693565e-10  -2.5378514e-04   4.0270726e+00   3.9483248e+00  -2.1570053e+06
   8.0760253e-10  -2.5235071e-04   4.0268787e+00   3.9485754e+00  -2.1448220e+06
   8.0826942e-10  -2.5092438e-04   4.0266859e+00   3.9488246e+00  -2.1327075e+06
   8.0893631e-10  -2.4950610e-04   4.0264942e+00   3.9490724e+00  -2.1206612e+06
   8.0960320e-10  -2.4809584e-04   4.0263035e+00   3.9493188e+00  -2.1086830e+06
   8.1027009e-10  -2.4669354e-04   4.0261140e+00   3.9495638e+00  -2.0967723e+06
   8.1093698e-10  -2.4529917e-04   4.0259255e+00   3.9498075e+00  -2.0849287e+06
   8.1160387e-10  -2.4391267e-04   4.0257380e+00   3.9500497e+00  -2.0731520e+06
   8.1227076e-10  -2.4253400e-04   4.0255517e+00   3.9502906e+00  -2.0614417e+06
   8.1293765e-10  -2.4116312e-04   4.0253663e+00   3.9505301e+00  -2.0497975e+06
   8.1360453e-10  -2.3979998e-04   4.0251820e+00   3.9507683e+00  -2.0382190e+06
   8.1427142e-10  -2.3844454e-04   4.0249988e+00   3.9510052e+00  -2.0267057e+06
   8.1493831e-10  -2.3709676e-04   4.0248166e+00   3.9512407e+00  -2.0152575e+06
   8.1560520e-10  -2.3575659e-04   4.0246354e+00   3.9514748e+00  -2.0038738e+06
   8.1627209e-10  -2.3442400e-04   4.0244552e+00   3.9517077e+00  -1.9925543e+06
   8.1693898e-10  -2.3309893e-04   4.0242760e+00   3.9519392e+00  -1.9812987e+06
   8.1760587e-10  -2.3178134e-04   4.0240979e+00   3.9521695e+00  -1.9701066e+06
   8.1827276e-10  -2.3047120e-04   4.0239207e+00   3.9523984e+00  -1.9589776e+06
   8.1893965e-10  -2.2916846e-04   4.0237446e+00   3.9526261e+00  -1.9479114e+06
   8.1960654e-10  -2.2787308e-04   4.0235694e+00   3.9528524e+00  -1.9369077e+06
   8.2027342e-10  -2.2658502e-04   4.0233952e+00   3.9530775e+00  -1.9259660e+06
   8.2094031e-10  -2.2530423e-04   4.0232220e+00   3.9533013e+00  -1.9150861e+06
   8.2160720e-10  -2.2403068e-04   4.0230498e+00   3.9535239e+00  -1.9042675e+06
   8.2227409e-10  -2.2276432e-04   4.0228786e+00   3.9537452e+00  -1.8935100e+06
   8.2294098e-10  -2.2150512e-04   4.0227083e+00   3.9539652e+00  -1.8828132e+06
   8.2360787e-10  -2.2025303e-04   4.0225389e+00   3.9541840e+00  -1.8721767e+06
   8.2427476e-10  -2.1900801e-04   4.0223706e+00   3.9544016e+00  -1.8616003e+06
   8.2494165e-10  -2.1777003e-04   4.0222031e+00   3.9546179e+00  -1.8510835e+06
   8.2560854e-10  -2.1653904e-04   4.0220366e+00   3.9548331e+00  -1.8406261e+06
   8.2627543e-10  -2.1531500e-04   4.0218711e+00   3.9550470e+00  -1.8302277e+06
   8.2694231e-10  -2.1409788e-04   4.0217065e+00   3.9552597e+00  -1.8198879e+06
   8.2760920e-10  -2.1288764e-04   4.0215428e+00   3.9554712e+00  -1.8096065e+06
   8.2827609e-10  -2.1168423e-04   4.0213800e+00   3.9556815e+00  -1.7993831e+06
   8.2894298e-10  -2.1048763e-04   4.0212182e+00   3.9558906e+00  -1.7892174e+06
   8.2960987e-10  -2.0929778e-04   4.0210572e+00   3.9560985e+00  -1.7791091e+06
   8.3027676e-10  -2.0811465e-04   4.0208972e+00   3.9563053e+00  -1.7690578e+06
   8.3094365e-10  -2.0693821e-04   4.0207380e+00   3.9565109e+00  -1.7590633e+06
   8.3161054e-10  -2.0576842e-04   4.0205798e+00   3.9567154e+00  -1.7491251e+06
   8.3227743e-10  -2.0460523e-04   4.0204225e+00   3.9569187e+00  -1.7392430e+06
   8.3294431e-10  -2.0344862e-04   4.0202660e+00   3.9571208e+00  -1.7294167e+06
   8.3361120e-10  -2.0229854e-04   4.0201104e+00   3.9573218e+00  -1.7196459e+06
   8.3427809e-10  -2.0115496e-04   4.0199557e+00   3.9575217e+00  -1.7099302e+06
   8.3494498e-10  -2.0001784e-04   4.0198019e+00   3.9577204e+00  -1.7002693e+06
   8.3561187e-10  -1.9888715e-04   4.0196489e+00   3.9579180e+00  -1.6906629e+06
   8.3627876e-10  -1.9776284e-04   4.0194968e+00   3.9581145e+00  -1.6811108e+06
   8.3694565e-10  -1.9664489e-04   4.0193456e+00   3.9583099e+00  -1.6716126e+06
   8.3761254e-10  -1.9553325e-04   4.0191952e+00   3.9585042e+00  -1.6621679e+06
   8.3827943e-10  -1.9442789e-04   4.0190456e+00   3.9586974e+00  -1.6527766e+06
   8.3894632e-10  -1.9332878e-04   4.0188969e+00   3.9588895e+00  -1.6434383e+06
   8.3961320e-10  -1.9223588e-04   4.0187490e+00   3.9590805e+00  -1.6341527e+06
   8.4028009e-10  -1.9114915e-04   4.0186020e+00   3.9592705e+00  -1.6249195e+06
   8.4094698e-10  -1.9006856e-04   4.0184558e+00   3.9594594e+00  -1.6157384e+06
   8.4161387e-10  -1.8899408e-04   4.0183104e+00   3.9596472e+00  -1.6066092e+06
   8.4228076e-10  -1.8792567e-04   4.0181659e+00   3.9598339e+00  -1.5975314e+06
   8.4294765e-10  -1.8686330e-04   4.0180221e+00   3.9600196e+00  -1.5885049e+06
   8.4361454e-10  -1.8580693e-04   4.0178792e+00   3.9602043e+00  -1.5795294e+06
   8.4428143e-10  -1.8475653e-04   4.0177370e+00   3.9603879e+00  -1.5706045e+06
   8.4494832e-10  -1.8371206e-04   4.0175957e+00   3.9605704e+00  -1.5617300e+06
   8.4561521e-10  -1.8267350e-04   4.0174552e+00   3.9607520e+00  -1.5529056e+06
   8.4628209e-10  -1.8164080e-04   4.0173154e+00   3.9609325e+00  -1.5441310e+06
   8.4694898e-10  -1.8061394e-04   4.0171764e+00   3.9611120e+00  -1.5354060e+06
   8.4761587e-10  -1.7959288e-04   4.0170383e+00   3.9612904e+00  -1.5267301e+06
   8.4828276e-10  -1.7857760e-04   4.0169009e+00   3.9614679e+00  -1.5181033e+06
   8.4894965e-10  -1.7756804e-04   4.0167642e+00   3.9616444e+00  -1.5095252e+06
   8.4961654e-10  -1.7656420e-04   4.0166284e+00   3.9618199e+00  -1.5009955e+06
   8.5028343e-10  -1.7556602e-04   4.0164933e+00   3.9619943e+00  -1.4925139e+06
   8.5095032e-10  -1.7457349e-04   4.0163590e+00   3.9621678e+00  -1.4840802e+06
   8.5161721e-10  -1.7358656e-04   4.0162254e+00   3.9623404e+00  -1.4756941e+06
   8.5228409e-10  -1.7260521e-04   4.0160926e+00   3.9625119e+00  -1.4673554e+06
   8.5295098e-10  -1.7162941e-04   4.0159605e+00   3.9626825e+00  -1.4590638e+06
   8.5361787e-10  -1.7065912e-04   4.0158292e+00   3.9628521e+00  -1.4508189e+06
   8.5428476e-10  -1.6969431e-04   4.0156986e+00   3.9630207e+00  -1.4426206e+06
   8.5495165e-10  -1.6873496e-04   4.0155688e+00   3.9631885e+00  -1.4344686e+06
   8.5561854e-10  -1.6778102e-04   4.0154396e+00   3.9633552e+00  -1.4263626e+06
   8.5628543e-10  -1.6683248e-04   4.0153113e+00   3.9635210e+00  -1.4183024e+06
   8.5695232e-10  -1.6588930e-04   4.0151836e+00   3.9636859e+00  -1.4102877e+06
   8.5761921e-10  -1.6495144e-04   4.0150566e+00   3.9638499e+00  -1.4023182e+06
   8.5828610e-10  -1.6401889e-04   4.0149304e+00   3.9640129e+00  -1.3943937e+06
   8.5895298e-10  -1.6309161e-04   4.0148049e+00   3.9641750e+00  -1.3865140e+06
   8.5961987e-10  -1.6216956e-04   4.0146801e+00   3.9643362e+00  -1.3786788e+06
   8.6028676e-10  -1.6125273e-04   4.0145560e+00   3.9644965e+00  -1.3708878e+06
   8.6095365e-10  -1.6034108e-04   4.0144326e+00   3.9646558e+00  -1.3631407e+06
   8.6162054e-10  -1.5943458e-04   4.0143099e+00   3.9648143e+00  -1.3554375e+06
   8.6228743e-10  -1.5853320e-04   4.0141878e+00   3.9649719e+00  -1.3477777e+06
   8.6295432e-10  -1.5763692e-04   4.0140665e+00   3.9651286e+00  -1.3401611e+06
   8.6362121e-10  -1.5674570e-04   4.0139458e+00   3.9652844e+00  -1.3325876e+06
   8.6428810e-10  -1.5585952e-04   4.0138259e+00   3.9654393e+00  -1.3250569e+06
   8.6495498e-10  -1.5497835e-04   4.0137066e+00   3.9655933e+00  -1.3175686e+06
   8.6562187e-10  -1.5410216e-04   4.0135880e+00   3.9657465e+00  -1.3101227e+06
   8.6628876e-10  -1.5323091e-04   4.0134700e+00   3.9658988e+00  -1.3027188e+06
   8.6695565e-10  -1.5236460e-04   4.0133527e+00   3.9660503e+00  -1.2953566e+06
   8.6762254e-10  -1.5150317e-04   4.0132361e+00   3.9662009e+00  -1.2880361e+06
   8.6828943e-10  -1.5064662e-04   4.0131201e+00   3.9663507e+00  -1.2807569e+06
   8.6895632e-10  -1.4979491e-04   4.0130048e+00   3.9664996e+00  -1.2735188e+06
   8.6962321e-10  -1.4894801e-04   4.0128902e+00   3.9666476e+00  -1.2663216e+06
   8.7029010e-10  -1.4810589e-04   4.0127761e+00   3.9667949e+00  -1.2591650e+06
   8.7095699e-10  -1.4726854e-04   4.0126628e+00   3.9669413e+00  -1.2520489e+06
   8.7162387e-10  -1.4643592e-04   4.0125500e+00   3.9670868e+00  -1.2449729e+06
   8.7229076e-10  -1.4560800e-04   4.0124379e+00   3.9672316e+00  -1.2379369e+06
   8.7295765e-10  -1.4478476e-04   4.0123265e+00   3.9673755e+00  -1.2309406e+06
   8.7362454e-10  -1.4396618e-04   4.0122156e+00   3.9675186e+00  -1.2239838e+06
   8.7429143e-10  -1.4315222e-04   4.0121054e+00   3.9676609e+00  -1.2170663e+06
   8.7495832e-10  -1.4234286e-04   4.0119958e+00   3.9678024e+00  -1.2101879e+06
   8.7562521e-10  -1.4153808e-04   4.0118868e+00   3.9679431e+00  -1.2033483e+06
   8.7629210e-10  -1.4073784e-04   4.0117785e+00   3.9680831e+00  -1.1965473e+06
   8.7695899e-10  -1.3994213e-04   4.0116707e+00   3.9682222e+00  -1.1897848e+06
   8.7762588e-10  -1.3915091e-04   4.0115636e+00   3.9683605e+00  -1.1830604e+06
   8.7829276e-10  -1.3836417e-04   4.0114570e+00   3.9684981e+00  -1.1763740e+06
   8.7895965e-10  -1.3758187e-04   4.0113511e+00   3.9686349e+00  -1.1697254e+06
   8.7962654e-10  -1.3680400e-04   4.0112458e+00   3.9687709e+00  -1.1631143e+06
   8.8029343e-10  -1.3603052e-04   4.0111410e+00   3.9689061e+00  -1.1565406e+06
   8.8096032e-10  -1.3526141e-04   4.0110369e+00   3.9690406e+00  -1.1500040e+06
   8.8162721e-10  -1.3449665e-04   4.0109333e+00   3.9691743e+00  -1.1435043e+06
   8.8229410e-10  -1.3373621e-04   4.0108303e+00   3.9693073e+00  -1.1370413e+06
   8.8296099e-10  -1.3298007e-04   4.0107279e+00   3.9694395e+00  -1.1306148e+06
   8.8362788e-10  -1.3222820e-04   4.0106261e+00   3.9695709e+00  -1.1242246e+06
   8.8429476e-10  -1.3148059e-04   4.0105248e+00   3.9697016e+00  -1.1178705e+06
   8.8496165e-10  -1.3073719e-04   4.0104242e+00   3.9698316e+00  -1.1115523e+06
   8.8562854e-10  -1.2999800e-04   4.0103241e+00   3.9699609e+00  -1.1052698e+06
   8.8629543e-10  -1.2926299e-04   4.0102245e+00   3.9700894e+00  -1.0990228e+06
   8.8696232e-10  -1.2853214e-04   4.0101255e+00   3.9702172e+00  -1.0928110e+06
   8.8762921e-10  -1.2780541e-04   4.0100271e+00   3.9703443e+00  -1.0866344e+06
   8.8829610e-10  -1.2708279e-04   4.0099292e+00   3.9704706e+00  -1.0804926e+06
   8.8896299e-10  -1.2636425e-04   4.0098319e+00   3.9705963e+00  -1.0743855e+06
   8.8962988e-10  -1.2564978e-04   4.0097351e+00   3.9707212e+00  -1.0683129e+06
   8.9029677e-10  -1.2493935e-04   4.0096389e+00   3.9708454e+00  -1.0622746e+06
   8.9096365e-10  -1.2423293e-04   4.0095432e+00   3.9709689e+00  -1.0562704e+06
   8.9163054e-10  -1.2353050e-04   4.0094481e+00   3.9710918e+00  -1.0503001e+06
   8.9229743e-10  -1.2283204e-04   4.0093535e+00   3.9712139e+00  -1.0443636e+06
   8.9296432e-10  -1.2213753e-04   4.0092594e+00   3.9713353e+00  -1.0384606e+06
   8.9363121e-10  -1.2144695e-04   4.0091659e+00   3.9714561e+00  -1.0325909e+06
   8.9429810e-10  -1.2076027e-04   4.0090729e+00   3.9715762e+00  -1.0267544e+06
   8.9496499e-10  -1.2007747e-04   4.0089804e+00   3.9716956e+00  -1.0209508e+06
   8.9563188e-10  -1.1939853e-04   4.0088884e+00   3.9718143e+00  -1.0151800e+06
   8.9629877e-10  -1.1872343e-04   4.0087970e+00   3.9719323e+00  -1.0094419e+06
   8.9696566e-10  -1.1805215e-04   4.0087060e+00   3.9720497e+00  -1.0037361e+06
   8.9763254e-10  -1.1738466e-04   4.0086156e+00   3.9721664e+00  -9.9806258e+05
   8.9829943e-10  -1.1672094e-04   4.0085257e+00   3.9722825e+00  -9.9242110e+05
   8.9896632e-10  -1.1606097e-04   4.0084363e+00   3.9723979e+00  -9.8681149e+05
   8.9963321e-10  -1.1540474e-04   4.0083474e+00   3.9725126e+00  -9.8123357e+05
   9.0030010e-10  -1.1475221e-04   4.0082590e+00   3.9726268e+00  -9.7568716e+05
   9.0096699e-10  -1.1410337e-04   4.0081711e+00   3.9727402e+00  -9.7017208e+05
   9.0163388e-10  -1.1345820e-04   4.0080837e+00   3.9728530e+00  -9.6468815e+05
   9.0230077e-10  -1.1281668e-04   4.0079968e+00   3.9729652e+00  -9.5923520e+05
   9.0296766e-10  -1.1217878e-04   4.0079104e+00   3.9730768e+00  -9.5381306e+05
   9.0363454e-10  -1.1154449e-04   4.0078245e+00   3.9731877e+00  -9.4842155e+05
   9.0430143e-10  -1.1091378e-04   4.0077390e+00   3.9732980e+00  -9.4306049e+05
   9.0496832e-10  -1.1028664e-04   4.0076540e+00   3.9734076e+00  -9.3772973e+05
   9.0563521e-10  -1.0966305e-04   4.0075696e+00   3.9735167e+00  -9.3242907e+05
   9.0630210e-10  -1.0904297e-04   4.0074856e+00   3.9736251e+00  -9.2715837e+05
   9.0696899e-10  -1.0842641e-04   4.0074020e+00   3.9737330e+00  -9.2191743e+05
   9.0763588e-10  -1.0781333e-04   4.0073190e+00   3.9738402e+00  -9.1670611e+05
   9.0830277e-10  -1.0720371e-04   4.0072364e+00   3.9739468e+00  -9.1152423e+05
   9.0896966e-10  -1.0659754e-04   4.0071542e+00   3.9740528e+00  -9.0637162e+05
   9.0963655e-10  -1.0599480e-04   4.0070726e+00   3.9741582e+00  -9.0124812e+05
   9.1030343e-10  -1.0539547e-04   4.0069914e+00   3.9742630e+00  -8.9615357e+05
   9.1097032e-10  -1.0479952e-04   4.0069106e+00   3.9743672e+00  -8.9108780e+05
   9.1163721e-10  -1.0420694e-04   4.0068304e+00   3.9744708e+00  -8.8605065e+05
   9.1230410e-10  -1.0361771e-04   4.0067505e+00   3.9745739e+00  -8.8104196e+05
   9.1297099e-10  -1.0303181e-04   4.0066711e+00   3.9746763e+00  -8.7606156e+05
   9.1363788e-10  -1.0244923e-04   4.0065922e+00   3.9747782e+00  -8.7110930e+05
   9.1430477e-10  -1.0186993e-04   4.0065137e+00   3.9748795e+00  -8.6618503e+05
   9.1497166e-10  -1.0129392e-04   4.0064357e+00   3.9749803e+00  -8.6128857e+05
   9.1563855e-10  -1.0072115e-04   4.0063581e+00   3.9750804e+00  -8.5641978e+05
   9.1630544e-10  -1.0015163e-04   4.0062809e+00   3.9751800e+00  -8.5157850e+05
   9.1697232e-10  -9.9585326e-05   4.0062042e+00   3.9752791e+00  -8.4676456e+05
   9.1763921e-10  -9.9022223e-05   4.0061279e+00   3.9753776e+00  -8.4197783e+05
   9.1830610e-10  -9.8462303e-05   4.0060520e+00   3.9754755e+00  -8.3721814e+05
   9.1897299e-10  -9.7905548e-05   4.0059765e+00   3.9755728e+00  -8.3248534e+05
   9.1963988e-10  -9.7351941e-05   4.0059015e+00   3.9756697e+00  -8.2777929e+05
   9.2030677e-10  -9.6801463e-05   4.0058269e+00   3.9757659e+00  -8.2309982e+05
   9.2097366e-10  -9.6254097e-05   4.0057528e+00   3.9758617e+00  -8.1844680e+05
   9.2164055e-10  -9.5709826e-05   4.0056790e+00   3.9759568e+00  -8.1382006e+05
   9.2230744e-10  -9.5168631e-05   4.0056057e+00   3.9760515e+00  -8.0921947e+05
   9.2297432e-10  -9.4630496e-05   4.0055328e+00   3.9761456e+00  -8.0464487e+05
   9.2364121e-10  -9.4095402e-05   4.0054602e+00   3.9762392e+00  -8.0009611e+05
   9.2430810e-10  -9.3563334e-05   4.0053881e+00   3.9763322e+00  -7.9557306e+05
   9.2497499e-10  -9.3034274e-05   4.0053164e+00   3.9764248e+00  -7.9107557e+05
   9.2564188e-10  -9.2508204e-05   4.0052452e+00   3.9765168e+00  -7.8660349e+05
   9.2630877e-10  -9.1985109e-05   4.0051743e+00   3.9766083e+00  -7.8215668e+05
   9.2697566e-10  -9.1464970e-05   4.0051038e+00   3.9766992e+00  -7.7773499e+05
   9.2764255e-10  -9.0947773e-05   4.0050337e+00   3.9767897e+00  -7.7333829e+05
   9.2830944e-10  -9.0433499e-05   4.0049640e+00   3.9768796e+00  -7.6896643e+05
   9.2897633e-10  -8.9922132e-05   4.0048947e+00   3.9769691e+00  -7.6461928e+05
   9.2964321e-10  -8.9413656e-05   4.0048258e+00   3.9770580e+00  -7.6029668e+05
   9.3031010e-10  -8.8908055e-05   4.0047573e+00   3.9771464e+00  -7.5599852e+05
   9.3097699e-10  -8.8405312e-05   4.0046891e+00   3.9772343e+00  -7.5172464e+05
   9.3164388e-10  -8.7905411e-05   4.0046214e+00   3.9773218e+00  -7.4747491e+05
   9.3231077e-10  -8.7408337e-05   4.0045540e+00   3.9774087e+00  -7.4324919e+05
   9.3297766e-10  -8.6914072e-05   4.0044870e+00   3.9774952e+00  -7.3904736e+05
   9.3364455e-10  -8.6422602e-05   4.0044204e+00   3.9775811e+00  -7.3486926e+05
   9.3431144e-10  -8.5933910e-05   4.0043542e+00   3.9776666e+00  -7.3071478e+05
   9.3497833e-10  -8.5447981e-05   4.0042883e+00   3.9777516e+00  -7.2658377e+05
   9.3564522e-10  -8.4964799e-05   4.0042229e+00   3.9778361e+00  -7.2247611e+05
   9.3631210e-10  -8.4484349e-05   4.0041577e+00   3.9779201e+00  -7.1839165e+05
   9.3697899e-10  -8.4006615e-05   4.0040930e+00   3.9780037e+00  -7.1433028e+05
   9.3764588e-10  -8.3531582e-05   4.0040286e+00   3.9780867e+00  -7.1029186e+05
   9.3831277e-10  -8.3059234e-05   4.0039646e+00   3.9781694e+00  -7.0627626e+05
   9.3897966e-10  -8.2589557e-05   4.0039009e+00   3.9782515e+00  -7.0228335e+05
   9.3964655e-10  -8.2122535e-05   4.0038376e+00   3.9783332e+00  -6.9831301e+05
   9.4031344e-10  -8.1658154e-05   4.0037747e+00   3.9784144e+00  -6.9436510e+05
   9.4098033e-10  -8.1196398e-05   4.0037121e+00   3.9784952e+00  -6.9043950e+05
   9.4164722e-10  -8.0737252e-05   4.0036499e+00   3.9785755e+00  -6.8653608e+05
   9.4231410e-10  -8.0280702e-05   4.0035880e+00   3.9786553e+00  -6.8265473e+05
   9.4298099e-10  -7.9826734e-05   4.0035265e+00   3.9787347e+00  -6.7879530e+05
   9.4364788e-10  -7.9375332e-05   4.0034653e+00   3.9788137e+00  -6.7495769e+05
   9.4431477e-10  -7.8926482e-05   4.0034044e+00   3.9788922e+00  -6.7114176e+05
   9.4498166e-10  -7.8480169e-05   4.0033440e+00   3.9789703e+00  -6.6734740e+05
   9.4564855e-10  -7.8036380e-05   4.0032838e+00   3.9790479e+00  -6.6357448e+05
   9.4631544e-10  -7.7595100e-05   4.0032240e+00   3.9791251e+00  -6.5982289e+05
   9.4698233e-10  -7.7156315e-05   4.0031645e+00   3.9792018e+00  -6.5609249e+05
   9.4764922e-10  -7.6720010e-05   4.0031054e+00   3.9792781e+00  -6.5238318e+05
   9.4831611e-10  -7.6286172e-05   4.0030466e+00   3.9793540e+00  -6.4869483e+05
   9.4898299e-10  -7.5854787e-05   4.0029881e+00   3.9794295e+00  -6.4502732e+05
   9.4964988e-10  -7.5425841e-05   4.0029299e+00   3.9795045e+00  -6.4138054e+05
   9.5031677e-10  -7.4999320e-05   4.0028721e+00   3.9795791e+00  -6.3775437e+05
   9.5098366e-10  -7.4575211e-05   4.0028146e+00   3.9796533e+00  -6.3414869e+05
   9.5165055e-10  -7.4153499e-05   4.0027575e+00   3.9797270e+00  -6.3056339e+05
   9.5231744e-10  -7.3734171e-05   4.0027006e+00   3.9798004e+00  -6.2699835e+05
   9.5298433e-10  -7.3317215e-05   4.0026441e+00   3.9798733e+00  -6.2345346e+05
   9.5365122e-10  -7.2902615e-05   4.0025879e+00   3.9799458e+00  -6.1992861e+05
   9.5431811e-10  -7.2490360e-05   4.0025320e+00   3.9800179e+00  -6.1642367e+05
   9.5498499e-10  -7.2080436e-05   4.0024765e+00   3.9800896e+00  -6.1293854e+05
   9.5565188e-10  -7.1672829e-05   4.0024212e+00   3.9801609e+00  -6.0947311e+05
   9.5631877e-10  -7.1267527e-05   4.0023663e+00   3.9802318e+00  -6.0602727e+05
   9.5698566e-10  -7.0864516e-05   4.0023116e+00   3.9803023e+00  -6.0260090e+05
   9.5765255e-10  -7.0463784e-05   4.0022573e+00   3.9803724e+00  -5.9919390e+05
   9.5831944e-10  -7.0065317e-05   4.0022033e+00   3.9804421e+00  -5.9580615e+05
   9.5898633e-10  -6.9669103e-05   4.0021496e+00   3.9805114e+00  -5.9243754e+05
   9.5965322e-10  -6.9275130e-05   4.0020962e+00   3.9805803e+00  -5.8908798e+05
   9.6032011e-10  -6.8883384e-05   4.0020431e+00   3.9806488e+00  -5.8575734e+05
   9.6098700e-10  -6.8493853e-05   4.0019903e+00   3.9807170e+00  -5.8244553e+05
   9.6165388e-10  -6.8106524e-05   4.0019378e+00   3.9807847e+00  -5.7915244e+05
   9.6232077e-10  -6.7721385e-05   4.0018855e+00   3.9808521e+00  -5.7587796e+05
   9.6298766e-10  -6.7338424e-05   4.0018336e+00   3.9809191e+00  -5.7262199e+05
   9.6365455e-10  -6.6957628e-05   4.0017820e+00   3.9809857e+00  -5.6938442e+05
   9.6432144e-10  -6.6578985e-05   4.0017307e+00   3.9810519e+00  -5.6616515e+05
   9.6498833e-10  -6.6202483e-05   4.0016796e+00   3.9811178e+00  -5.6296407e+05
   9.6565522e-10  -6.5828109e-05   4.0016289e+00   3.9811833e+00  -5.5978109e+05
   9.6632211e-10  -6.5455853e-05   4.0015784e+00   3.9812484e+00  -5.5661610e+05
   9.6698900e-10  -6.5085701e-05   4.0015282e+00   3.9813131e+00  -5.5346899e+05
   9.6765589e-10  -6.4717641e-05   4.0014783e+00   3.9813775e+00  -5.5033967e+05
   9.6832277e-10  -6.4351663e-05   4.0014287e+00   3.9814415e+00  -5.4722804e+05
   9.6898966e-10  -6.3987754e-05   4.0013794e+00   3.9815052e+00  -5.4413400e+05
   9.6965655e-10  -6.3625903e-05   4.0013303e+00   3.9815685e+00  -5.4105744e+05
   9.7032344e-10  -6.3266098e-05   4.0012815e+00   3.9816314e+00  -5.3799828e+05
   9.7099033e-10  -6.2908327e-05   4.0012330e+00   3.9816940e+00  -5.3495640e+05
   9.7165722e-10  -6.2552579e-05   4.0011848e+00   3.9817562e+00  -5.3193172e+05
   9.7232411e-10  -6.2198842e-05   4.0011368e+00   3.9818181e+00  -5.2892413e+05
   9.7299100e-10  -6.1847105e-05   4.0010892e+00   3.9818796e+00  -5.2593355e+05
   9.7365789e-10  -6.1497357e-05   4.0010417e+00   3.9819408e+00  -5.2295987e+05
   9.7432477e-10  -6.1149587e-05   4.0009946e+00   3.9820016e+00  -5.2000299e+05
   9.7499166e-10  -6.0803783e-05   4.0009477e+00   3.9820621e+00  -5.1706283e+05
