   0.0000000e+00  -1.1625371e-01   6.3845175e+00   7.5226579e-04  -5.2225310e+08
   6.6688896e-13  -1.1590573e-01   6.3843841e+00   7.7289782e-04  -5.2132896e+08
   1.3337779e-12  -1.1555837e-01   6.3842488e+00   7.9405741e-04  -5.2040482e+08
   2.0006669e-12  -1.1521162e-01   6.3841117e+00   8.1575693e-04  -5.1948067e+08
   2.6675559e-12  -1.1486549e-01   6.3839728e+00   8.3800900e-04  -5.1855653e+08
   3.3344448e-12  -1.1451998e-01   6.3838320e+00   8.6082654e-04  -5.1763238e+08
   4.0013338e-12  -1.1417508e-01   6.3836893e+00   8.8422269e-04  -5.1670823e+08
   4.6682227e-12  -1.1383080e-01   6.3835447e+00   9.0821088e-04  -5.1578408e+08
   5.3351117e-12  -1.1348713e-01   6.3833981e+00   9.3280484e-04  -5.1485994e+08
   6.0020007e-12  -1.1314408e-01   6.3832496e+00   9.5801856e-04  -5.1393579e+08
   6.6688896e-12  -1.1280165e-01   6.3830991e+00   9.8386631e-04  -5.1301164e+08
   7.3357786e-12  -1.1245983e-01   6.3829466e+00   1.0103627e-03  -5.1208749e+08
   8.0026676e-12  -1.1211863e-01   6.3827921e+00   1.0375225e-03  -5.1116334e+08
   8.6695565e-12  -1.1177805e-01   6.3826354e+00   1.0653610e-03  -5.1023919e+08
   9.3364455e-12  -1.1143808e-01   6.3824767e+00   1.0938937e-03  -5.0931504e+08
   1.0003334e-11  -1.1109873e-01   6.3823159e+00   1.1231362e-03  -5.0839090e+08
   1.0670223e-11  -1.1075999e-01   6.3821529e+00   1.1531048e-03  -5.0746676e+08
   1.1337112e-11  -1.1042187e-01   6.3819878e+00   1.1838159e-03  -5.0654262e+08
   1.2004001e-11  -1.1008437e-01   6.3818204e+00   1.2152862e-03  -5.0561848e+08
   1.2670890e-11  -1.0974748e-01   6.3816509e+00   1.2475329e-03  -5.0469434e+08
   1.3337779e-11  -1.0941121e-01   6.3814790e+00   1.2805733e-03  -5.0377021e+08
   1.4004668e-11  -1.0907556e-01   6.3813049e+00   1.3144253e-03  -5.0284608e+08
   1.4671557e-11  -1.0874052e-01   6.3811285e+00   1.3491070e-03  -5.0192195e+08
   1.5338446e-11  -1.0840610e-01   6.3809497e+00   1.3846369e-03  -5.0099783e+08
   1.6005335e-11  -1.0807230e-01   6.3807686e+00   1.4210338e-03  -5.0007372e+08
   1.6672224e-11  -1.0773911e-01   6.3805851e+00   1.4583170e-03  -4.9914961e+08
   1.7339113e-11  -1.0740654e-01   6.3803991e+00   1.4965060e-03  -4.9822550e+08
   1.8006002e-11  -1.0707458e-01   6.3802107e+00   1.5356209e-03  -4.9730140e+08
   1.8672891e-11  -1.0674324e-01   6.3800198e+00   1.5756819e-03  -4.9637731e+08
   1.9339780e-11  -1.0641251e-01   6.3798264e+00   1.6167099e-03  -4.9545322e+08
   2.0006669e-11  -1.0608241e-01   6.3796304e+00   1.6587259e-03  -4.9452914e+08
   2.0673558e-11  -1.0575292e-01   6.3794318e+00   1.7017516e-03  -4.9360506e+08
   2.1340447e-11  -1.0542404e-01   6.3792306e+00   1.7458089e-03  -4.9268100e+08
   2.2007336e-11  -1.0509578e-01   6.3790268e+00   1.7909203e-03  -4.9175694e+08
   2.2674225e-11  -1.0476814e-01   6.3788203e+00   1.8371084e-03  -4.9083289e+08
   2.3341114e-11  -1.0444111e-01   6.3786110e+00   1.8843965e-03  -4.8990886e+08
   2.4008003e-11  -1.0411470e-01   6.3783991e+00   1.9328084e-03  -4.8898483e+08
   2.4674892e-11  -1.0378891e-01   6.3781843e+00   1.9823680e-03  -4.8806081e+08
   2.5341781e-11  -1.0346373e-01   6.3779667e+00   2.0331001e-03  -4.8713680e+08
   2.6008670e-11  -1.0313917e-01   6.3777462e+00   2.0850296e-03  -4.8621280e+08
   2.6675559e-11  -1.0281522e-01   6.3775229e+00   2.1381820e-03  -4.8528882e+08
   2.7342447e-11  -1.0249189e-01   6.3772966e+00   2.1925832e-03  -4.8436485e+08
   2.8009336e-11  -1.0216918e-01   6.3770674e+00   2.2482597e-03  -4.8344089e+08
   2.8676225e-11  -1.0184708e-01   6.3768352e+00   2.3052383e-03  -4.8251694e+08
   2.9343114e-11  -1.0152560e-01   6.3765999e+00   2.3635466e-03  -4.8159301e+08
   3.0010003e-11  -1.0120473e-01   6.3763616e+00   2.4232123e-03  -4.8066909e+08
   3.0676892e-11  -1.0088448e-01   6.3761201e+00   2.4842640e-03  -4.7974519e+08
   3.1343781e-11  -1.0056485e-01   6.3758755e+00   2.5467304e-03  -4.7882131e+08
   3.2010670e-11  -1.0024583e-01   6.3756278e+00   2.6106411e-03  -4.7789744e+08
   3.2677559e-11  -9.9927433e-02   6.3753767e+00   2.6760260e-03  -4.7697359e+08
   3.3344448e-11  -9.9609648e-02   6.3751224e+00   2.7429155e-03  -4.7604975e+08
   3.4011337e-11  -9.9292480e-02   6.3748649e+00   2.8113408e-03  -4.7512594e+08
   3.4678226e-11  -9.8975927e-02   6.3746039e+00   2.8813334e-03  -4.7420214e+08
   3.5345115e-11  -9.8659990e-02   6.3743396e+00   2.9529255e-03  -4.7327836e+08
   3.6012004e-11  -9.8344670e-02   6.3740718e+00   3.0261497e-03  -4.7235461e+08
   3.6678893e-11  -9.8029965e-02   6.3738005e+00   3.1010393e-03  -4.7143087e+08
   3.7345782e-11  -9.7715876e-02   6.3735258e+00   3.1776281e-03  -4.7050716e+08
   3.8012671e-11  -9.7402403e-02   6.3732474e+00   3.2559507e-03  -4.6958347e+08
   3.8679560e-11  -9.7089547e-02   6.3729655e+00   3.3360419e-03  -4.6865981e+08
   3.9346449e-11  -9.6777306e-02   6.3726799e+00   3.4179375e-03  -4.6773616e+08
   4.0013338e-11  -9.6465681e-02   6.3723906e+00   3.5016736e-03  -4.6681255e+08
   4.0680227e-11  -9.6154672e-02   6.3720976e+00   3.5872871e-03  -4.6588896e+08
   4.1347116e-11  -9.5844279e-02   6.3718008e+00   3.6748156e-03  -4.6496539e+08
   4.2014005e-11  -9.5534501e-02   6.3715001e+00   3.7642970e-03  -4.6404186e+08
   4.2680894e-11  -9.5225340e-02   6.3711956e+00   3.8557701e-03  -4.6311835e+08
   4.3347783e-11  -9.4916794e-02   6.3708872e+00   3.9492744e-03  -4.6219487e+08
   4.4014672e-11  -9.4608865e-02   6.3705747e+00   4.0448498e-03  -4.6127142e+08
   4.4681561e-11  -9.4301551e-02   6.3702583e+00   4.1425371e-03  -4.6034800e+08
   4.5348449e-11  -9.3994852e-02   6.3699377e+00   4.2423776e-03  -4.5942462e+08
   4.6015338e-11  -9.3688770e-02   6.3696131e+00   4.3444134e-03  -4.5850126e+08
   4.6682227e-11  -9.3383303e-02   6.3692843e+00   4.4486872e-03  -4.5757794e+08
   4.7349116e-11  -9.3078452e-02   6.3689512e+00   4.5552426e-03  -4.5665466e+08
   4.8016005e-11  -9.2774217e-02   6.3686139e+00   4.6641235e-03  -4.5573141e+08
   4.8682894e-11  -9.2470597e-02   6.3682723e+00   4.7753750e-03  -4.5480820e+08
   4.9349783e-11  -9.2167593e-02   6.3679262e+00   4.8890424e-03  -4.5388503e+08
   5.0016672e-11  -9.1865204e-02   6.3675758e+00   5.0051723e-03  -4.5296189e+08
   5.0683561e-11  -9.1563431e-02   6.3672208e+00   5.1238115e-03  -4.5203880e+08
   5.1350450e-11  -9.1262274e-02   6.3668614e+00   5.2450078e-03  -4.5111574e+08
   5.2017339e-11  -9.0961732e-02   6.3664973e+00   5.3688098e-03  -4.5019273e+08
   5.2684228e-11  -9.0661806e-02   6.3661285e+00   5.4952668e-03  -4.4926976e+08
   5.3351117e-11  -9.0362495e-02   6.3657551e+00   5.6244288e-03  -4.4834683e+08
   5.4018006e-11  -9.0063799e-02   6.3653769e+00   5.7563466e-03  -4.4742396e+08
   5.4684895e-11  -8.9765719e-02   6.3649939e+00   5.8910719e-03  -4.4650112e+08
   5.5351784e-11  -8.9468254e-02   6.3646060e+00   6.0286571e-03  -4.4557834e+08
   5.6018673e-11  -8.9171405e-02   6.3642132e+00   6.1691553e-03  -4.4465560e+08
   5.6685562e-11  -8.8875171e-02   6.3638153e+00   6.3126206e-03  -4.4373291e+08
   5.7352451e-11  -8.8579552e-02   6.3634125e+00   6.4591078e-03  -4.4281028e+08
   5.8019340e-11  -8.8284549e-02   6.3630045e+00   6.6086726e-03  -4.4188770e+08
   5.8686229e-11  -8.7990160e-02   6.3625913e+00   6.7613715e-03  -4.4096517e+08
   5.9353118e-11  -8.7696387e-02   6.3621729e+00   6.9172617e-03  -4.4004270e+08
   6.0020007e-11  -8.7403229e-02   6.3617491e+00   7.0764015e-03  -4.3912028e+08
   6.0686896e-11  -8.7110686e-02   6.3613201e+00   7.2388498e-03  -4.3819792e+08
   6.1353785e-11  -8.6818758e-02   6.3608856e+00   7.4046666e-03  -4.3727562e+08
   6.2020674e-11  -8.6527445e-02   6.3604456e+00   7.5739127e-03  -4.3635338e+08
   6.2687563e-11  -8.6236748e-02   6.3600000e+00   7.7466496e-03  -4.3543121e+08
   6.3354451e-11  -8.5946665e-02   6.3595488e+00   7.9229399e-03  -4.3450909e+08
   6.4021340e-11  -8.5657196e-02   6.3590920e+00   8.1028470e-03  -4.3358704e+08
   6.4688229e-11  -8.5368343e-02   6.3586293e+00   8.2864354e-03  -4.3266506e+08
   6.5355118e-11  -8.5080105e-02   6.3581609e+00   8.4737701e-03  -4.3174315e+08
   6.6022007e-11  -8.4792481e-02   6.3576866e+00   8.6649173e-03  -4.3082130e+08
   6.6688896e-11  -8.4505472e-02   6.3572063e+00   8.8599442e-03  -4.2989953e+08
   6.7355785e-11  -8.4219078e-02   6.3567199e+00   9.0589188e-03  -4.2897783e+08
   6.8022674e-11  -8.3933298e-02   6.3562275e+00   9.2619099e-03  -4.2805620e+08
   6.8689563e-11  -8.3648133e-02   6.3557289e+00   9.4689876e-03  -4.2713465e+08
   6.9356452e-11  -8.3363583e-02   6.3552241e+00   9.6802226e-03  -4.2621318e+08
   7.0023341e-11  -8.3079647e-02   6.3547129e+00   9.8956868e-03  -4.2529178e+08
   7.0690230e-11  -8.2796325e-02   6.3541954e+00   1.0115453e-02  -4.2437047e+08
   7.1357119e-11  -8.2513618e-02   6.3536714e+00   1.0339595e-02  -4.2344924e+08
   7.2024008e-11  -8.2231525e-02   6.3531408e+00   1.0568187e-02  -4.2252809e+08
   7.2690897e-11  -8.1950046e-02   6.3526036e+00   1.0801306e-02  -4.2160703e+08
   7.3357786e-11  -8.1669181e-02   6.3520598e+00   1.1039027e-02  -4.2068605e+08
   7.4024675e-11  -8.1388931e-02   6.3515092e+00   1.1281430e-02  -4.1976517e+08
   7.4691564e-11  -8.1109294e-02   6.3509517e+00   1.1528591e-02  -4.1884438e+08
   7.5358453e-11  -8.0830272e-02   6.3503873e+00   1.1780592e-02  -4.1792368e+08
   7.6025342e-11  -8.0551864e-02   6.3498160e+00   1.2037513e-02  -4.1700307e+08
   7.6692231e-11  -8.0274069e-02   6.3492375e+00   1.2299435e-02  -4.1608257e+08
   7.7359120e-11  -7.9996888e-02   6.3486519e+00   1.2566443e-02  -4.1516216e+08
   7.8026009e-11  -7.9720321e-02   6.3480590e+00   1.2838618e-02  -4.1424185e+08
   7.8692898e-11  -7.9444368e-02   6.3474588e+00   1.3116047e-02  -4.1332165e+08
   7.9359787e-11  -7.9169028e-02   6.3468512e+00   1.3398816e-02  -4.1240155e+08
   8.0026676e-11  -7.8894302e-02   6.3462362e+00   1.3687011e-02  -4.1148156e+08
   8.0693565e-11  -7.8620190e-02   6.3456135e+00   1.3980720e-02  -4.1056167e+08
   8.1360453e-11  -7.8346690e-02   6.3449832e+00   1.4280033e-02  -4.0964190e+08
   8.2027342e-11  -7.8073805e-02   6.3443451e+00   1.4585040e-02  -4.0872225e+08
   8.2694231e-11  -7.7801532e-02   6.3436992e+00   1.4895833e-02  -4.0780270e+08
   8.3361120e-11  -7.7529873e-02   6.3430454e+00   1.5212503e-02  -4.0688328e+08
   8.4028009e-11  -7.7258826e-02   6.3423836e+00   1.5535144e-02  -4.0596398e+08
   8.4694898e-11  -7.6988393e-02   6.3417137e+00   1.5863850e-02  -4.0504479e+08
   8.5361787e-11  -7.6718572e-02   6.3410356e+00   1.6198718e-02  -4.0412574e+08
   8.6028676e-11  -7.6449365e-02   6.3403493e+00   1.6539845e-02  -4.0320681e+08
   8.6695565e-11  -7.6180770e-02   6.3396545e+00   1.6887327e-02  -4.0228801e+08
   8.7362454e-11  -7.5912788e-02   6.3389514e+00   1.7241264e-02  -4.0136934e+08
   8.8029343e-11  -7.5645419e-02   6.3382396e+00   1.7601756e-02  -4.0045080e+08
   8.8696232e-11  -7.5378662e-02   6.3375193e+00   1.7968905e-02  -3.9953240e+08
   8.9363121e-11  -7.5112517e-02   6.3367901e+00   1.8342812e-02  -3.9861415e+08
   9.0030010e-11  -7.4846985e-02   6.3360522e+00   1.8723581e-02  -3.9769603e+08
   9.0696899e-11  -7.4582065e-02   6.3353053e+00   1.9111316e-02  -3.9677805e+08
   9.1363788e-11  -7.4317757e-02   6.3345495e+00   1.9506124e-02  -3.9586023e+08
   9.2030677e-11  -7.4054061e-02   6.3337845e+00   1.9908110e-02  -3.9494255e+08
   9.2697566e-11  -7.3790978e-02   6.3330102e+00   2.0317384e-02  -3.9402503e+08
   9.3364455e-11  -7.3528506e-02   6.3322267e+00   2.0734053e-02  -3.9310766e+08
   9.4031344e-11  -7.3266645e-02   6.3314338e+00   2.1158228e-02  -3.9219044e+08
   9.4698233e-11  -7.3005397e-02   6.3306313e+00   2.1590021e-02  -3.9127339e+08
   9.5365122e-11  -7.2744760e-02   6.3298192e+00   2.2029544e-02  -3.9035650e+08
   9.6032011e-11  -7.2484734e-02   6.3289975e+00   2.2476910e-02  -3.8943977e+08
   9.6698900e-11  -7.2225320e-02   6.3281659e+00   2.2932234e-02  -3.8852322e+08
   9.7365789e-11  -7.1966516e-02   6.3273243e+00   2.3395631e-02  -3.8760683e+08
   9.8032678e-11  -7.1708324e-02   6.3264728e+00   2.3867220e-02  -3.8669062e+08
   9.8699567e-11  -7.1450743e-02   6.3256111e+00   2.4347118e-02  -3.8577459e+08
   9.9366455e-11  -7.1193773e-02   6.3247392e+00   2.4835443e-02  -3.8485874e+08
   1.0003334e-10  -7.0937413e-02   6.3238570e+00   2.5332318e-02  -3.8394307e+08
   1.0070023e-10  -7.0681664e-02   6.3229643e+00   2.5837862e-02  -3.8302759e+08
   1.0136712e-10  -7.0426526e-02   6.3220611e+00   2.6352198e-02  -3.8211229e+08
   1.0203401e-10  -7.0171998e-02   6.3211472e+00   2.6875451e-02  -3.8119719e+08
   1.0270090e-10  -6.9918080e-02   6.3202226e+00   2.7407745e-02  -3.8028229e+08
   1.0336779e-10  -6.9664772e-02   6.3192871e+00   2.7949205e-02  -3.7936758e+08
   1.0403468e-10  -6.9412074e-02   6.3183405e+00   2.8499960e-02  -3.7845308e+08
   1.0470157e-10  -6.9159986e-02   6.3173829e+00   2.9060137e-02  -3.7753878e+08
   1.0536846e-10  -6.8908508e-02   6.3164141e+00   2.9629865e-02  -3.7662469e+08
   1.0603535e-10  -6.8657640e-02   6.3154340e+00   3.0209275e-02  -3.7571081e+08
   1.0670223e-10  -6.8407380e-02   6.3144425e+00   3.0798499e-02  -3.7479715e+08
   1.0736912e-10  -6.8157730e-02   6.3134394e+00   3.1397668e-02  -3.7388371e+08
   1.0803601e-10  -6.7908689e-02   6.3124246e+00   3.2006917e-02  -3.7297048e+08
   1.0870290e-10  -6.7660257e-02   6.3113981e+00   3.2626380e-02  -3.7205749e+08
   1.0936979e-10  -6.7412434e-02   6.3103597e+00   3.3256193e-02  -3.7114472e+08
   1.1003668e-10  -6.7165220e-02   6.3093093e+00   3.3896493e-02  -3.7023219e+08
   1.1070357e-10  -6.6918614e-02   6.3082468e+00   3.4547417e-02  -3.6931989e+08
   1.1137046e-10  -6.6672617e-02   6.3071721e+00   3.5209106e-02  -3.6840784e+08
   1.1203735e-10  -6.6427227e-02   6.3060850e+00   3.5881698e-02  -3.6749602e+08
   1.1270423e-10  -6.6182446e-02   6.3049854e+00   3.6565335e-02  -3.6658446e+08
   1.1337112e-10  -6.5938273e-02   6.3038733e+00   3.7260159e-02  -3.6567314e+08
   1.1403801e-10  -6.5694707e-02   6.3027484e+00   3.7966313e-02  -3.6476208e+08
   1.1470490e-10  -6.5451749e-02   6.3016107e+00   3.8683941e-02  -3.6385128e+08
   1.1537179e-10  -6.5209399e-02   6.3004601e+00   3.9413189e-02  -3.6294075e+08
   1.1603868e-10  -6.4967655e-02   6.2992964e+00   4.0154202e-02  -3.6203048e+08
   1.1670557e-10  -6.4726519e-02   6.2981196e+00   4.0907127e-02  -3.6112048e+08
   1.1737246e-10  -6.4485989e-02   6.2969294e+00   4.1672113e-02  -3.6021075e+08
   1.1803935e-10  -6.4246066e-02   6.2957258e+00   4.2449309e-02  -3.5930131e+08
   1.1870624e-10  -6.4006750e-02   6.2945086e+00   4.3238864e-02  -3.5839214e+08
   1.1937312e-10  -6.3768039e-02   6.2932778e+00   4.4040930e-02  -3.5748327e+08
   1.2004001e-10  -6.3529935e-02   6.2920332e+00   4.4855658e-02  -3.5657468e+08
   1.2070690e-10  -6.3292437e-02   6.2907746e+00   4.5683201e-02  -3.5566639e+08
   1.2137379e-10  -6.3055545e-02   6.2895020e+00   4.6523713e-02  -3.5475840e+08
   1.2204068e-10  -6.2819258e-02   6.2882153e+00   4.7377348e-02  -3.5385071e+08
   1.2270757e-10  -6.2583576e-02   6.2869142e+00   4.8244262e-02  -3.5294333e+08
   1.2337446e-10  -6.2348499e-02   6.2855988e+00   4.9124611e-02  -3.5203627e+08
   1.2404135e-10  -6.2114028e-02   6.2842687e+00   5.0018552e-02  -3.5112952e+08
   1.2470824e-10  -6.1880161e-02   6.2829240e+00   5.0926242e-02  -3.5022309e+08
   1.2537513e-10  -6.1646898e-02   6.2815646e+00   5.1847841e-02  -3.4931698e+08
   1.2604201e-10  -6.1414240e-02   6.2801901e+00   5.2783509e-02  -3.4841121e+08
   1.2670890e-10  -6.1182186e-02   6.2788007e+00   5.3733404e-02  -3.4750577e+08
   1.2737579e-10  -6.0950736e-02   6.2773960e+00   5.4697689e-02  -3.4660067e+08
   1.2804268e-10  -6.0719889e-02   6.2759761e+00   5.5676525e-02  -3.4569592e+08
   1.2870957e-10  -6.0489646e-02   6.2745407e+00   5.6670074e-02  -3.4479151e+08
   1.2937646e-10  -6.0260005e-02   6.2730898e+00   5.7678501e-02  -3.4388746e+08
   1.3004335e-10  -6.0030968e-02   6.2716231e+00   5.8701967e-02  -3.4298376e+08
   1.3071024e-10  -5.9802533e-02   6.2701407e+00   5.9740639e-02  -3.4208043e+08
   1.3137713e-10  -5.9574701e-02   6.2686423e+00   6.0794681e-02  -3.4117747e+08
   1.3204401e-10  -5.9347471e-02   6.2671278e+00   6.1864259e-02  -3.4027488e+08
   1.3271090e-10  -5.9120843e-02   6.2655971e+00   6.2949540e-02  -3.3937266e+08
   1.3337779e-10  -5.8894816e-02   6.2640501e+00   6.4050689e-02  -3.3847083e+08
   1.3404468e-10  -5.8669391e-02   6.2624866e+00   6.5167876e-02  -3.3756938e+08
   1.3471157e-10  -5.8444567e-02   6.2609065e+00   6.6301267e-02  -3.3666833e+08
   1.3537846e-10  -5.8220344e-02   6.2593097e+00   6.7451031e-02  -3.3576768e+08
   1.3604535e-10  -5.7996722e-02   6.2576961e+00   6.8617338e-02  -3.3486743e+08
   1.3671224e-10  -5.7773700e-02   6.2560655e+00   6.9800356e-02  -3.3396758e+08
   1.3737913e-10  -5.7551278e-02   6.2544177e+00   7.1000255e-02  -3.3306815e+08
   1.3804602e-10  -5.7329456e-02   6.2527528e+00   7.2217207e-02  -3.3216914e+08
   1.3871290e-10  -5.7108234e-02   6.2510704e+00   7.3451381e-02  -3.3127055e+08
   1.3937979e-10  -5.6887610e-02   6.2493706e+00   7.4702948e-02  -3.3037239e+08
   1.4004668e-10  -5.6667586e-02   6.2476531e+00   7.5972081e-02  -3.2947467e+08
   1.4071357e-10  -5.6448161e-02   6.2459179e+00   7.7258949e-02  -3.2857738e+08
   1.4138046e-10  -5.6229333e-02   6.2441648e+00   7.8563727e-02  -3.2768054e+08
   1.4204735e-10  -5.6011104e-02   6.2423937e+00   7.9886584e-02  -3.2678415e+08
   1.4271424e-10  -5.5793473e-02   6.2406044e+00   8.1227695e-02  -3.2588822e+08
   1.4338113e-10  -5.5576440e-02   6.2387969e+00   8.2587231e-02  -3.2499274e+08
   1.4404802e-10  -5.5360003e-02   6.2369710e+00   8.3965366e-02  -3.2409774e+08
   1.4471490e-10  -5.5144164e-02   6.2351265e+00   8.5362271e-02  -3.2320321e+08
   1.4538179e-10  -5.4928920e-02   6.2332634e+00   8.6778121e-02  -3.2230915e+08
   1.4604868e-10  -5.4714274e-02   6.2313815e+00   8.8213087e-02  -3.2141558e+08
   1.4671557e-10  -5.4500223e-02   6.2294808e+00   8.9667344e-02  -3.2052250e+08
   1.4738246e-10  -5.4286768e-02   6.2275610e+00   9.1141064e-02  -3.1962992e+08
   1.4804935e-10  -5.4073908e-02   6.2256220e+00   9.2634420e-02  -3.1873784e+08
   1.4871624e-10  -5.3861643e-02   6.2236637e+00   9.4147586e-02  -3.1784626e+08
   1.4938313e-10  -5.3649972e-02   6.2216861e+00   9.5680733e-02  -3.1695520e+08
   1.5005002e-10  -5.3438896e-02   6.2196889e+00   9.7234035e-02  -3.1606466e+08
   1.5071691e-10  -5.3228414e-02   6.2176720e+00   9.8807665e-02  -3.1517464e+08
   1.5138379e-10  -5.3018526e-02   6.2156354e+00   1.0040179e-01  -3.1428515e+08
   1.5205068e-10  -5.2809230e-02   6.2135789e+00   1.0201660e-01  -3.1339621e+08
   1.5271757e-10  -5.2600528e-02   6.2115023e+00   1.0365224e-01  -3.1250780e+08
   1.5338446e-10  -5.2392418e-02   6.2094056e+00   1.0530890e-01  -3.1161995e+08
   1.5405135e-10  -5.2184900e-02   6.2072887e+00   1.0698675e-01  -3.1073265e+08
   1.5471824e-10  -5.1977974e-02   6.2051513e+00   1.0868596e-01  -3.0984591e+08
   1.5538513e-10  -5.1771639e-02   6.2029934e+00   1.1040669e-01  -3.0895974e+08
   1.5605202e-10  -5.1565896e-02   6.2008150e+00   1.1214912e-01  -3.0807414e+08
   1.5671891e-10  -5.1360743e-02   6.1986157e+00   1.1391342e-01  -3.0718913e+08
   1.5738580e-10  -5.1156180e-02   6.1963956e+00   1.1569976e-01  -3.0630470e+08
   1.5805268e-10  -5.0952207e-02   6.1941546e+00   1.1750830e-01  -3.0542087e+08
   1.5871957e-10  -5.0748823e-02   6.1918924e+00   1.1933922e-01  -3.0453763e+08
   1.5938646e-10  -5.0546029e-02   6.1896090e+00   1.2119268e-01  -3.0365500e+08
   1.6005335e-10  -5.0343823e-02   6.1873043e+00   1.2306884e-01  -3.0277299e+08
   1.6072024e-10  -5.0142206e-02   6.1849782e+00   1.2496788e-01  -3.0189159e+08
   1.6138713e-10  -4.9941176e-02   6.1826305e+00   1.2688996e-01  -3.0101082e+08
   1.6205402e-10  -4.9740734e-02   6.1802612e+00   1.2883524e-01  -3.0013068e+08
   1.6272091e-10  -4.9540879e-02   6.1778701e+00   1.3080389e-01  -2.9925118e+08
   1.6338780e-10  -4.9341611e-02   6.1754571e+00   1.3279607e-01  -2.9837233e+08
   1.6405468e-10  -4.9142928e-02   6.1730222e+00   1.3481194e-01  -2.9749413e+08
   1.6472157e-10  -4.8944831e-02   6.1705651e+00   1.3685166e-01  -2.9661659e+08
   1.6538846e-10  -4.8747320e-02   6.1680859e+00   1.3891539e-01  -2.9573971e+08
   1.6605535e-10  -4.8550394e-02   6.1655843e+00   1.4100330e-01  -2.9486350e+08
   1.6672224e-10  -4.8354051e-02   6.1630604e+00   1.4311553e-01  -2.9398798e+08
   1.6738913e-10  -4.8158293e-02   6.1605139e+00   1.4525225e-01  -2.9311314e+08
   1.6805602e-10  -4.7963119e-02   6.1579449e+00   1.4741362e-01  -2.9223899e+08
   1.6872291e-10  -4.7768527e-02   6.1553531e+00   1.4959977e-01  -2.9136554e+08
   1.6938980e-10  -4.7574518e-02   6.1527385e+00   1.5181088e-01  -2.9049280e+08
   1.7005669e-10  -4.7381091e-02   6.1501011e+00   1.5404709e-01  -2.8962078e+08
   1.7072357e-10  -4.7188245e-02   6.1474406e+00   1.5630855e-01  -2.8874947e+08
   1.7139046e-10  -4.6995981e-02   6.1447571e+00   1.5859541e-01  -2.8787889e+08
   1.7205735e-10  -4.6804297e-02   6.1420504e+00   1.6090783e-01  -2.8700904e+08
   1.7272424e-10  -4.6613194e-02   6.1393204e+00   1.6324593e-01  -2.8613994e+08
   1.7339113e-10  -4.6422670e-02   6.1365670e+00   1.6560988e-01  -2.8527158e+08
   1.7405802e-10  -4.6232725e-02   6.1337902e+00   1.6799981e-01  -2.8440398e+08
   1.7472491e-10  -4.6043360e-02   6.1309899e+00   1.7041587e-01  -2.8353715e+08
   1.7539180e-10  -4.5854572e-02   6.1281660e+00   1.7285820e-01  -2.8267108e+08
   1.7605869e-10  -4.5666362e-02   6.1253183e+00   1.7532693e-01  -2.8180579e+08
   1.7672558e-10  -4.5478729e-02   6.1224469e+00   1.7782220e-01  -2.8094128e+08
   1.7739246e-10  -4.5291672e-02   6.1195517e+00   1.8034416e-01  -2.8007757e+08
   1.7805935e-10  -4.5105192e-02   6.1166325e+00   1.8289292e-01  -2.7921465e+08
   1.7872624e-10  -4.4919287e-02   6.1136892e+00   1.8546863e-01  -2.7835254e+08
   1.7939313e-10  -4.4733958e-02   6.1107219e+00   1.8807141e-01  -2.7749124e+08
   1.8006002e-10  -4.4549202e-02   6.1077305e+00   1.9070139e-01  -2.7663076e+08
   1.8072691e-10  -4.4365021e-02   6.1047148e+00   1.9335871e-01  -2.7577111e+08
   1.8139380e-10  -4.4181413e-02   6.1016748e+00   1.9604347e-01  -2.7491229e+08
   1.8206069e-10  -4.3998378e-02   6.0986105e+00   1.9875581e-01  -2.7405432e+08
   1.8272758e-10  -4.3815915e-02   6.0955217e+00   2.0149584e-01  -2.7319719e+08
   1.8339446e-10  -4.3634024e-02   6.0924084e+00   2.0426369e-01  -2.7234092e+08
   1.8406135e-10  -4.3452704e-02   6.0892706e+00   2.0705947e-01  -2.7148552e+08
   1.8472824e-10  -4.3271955e-02   6.0861082e+00   2.0988329e-01  -2.7063099e+08
   1.8539513e-10  -4.3091775e-02   6.0829211e+00   2.1273526e-01  -2.6977733e+08
   1.8606202e-10  -4.2912165e-02   6.0797093e+00   2.1561550e-01  -2.6892457e+08
   1.8672891e-10  -4.2733124e-02   6.0764728e+00   2.1852411e-01  -2.6807269e+08
   1.8739580e-10  -4.2554651e-02   6.0732114e+00   2.2146120e-01  -2.6722172e+08
   1.8806269e-10  -4.2376745e-02   6.0699252e+00   2.2442686e-01  -2.6637166e+08
   1.8872958e-10  -4.2199407e-02   6.0666140e+00   2.2742121e-01  -2.6552251e+08
   1.8939647e-10  -4.2022635e-02   6.0632779e+00   2.3044433e-01  -2.6467429e+08
   1.9006335e-10  -4.1846428e-02   6.0599168e+00   2.3349632e-01  -2.6382699e+08
   1.9073024e-10  -4.1670787e-02   6.0565306e+00   2.3657728e-01  -2.6298064e+08
   1.9139713e-10  -4.1495710e-02   6.0531194e+00   2.3968730e-01  -2.6213523e+08
   1.9206402e-10  -4.1321198e-02   6.0496831e+00   2.4282646e-01  -2.6129077e+08
   1.9273091e-10  -4.1147248e-02   6.0462216e+00   2.4599485e-01  -2.6044728e+08
   1.9339780e-10  -4.0973861e-02   6.0427349e+00   2.4919255e-01  -2.5960475e+08
   1.9406469e-10  -4.0801036e-02   6.0392231e+00   2.5241964e-01  -2.5876320e+08
   1.9473158e-10  -4.0628773e-02   6.0356861e+00   2.5567620e-01  -2.5792264e+08
   1.9539847e-10  -4.0457070e-02   6.0321238e+00   2.5896230e-01  -2.5708306e+08
   1.9606536e-10  -4.0285927e-02   6.0285362e+00   2.6227802e-01  -2.5624449e+08
   1.9673224e-10  -4.0115343e-02   6.0249233e+00   2.6562342e-01  -2.5540692e+08
   1.9739913e-10  -3.9945319e-02   6.0212852e+00   2.6899857e-01  -2.5457036e+08
   1.9806602e-10  -3.9775852e-02   6.0176218e+00   2.7240354e-01  -2.5373483e+08
   1.9873291e-10  -3.9606942e-02   6.0139330e+00   2.7583837e-01  -2.5290032e+08
   1.9939980e-10  -3.9438589e-02   6.0102189e+00   2.7930314e-01  -2.5206685e+08
   2.0006669e-10  -3.9270792e-02   6.0064795e+00   2.8279789e-01  -2.5123443e+08
   2.0073358e-10  -3.9103551e-02   6.0027147e+00   2.8632269e-01  -2.5040305e+08
   2.0140047e-10  -3.8936863e-02   5.9989246e+00   2.8987756e-01  -2.4957274e+08
   2.0206736e-10  -3.8770730e-02   5.9951092e+00   2.9346257e-01  -2.4874349e+08
   2.0273424e-10  -3.8605150e-02   5.9912685e+00   2.9707775e-01  -2.4791531e+08
   2.0340113e-10  -3.8440122e-02   5.9874024e+00   3.0072314e-01  -2.4708822e+08
   2.0406802e-10  -3.8275646e-02   5.9835110e+00   3.0439879e-01  -2.4626221e+08
   2.0473491e-10  -3.8111721e-02   5.9795944e+00   3.0810471e-01  -2.4543731e+08
   2.0540180e-10  -3.7948346e-02   5.9756524e+00   3.1184095e-01  -2.4461350e+08
   2.0606869e-10  -3.7785521e-02   5.9716852e+00   3.1560753e-01  -2.4379081e+08
   2.0673558e-10  -3.7623244e-02   5.9676928e+00   3.1940447e-01  -2.4296924e+08
   2.0740247e-10  -3.7461516e-02   5.9636751e+00   3.2323180e-01  -2.4214879e+08
   2.0806936e-10  -3.7300334e-02   5.9596323e+00   3.2708953e-01  -2.4132948e+08
   2.0873625e-10  -3.7139699e-02   5.9555643e+00   3.3097767e-01  -2.4051131e+08
   2.0940313e-10  -3.6979610e-02   5.9514712e+00   3.3489624e-01  -2.3969429e+08
   2.1007002e-10  -3.6820066e-02   5.9473530e+00   3.3884524e-01  -2.3887842e+08
   2.1073691e-10  -3.6661066e-02   5.9432097e+00   3.4282468e-01  -2.3806372e+08
   2.1140380e-10  -3.6502610e-02   5.9390414e+00   3.4683456e-01  -2.3725019e+08
   2.1207069e-10  -3.6344696e-02   5.9348482e+00   3.5087487e-01  -2.3643784e+08
   2.1273758e-10  -3.6187324e-02   5.9306300e+00   3.5494562e-01  -2.3562667e+08
   2.1340447e-10  -3.6030493e-02   5.9263870e+00   3.5904679e-01  -2.3481670e+08
   2.1407136e-10  -3.5874203e-02   5.9221191e+00   3.6317836e-01  -2.3400793e+08
   2.1473825e-10  -3.5718452e-02   5.9178265e+00   3.6734033e-01  -2.3320037e+08
   2.1540514e-10  -3.5563240e-02   5.9135092e+00   3.7153267e-01  -2.3239402e+08
   2.1607202e-10  -3.5408565e-02   5.9091672e+00   3.7575536e-01  -2.3158889e+08
   2.1673891e-10  -3.5254428e-02   5.9048006e+00   3.8000838e-01  -2.3078500e+08
   2.1740580e-10  -3.5100826e-02   5.9004095e+00   3.8429169e-01  -2.2998234e+08
   2.1807269e-10  -3.4947761e-02   5.8959939e+00   3.8860526e-01  -2.2918092e+08
   2.1873958e-10  -3.4795229e-02   5.8915540e+00   3.9294906e-01  -2.2838076e+08
   2.1940647e-10  -3.4643232e-02   5.8870897e+00   3.9732305e-01  -2.2758186e+08
   2.2007336e-10  -3.4491767e-02   5.8826013e+00   4.0172717e-01  -2.2678422e+08
   2.2074025e-10  -3.4340835e-02   5.8780886e+00   4.0616139e-01  -2.2598786e+08
   2.2140714e-10  -3.4190433e-02   5.8735519e+00   4.1062566e-01  -2.2519277e+08
   2.2207402e-10  -3.4040562e-02   5.8689912e+00   4.1511992e-01  -2.2439897e+08
   2.2274091e-10  -3.3891221e-02   5.8644066e+00   4.1964411e-01  -2.2360647e+08
   2.2340780e-10  -3.3742408e-02   5.8597982e+00   4.2419818e-01  -2.2281527e+08
   2.2407469e-10  -3.3594123e-02   5.8551660e+00   4.2878206e-01  -2.2202538e+08
   2.2474158e-10  -3.3446365e-02   5.8505103e+00   4.3339568e-01  -2.2123680e+08
   2.2540847e-10  -3.3299133e-02   5.8458310e+00   4.3803897e-01  -2.2044954e+08
   2.2607536e-10  -3.3152426e-02   5.8411283e+00   4.4271185e-01  -2.1966362e+08
   2.2674225e-10  -3.3006243e-02   5.8364023e+00   4.4741426e-01  -2.1887903e+08
   2.2740914e-10  -3.2860584e-02   5.8316530e+00   4.5214610e-01  -2.1809578e+08
   2.2807603e-10  -3.2715447e-02   5.8268807e+00   4.5690730e-01  -2.1731388e+08
   2.2874291e-10  -3.2570832e-02   5.8220854e+00   4.6169775e-01  -2.1653334e+08
   2.2940980e-10  -3.2426737e-02   5.8172672e+00   4.6651739e-01  -2.1575416e+08
   2.3007669e-10  -3.2283162e-02   5.8124262e+00   4.7136610e-01  -2.1497636e+08
   2.3074358e-10  -3.2140106e-02   5.8075626e+00   4.7624379e-01  -2.1419993e+08
   2.3141047e-10  -3.1997568e-02   5.8026765e+00   4.8115036e-01  -2.1342488e+08
   2.3207736e-10  -3.1855547e-02   5.7977679e+00   4.8608570e-01  -2.1265122e+08
   2.3274425e-10  -3.1714042e-02   5.7928371e+00   4.9104970e-01  -2.1187896e+08
   2.3341114e-10  -3.1573052e-02   5.7878842e+00   4.9604225e-01  -2.1110810e+08
   2.3407803e-10  -3.1432576e-02   5.7829093e+00   5.0106325e-01  -2.1033866e+08
   2.3474491e-10  -3.1292614e-02   5.7779125e+00   5.0611256e-01  -2.0957062e+08
   2.3541180e-10  -3.1153164e-02   5.7728940e+00   5.1119006e-01  -2.0880402e+08
   2.3607869e-10  -3.1014225e-02   5.7678538e+00   5.1629564e-01  -2.0803884e+08
   2.3674558e-10  -3.0875797e-02   5.7627923e+00   5.2142916e-01  -2.0727509e+08
   2.3741247e-10  -3.0737878e-02   5.7577094e+00   5.2659049e-01  -2.0651279e+08
   2.3807936e-10  -3.0600468e-02   5.7526054e+00   5.3177950e-01  -2.0575193e+08
   2.3874625e-10  -3.0463565e-02   5.7474804e+00   5.3699605e-01  -2.0499253e+08
   2.3941314e-10  -3.0327169e-02   5.7423345e+00   5.4223999e-01  -2.0423459e+08
   2.4008003e-10  -3.0191278e-02   5.7371679e+00   5.4751119e-01  -2.0347811e+08
   2.4074692e-10  -3.0055892e-02   5.7319808e+00   5.5280948e-01  -2.0272311e+08
   2.4141380e-10  -2.9921010e-02   5.7267732e+00   5.5813474e-01  -2.0196958e+08
   2.4208069e-10  -2.9786630e-02   5.7215455e+00   5.6348679e-01  -2.0121754e+08
   2.4274758e-10  -2.9652752e-02   5.7162977e+00   5.6886549e-01  -2.0046699e+08
   2.4341447e-10  -2.9519375e-02   5.7110300e+00   5.7427067e-01  -1.9971794e+08
   2.4408136e-10  -2.9386498e-02   5.7057426e+00   5.7970217e-01  -1.9897039e+08
   2.4474825e-10  -2.9254119e-02   5.7004357e+00   5.8515982e-01  -1.9822435e+08
   2.4541514e-10  -2.9122237e-02   5.6951093e+00   5.9064346e-01  -1.9747982e+08
   2.4608203e-10  -2.8990853e-02   5.6897637e+00   5.9615291e-01  -1.9673681e+08
   2.4674892e-10  -2.8859964e-02   5.6843992e+00   6.0168801e-01  -1.9599532e+08
   2.4741581e-10  -2.8729569e-02   5.6790157e+00   6.0724856e-01  -1.9525537e+08
   2.4808269e-10  -2.8599669e-02   5.6736136e+00   6.1283439e-01  -1.9451695e+08
   2.4874958e-10  -2.8470261e-02   5.6681930e+00   6.1844533e-01  -1.9378007e+08
   2.4941647e-10  -2.8341344e-02   5.6627541e+00   6.2408117e-01  -1.9304474e+08
   2.5008336e-10  -2.8212918e-02   5.6572970e+00   6.2974174e-01  -1.9231097e+08
   2.5075025e-10  -2.8084981e-02   5.6518221e+00   6.3542683e-01  -1.9157875e+08
   2.5141714e-10  -2.7957533e-02   5.6463294e+00   6.4113627e-01  -1.9084809e+08
   2.5208403e-10  -2.7830573e-02   5.6408191e+00   6.4686984e-01  -1.9011900e+08
   2.5275092e-10  -2.7704098e-02   5.6352915e+00   6.5262736e-01  -1.8939149e+08
   2.5341781e-10  -2.7578109e-02   5.6297468e+00   6.5840862e-01  -1.8866556e+08
   2.5408469e-10  -2.7452605e-02   5.6241850e+00   6.6421341e-01  -1.8794121e+08
   2.5475158e-10  -2.7327583e-02   5.6186065e+00   6.7004153e-01  -1.8721844e+08
   2.5541847e-10  -2.7203044e-02   5.6130115e+00   6.7589276e-01  -1.8649728e+08
   2.5608536e-10  -2.7078986e-02   5.6074001e+00   6.8176691e-01  -1.8577771e+08
   2.5675225e-10  -2.6955407e-02   5.6017725e+00   6.8766374e-01  -1.8505974e+08
   2.5741914e-10  -2.6832308e-02   5.5961290e+00   6.9358306e-01  -1.8434338e+08
   2.5808603e-10  -2.6709687e-02   5.5904697e+00   6.9952462e-01  -1.8362864e+08
   2.5875292e-10  -2.6587542e-02   5.5847949e+00   7.0548823e-01  -1.8291552e+08
   2.5941981e-10  -2.6465873e-02   5.5791048e+00   7.1147365e-01  -1.8220401e+08
   2.6008670e-10  -2.6344679e-02   5.5733995e+00   7.1748066e-01  -1.8149414e+08
   2.6075358e-10  -2.6223959e-02   5.5676794e+00   7.2350902e-01  -1.8078589e+08
   2.6142047e-10  -2.6103711e-02   5.5619445e+00   7.2955852e-01  -1.8007929e+08
   2.6208736e-10  -2.5983934e-02   5.5561952e+00   7.3562892e-01  -1.7937432e+08
   2.6275425e-10  -2.5864627e-02   5.5504317e+00   7.4171998e-01  -1.7867100e+08
   2.6342114e-10  -2.5745790e-02   5.5446540e+00   7.4783147e-01  -1.7796932e+08
   2.6408803e-10  -2.5627421e-02   5.5388626e+00   7.5396315e-01  -1.7726930e+08
   2.6475492e-10  -2.5509519e-02   5.5330576e+00   7.6011478e-01  -1.7657094e+08
   2.6542181e-10  -2.5392083e-02   5.5272392e+00   7.6628613e-01  -1.7587424e+08
   2.6608870e-10  -2.5275112e-02   5.5214076e+00   7.7247695e-01  -1.7517921e+08
   2.6675559e-10  -2.5158604e-02   5.5155631e+00   7.7868699e-01  -1.7448584e+08
   2.6742247e-10  -2.5042559e-02   5.5097059e+00   7.8491600e-01  -1.7379415e+08
   2.6808936e-10  -2.4926975e-02   5.5038362e+00   7.9116375e-01  -1.7310414e+08
   2.6875625e-10  -2.4811852e-02   5.4979542e+00   7.9742997e-01  -1.7241581e+08
   2.6942314e-10  -2.4697188e-02   5.4920602e+00   8.0371443e-01  -1.7172916e+08
   2.7009003e-10  -2.4582982e-02   5.4861545e+00   8.1001686e-01  -1.7104420e+08
   2.7075692e-10  -2.4469233e-02   5.4802371e+00   8.1633701e-01  -1.7036094e+08
   2.7142381e-10  -2.4355939e-02   5.4743084e+00   8.2267463e-01  -1.6967937e+08
   2.7209070e-10  -2.4243101e-02   5.4683685e+00   8.2902945e-01  -1.6899950e+08
   2.7275759e-10  -2.4130716e-02   5.4624178e+00   8.3540123e-01  -1.6832133e+08
   2.7342447e-10  -2.4018784e-02   5.4564564e+00   8.4178970e-01  -1.6764487e+08
   2.7409136e-10  -2.3907302e-02   5.4504846e+00   8.4819460e-01  -1.6697012e+08
   2.7475825e-10  -2.3796272e-02   5.4445026e+00   8.5461567e-01  -1.6629708e+08
   2.7542514e-10  -2.3685690e-02   5.4385107e+00   8.6105265e-01  -1.6562576e+08
   2.7609203e-10  -2.3575556e-02   5.4325090e+00   8.6750526e-01  -1.6495615e+08
   2.7675892e-10  -2.3465868e-02   5.4264979e+00   8.7397326e-01  -1.6428827e+08
   2.7742581e-10  -2.3356627e-02   5.4204774e+00   8.8045636e-01  -1.6362212e+08
   2.7809270e-10  -2.3247830e-02   5.4144480e+00   8.8695431e-01  -1.6295769e+08
   2.7875959e-10  -2.3139476e-02   5.4084098e+00   8.9346683e-01  -1.6229499e+08
   2.7942648e-10  -2.3031564e-02   5.4023630e+00   8.9999366e-01  -1.6163403e+08
   2.8009336e-10  -2.2924093e-02   5.3963079e+00   9.0653452e-01  -1.6097481e+08
   2.8076025e-10  -2.2817062e-02   5.3902447e+00   9.1308916e-01  -1.6031732e+08
   2.8142714e-10  -2.2710470e-02   5.3841737e+00   9.1965728e-01  -1.5966158e+08
   2.8209403e-10  -2.2604315e-02   5.3780951e+00   9.2623863e-01  -1.5900758e+08
   2.8276092e-10  -2.2498597e-02   5.3720091e+00   9.3283293e-01  -1.5835533e+08
   2.8342781e-10  -2.2393314e-02   5.3659160e+00   9.3943991e-01  -1.5770482e+08
   2.8409470e-10  -2.2288465e-02   5.3598159e+00   9.4605930e-01  -1.5705607e+08
   2.8476159e-10  -2.2184049e-02   5.3537093e+00   9.5269081e-01  -1.5640908e+08
   2.8542848e-10  -2.2080064e-02   5.3475961e+00   9.5933418e-01  -1.5576384e+08
   2.8609537e-10  -2.1976510e-02   5.3414768e+00   9.6598913e-01  -1.5512036e+08
   2.8676225e-10  -2.1873386e-02   5.3353516e+00   9.7265539e-01  -1.5447864e+08
   2.8742914e-10  -2.1770689e-02   5.3292206e+00   9.7933268e-01  -1.5383868e+08
   2.8809603e-10  -2.1668420e-02   5.3230841e+00   9.8602072e-01  -1.5320049e+08
   2.8876292e-10  -2.1566576e-02   5.3169424e+00   9.9271924e-01  -1.5256406e+08
   2.8942981e-10  -2.1465157e-02   5.3107957e+00   9.9942796e-01  -1.5192941e+08
   2.9009670e-10  -2.1364162e-02   5.3046442e+00   1.0061466e+00  -1.5129652e+08
   2.9076359e-10  -2.1263589e-02   5.2984882e+00   1.0128749e+00  -1.5066541e+08
   2.9143048e-10  -2.1163437e-02   5.2923278e+00   1.0196126e+00  -1.5003607e+08
   2.9209737e-10  -2.1063705e-02   5.2861634e+00   1.0263594e+00  -1.4940850e+08
   2.9276425e-10  -2.0964391e-02   5.2799952e+00   1.0331150e+00  -1.4878272e+08
   2.9343114e-10  -2.0865496e-02   5.2738233e+00   1.0398791e+00  -1.4815871e+08
   2.9409803e-10  -2.0767016e-02   5.2676481e+00   1.0466515e+00  -1.4753648e+08
   2.9476492e-10  -2.0668952e-02   5.2614697e+00   1.0534319e+00  -1.4691604e+08
   2.9543181e-10  -2.0571302e-02   5.2552884e+00   1.0602200e+00  -1.4629738e+08
   2.9609870e-10  -2.0474065e-02   5.2491044e+00   1.0670156e+00  -1.4568050e+08
   2.9676559e-10  -2.0377240e-02   5.2429180e+00   1.0738183e+00  -1.4506541e+08
   2.9743248e-10  -2.0280825e-02   5.2367294e+00   1.0806279e+00  -1.4445210e+08
   2.9809937e-10  -2.0184819e-02   5.2305388e+00   1.0874441e+00  -1.4384058e+08
   2.9876626e-10  -2.0089221e-02   5.2243464e+00   1.0942667e+00  -1.4323085e+08
   2.9943314e-10  -1.9994030e-02   5.2181525e+00   1.1010953e+00  -1.4262291e+08
   3.0010003e-10  -1.9899245e-02   5.2119572e+00   1.1079298e+00  -1.4201676e+08
   3.0076692e-10  -1.9804865e-02   5.2057609e+00   1.1147698e+00  -1.4141241e+08
   3.0143381e-10  -1.9710887e-02   5.1995638e+00   1.1216150e+00  -1.4080984e+08
   3.0210070e-10  -1.9617312e-02   5.1933660e+00   1.1284652e+00  -1.4020907e+08
   3.0276759e-10  -1.9524138e-02   5.1871678e+00   1.1353201e+00  -1.3961009e+08
   3.0343448e-10  -1.9431364e-02   5.1809694e+00   1.1421794e+00  -1.3901291e+08
   3.0410137e-10  -1.9338988e-02   5.1747711e+00   1.1490429e+00  -1.3841752e+08
   3.0476826e-10  -1.9247009e-02   5.1685730e+00   1.1559103e+00  -1.3782393e+08
   3.0543515e-10  -1.9155427e-02   5.1623754e+00   1.1627814e+00  -1.3723213e+08
   3.0610203e-10  -1.9064240e-02   5.1561785e+00   1.1696558e+00  -1.3664213e+08
   3.0676892e-10  -1.8973446e-02   5.1499825e+00   1.1765333e+00  -1.3605393e+08
   3.0743581e-10  -1.8883045e-02   5.1437876e+00   1.1834137e+00  -1.3546753e+08
   3.0810270e-10  -1.8793036e-02   5.1375941e+00   1.1902966e+00  -1.3488292e+08
   3.0876959e-10  -1.8703416e-02   5.1314021e+00   1.1971818e+00  -1.3430011e+08
   3.0943648e-10  -1.8614186e-02   5.1252120e+00   1.2040691e+00  -1.3371909e+08
   3.1010337e-10  -1.8525343e-02   5.1190238e+00   1.2109581e+00  -1.3313988e+08
   3.1077026e-10  -1.8436887e-02   5.1128378e+00   1.2178487e+00  -1.3256246e+08
   3.1143715e-10  -1.8348816e-02   5.1066542e+00   1.2247405e+00  -1.3198684e+08
   3.1210403e-10  -1.8261130e-02   5.1004733e+00   1.2316334e+00  -1.3141302e+08
   3.1277092e-10  -1.8173827e-02   5.0942951e+00   1.2385270e+00  -1.3084099e+08
   3.1343781e-10  -1.8086905e-02   5.0881200e+00   1.2454210e+00  -1.3027076e+08
   3.1410470e-10  -1.8000364e-02   5.0819482e+00   1.2523154e+00  -1.2970233e+08
   3.1477159e-10  -1.7914202e-02   5.0757798e+00   1.2592097e+00  -1.2913570e+08
   3.1543848e-10  -1.7828419e-02   5.0696150e+00   1.2661037e+00  -1.2857086e+08
   3.1610537e-10  -1.7743013e-02   5.0634541e+00   1.2729972e+00  -1.2800782e+08
   3.1677226e-10  -1.7657982e-02   5.0572972e+00   1.2798899e+00  -1.2744657e+08
   3.1743915e-10  -1.7573327e-02   5.0511445e+00   1.2867817e+00  -1.2688712e+08
   3.1810604e-10  -1.7489044e-02   5.0449963e+00   1.2936721e+00  -1.2632946e+08
   3.1877292e-10  -1.7405134e-02   5.0388528e+00   1.3005611e+00  -1.2577360e+08
   3.1943981e-10  -1.7321595e-02   5.0327141e+00   1.3074482e+00  -1.2521953e+08
   3.2010670e-10  -1.7238426e-02   5.0265804e+00   1.3143334e+00  -1.2466725e+08
   3.2077359e-10  -1.7155626e-02   5.0204519e+00   1.3212164e+00  -1.2411677e+08
   3.2144048e-10  -1.7073193e-02   5.0143288e+00   1.3280968e+00  -1.2356807e+08
   3.2210737e-10  -1.6991126e-02   5.0082114e+00   1.3349746e+00  -1.2302117e+08
   3.2277426e-10  -1.6909425e-02   5.0020997e+00   1.3418494e+00  -1.2247605e+08
   3.2344115e-10  -1.6828087e-02   4.9959940e+00   1.3487210e+00  -1.2193272e+08
   3.2410804e-10  -1.6747112e-02   4.9898944e+00   1.3555891e+00  -1.2139118e+08
   3.2477492e-10  -1.6666499e-02   4.9838012e+00   1.3624536e+00  -1.2085143e+08
   3.2544181e-10  -1.6586246e-02   4.9777145e+00   1.3693143e+00  -1.2031346e+08
   3.2610870e-10  -1.6506352e-02   4.9716344e+00   1.3761708e+00  -1.1977728e+08
   3.2677559e-10  -1.6426816e-02   4.9655613e+00   1.3830229e+00  -1.1924287e+08
   3.2744248e-10  -1.6347637e-02   4.9594952e+00   1.3898705e+00  -1.1871025e+08
   3.2810937e-10  -1.6268813e-02   4.9534364e+00   1.3967133e+00  -1.1817941e+08
   3.2877626e-10  -1.6190344e-02   4.9473849e+00   1.4035510e+00  -1.1765035e+08
   3.2944315e-10  -1.6112228e-02   4.9413410e+00   1.4103836e+00  -1.1712307e+08
   3.3011004e-10  -1.6034465e-02   4.9353049e+00   1.4172106e+00  -1.1659756e+08
   3.3077693e-10  -1.5957052e-02   4.9292767e+00   1.4240320e+00  -1.1607383e+08
   3.3144381e-10  -1.5879989e-02   4.9232566e+00   1.4308475e+00  -1.1555187e+08
   3.3211070e-10  -1.5803274e-02   4.9172447e+00   1.4376569e+00  -1.1503168e+08
   3.3277759e-10  -1.5726906e-02   4.9112412e+00   1.4444599e+00  -1.1451327e+08
   3.3344448e-10  -1.5650885e-02   4.9052463e+00   1.4512565e+00  -1.1399662e+08
   3.3411137e-10  -1.5575209e-02   4.8992601e+00   1.4580463e+00  -1.1348174e+08
   3.3477826e-10  -1.5499877e-02   4.8932828e+00   1.4648291e+00  -1.1296862e+08
   3.3544515e-10  -1.5424887e-02   4.8873146e+00   1.4716048e+00  -1.1245727e+08
   3.3611204e-10  -1.5350238e-02   4.8813555e+00   1.4783731e+00  -1.1194768e+08
   3.3677893e-10  -1.5275930e-02   4.8754058e+00   1.4851339e+00  -1.1143985e+08
   3.3744582e-10  -1.5201961e-02   4.8694657e+00   1.4918869e+00  -1.1093378e+08
   3.3811270e-10  -1.5128330e-02   4.8635352e+00   1.4986320e+00  -1.1042946e+08
   3.3877959e-10  -1.5055036e-02   4.8576145e+00   1.5053689e+00  -1.0992690e+08
   3.3944648e-10  -1.4982078e-02   4.8517038e+00   1.5120974e+00  -1.0942609e+08
   3.4011337e-10  -1.4909453e-02   4.8458031e+00   1.5188174e+00  -1.0892703e+08
   3.4078026e-10  -1.4837162e-02   4.8399128e+00   1.5255287e+00  -1.0842972e+08
   3.4144715e-10  -1.4765204e-02   4.8340328e+00   1.5322311e+00  -1.0793416e+08
   3.4211404e-10  -1.4693576e-02   4.8281633e+00   1.5389244e+00  -1.0744034e+08
   3.4278093e-10  -1.4622278e-02   4.8223045e+00   1.5456083e+00  -1.0694826e+08
   3.4344782e-10  -1.4551308e-02   4.8164566e+00   1.5522829e+00  -1.0645792e+08
   3.4411470e-10  -1.4480666e-02   4.8106195e+00   1.5589477e+00  -1.0596932e+08
   3.4478159e-10  -1.4410350e-02   4.8047936e+00   1.5656027e+00  -1.0548246e+08
   3.4544848e-10  -1.4340360e-02   4.7989788e+00   1.5722477e+00  -1.0499733e+08
   3.4611537e-10  -1.4270693e-02   4.7931754e+00   1.5788825e+00  -1.0451393e+08
   3.4678226e-10  -1.4201350e-02   4.7873835e+00   1.5855070e+00  -1.0403226e+08
   3.4744915e-10  -1.4132328e-02   4.7816032e+00   1.5921209e+00  -1.0355231e+08
   3.4811604e-10  -1.4063626e-02   4.7758345e+00   1.5987242e+00  -1.0307409e+08
   3.4878293e-10  -1.3995244e-02   4.7700778e+00   1.6053165e+00  -1.0259759e+08
   3.4944982e-10  -1.3927180e-02   4.7643330e+00   1.6118978e+00  -1.0212281e+08
   3.5011671e-10  -1.3859434e-02   4.7586003e+00   1.6184680e+00  -1.0164974e+08
   3.5078359e-10  -1.3792003e-02   4.7528798e+00   1.6250267e+00  -1.0117839e+08
   3.5145048e-10  -1.3724887e-02   4.7471716e+00   1.6315740e+00  -1.0070875e+08
   3.5211737e-10  -1.3658085e-02   4.7414758e+00   1.6381095e+00  -1.0024082e+08
   3.5278426e-10  -1.3591595e-02   4.7357927e+00   1.6446333e+00  -9.9774597e+07
   3.5345115e-10  -1.3525417e-02   4.7301221e+00   1.6511450e+00  -9.9310076e+07
   3.5411804e-10  -1.3459549e-02   4.7244644e+00   1.6576446e+00  -9.8847256e+07
   3.5478493e-10  -1.3393991e-02   4.7188195e+00   1.6641319e+00  -9.8386134e+07
   3.5545182e-10  -1.3328740e-02   4.7131877e+00   1.6706068e+00  -9.7926708e+07
   3.5611871e-10  -1.3263796e-02   4.7075689e+00   1.6770691e+00  -9.7468974e+07
   3.5678560e-10  -1.3199158e-02   4.7019633e+00   1.6835187e+00  -9.7012930e+07
   3.5745248e-10  -1.3134824e-02   4.6963711e+00   1.6899554e+00  -9.6558574e+07
   3.5811937e-10  -1.3070794e-02   4.6907922e+00   1.6963791e+00  -9.6105902e+07
   3.5878626e-10  -1.3007067e-02   4.6852269e+00   1.7027896e+00  -9.5654911e+07
   3.5945315e-10  -1.2943640e-02   4.6796751e+00   1.7091868e+00  -9.5205599e+07
   3.6012004e-10  -1.2880514e-02   4.6741371e+00   1.7155706e+00  -9.4757963e+07
   3.6078693e-10  -1.2817687e-02   4.6686128e+00   1.7219409e+00  -9.4311999e+07
   3.6145382e-10  -1.2755158e-02   4.6631024e+00   1.7282975e+00  -9.3867706e+07
   3.6212071e-10  -1.2692925e-02   4.6576060e+00   1.7346402e+00  -9.3425079e+07
   3.6278760e-10  -1.2630988e-02   4.6521237e+00   1.7409691e+00  -9.2984117e+07
   3.6345448e-10  -1.2569346e-02   4.6466555e+00   1.7472838e+00  -9.2544815e+07
   3.6412137e-10  -1.2507997e-02   4.6412015e+00   1.7535844e+00  -9.2107171e+07
   3.6478826e-10  -1.2446941e-02   4.6357619e+00   1.7598706e+00  -9.1671182e+07
   3.6545515e-10  -1.2386176e-02   4.6303366e+00   1.7661424e+00  -9.1236845e+07
   3.6612204e-10  -1.2325701e-02   4.6249259e+00   1.7723997e+00  -9.0804156e+07
   3.6678893e-10  -1.2265515e-02   4.6195297e+00   1.7786423e+00  -9.0373113e+07
   3.6745582e-10  -1.2205617e-02   4.6141482e+00   1.7848701e+00  -8.9943712e+07
   3.6812271e-10  -1.2146006e-02   4.6087813e+00   1.7910830e+00  -8.9515951e+07
   3.6878960e-10  -1.2086681e-02   4.6034293e+00   1.7972809e+00  -8.9089826e+07
   3.6945649e-10  -1.2027641e-02   4.5980921e+00   1.8034637e+00  -8.8665333e+07
   3.7012337e-10  -1.1968884e-02   4.5927699e+00   1.8096313e+00  -8.8242471e+07
   3.7079026e-10  -1.1910409e-02   4.5874627e+00   1.8157836e+00  -8.7821235e+07
   3.7145715e-10  -1.1852216e-02   4.5821706e+00   1.8219204e+00  -8.7401622e+07
   3.7212404e-10  -1.1794304e-02   4.5768936e+00   1.8280417e+00  -8.6983629e+07
   3.7279093e-10  -1.1736670e-02   4.5716318e+00   1.8341474e+00  -8.6567253e+07
   3.7345782e-10  -1.1679315e-02   4.5663853e+00   1.8402374e+00  -8.6152490e+07
   3.7412471e-10  -1.1622237e-02   4.5611542e+00   1.8463115e+00  -8.5739337e+07
   3.7479160e-10  -1.1565435e-02   4.5559384e+00   1.8523698e+00  -8.5327791e+07
   3.7545849e-10  -1.1508908e-02   4.5507382e+00   1.8584120e+00  -8.4917848e+07
   3.7612538e-10  -1.1452655e-02   4.5455534e+00   1.8644381e+00  -8.4509506e+07
   3.7679226e-10  -1.1396674e-02   4.5403842e+00   1.8704481e+00  -8.4102760e+07
   3.7745915e-10  -1.1340966e-02   4.5352307e+00   1.8764417e+00  -8.3697608e+07
   3.7812604e-10  -1.1285528e-02   4.5300928e+00   1.8824190e+00  -8.3294045e+07
   3.7879293e-10  -1.1230360e-02   4.5249707e+00   1.8883799e+00  -8.2892069e+07
   3.7945982e-10  -1.1175460e-02   4.5198644e+00   1.8943243e+00  -8.2491676e+07
   3.8012671e-10  -1.1120828e-02   4.5147739e+00   1.9002520e+00  -8.2092863e+07
   3.8079360e-10  -1.1066462e-02   4.5096993e+00   1.9061631e+00  -8.1695626e+07
   3.8146049e-10  -1.1012362e-02   4.5046406e+00   1.9120574e+00  -8.1299961e+07
   3.8212738e-10  -1.0958526e-02   4.4995980e+00   1.9179349e+00  -8.0905866e+07
   3.8279426e-10  -1.0904953e-02   4.4945714e+00   1.9237954e+00  -8.0513337e+07
   3.8346115e-10  -1.0851643e-02   4.4895608e+00   1.9296390e+00  -8.0122370e+07
   3.8412804e-10  -1.0798593e-02   4.4845664e+00   1.9354656e+00  -7.9732961e+07
   3.8479493e-10  -1.0745805e-02   4.4795881e+00   1.9412750e+00  -7.9345108e+07
   3.8546182e-10  -1.0693275e-02   4.4746260e+00   1.9470673e+00  -7.8958806e+07
   3.8612871e-10  -1.0641003e-02   4.4696802e+00   1.9528423e+00  -7.8574053e+07
   3.8679560e-10  -1.0588988e-02   4.4647506e+00   1.9586000e+00  -7.8190844e+07
   3.8746249e-10  -1.0537230e-02   4.4598373e+00   1.9643403e+00  -7.7809176e+07
   3.8812938e-10  -1.0485726e-02   4.4549404e+00   1.9700632e+00  -7.7429046e+07
   3.8879627e-10  -1.0434476e-02   4.4500598e+00   1.9757686e+00  -7.7050449e+07
   3.8946315e-10  -1.0383480e-02   4.4451957e+00   1.9814564e+00  -7.6673383e+07
   3.9013004e-10  -1.0332735e-02   4.4403480e+00   1.9871266e+00  -7.6297843e+07
   3.9079693e-10  -1.0282241e-02   4.4355168e+00   1.9927792e+00  -7.5923826e+07
   3.9146382e-10  -1.0231997e-02   4.4307020e+00   1.9984141e+00  -7.5551329e+07
   3.9213071e-10  -1.0182002e-02   4.4259038e+00   2.0040312e+00  -7.5180348e+07
   3.9279760e-10  -1.0132255e-02   4.4211222e+00   2.0096305e+00  -7.4810878e+07
   3.9346449e-10  -1.0082755e-02   4.4163571e+00   2.0152119e+00  -7.4442918e+07
   3.9413138e-10  -1.0033500e-02   4.4116086e+00   2.0207754e+00  -7.4076462e+07
   3.9479827e-10  -9.9844904e-03   4.4068767e+00   2.0263210e+00  -7.3711507e+07
   3.9546516e-10  -9.9357246e-03   4.4021615e+00   2.0318486e+00  -7.3348050e+07
   3.9613204e-10  -9.8872016e-03   4.3974629e+00   2.0373581e+00  -7.2986087e+07
   3.9679893e-10  -9.8389204e-03   4.3927810e+00   2.0428496e+00  -7.2625614e+07
   3.9746582e-10  -9.7908800e-03   4.3881158e+00   2.0483229e+00  -7.2266628e+07
   3.9813271e-10  -9.7430795e-03   4.3834673e+00   2.0537781e+00  -7.1909124e+07
   3.9879960e-10  -9.6955178e-03   4.3788355e+00   2.0592151e+00  -7.1553100e+07
   3.9946649e-10  -9.6481940e-03   4.3742205e+00   2.0646339e+00  -7.1198551e+07
   4.0013338e-10  -9.6011070e-03   4.3696223e+00   2.0700344e+00  -7.0845473e+07
   4.0080027e-10  -9.5542560e-03   4.3650408e+00   2.0754166e+00  -7.0493864e+07
   4.0146716e-10  -9.5076398e-03   4.3604761e+00   2.0807805e+00  -7.0143719e+07
   4.0213404e-10  -9.4612575e-03   4.3559281e+00   2.0861260e+00  -6.9795035e+07
   4.0280093e-10  -9.4151082e-03   4.3513970e+00   2.0914532e+00  -6.9447808e+07
   4.0346782e-10  -9.3691909e-03   4.3468827e+00   2.0967619e+00  -6.9102034e+07
   4.0413471e-10  -9.3235045e-03   4.3423852e+00   2.1020522e+00  -6.8757709e+07
   4.0480160e-10  -9.2780481e-03   4.3379045e+00   2.1073241e+00  -6.8414830e+07
   4.0546849e-10  -9.2328208e-03   4.3334407e+00   2.1125775e+00  -6.8073393e+07
   4.0613538e-10  -9.1878216e-03   4.3289937e+00   2.1178123e+00  -6.7733394e+07
   4.0680227e-10  -9.1430494e-03   4.3245635e+00   2.1230287e+00  -6.7394830e+07
   4.0746916e-10  -9.0985035e-03   4.3201501e+00   2.1282264e+00  -6.7057697e+07
   4.0813605e-10  -9.0541827e-03   4.3157536e+00   2.1334057e+00  -6.6721990e+07
   4.0880293e-10  -9.0100862e-03   4.3113739e+00   2.1385663e+00  -6.6387707e+07
   4.0946982e-10  -8.9662129e-03   4.3070111e+00   2.1437084e+00  -6.6054843e+07
   4.1013671e-10  -8.9225620e-03   4.3026651e+00   2.1488318e+00  -6.5723395e+07
   4.1080360e-10  -8.8791325e-03   4.2983359e+00   2.1539366e+00  -6.5393358e+07
   4.1147049e-10  -8.8359234e-03   4.2940236e+00   2.1590228e+00  -6.5064731e+07
   4.1213738e-10  -8.7929339e-03   4.2897281e+00   2.1640903e+00  -6.4737507e+07
   4.1280427e-10  -8.7501629e-03   4.2854494e+00   2.1691392e+00  -6.4411685e+07
   4.1347116e-10  -8.7076095e-03   4.2811875e+00   2.1741694e+00  -6.4087259e+07
   4.1413805e-10  -8.6652727e-03   4.2769424e+00   2.1791810e+00  -6.3764225e+07
   4.1480493e-10  -8.6231517e-03   4.2727142e+00   2.1841738e+00  -6.3442580e+07
   4.1547182e-10  -8.5812455e-03   4.2685027e+00   2.1891480e+00  -6.3122322e+07
   4.1613871e-10  -8.5395531e-03   4.2643080e+00   2.1941035e+00  -6.2803446e+07
   4.1680560e-10  -8.4980738e-03   4.2601301e+00   2.1990403e+00  -6.2485949e+07
   4.1747249e-10  -8.4568064e-03   4.2559689e+00   2.2039584e+00  -6.2169826e+07
   4.1813938e-10  -8.4157501e-03   4.2518245e+00   2.2088578e+00  -6.1855073e+07
   4.1880627e-10  -8.3749040e-03   4.2476968e+00   2.2137385e+00  -6.1541688e+07
   4.1947316e-10  -8.3342672e-03   4.2435858e+00   2.2186005e+00  -6.1229665e+07
   4.2014005e-10  -8.2938387e-03   4.2394916e+00   2.2234438e+00  -6.0919002e+07
   4.2080694e-10  -8.2536176e-03   4.2354140e+00   2.2282685e+00  -6.0609694e+07
   4.2147382e-10  -8.2136030e-03   4.2313531e+00   2.2330744e+00  -6.0301737e+07
   4.2214071e-10  -8.1737941e-03   4.2273089e+00   2.2378617e+00  -5.9995129e+07
   4.2280760e-10  -8.1341899e-03   4.2232814e+00   2.2426303e+00  -5.9689865e+07
   4.2347449e-10  -8.0947894e-03   4.2192704e+00   2.2473802e+00  -5.9385941e+07
   4.2414138e-10  -8.0555919e-03   4.2152761e+00   2.2521115e+00  -5.9083354e+07
   4.2480827e-10  -8.0165963e-03   4.2112983e+00   2.2568241e+00  -5.8782100e+07
   4.2547516e-10  -7.9778019e-03   4.2073372e+00   2.2615181e+00  -5.8482175e+07
   4.2614205e-10  -7.9392077e-03   4.2033925e+00   2.2661934e+00  -5.8183576e+07
   4.2680894e-10  -7.9008128e-03   4.1994644e+00   2.2708501e+00  -5.7886298e+07
   4.2747583e-10  -7.8626163e-03   4.1955528e+00   2.2754883e+00  -5.7590338e+07
   4.2814271e-10  -7.8246173e-03   4.1916577e+00   2.2801078e+00  -5.7295692e+07
   4.2880960e-10  -7.7868151e-03   4.1877791e+00   2.2847088e+00  -5.7002357e+07
   4.2947649e-10  -7.7492086e-03   4.1839169e+00   2.2892912e+00  -5.6710327e+07
   4.3014338e-10  -7.7117970e-03   4.1800711e+00   2.2938550e+00  -5.6419601e+07
   4.3081027e-10  -7.6745794e-03   4.1762417e+00   2.2984003e+00  -5.6130174e+07
   4.3147716e-10  -7.6375549e-03   4.1724286e+00   2.3029271e+00  -5.5842042e+07
   4.3214405e-10  -7.6007228e-03   4.1686319e+00   2.3074354e+00  -5.5555202e+07
   4.3281094e-10  -7.5640820e-03   4.1648515e+00   2.3119253e+00  -5.5269650e+07
   4.3347783e-10  -7.5276318e-03   4.1610873e+00   2.3163967e+00  -5.4985381e+07
   4.3414471e-10  -7.4913713e-03   4.1573395e+00   2.3208496e+00  -5.4702394e+07
   4.3481160e-10  -7.4552995e-03   4.1536078e+00   2.3252842e+00  -5.4420682e+07
   4.3547849e-10  -7.4194157e-03   4.1498924e+00   2.3297003e+00  -5.4140244e+07
   4.3614538e-10  -7.3837190e-03   4.1461931e+00   2.3340981e+00  -5.3861074e+07
   4.3681227e-10  -7.3482086e-03   4.1425099e+00   2.3384775e+00  -5.3583170e+07
   4.3747916e-10  -7.3128835e-03   4.1388428e+00   2.3428387e+00  -5.3306528e+07
   4.3814605e-10  -7.2777430e-03   4.1351919e+00   2.3471815e+00  -5.3031144e+07
   4.3881294e-10  -7.2427861e-03   4.1315569e+00   2.3515061e+00  -5.2757013e+07
   4.3947983e-10  -7.2080121e-03   4.1279380e+00   2.3558124e+00  -5.2484134e+07
   4.4014672e-10  -7.1734201e-03   4.1243350e+00   2.3601005e+00  -5.2212501e+07
   4.4081360e-10  -7.1390092e-03   4.1207480e+00   2.3643705e+00  -5.1942111e+07
   4.4148049e-10  -7.1047787e-03   4.1171769e+00   2.3686223e+00  -5.1672961e+07
   4.4214738e-10  -7.0707276e-03   4.1136216e+00   2.3728559e+00  -5.1405046e+07
   4.4281427e-10  -7.0368552e-03   4.1100822e+00   2.3770715e+00  -5.1138363e+07
   4.4348116e-10  -7.0031606e-03   4.1065586e+00   2.3812690e+00  -5.0872908e+07
   4.4414805e-10  -6.9696430e-03   4.1030508e+00   2.3854485e+00  -5.0608678e+07
   4.4481494e-10  -6.9363015e-03   4.0995587e+00   2.3896100e+00  -5.0345668e+07
   4.4548183e-10  -6.9031354e-03   4.0960823e+00   2.3937535e+00  -5.0083876e+07
   4.4614872e-10  -6.8701438e-03   4.0926216e+00   2.3978791e+00  -4.9823297e+07
   4.4681561e-10  -6.8373259e-03   4.0891764e+00   2.4019868e+00  -4.9563928e+07
   4.4748249e-10  -6.8046809e-03   4.0857469e+00   2.4060766e+00  -4.9305765e+07
   4.4814938e-10  -6.7722080e-03   4.0823329e+00   2.4101486e+00  -4.9048805e+07
   4.4881627e-10  -6.7399063e-03   4.0789344e+00   2.4142028e+00  -4.8793043e+07
   4.4948316e-10  -6.7077750e-03   4.0755514e+00   2.4182393e+00  -4.8538476e+07
   4.5015005e-10  -6.6758134e-03   4.0721838e+00   2.4222580e+00  -4.8285100e+07
   4.5081694e-10  -6.6440206e-03   4.0688316e+00   2.4262590e+00  -4.8032912e+07
   4.5148383e-10  -6.6123958e-03   4.0654947e+00   2.4302425e+00  -4.7781908e+07
   4.5215072e-10  -6.5809383e-03   4.0621731e+00   2.4342083e+00  -4.7532085e+07
   4.5281761e-10  -6.5496472e-03   4.0588668e+00   2.4381565e+00  -4.7283438e+07
   4.5348449e-10  -6.5185218e-03   4.0555758e+00   2.4420872e+00  -4.7035964e+07
   4.5415138e-10  -6.4875612e-03   4.0522999e+00   2.4460004e+00  -4.6789659e+07
   4.5481827e-10  -6.4567646e-03   4.0490391e+00   2.4498962e+00  -4.6544521e+07
   4.5548516e-10  -6.4261313e-03   4.0457935e+00   2.4537746e+00  -4.6300544e+07
   4.5615205e-10  -6.3956605e-03   4.0425629e+00   2.4576356e+00  -4.6057726e+07
   4.5681894e-10  -6.3653514e-03   4.0393473e+00   2.4614793e+00  -4.5816062e+07
   4.5748583e-10  -6.3352032e-03   4.0361467e+00   2.4653057e+00  -4.5575550e+07
   4.5815272e-10  -6.3052151e-03   4.0329610e+00   2.4691149e+00  -4.5336185e+07
   4.5881961e-10  -6.2753864e-03   4.0297902e+00   2.4729069e+00  -4.5097965e+07
   4.5948650e-10  -6.2457163e-03   4.0266342e+00   2.4766818e+00  -4.4860884e+07
   4.6015338e-10  -6.2162039e-03   4.0234931e+00   2.4804395e+00  -4.4624941e+07
   4.6082027e-10  -6.1868487e-03   4.0203666e+00   2.4841802e+00  -4.4390130e+07
   4.6148716e-10  -6.1576497e-03   4.0172549e+00   2.4879039e+00  -4.4156449e+07
   4.6215405e-10  -6.1286062e-03   4.0141578e+00   2.4916106e+00  -4.3923893e+07
   4.6282094e-10  -6.0997175e-03   4.0110754e+00   2.4953004e+00  -4.3692460e+07
   4.6348783e-10  -6.0709828e-03   4.0080075e+00   2.4989733e+00  -4.3462146e+07
   4.6415472e-10  -6.0424013e-03   4.0049541e+00   2.5026293e+00  -4.3232946e+07
   4.6482161e-10  -6.0139722e-03   4.0019152e+00   2.5062686e+00  -4.3004858e+07
   4.6548850e-10  -5.9856949e-03   3.9988907e+00   2.5098912e+00  -4.2777878e+07
   4.6615539e-10  -5.9575686e-03   3.9958807e+00   2.5134971e+00  -4.2552003e+07
   4.6682227e-10  -5.9295925e-03   3.9928849e+00   2.5170863e+00  -4.2327228e+07
   4.6748916e-10  -5.9017659e-03   3.9899034e+00   2.5206590e+00  -4.2103550e+07
   4.6815605e-10  -5.8740881e-03   3.9869362e+00   2.5242151e+00  -4.1880965e+07
   4.6882294e-10  -5.8465582e-03   3.9839832e+00   2.5277548e+00  -4.1659471e+07
   4.6948983e-10  -5.8191756e-03   3.9810443e+00   2.5312779e+00  -4.1439063e+07
   4.7015672e-10  -5.7919395e-03   3.9781195e+00   2.5347847e+00  -4.1219738e+07
   4.7082361e-10  -5.7648492e-03   3.9752087e+00   2.5382752e+00  -4.1001493e+07
   4.7149050e-10  -5.7379039e-03   3.9723119e+00   2.5417494e+00  -4.0784323e+07
   4.7215739e-10  -5.7111030e-03   3.9694291e+00   2.5452073e+00  -4.0568225e+07
   4.7282427e-10  -5.6844457e-03   3.9665602e+00   2.5486490e+00  -4.0353196e+07
   4.7349116e-10  -5.6579313e-03   3.9637052e+00   2.5520746e+00  -4.0139232e+07
   4.7415805e-10  -5.6315590e-03   3.9608639e+00   2.5554842e+00  -3.9926330e+07
   4.7482494e-10  -5.6053281e-03   3.9580364e+00   2.5588777e+00  -3.9714485e+07
   4.7549183e-10  -5.5792380e-03   3.9552226e+00   2.5622552e+00  -3.9503696e+07
   4.7615872e-10  -5.5532878e-03   3.9524225e+00   2.5656167e+00  -3.9293957e+07
   4.7682561e-10  -5.5274770e-03   3.9496360e+00   2.5689625e+00  -3.9085266e+07
   4.7749250e-10  -5.5018047e-03   3.9468630e+00   2.5722923e+00  -3.8877618e+07
   4.7815939e-10  -5.4762703e-03   3.9441035e+00   2.5756065e+00  -3.8671011e+07
   4.7882628e-10  -5.4508731e-03   3.9413575e+00   2.5789049e+00  -3.8465441e+07
   4.7949316e-10  -5.4256123e-03   3.9386248e+00   2.5821876e+00  -3.8260905e+07
   4.8016005e-10  -5.4004873e-03   3.9359056e+00   2.5854547e+00  -3.8057398e+07
   4.8082694e-10  -5.3754973e-03   3.9331996e+00   2.5887063e+00  -3.7854918e+07
   4.8149383e-10  -5.3506417e-03   3.9305069e+00   2.5919424e+00  -3.7653461e+07
   4.8216072e-10  -5.3259198e-03   3.9278274e+00   2.5951630e+00  -3.7453023e+07
   4.8282761e-10  -5.3013308e-03   3.9251610e+00   2.5983683e+00  -3.7253602e+07
   4.8349450e-10  -5.2768741e-03   3.9225077e+00   2.6015582e+00  -3.7055192e+07
   4.8416139e-10  -5.2525490e-03   3.9198675e+00   2.6047328e+00  -3.6857792e+07
   4.8482828e-10  -5.2283549e-03   3.9172403e+00   2.6078922e+00  -3.6661397e+07
   4.8549517e-10  -5.2042909e-03   3.9146260e+00   2.6110365e+00  -3.6466004e+07
   4.8616205e-10  -5.1803565e-03   3.9120246e+00   2.6141656e+00  -3.6271610e+07
   4.8682894e-10  -5.1565510e-03   3.9094361e+00   2.6172797e+00  -3.6078211e+07
   4.8749583e-10  -5.1328737e-03   3.9068603e+00   2.6203787e+00  -3.5885803e+07
   4.8816272e-10  -5.1093239e-03   3.9042973e+00   2.6234629e+00  -3.5694384e+07
   4.8882961e-10  -5.0859009e-03   3.9017470e+00   2.6265321e+00  -3.5503949e+07
   4.8949650e-10  -5.0626041e-03   3.8992093e+00   2.6295865e+00  -3.5314496e+07
   4.9016339e-10  -5.0394329e-03   3.8966842e+00   2.6326262e+00  -3.5126020e+07
   4.9083028e-10  -5.0163865e-03   3.8941716e+00   2.6356511e+00  -3.4938519e+07
   4.9149717e-10  -4.9934642e-03   3.8916715e+00   2.6386613e+00  -3.4751989e+07
   4.9216405e-10  -4.9706655e-03   3.8891838e+00   2.6416570e+00  -3.4566427e+07
   4.9283094e-10  -4.9479897e-03   3.8867086e+00   2.6446381e+00  -3.4381828e+07
   4.9349783e-10  -4.9254361e-03   3.8842456e+00   2.6476047e+00  -3.4198190e+07
   4.9416472e-10  -4.9030040e-03   3.8817949e+00   2.6505569e+00  -3.4015509e+07
   4.9483161e-10  -4.8806929e-03   3.8793564e+00   2.6534947e+00  -3.3833783e+07
   4.9549850e-10  -4.8585020e-03   3.8769301e+00   2.6564182e+00  -3.3653006e+07
   4.9616539e-10  -4.8364307e-03   3.8745159e+00   2.6593275e+00  -3.3473177e+07
   4.9683228e-10  -4.8144784e-03   3.8721137e+00   2.6622225e+00  -3.3294291e+07
   4.9749917e-10  -4.7926444e-03   3.8697236e+00   2.6651034e+00  -3.3116345e+07
   4.9816606e-10  -4.7709281e-03   3.8673454e+00   2.6679702e+00  -3.2939336e+07
   4.9883294e-10  -4.7493289e-03   3.8649791e+00   2.6708230e+00  -3.2763260e+07
   4.9949983e-10  -4.7278461e-03   3.8626247e+00   2.6736618e+00  -3.2588114e+07
   5.0016672e-10  -4.7064790e-03   3.8602821e+00   2.6764867e+00  -3.2413895e+07
   5.0083361e-10  -4.6852272e-03   3.8579512e+00   2.6792978e+00  -3.2240599e+07
   5.0150050e-10  -4.6640898e-03   3.8556320e+00   2.6820950e+00  -3.2068223e+07
   5.0216739e-10  -4.6430664e-03   3.8533245e+00   2.6848786e+00  -3.1896763e+07
   5.0283428e-10  -4.6221562e-03   3.8510286e+00   2.6876484e+00  -3.1726217e+07
   5.0350117e-10  -4.6013587e-03   3.8487441e+00   2.6904046e+00  -3.1556579e+07
   5.0416806e-10  -4.5806732e-03   3.8464712e+00   2.6931473e+00  -3.1387849e+07
   5.0483494e-10  -4.5600991e-03   3.8442097e+00   2.6958765e+00  -3.1220021e+07
   5.0550183e-10  -4.5396359e-03   3.8419596e+00   2.6985922e+00  -3.1053092e+07
   5.0616872e-10  -4.5192828e-03   3.8397208e+00   2.7012945e+00  -3.0887060e+07
   5.0683561e-10  -4.4990394e-03   3.8374933e+00   2.7039835e+00  -3.0721921e+07
   5.0750250e-10  -4.4789049e-03   3.8352771e+00   2.7066593e+00  -3.0557671e+07
   5.0816939e-10  -4.4588787e-03   3.8330719e+00   2.7093218e+00  -3.0394307e+07
   5.0883628e-10  -4.4389604e-03   3.8308780e+00   2.7119712e+00  -3.0231826e+07
   5.0950317e-10  -4.4191492e-03   3.8286950e+00   2.7146075e+00  -3.0070225e+07
   5.1017006e-10  -4.3994446e-03   3.8265231e+00   2.7172308e+00  -2.9909499e+07
   5.1083695e-10  -4.3798459e-03   3.8243622e+00   2.7198411e+00  -2.9749647e+07
   5.1150383e-10  -4.3603526e-03   3.8222121e+00   2.7224384e+00  -2.9590663e+07
   5.1217072e-10  -4.3409641e-03   3.8200730e+00   2.7250230e+00  -2.9432546e+07
   5.1283761e-10  -4.3216799e-03   3.8179446e+00   2.7275947e+00  -2.9275292e+07
   5.1350450e-10  -4.3024992e-03   3.8158270e+00   2.7301537e+00  -2.9118897e+07
   5.1417139e-10  -4.2834215e-03   3.8137201e+00   2.7327000e+00  -2.8963358e+07
   5.1483828e-10  -4.2644463e-03   3.8116238e+00   2.7352337e+00  -2.8808672e+07
   5.1550517e-10  -4.2455729e-03   3.8095381e+00   2.7377548e+00  -2.8654835e+07
   5.1617206e-10  -4.2268009e-03   3.8074630e+00   2.7402634e+00  -2.8501845e+07
   5.1683895e-10  -4.2081295e-03   3.8053984e+00   2.7427596e+00  -2.8349698e+07
   5.1750584e-10  -4.1895583e-03   3.8033442e+00   2.7452434e+00  -2.8198390e+07
   5.1817272e-10  -4.1710866e-03   3.8013004e+00   2.7477149e+00  -2.8047918e+07
   5.1883961e-10  -4.1527139e-03   3.7992670e+00   2.7501741e+00  -2.7898280e+07
   5.1950650e-10  -4.1344396e-03   3.7972438e+00   2.7526210e+00  -2.7749471e+07
   5.2017339e-10  -4.1162632e-03   3.7952309e+00   2.7550559e+00  -2.7601488e+07
   5.2084028e-10  -4.0981841e-03   3.7932282e+00   2.7574786e+00  -2.7454329e+07
   5.2150717e-10  -4.0802018e-03   3.7912356e+00   2.7598893e+00  -2.7307989e+07
   5.2217406e-10  -4.0623156e-03   3.7892531e+00   2.7622880e+00  -2.7162466e+07
   5.2284095e-10  -4.0445250e-03   3.7872806e+00   2.7646749e+00  -2.7017756e+07
   5.2350784e-10  -4.0268295e-03   3.7853181e+00   2.7670498e+00  -2.6873856e+07
   5.2417472e-10  -4.0092285e-03   3.7833656e+00   2.7694129e+00  -2.6730763e+07
   5.2484161e-10  -3.9917215e-03   3.7814229e+00   2.7717643e+00  -2.6588474e+07
   5.2550850e-10  -3.9743079e-03   3.7794901e+00   2.7741041e+00  -2.6446985e+07
   5.2617539e-10  -3.9569872e-03   3.7775670e+00   2.7764321e+00  -2.6306292e+07
   5.2684228e-10  -3.9397588e-03   3.7756537e+00   2.7787487e+00  -2.6166394e+07
   5.2750917e-10  -3.9226222e-03   3.7737500e+00   2.7810537e+00  -2.6027285e+07
   5.2817606e-10  -3.9055768e-03   3.7718560e+00   2.7833472e+00  -2.5888964e+07
   5.2884295e-10  -3.8886222e-03   3.7699715e+00   2.7856294e+00  -2.5751427e+07
   5.2950984e-10  -3.8717578e-03   3.7680966e+00   2.7879002e+00  -2.5614671e+07
   5.3017673e-10  -3.8549830e-03   3.7662312e+00   2.7901597e+00  -2.5478692e+07
   5.3084361e-10  -3.8382973e-03   3.7643751e+00   2.7924080e+00  -2.5343487e+07
   5.3151050e-10  -3.8217002e-03   3.7625285e+00   2.7946451e+00  -2.5209054e+07
   5.3217739e-10  -3.8051912e-03   3.7606912e+00   2.7968711e+00  -2.5075388e+07
   5.3284428e-10  -3.7887697e-03   3.7588632e+00   2.7990861e+00  -2.4942487e+07
   5.3351117e-10  -3.7724353e-03   3.7570444e+00   2.8012901e+00  -2.4810347e+07
   5.3417806e-10  -3.7561874e-03   3.7552348e+00   2.8034831e+00  -2.4678965e+07
   5.3484495e-10  -3.7400255e-03   3.7534343e+00   2.8056653e+00  -2.4548338e+07
   5.3551184e-10  -3.7239490e-03   3.7516429e+00   2.8078366e+00  -2.4418463e+07
   5.3617873e-10  -3.7079575e-03   3.7498605e+00   2.8099971e+00  -2.4289336e+07
   5.3684562e-10  -3.6920505e-03   3.7480871e+00   2.8121470e+00  -2.4160955e+07
   5.3751250e-10  -3.6762274e-03   3.7463227e+00   2.8142862e+00  -2.4033316e+07
   5.3817939e-10  -3.6604878e-03   3.7445671e+00   2.8164148e+00  -2.3906415e+07
   5.3884628e-10  -3.6448311e-03   3.7428204e+00   2.8185328e+00  -2.3780251e+07
   5.3951317e-10  -3.6292569e-03   3.7410825e+00   2.8206403e+00  -2.3654818e+07
   5.4018006e-10  -3.6137645e-03   3.7393533e+00   2.8227375e+00  -2.3530116e+07
   5.4084695e-10  -3.5983537e-03   3.7376328e+00   2.8248242e+00  -2.3406139e+07
   5.4151384e-10  -3.5830238e-03   3.7359210e+00   2.8269006e+00  -2.3282885e+07
   5.4218073e-10  -3.5677743e-03   3.7342177e+00   2.8289668e+00  -2.3160352e+07
   5.4284762e-10  -3.5526049e-03   3.7325230e+00   2.8310227e+00  -2.3038534e+07
   5.4351450e-10  -3.5375149e-03   3.7308368e+00   2.8330685e+00  -2.2917431e+07
   5.4418139e-10  -3.5225039e-03   3.7291591e+00   2.8351042e+00  -2.2797037e+07
   5.4484828e-10  -3.5075714e-03   3.7274898e+00   2.8371298e+00  -2.2677351e+07
   5.4551517e-10  -3.4927169e-03   3.7258288e+00   2.8391455e+00  -2.2558369e+07
   5.4618206e-10  -3.4779401e-03   3.7241761e+00   2.8411512e+00  -2.2440088e+07
   5.4684895e-10  -3.4632402e-03   3.7225318e+00   2.8431470e+00  -2.2322504e+07
   5.4751584e-10  -3.4486170e-03   3.7208956e+00   2.8451330e+00  -2.2205615e+07
   5.4818273e-10  -3.4340699e-03   3.7192676e+00   2.8471093e+00  -2.2089417e+07
   5.4884962e-10  -3.4195985e-03   3.7176477e+00   2.8490758e+00  -2.1973908e+07
   5.4951651e-10  -3.4052023e-03   3.7160360e+00   2.8510326e+00  -2.1859083e+07
   5.5018339e-10  -3.3908808e-03   3.7144322e+00   2.8529799e+00  -2.1744941e+07
   5.5085028e-10  -3.3766335e-03   3.7128364e+00   2.8549176e+00  -2.1631478e+07
   5.5151717e-10  -3.3624601e-03   3.7112486e+00   2.8568457e+00  -2.1518690e+07
   5.5218406e-10  -3.3483600e-03   3.7096687e+00   2.8587645e+00  -2.1406576e+07
   5.5285095e-10  -3.3343328e-03   3.7080967e+00   2.8606738e+00  -2.1295130e+07
   5.5351784e-10  -3.3203780e-03   3.7065324e+00   2.8625738e+00  -2.1184352e+07
   5.5418473e-10  -3.3064952e-03   3.7049759e+00   2.8644645e+00  -2.1074236e+07
   5.5485162e-10  -3.2926839e-03   3.7034271e+00   2.8663459e+00  -2.0964781e+07
   5.5551851e-10  -3.2789437e-03   3.7018860e+00   2.8682182e+00  -2.0855983e+07
   5.5618540e-10  -3.2652741e-03   3.7003525e+00   2.8700814e+00  -2.0747839e+07
   5.5685228e-10  -3.2516748e-03   3.6988266e+00   2.8719354e+00  -2.0640346e+07
   5.5751917e-10  -3.2381451e-03   3.6973083e+00   2.8737805e+00  -2.0533501e+07
   5.5818606e-10  -3.2246848e-03   3.6957974e+00   2.8756165e+00  -2.0427300e+07
   5.5885295e-10  -3.2112933e-03   3.6942940e+00   2.8774436e+00  -2.0321742e+07
   5.5951984e-10  -3.1979702e-03   3.6927980e+00   2.8792619e+00  -2.0216822e+07
   5.6018673e-10  -3.1847152e-03   3.6913093e+00   2.8810713e+00  -2.0112538e+07
   5.6085362e-10  -3.1715277e-03   3.6898280e+00   2.8828720e+00  -2.0008886e+07
   5.6152051e-10  -3.1584074e-03   3.6883539e+00   2.8846639e+00  -1.9905864e+07
   5.6218740e-10  -3.1453537e-03   3.6868871e+00   2.8864472e+00  -1.9803468e+07
   5.6285428e-10  -3.1323664e-03   3.6854274e+00   2.8882218e+00  -1.9701696e+07
   5.6352117e-10  -3.1194449e-03   3.6839749e+00   2.8899879e+00  -1.9600543e+07
   5.6418806e-10  -3.1065888e-03   3.6825295e+00   2.8917455e+00  -1.9500009e+07
   5.6485495e-10  -3.0937978e-03   3.6810912e+00   2.8934946e+00  -1.9400088e+07
   5.6552184e-10  -3.0810713e-03   3.6796599e+00   2.8952353e+00  -1.9300779e+07
   5.6618873e-10  -3.0684091e-03   3.6782355e+00   2.8969676e+00  -1.9202078e+07
   5.6685562e-10  -3.0558106e-03   3.6768181e+00   2.8986916e+00  -1.9103982e+07
   5.6752251e-10  -3.0432755e-03   3.6754076e+00   2.9004073e+00  -1.9006488e+07
   5.6818940e-10  -3.0308034e-03   3.6740039e+00   2.9021148e+00  -1.8909594e+07
   5.6885629e-10  -3.0183938e-03   3.6726070e+00   2.9038141e+00  -1.8813295e+07
   5.6952317e-10  -3.0060463e-03   3.6712169e+00   2.9055053e+00  -1.8717590e+07
   5.7019006e-10  -2.9937606e-03   3.6698336e+00   2.9071885e+00  -1.8622475e+07
   5.7085695e-10  -2.9815363e-03   3.6684569e+00   2.9088636e+00  -1.8527947e+07
   5.7152384e-10  -2.9693728e-03   3.6670868e+00   2.9105307e+00  -1.8434003e+07
   5.7219073e-10  -2.9572700e-03   3.6657233e+00   2.9121899e+00  -1.8340641e+07
   5.7285762e-10  -2.9452273e-03   3.6643665e+00   2.9138413e+00  -1.8247857e+07
   5.7352451e-10  -2.9332444e-03   3.6630161e+00   2.9154847e+00  -1.8155647e+07
   5.7419140e-10  -2.9213208e-03   3.6616722e+00   2.9171205e+00  -1.8064011e+07
   5.7485829e-10  -2.9094562e-03   3.6603347e+00   2.9187484e+00  -1.7972943e+07
   5.7552518e-10  -2.8976503e-03   3.6590037e+00   2.9203687e+00  -1.7882442e+07
   5.7619206e-10  -2.8859025e-03   3.6576790e+00   2.9219813e+00  -1.7792504e+07
   5.7685895e-10  -2.8742126e-03   3.6563606e+00   2.9235864e+00  -1.7703127e+07
   5.7752584e-10  -2.8625802e-03   3.6550485e+00   2.9251838e+00  -1.7614307e+07
   5.7819273e-10  -2.8510048e-03   3.6537427e+00   2.9267738e+00  -1.7526041e+07
   5.7885962e-10  -2.8394862e-03   3.6524430e+00   2.9283563e+00  -1.7438328e+07
   5.7952651e-10  -2.8280239e-03   3.6511495e+00   2.9299315e+00  -1.7351163e+07
   5.8019340e-10  -2.8166176e-03   3.6498622e+00   2.9314992e+00  -1.7264543e+07
   5.8086029e-10  -2.8052668e-03   3.6485809e+00   2.9330596e+00  -1.7178467e+07
   5.8152718e-10  -2.7939713e-03   3.6473057e+00   2.9346128e+00  -1.7092931e+07
   5.8219406e-10  -2.7827306e-03   3.6460365e+00   2.9361587e+00  -1.7007931e+07
   5.8286095e-10  -2.7715445e-03   3.6447733e+00   2.9376974e+00  -1.6923466e+07
   5.8352784e-10  -2.7604125e-03   3.6435160e+00   2.9392290e+00  -1.6839532e+07
   5.8419473e-10  -2.7493343e-03   3.6422646e+00   2.9407535e+00  -1.6756126e+07
   5.8486162e-10  -2.7383095e-03   3.6410190e+00   2.9422709e+00  -1.6673246e+07
   5.8552851e-10  -2.7273377e-03   3.6397793e+00   2.9437813e+00  -1.6590888e+07
   5.8619540e-10  -2.7164187e-03   3.6385454e+00   2.9452848e+00  -1.6509050e+07
   5.8686229e-10  -2.7055521e-03   3.6373172e+00   2.9467813e+00  -1.6427729e+07
   5.8752918e-10  -2.6947375e-03   3.6360947e+00   2.9482710e+00  -1.6346922e+07
   5.8819607e-10  -2.6839745e-03   3.6348779e+00   2.9497538e+00  -1.6266626e+07
   5.8886295e-10  -2.6732629e-03   3.6336668e+00   2.9512298e+00  -1.6186838e+07
   5.8952984e-10  -2.6626023e-03   3.6324612e+00   2.9526991e+00  -1.6107556e+07
   5.9019673e-10  -2.6519923e-03   3.6312612e+00   2.9541617e+00  -1.6028776e+07
   5.9086362e-10  -2.6414327e-03   3.6300668e+00   2.9556176e+00  -1.5950496e+07
   5.9153051e-10  -2.6309229e-03   3.6288778e+00   2.9570669e+00  -1.5872713e+07
   5.9219740e-10  -2.6204629e-03   3.6276943e+00   2.9585096e+00  -1.5795424e+07
   5.9286429e-10  -2.6100521e-03   3.6265163e+00   2.9599458e+00  -1.5718626e+07
   5.9353118e-10  -2.5996903e-03   3.6253436e+00   2.9613755e+00  -1.5642317e+07
   5.9419807e-10  -2.5893772e-03   3.6241763e+00   2.9627987e+00  -1.5566494e+07
   5.9486495e-10  -2.5791124e-03   3.6230143e+00   2.9642155e+00  -1.5491153e+07
   5.9553184e-10  -2.5688955e-03   3.6218576e+00   2.9656259e+00  -1.5416292e+07
   5.9619873e-10  -2.5587264e-03   3.6207062e+00   2.9670300e+00  -1.5341909e+07
   5.9686562e-10  -2.5486046e-03   3.6195599e+00   2.9684279e+00  -1.5268000e+07
   5.9753251e-10  -2.5385298e-03   3.6184189e+00   2.9698194e+00  -1.5194563e+07
   5.9819940e-10  -2.5285017e-03   3.6172830e+00   2.9712048e+00  -1.5121595e+07
   5.9886629e-10  -2.5185201e-03   3.6161522e+00   2.9725839e+00  -1.5049093e+07
   5.9953318e-10  -2.5085845e-03   3.6150265e+00   2.9739570e+00  -1.4977055e+07
   6.0020007e-10  -2.4986947e-03   3.6139059e+00   2.9753239e+00  -1.4905477e+07
   6.0086696e-10  -2.4888504e-03   3.6127903e+00   2.9766848e+00  -1.4834358e+07
   6.0153384e-10  -2.4790512e-03   3.6116797e+00   2.9780397e+00  -1.4763693e+07
   6.0220073e-10  -2.4692969e-03   3.6105740e+00   2.9793886e+00  -1.4693481e+07
   6.0286762e-10  -2.4595871e-03   3.6094732e+00   2.9807316e+00  -1.4623719e+07
   6.0353451e-10  -2.4499216e-03   3.6083774e+00   2.9820686e+00  -1.4554404e+07
   6.0420140e-10  -2.4403000e-03   3.6072864e+00   2.9833999e+00  -1.4485533e+07
   6.0486829e-10  -2.4307221e-03   3.6062002e+00   2.9847252e+00  -1.4417104e+07
   6.0553518e-10  -2.4211876e-03   3.6051188e+00   2.9860448e+00  -1.4349114e+07
   6.0620207e-10  -2.4116961e-03   3.6040422e+00   2.9873587e+00  -1.4281561e+07
   6.0686896e-10  -2.4022474e-03   3.6029703e+00   2.9886668e+00  -1.4214441e+07
   6.0753585e-10  -2.3928411e-03   3.6019031e+00   2.9899693e+00  -1.4147752e+07
   6.0820273e-10  -2.3834771e-03   3.6008406e+00   2.9912661e+00  -1.4081491e+07
   6.0886962e-10  -2.3741549e-03   3.5997827e+00   2.9925573e+00  -1.4015655e+07
   6.0953651e-10  -2.3648744e-03   3.5987294e+00   2.9938430e+00  -1.3950243e+07
   6.1020340e-10  -2.3556353e-03   3.5976807e+00   2.9951231e+00  -1.3885251e+07
   6.1087029e-10  -2.3464372e-03   3.5966366e+00   2.9963978e+00  -1.3820677e+07
   6.1153718e-10  -2.3372799e-03   3.5955970e+00   2.9976670e+00  -1.3756518e+07
   6.1220407e-10  -2.3281630e-03   3.5945618e+00   2.9989307e+00  -1.3692771e+07
   6.1287096e-10  -2.3190865e-03   3.5935312e+00   3.0001891e+00  -1.3629434e+07
   6.1353785e-10  -2.3100498e-03   3.5925049e+00   3.0014422e+00  -1.3566504e+07
   6.1420473e-10  -2.3010529e-03   3.5914831e+00   3.0026899e+00  -1.3503979e+07
   6.1487162e-10  -2.2920954e-03   3.5904656e+00   3.0039323e+00  -1.3441856e+07
   6.1553851e-10  -2.2831770e-03   3.5894525e+00   3.0051695e+00  -1.3380132e+07
   6.1620540e-10  -2.2742975e-03   3.5884437e+00   3.0064015e+00  -1.3318805e+07
   6.1687229e-10  -2.2654566e-03   3.5874391e+00   3.0076283e+00  -1.3257873e+07
   6.1753918e-10  -2.2566541e-03   3.5864389e+00   3.0088499e+00  -1.3197332e+07
   6.1820607e-10  -2.2478897e-03   3.5854428e+00   3.0100665e+00  -1.3137180e+07
   6.1887296e-10  -2.2391631e-03   3.5844510e+00   3.0112780e+00  -1.3077415e+07
   6.1953985e-10  -2.2304742e-03   3.5834633e+00   3.0124844e+00  -1.3018034e+07
   6.2020674e-10  -2.2218225e-03   3.5824798e+00   3.0136858e+00  -1.2959034e+07
   6.2087362e-10  -2.2132079e-03   3.5815004e+00   3.0148822e+00  -1.2900414e+07
   6.2154051e-10  -2.2046301e-03   3.5805251e+00   3.0160737e+00  -1.2842170e+07
   6.2220740e-10  -2.1960890e-03   3.5795538e+00   3.0172603e+00  -1.2784300e+07
   6.2287429e-10  -2.1875841e-03   3.5785866e+00   3.0184420e+00  -1.2726801e+07
   6.2354118e-10  -2.1791153e-03   3.5776234e+00   3.0196188e+00  -1.2669672e+07
   6.2420807e-10  -2.1706824e-03   3.5766642e+00   3.0207908e+00  -1.2612908e+07
   6.2487496e-10  -2.1622850e-03   3.5757090e+00   3.0219581e+00  -1.2556509e+07
   6.2554185e-10  -2.1539230e-03   3.5747576e+00   3.0231205e+00  -1.2500472e+07
   6.2620874e-10  -2.1455961e-03   3.5738102e+00   3.0242783e+00  -1.2444793e+07
   6.2687563e-10  -2.1373041e-03   3.5728667e+00   3.0254314e+00  -1.2389472e+07
   6.2754251e-10  -2.1290468e-03   3.5719270e+00   3.0265798e+00  -1.2334504e+07
   6.2820940e-10  -2.1208238e-03   3.5709912e+00   3.0277235e+00  -1.2279888e+07
   6.2887629e-10  -2.1126350e-03   3.5700591e+00   3.0288627e+00  -1.2225622e+07
   6.2954318e-10  -2.1044802e-03   3.5691309e+00   3.0299973e+00  -1.2171702e+07
   6.3021007e-10  -2.0963591e-03   3.5682064e+00   3.0311273e+00  -1.2118127e+07
   6.3087696e-10  -2.0882715e-03   3.5672856e+00   3.0322529e+00  -1.2064894e+07
   6.3154385e-10  -2.0802171e-03   3.5663685e+00   3.0333739e+00  -1.2012001e+07
   6.3221074e-10  -2.0721958e-03   3.5654551e+00   3.0344905e+00  -1.1959445e+07
   6.3287763e-10  -2.0642073e-03   3.5645454e+00   3.0356027e+00  -1.1907224e+07
   6.3354451e-10  -2.0562514e-03   3.5636393e+00   3.0367105e+00  -1.1855335e+07
   6.3421140e-10  -2.0483279e-03   3.5627368e+00   3.0378139e+00  -1.1803777e+07
   6.3487829e-10  -2.0404366e-03   3.5618379e+00   3.0389129e+00  -1.1752546e+07
   6.3554518e-10  -2.0325772e-03   3.5609426e+00   3.0400077e+00  -1.1701641e+07
   6.3621207e-10  -2.0247496e-03   3.5600508e+00   3.0410981e+00  -1.1651059e+07
   6.3687896e-10  -2.0169534e-03   3.5591625e+00   3.0421844e+00  -1.1600799e+07
   6.3754585e-10  -2.0091886e-03   3.5582778e+00   3.0432663e+00  -1.1550856e+07
   6.3821274e-10  -2.0014549e-03   3.5573965e+00   3.0443441e+00  -1.1501230e+07
   6.3887963e-10  -1.9937521e-03   3.5565186e+00   3.0454177e+00  -1.1451918e+07
   6.3954652e-10  -1.9860800e-03   3.5556442e+00   3.0464872e+00  -1.1402917e+07
   6.4021340e-10  -1.9784384e-03   3.5547731e+00   3.0475525e+00  -1.1354226e+07
   6.4088029e-10  -1.9708271e-03   3.5539055e+00   3.0486137e+00  -1.1305841e+07
   6.4154718e-10  -1.9632458e-03   3.5530412e+00   3.0496709e+00  -1.1257762e+07
   6.4221407e-10  -1.9556945e-03   3.5521802e+00   3.0507240e+00  -1.1209985e+07
   6.4288096e-10  -1.9481729e-03   3.5513226e+00   3.0517732e+00  -1.1162508e+07
   6.4354785e-10  -1.9406807e-03   3.5504683e+00   3.0528183e+00  -1.1115330e+07
   6.4421474e-10  -1.9332179e-03   3.5496172e+00   3.0538594e+00  -1.1068447e+07
   6.4488163e-10  -1.9257842e-03   3.5487694e+00   3.0548966e+00  -1.1021858e+07
   6.4554852e-10  -1.9183794e-03   3.5479248e+00   3.0559299e+00  -1.0975560e+07
   6.4621541e-10  -1.9110033e-03   3.5470834e+00   3.0569593e+00  -1.0929552e+07
   6.4688229e-10  -1.9036558e-03   3.5462453e+00   3.0579849e+00  -1.0883830e+07
   6.4754918e-10  -1.8963366e-03   3.5454103e+00   3.0590066e+00  -1.0838394e+07
   6.4821607e-10  -1.8890456e-03   3.5445784e+00   3.0600245e+00  -1.0793240e+07
   6.4888296e-10  -1.8817826e-03   3.5437497e+00   3.0610385e+00  -1.0748366e+07
   6.4954985e-10  -1.8745474e-03   3.5429241e+00   3.0620489e+00  -1.0703771e+07
   6.5021674e-10  -1.8673399e-03   3.5421016e+00   3.0630554e+00  -1.0659452e+07
   6.5088363e-10  -1.8601598e-03   3.5412821e+00   3.0640583e+00  -1.0615408e+07
   6.5155052e-10  -1.8530070e-03   3.5404657e+00   3.0650574e+00  -1.0571635e+07
   6.5221741e-10  -1.8458813e-03   3.5396524e+00   3.0660529e+00  -1.0528132e+07
   6.5288429e-10  -1.8387825e-03   3.5388420e+00   3.0670447e+00  -1.0484896e+07
   6.5355118e-10  -1.8317104e-03   3.5380347e+00   3.0680329e+00  -1.0441926e+07
   6.5421807e-10  -1.8246650e-03   3.5372303e+00   3.0690175e+00  -1.0399220e+07
   6.5488496e-10  -1.8176459e-03   3.5364289e+00   3.0699985e+00  -1.0356776e+07
   6.5555185e-10  -1.8106532e-03   3.5356304e+00   3.0709760e+00  -1.0314590e+07
   6.5621874e-10  -1.8036864e-03   3.5348348e+00   3.0719498e+00  -1.0272662e+07
   6.5688563e-10  -1.7967457e-03   3.5340422e+00   3.0729202e+00  -1.0230990e+07
   6.5755252e-10  -1.7898306e-03   3.5332524e+00   3.0738871e+00  -1.0189570e+07
   6.5821941e-10  -1.7829412e-03   3.5324655e+00   3.0748505e+00  -1.0148402e+07
   6.5888630e-10  -1.7760771e-03   3.5316815e+00   3.0758105e+00  -1.0107483e+07
   6.5955318e-10  -1.7692384e-03   3.5309002e+00   3.0767670e+00  -1.0066811e+07
   6.6022007e-10  -1.7624248e-03   3.5301218e+00   3.0777201e+00  -1.0026384e+07
   6.6088696e-10  -1.7556361e-03   3.5293462e+00   3.0786698e+00  -9.9862007e+06
   6.6155385e-10  -1.7488722e-03   3.5285734e+00   3.0796161e+00  -9.9462585e+06
   6.6222074e-10  -1.7421330e-03   3.5278033e+00   3.0805591e+00  -9.9065554e+06
   6.6288763e-10  -1.7354182e-03   3.5270360e+00   3.0814987e+00  -9.8670897e+06
   6.6355452e-10  -1.7287278e-03   3.5262714e+00   3.0824351e+00  -9.8278593e+06
   6.6422141e-10  -1.7220617e-03   3.5255096e+00   3.0833681e+00  -9.7888623e+06
   6.6488830e-10  -1.7154195e-03   3.5247504e+00   3.0842979e+00  -9.7500968e+06
   6.6555519e-10  -1.7088013e-03   3.5239939e+00   3.0852244e+00  -9.7115608e+06
   6.6622207e-10  -1.7022068e-03   3.5232401e+00   3.0861477e+00  -9.6732524e+06
   6.6688896e-10  -1.6956359e-03   3.5224889e+00   3.0870678e+00  -9.6351698e+06
   6.6755585e-10  -1.6890885e-03   3.5217404e+00   3.0879847e+00  -9.5973110e+06
   6.6822274e-10  -1.6825644e-03   3.5209945e+00   3.0888984e+00  -9.5596742e+06
   6.6888963e-10  -1.6760636e-03   3.5202512e+00   3.0898089e+00  -9.5222575e+06
   6.6955652e-10  -1.6695857e-03   3.5195104e+00   3.0907163e+00  -9.4850590e+06
   6.7022341e-10  -1.6631308e-03   3.5187723e+00   3.0916206e+00  -9.4480769e+06
   6.7089030e-10  -1.6566987e-03   3.5180367e+00   3.0925217e+00  -9.4113094e+06
   6.7155719e-10  -1.6502892e-03   3.5173036e+00   3.0934198e+00  -9.3747546e+06
   6.7222407e-10  -1.6439022e-03   3.5165731e+00   3.0943149e+00  -9.3384107e+06
   6.7289096e-10  -1.6375376e-03   3.5158451e+00   3.0952068e+00  -9.3022759e+06
   6.7355785e-10  -1.6311952e-03   3.5151196e+00   3.0960958e+00  -9.2663484e+06
   6.7422474e-10  -1.6248750e-03   3.5143965e+00   3.0969817e+00  -9.2306263e+06
   6.7489163e-10  -1.6185767e-03   3.5136760e+00   3.0978646e+00  -9.1951080e+06
   6.7555852e-10  -1.6123003e-03   3.5129579e+00   3.0987445e+00  -9.1597917e+06
   6.7622541e-10  -1.6060457e-03   3.5122422e+00   3.0996215e+00  -9.1246756e+06
   6.7689230e-10  -1.5998126e-03   3.5115290e+00   3.1004955e+00  -9.0897579e+06
   6.7755919e-10  -1.5936011e-03   3.5108182e+00   3.1013666e+00  -9.0550370e+06
   6.7822608e-10  -1.5874109e-03   3.5101098e+00   3.1022348e+00  -9.0205110e+06
   6.7889296e-10  -1.5812419e-03   3.5094038e+00   3.1031000e+00  -8.9861783e+06
   6.7955985e-10  -1.5750941e-03   3.5087001e+00   3.1039624e+00  -8.9520372e+06
   6.8022674e-10  -1.5689673e-03   3.5079989e+00   3.1048219e+00  -8.9180860e+06
   6.8089363e-10  -1.5628614e-03   3.5072999e+00   3.1056786e+00  -8.8843230e+06
   6.8156052e-10  -1.5567763e-03   3.5066034e+00   3.1065324e+00  -8.8507464e+06
   6.8222741e-10  -1.5507118e-03   3.5059091e+00   3.1073834e+00  -8.8173548e+06
   6.8289430e-10  -1.5446678e-03   3.5052171e+00   3.1082316e+00  -8.7841463e+06
   6.8356119e-10  -1.5386443e-03   3.5045275e+00   3.1090770e+00  -8.7511194e+06
   6.8422808e-10  -1.5326412e-03   3.5038401e+00   3.1099196e+00  -8.7182724e+06
   6.8489496e-10  -1.5266582e-03   3.5031550e+00   3.1107595e+00  -8.6856038e+06
   6.8556185e-10  -1.5206954e-03   3.5024722e+00   3.1115966e+00  -8.6531118e+06
   6.8622874e-10  -1.5147525e-03   3.5017916e+00   3.1124310e+00  -8.6207949e+06
   6.8689563e-10  -1.5088295e-03   3.5011133e+00   3.1132626e+00  -8.5886515e+06
   6.8756252e-10  -1.5029263e-03   3.5004372e+00   3.1140916e+00  -8.5566800e+06
   6.8822941e-10  -1.4970428e-03   3.4997633e+00   3.1149178e+00  -8.5248789e+06
   6.8889630e-10  -1.4911789e-03   3.4990916e+00   3.1157414e+00  -8.4932466e+06
   6.8956319e-10  -1.4853345e-03   3.4984221e+00   3.1165623e+00  -8.4617815e+06
   6.9023008e-10  -1.4795094e-03   3.4977548e+00   3.1173805e+00  -8.4304821e+06
   6.9089697e-10  -1.4737036e-03   3.4970897e+00   3.1181962e+00  -8.3993469e+06
   6.9156385e-10  -1.4679169e-03   3.4964267e+00   3.1190092e+00  -8.3683744e+06
   6.9223074e-10  -1.4621494e-03   3.4957659e+00   3.1198195e+00  -8.3375630e+06
   6.9289763e-10  -1.4564008e-03   3.4951072e+00   3.1206273e+00  -8.3069112e+06
   6.9356452e-10  -1.4506711e-03   3.4944507e+00   3.1214325e+00  -8.2764176e+06
   6.9423141e-10  -1.4449602e-03   3.4937962e+00   3.1222351e+00  -8.2460808e+06
   6.9489830e-10  -1.4392680e-03   3.4931439e+00   3.1230352e+00  -8.2158991e+06
   6.9556519e-10  -1.4335944e-03   3.4924937e+00   3.1238327e+00  -8.1858712e+06
   6.9623208e-10  -1.4279393e-03   3.4918455e+00   3.1246276e+00  -8.1559957e+06
   6.9689897e-10  -1.4223026e-03   3.4911994e+00   3.1254201e+00  -8.1262710e+06
   6.9756586e-10  -1.4166843e-03   3.4905554e+00   3.1262100e+00  -8.0966958e+06
   6.9823274e-10  -1.4110841e-03   3.4899135e+00   3.1269975e+00  -8.0672687e+06
   6.9889963e-10  -1.4055022e-03   3.4892736e+00   3.1277824e+00  -8.0379882e+06
   6.9956652e-10  -1.3999383e-03   3.4886358e+00   3.1285649e+00  -8.0088531e+06
   7.0023341e-10  -1.3943924e-03   3.4879999e+00   3.1293448e+00  -7.9798618e+06
   7.0090030e-10  -1.3888644e-03   3.4873661e+00   3.1301224e+00  -7.9510130e+06
   7.0156719e-10  -1.3833542e-03   3.4867343e+00   3.1308975e+00  -7.9223054e+06
   7.0223408e-10  -1.3778617e-03   3.4861045e+00   3.1316701e+00  -7.8937375e+06
   7.0290097e-10  -1.3723869e-03   3.4854767e+00   3.1324404e+00  -7.8653082e+06
   7.0356786e-10  -1.3669296e-03   3.4848509e+00   3.1332082e+00  -7.8370160e+06
   7.0423474e-10  -1.3614899e-03   3.4842271e+00   3.1339736e+00  -7.8088595e+06
   7.0490163e-10  -1.3560675e-03   3.4836052e+00   3.1347367e+00  -7.7808376e+06
   7.0556852e-10  -1.3506625e-03   3.4829853e+00   3.1354973e+00  -7.7529490e+06
   7.0623541e-10  -1.3452747e-03   3.4823673e+00   3.1362556e+00  -7.7251922e+06
   7.0690230e-10  -1.3399041e-03   3.4817513e+00   3.1370115e+00  -7.6975661e+06
   7.0756919e-10  -1.3345506e-03   3.4811372e+00   3.1377651e+00  -7.6700694e+06
   7.0823608e-10  -1.3292141e-03   3.4805250e+00   3.1385163e+00  -7.6427008e+06
   7.0890297e-10  -1.3238945e-03   3.4799147e+00   3.1392652e+00  -7.6154590e+06
   7.0956986e-10  -1.3185919e-03   3.4793064e+00   3.1400118e+00  -7.5883430e+06
   7.1023675e-10  -1.3133060e-03   3.4786999e+00   3.1407561e+00  -7.5613513e+06
   7.1090363e-10  -1.3080369e-03   3.4780953e+00   3.1414980e+00  -7.5344829e+06
   7.1157052e-10  -1.3027845e-03   3.4774927e+00   3.1422377e+00  -7.5077364e+06
   7.1223741e-10  -1.2975486e-03   3.4768919e+00   3.1429751e+00  -7.4811108e+06
   7.1290430e-10  -1.2923293e-03   3.4762929e+00   3.1437102e+00  -7.4546047e+06
   7.1357119e-10  -1.2871264e-03   3.4756958e+00   3.1444431e+00  -7.4282172e+06
   7.1423808e-10  -1.2819400e-03   3.4751006e+00   3.1451737e+00  -7.4019469e+06
   7.1490497e-10  -1.2767698e-03   3.4745073e+00   3.1459021e+00  -7.3757927e+06
   7.1557186e-10  -1.2716159e-03   3.4739157e+00   3.1466282e+00  -7.3497535e+06
   7.1623875e-10  -1.2664782e-03   3.4733260e+00   3.1473521e+00  -7.3238282e+06
   7.1690564e-10  -1.2613566e-03   3.4727381e+00   3.1480737e+00  -7.2980156e+06
   7.1757252e-10  -1.2562511e-03   3.4721521e+00   3.1487932e+00  -7.2723146e+06
   7.1823941e-10  -1.2511616e-03   3.4715678e+00   3.1495104e+00  -7.2467242e+06
   7.1890630e-10  -1.2460881e-03   3.4709854e+00   3.1502255e+00  -7.2212431e+06
   7.1957319e-10  -1.2410304e-03   3.4704047e+00   3.1509383e+00  -7.1958705e+06
   7.2024008e-10  -1.2359886e-03   3.4698259e+00   3.1516490e+00  -7.1706050e+06
   7.2090697e-10  -1.2309625e-03   3.4692488e+00   3.1523575e+00  -7.1454458e+06
   7.2157386e-10  -1.2259521e-03   3.4686735e+00   3.1530639e+00  -7.1203917e+06
   7.2224075e-10  -1.2209574e-03   3.4681000e+00   3.1537680e+00  -7.0954418e+06
   7.2290764e-10  -1.2159782e-03   3.4675282e+00   3.1544701e+00  -7.0705949e+06
   7.2357452e-10  -1.2110146e-03   3.4669582e+00   3.1551700e+00  -7.0458501e+06
   7.2424141e-10  -1.2060665e-03   3.4663900e+00   3.1558677e+00  -7.0212063e+06
   7.2490830e-10  -1.2011338e-03   3.4658235e+00   3.1565634e+00  -6.9966625e+06
   7.2557519e-10  -1.1962164e-03   3.4652588e+00   3.1572569e+00  -6.9722178e+06
   7.2624208e-10  -1.1913144e-03   3.4646957e+00   3.1579483e+00  -6.9478712e+06
   7.2690897e-10  -1.1864276e-03   3.4641344e+00   3.1586376e+00  -6.9236217e+06
   7.2757586e-10  -1.1815561e-03   3.4635749e+00   3.1593248e+00  -6.8994682e+06
   7.2824275e-10  -1.1766997e-03   3.4630170e+00   3.1600099e+00  -6.8754100e+06
   7.2890964e-10  -1.1718584e-03   3.4624609e+00   3.1606929e+00  -6.8514459e+06
   7.2957653e-10  -1.1670321e-03   3.4619064e+00   3.1613738e+00  -6.8275752e+06
   7.3024341e-10  -1.1622209e-03   3.4613537e+00   3.1620527e+00  -6.8037968e+06
   7.3091030e-10  -1.1574246e-03   3.4608027e+00   3.1627295e+00  -6.7801099e+06
   7.3157719e-10  -1.1526432e-03   3.4602533e+00   3.1634042e+00  -6.7565135e+06
   7.3224408e-10  -1.1478767e-03   3.4597057e+00   3.1640769e+00  -6.7330068e+06
   7.3291097e-10  -1.1431250e-03   3.4591597e+00   3.1647475e+00  -6.7095889e+06
   7.3357786e-10  -1.1383880e-03   3.4586154e+00   3.1654161e+00  -6.6862588e+06
   7.3424475e-10  -1.1336658e-03   3.4580728e+00   3.1660827e+00  -6.6630157e+06
   7.3491164e-10  -1.1289582e-03   3.4575318e+00   3.1667472e+00  -6.6398588e+06
   7.3557853e-10  -1.1242653e-03   3.4569925e+00   3.1674097e+00  -6.6167873e+06
   7.3624542e-10  -1.1195870e-03   3.4564548e+00   3.1680702e+00  -6.5938002e+06
   7.3691230e-10  -1.1149231e-03   3.4559188e+00   3.1687287e+00  -6.5708967e+06
   7.3757919e-10  -1.1102738e-03   3.4553844e+00   3.1693852e+00  -6.5480760e+06
   7.3824608e-10  -1.1056390e-03   3.4548517e+00   3.1700397e+00  -6.5253374e+06
   7.3891297e-10  -1.1010185e-03   3.4543206e+00   3.1706922e+00  -6.5026799e+06
   7.3957986e-10  -1.0964124e-03   3.4537912e+00   3.1713427e+00  -6.4801029e+06
   7.4024675e-10  -1.0918207e-03   3.4532633e+00   3.1719912e+00  -6.4576055e+06
   7.4091364e-10  -1.0872432e-03   3.4527371e+00   3.1726377e+00  -6.4351869e+06
   7.4158053e-10  -1.0826800e-03   3.4522125e+00   3.1732823e+00  -6.4128464e+06
   7.4224742e-10  -1.0781310e-03   3.4516896e+00   3.1739249e+00  -6.3905833e+06
   7.4291430e-10  -1.0735961e-03   3.4511682e+00   3.1745655e+00  -6.3683967e+06
   7.4358119e-10  -1.0690754e-03   3.4506484e+00   3.1752042e+00  -6.3462860e+06
   7.4424808e-10  -1.0645688e-03   3.4501303e+00   3.1758409e+00  -6.3242503e+06
   7.4491497e-10  -1.0600762e-03   3.4496137e+00   3.1764757e+00  -6.3022891e+06
   7.4558186e-10  -1.0555976e-03   3.4490987e+00   3.1771085e+00  -6.2804016e+06
   7.4624875e-10  -1.0511331e-03   3.4485854e+00   3.1777394e+00  -6.2585870e+06
   7.4691564e-10  -1.0466824e-03   3.4480736e+00   3.1783683e+00  -6.2368446e+06
   7.4758253e-10  -1.0422457e-03   3.4475633e+00   3.1789954e+00  -6.2151739e+06
   7.4824942e-10  -1.0378228e-03   3.4470547e+00   3.1796205e+00  -6.1935741e+06
   7.4891631e-10  -1.0334138e-03   3.4465476e+00   3.1802437e+00  -6.1720446e+06
   7.4958319e-10  -1.0290185e-03   3.4460421e+00   3.1808650e+00  -6.1505846e+06
   7.5025008e-10  -1.0246371e-03   3.4455382e+00   3.1814843e+00  -6.1291935e+06
   7.5091697e-10  -1.0202694e-03   3.4450358e+00   3.1821018e+00  -6.1078708e+06
   7.5158386e-10  -1.0159153e-03   3.4445350e+00   3.1827173e+00  -6.0866157e+06
   7.5225075e-10  -1.0115750e-03   3.4440357e+00   3.1833310e+00  -6.0654276e+06
   7.5291764e-10  -1.0072482e-03   3.4435380e+00   3.1839428e+00  -6.0443059e+06
   7.5358453e-10  -1.0029351e-03   3.4430419e+00   3.1845527e+00  -6.0232500e+06
   7.5425142e-10  -9.9863553e-04   3.4425473e+00   3.1851607e+00  -6.0022593e+06
   7.5491831e-10  -9.9434951e-04   3.4420542e+00   3.1857668e+00  -5.9813332e+06
   7.5558520e-10  -9.9007700e-04   3.4415626e+00   3.1863710e+00  -5.9604711e+06
   7.5625208e-10  -9.8581797e-04   3.4410726e+00   3.1869734e+00  -5.9396725e+06
   7.5691897e-10  -9.8157238e-04   3.4405842e+00   3.1875739e+00  -5.9189367e+06
   7.5758586e-10  -9.7734020e-04   3.4400972e+00   3.1881725e+00  -5.8982632e+06
   7.5825275e-10  -9.7312142e-04   3.4396118e+00   3.1887693e+00  -5.8776515e+06
   7.5891964e-10  -9.6891599e-04   3.4391279e+00   3.1893642e+00  -5.8571009e+06
   7.5958653e-10  -9.6472389e-04   3.4386455e+00   3.1899573e+00  -5.8366111e+06
   7.6025342e-10  -9.6054509e-04   3.4381646e+00   3.1905485e+00  -5.8161814e+06
   7.6092031e-10  -9.5637957e-04   3.4376852e+00   3.1911379e+00  -5.7958112e+06
   7.6158720e-10  -9.5222728e-04   3.4372074e+00   3.1917254e+00  -5.7755002e+06
   7.6225408e-10  -9.4808822e-04   3.4367310e+00   3.1923111e+00  -5.7552478e+06
   7.6292097e-10  -9.4396234e-04   3.4362562e+00   3.1928950e+00  -5.7350535e+06
   7.6358786e-10  -9.3984963e-04   3.4357828e+00   3.1934770e+00  -5.7149168e+06
   7.6425475e-10  -9.3575005e-04   3.4353110e+00   3.1940572e+00  -5.6948372e+06
   7.6492164e-10  -9.3166358e-04   3.4348406e+00   3.1946356e+00  -5.6748142e+06
   7.6558853e-10  -9.2759019e-04   3.4343718e+00   3.1952121e+00  -5.6548474e+06
   7.6625542e-10  -9.2352987e-04   3.4339044e+00   3.1957868e+00  -5.6349363e+06
   7.6692231e-10  -9.1948257e-04   3.4334385e+00   3.1963598e+00  -5.6150805e+06
   7.6758920e-10  -9.1544828e-04   3.4329741e+00   3.1969309e+00  -5.5952795e+06
   7.6825609e-10  -9.1142697e-04   3.4325112e+00   3.1975002e+00  -5.5755328e+06
   7.6892297e-10  -9.0741861e-04   3.4320497e+00   3.1980677e+00  -5.5558401e+06
   7.6958986e-10  -9.0342319e-04   3.4315897e+00   3.1986334e+00  -5.5362008e+06
   7.7025675e-10  -8.9944068e-04   3.4311312e+00   3.1991973e+00  -5.5166147e+06
   7.7092364e-10  -8.9547105e-04   3.4306742e+00   3.1997594e+00  -5.4970813e+06
   7.7159053e-10  -8.9151428e-04   3.4302186e+00   3.2003197e+00  -5.4776001e+06
   7.7225742e-10  -8.8757034e-04   3.4297645e+00   3.2008782e+00  -5.4581708e+06
   7.7292431e-10  -8.8363922e-04   3.4293119e+00   3.2014349e+00  -5.4387930e+06
   7.7359120e-10  -8.7972089e-04   3.4288607e+00   3.2019899e+00  -5.4194662e+06
   7.7425809e-10  -8.7581532e-04   3.4284109e+00   3.2025430e+00  -5.4001902e+06
   7.7492497e-10  -8.7192250e-04   3.4279627e+00   3.2030944e+00  -5.3809646e+06
   7.7559186e-10  -8.6804240e-04   3.4275158e+00   3.2036440e+00  -5.3617889e+06
   7.7625875e-10  -8.6417500e-04   3.4270704e+00   3.2041919e+00  -5.3426628e+06
   7.7692564e-10  -8.6032028e-04   3.4266265e+00   3.2047380e+00  -5.3235860e+06
   7.7759253e-10  -8.5647821e-04   3.4261840e+00   3.2052823e+00  -5.3045582e+06
   7.7825942e-10  -8.5264877e-04   3.4257430e+00   3.2058248e+00  -5.2855789e+06
   7.7892631e-10  -8.4883195e-04   3.4253034e+00   3.2063656e+00  -5.2666479e+06
   7.7959320e-10  -8.4502772e-04   3.4248652e+00   3.2069046e+00  -5.2477648e+06
   7.8026009e-10  -8.4123606e-04   3.4244285e+00   3.2074419e+00  -5.2289293e+06
   7.8092698e-10  -8.3745694e-04   3.4239932e+00   3.2079774e+00  -5.2101412e+06
   7.8159386e-10  -8.3369036e-04   3.4235593e+00   3.2085112e+00  -5.1914000e+06
   7.8226075e-10  -8.2993628e-04   3.4231269e+00   3.2090432e+00  -5.1727055e+06
   7.8292764e-10  -8.2619468e-04   3.4226959e+00   3.2095735e+00  -5.1540574e+06
   7.8359453e-10  -8.2246555e-04   3.4222663e+00   3.2101020e+00  -5.1354554e+06
   7.8426142e-10  -8.1874887e-04   3.4218381e+00   3.2106288e+00  -5.1168992e+06
   7.8492831e-10  -8.1504461e-04   3.4214114e+00   3.2111539e+00  -5.0983885e+06
   7.8559520e-10  -8.1135276e-04   3.4209860e+00   3.2116772e+00  -5.0799232e+06
   7.8626209e-10  -8.0767329e-04   3.4205621e+00   3.2121988e+00  -5.0615028e+06
   7.8692898e-10  -8.0400619e-04   3.4201396e+00   3.2127187e+00  -5.0431271e+06
   7.8759587e-10  -8.0035144e-04   3.4197185e+00   3.2132368e+00  -5.0247960e+06
   7.8826275e-10  -7.9670901e-04   3.4192988e+00   3.2137533e+00  -5.0065090e+06
   7.8892964e-10  -7.9307889e-04   3.4188805e+00   3.2142680e+00  -4.9882661e+06
   7.8959653e-10  -7.8946106e-04   3.4184637e+00   3.2147809e+00  -4.9700669e+06
   7.9026342e-10  -7.8585549e-04   3.4180482e+00   3.2152922e+00  -4.9519113e+06
   7.9093031e-10  -7.8226218e-04   3.4176341e+00   3.2158018e+00  -4.9337989e+06
   7.9159720e-10  -7.7868110e-04   3.4172215e+00   3.2163096e+00  -4.9157296e+06
   7.9226409e-10  -7.7511222e-04   3.4168102e+00   3.2168157e+00  -4.8977031e+06
   7.9293098e-10  -7.7155554e-04   3.4164003e+00   3.2173201e+00  -4.8797193e+06
   7.9359787e-10  -7.6801104e-04   3.4159918e+00   3.2178229e+00  -4.8617779e+06
   7.9426475e-10  -7.6447869e-04   3.4155847e+00   3.2183239e+00  -4.8438787e+06
   7.9493164e-10  -7.6095848e-04   3.4151790e+00   3.2188232e+00  -4.8260215e+06
   7.9559853e-10  -7.5745039e-04   3.4147747e+00   3.2193208e+00  -4.8082062e+06
   7.9626542e-10  -7.5395439e-04   3.4143717e+00   3.2198167e+00  -4.7904325e+06
   7.9693231e-10  -7.5047048e-04   3.4139702e+00   3.2203110e+00  -4.7727003e+06
   7.9759920e-10  -7.4699863e-04   3.4135700e+00   3.2208035e+00  -4.7550094e+06
   7.9826609e-10  -7.4353883e-04   3.4131712e+00   3.2212944e+00  -4.7373596e+06
   7.9893298e-10  -7.4009105e-04   3.4127738e+00   3.2217835e+00  -4.7197507e+06
   7.9959987e-10  -7.3665529e-04   3.4123777e+00   3.2222710e+00  -4.7021827e+06
   8.0026676e-10  -7.3323151e-04   3.4119830e+00   3.2227568e+00  -4.6846552e+06
   8.0093364e-10  -7.2981971e-04   3.4115897e+00   3.2232410e+00  -4.6671682e+06
   8.0160053e-10  -7.2641987e-04   3.4111978e+00   3.2237234e+00  -4.6497215e+06
   8.0226742e-10  -7.2303195e-04   3.4108072e+00   3.2242042e+00  -4.6323149e+06
   8.0293431e-10  -7.1965596e-04   3.4104180e+00   3.2246833e+00  -4.6149484e+06
   8.0360120e-10  -7.1629187e-04   3.4100302e+00   3.2251607e+00  -4.5976218e+06
   8.0426809e-10  -7.1293967e-04   3.4096437e+00   3.2256365e+00  -4.5803349e+06
   8.0493498e-10  -7.0959933e-04   3.4092585e+00   3.2261106e+00  -4.5630877e+06
   8.0560187e-10  -7.0627083e-04   3.4088748e+00   3.2265831e+00  -4.5458799e+06
   8.0626876e-10  -7.0295417e-04   3.4084924e+00   3.2270539e+00  -4.5287115e+06
   8.0693565e-10  -6.9964932e-04   3.4081113e+00   3.2275230e+00  -4.5115824e+06
   8.0760253e-10  -6.9635626e-04   3.4077316e+00   3.2279905e+00  -4.4944924e+06
   8.0826942e-10  -6.9307498e-04   3.4073532e+00   3.2284563e+00  -4.4774414e+06
   8.0893631e-10  -6.8980546e-04   3.4069762e+00   3.2289204e+00  -4.4604294e+06
   8.0960320e-10  -6.8654768e-04   3.4066005e+00   3.2293830e+00  -4.4434561e+06
   8.1027009e-10  -6.8330163e-04   3.4062262e+00   3.2298438e+00  -4.4265216e+06
   8.1093698e-10  -6.8006728e-04   3.4058532e+00   3.2303031e+00  -4.4096257e+06
   8.1160387e-10  -6.7684462e-04   3.4054816e+00   3.2307607e+00  -4.3927684e+06
   8.1227076e-10  -6.7363363e-04   3.4051113e+00   3.2312166e+00  -4.3759495e+06
   8.1293765e-10  -6.7043429e-04   3.4047423e+00   3.2316709e+00  -4.3591689e+06
   8.1360453e-10  -6.6724659e-04   3.4043746e+00   3.2321236e+00  -4.3424267e+06
   8.1427142e-10  -6.6407050e-04   3.4040083e+00   3.2325747e+00  -4.3257226e+06
   8.1493831e-10  -6.6090601e-04   3.4036433e+00   3.2330241e+00  -4.3090567e+06
   8.1560520e-10  -6.5775311e-04   3.4032797e+00   3.2334719e+00  -4.2924288e+06
   8.1627209e-10  -6.5461177e-04   3.4029174e+00   3.2339180e+00  -4.2758388e+06
   8.1693898e-10  -6.5148197e-04   3.4025564e+00   3.2343626e+00  -4.2592868e+06
   8.1760587e-10  -6.4836371e-04   3.4021967e+00   3.2348055e+00  -4.2427727e+06
   8.1827276e-10  -6.4525695e-04   3.4018383e+00   3.2352468e+00  -4.2262964e+06
   8.1893965e-10  -6.4216169e-04   3.4014813e+00   3.2356865e+00  -4.2098578e+06
   8.1960654e-10  -6.3907790e-04   3.4011255e+00   3.2361246e+00  -4.1934568e+06
   8.2027342e-10  -6.3600556e-04   3.4007711e+00   3.2365610e+00  -4.1770935e+06
   8.2094031e-10  -6.3294467e-04   3.4004180e+00   3.2369959e+00  -4.1607678e+06
   8.2160720e-10  -6.2989519e-04   3.4000662e+00   3.2374291e+00  -4.1444797e+06
   8.2227409e-10  -6.2685712e-04   3.3997157e+00   3.2378608e+00  -4.1282290e+06
   8.2294098e-10  -6.2383044e-04   3.3993666e+00   3.2382908e+00  -4.1120158e+06
   8.2360787e-10  -6.2081511e-04   3.3990187e+00   3.2387193e+00  -4.0958400e+06
   8.2427476e-10  -6.1781114e-04   3.3986721e+00   3.2391461e+00  -4.0797016e+06
   8.2494165e-10  -6.1481850e-04   3.3983268e+00   3.2395714e+00  -4.0636006e+06
   8.2560854e-10  -6.1183716e-04   3.3979829e+00   3.2399950e+00  -4.0475369e+06
   8.2627543e-10  -6.0886712e-04   3.3976402e+00   3.2404171e+00  -4.0315105e+06
   8.2694231e-10  -6.0590836e-04   3.3972988e+00   3.2408376e+00  -4.0155213e+06
   8.2760920e-10  -6.0296085e-04   3.3969587e+00   3.2412565e+00  -3.9995694e+06
   8.2827609e-10  -6.0002457e-04   3.3966199e+00   3.2416738e+00  -3.9836547e+06
   8.2894298e-10  -5.9709952e-04   3.3962824e+00   3.2420895e+00  -3.9677773e+06
   8.2960987e-10  -5.9418567e-04   3.3959461e+00   3.2425037e+00  -3.9519370e+06
   8.3027676e-10  -5.9128299e-04   3.3956112e+00   3.2429163e+00  -3.9361340e+06
   8.3094365e-10  -5.8839148e-04   3.3952775e+00   3.2433273e+00  -3.9203680e+06
   8.3161054e-10  -5.8551112e-04   3.3949451e+00   3.2437367e+00  -3.9046393e+06
   8.3227743e-10  -5.8264188e-04   3.3946140e+00   3.2441446e+00  -3.8889477e+06
   8.3294431e-10  -5.7978374e-04   3.3942842e+00   3.2445509e+00  -3.8732932e+06
   8.3361120e-10  -5.7693670e-04   3.3939556e+00   3.2449557e+00  -3.8576759e+06
   8.3427809e-10  -5.7410072e-04   3.3936283e+00   3.2453589e+00  -3.8420958e+06
   8.3494498e-10  -5.7127579e-04   3.3933023e+00   3.2457605e+00  -3.8265527e+06
   8.3561187e-10  -5.6846189e-04   3.3929775e+00   3.2461606e+00  -3.8110468e+06
   8.3627876e-10  -5.6565900e-04   3.3926541e+00   3.2465591e+00  -3.7955781e+06
   8.3694565e-10  -5.6286710e-04   3.3923318e+00   3.2469561e+00  -3.7801465e+06
   8.3761254e-10  -5.6008617e-04   3.3920109e+00   3.2473515e+00  -3.7647520e+06
   8.3827943e-10  -5.5731619e-04   3.3916911e+00   3.2477454e+00  -3.7493947e+06
   8.3894632e-10  -5.5455715e-04   3.3913727e+00   3.2481377e+00  -3.7340746e+06
   8.3961320e-10  -5.5180902e-04   3.3910555e+00   3.2485285e+00  -3.7187916e+06
   8.4028009e-10  -5.4907178e-04   3.3907395e+00   3.2489178e+00  -3.7035459e+06
   8.4094698e-10  -5.4634542e-04   3.3904248e+00   3.2493055e+00  -3.6883373e+06
   8.4161387e-10  -5.4362990e-04   3.3901114e+00   3.2496917e+00  -3.6731660e+06
   8.4228076e-10  -5.4092522e-04   3.3897992e+00   3.2500764e+00  -3.6580319e+06
   8.4294765e-10  -5.3823136e-04   3.3894882e+00   3.2504596e+00  -3.6429351e+06
   8.4361454e-10  -5.3554829e-04   3.3891785e+00   3.2508412e+00  -3.6278755e+06
   8.4428143e-10  -5.3287599e-04   3.3888700e+00   3.2512213e+00  -3.6128532e+06
   8.4494832e-10  -5.3021444e-04   3.3885627e+00   3.2515999e+00  -3.5978683e+06
   8.4561521e-10  -5.2756362e-04   3.3882567e+00   3.2519770e+00  -3.5829206e+06
   8.4628209e-10  -5.2492352e-04   3.3879519e+00   3.2523525e+00  -3.5680104e+06
   8.4694898e-10  -5.2229411e-04   3.3876483e+00   3.2527266e+00  -3.5531374e+06
   8.4761587e-10  -5.1967536e-04   3.3873460e+00   3.2530991e+00  -3.5383019e+06
   8.4828276e-10  -5.1706727e-04   3.3870449e+00   3.2534702e+00  -3.5235039e+06
   8.4894965e-10  -5.1446981e-04   3.3867450e+00   3.2538397e+00  -3.5087433e+06
   8.4961654e-10  -5.1188295e-04   3.3864463e+00   3.2542078e+00  -3.4940201e+06
   8.5028343e-10  -5.0930668e-04   3.3861489e+00   3.2545743e+00  -3.4793345e+06
   8.5095032e-10  -5.0674097e-04   3.3858526e+00   3.2549394e+00  -3.4646864e+06
   8.5161721e-10  -5.0418581e-04   3.3855576e+00   3.2553029e+00  -3.4500759e+06
   8.5228409e-10  -5.0164118e-04   3.3852638e+00   3.2556650e+00  -3.4355030e+06
   8.5295098e-10  -4.9910704e-04   3.3849712e+00   3.2560256e+00  -3.4209678e+06
   8.5361787e-10  -4.9658339e-04   3.3846798e+00   3.2563847e+00  -3.4064702e+06
   8.5428476e-10  -4.9407019e-04   3.3843896e+00   3.2567424e+00  -3.3920103e+06
   8.5495165e-10  -4.9156743e-04   3.3841006e+00   3.2570986e+00  -3.3775881e+06
   8.5561854e-10  -4.8907509e-04   3.3838128e+00   3.2574533e+00  -3.3632037e+06
   8.5628543e-10  -4.8659314e-04   3.3835262e+00   3.2578065e+00  -3.3488571e+06
   8.5695232e-10  -4.8412157e-04   3.3832408e+00   3.2581582e+00  -3.3345483e+06
   8.5761921e-10  -4.8166034e-04   3.3829565e+00   3.2585085e+00  -3.3202773e+06
   8.5828610e-10  -4.7920944e-04   3.3826735e+00   3.2588574e+00  -3.3060443e+06
   8.5895298e-10  -4.7676884e-04   3.3823917e+00   3.2592048e+00  -3.2918492e+06
   8.5961987e-10  -4.7433853e-04   3.3821110e+00   3.2595507e+00  -3.2776921e+06
   8.6028676e-10  -4.7191848e-04   3.3818315e+00   3.2598952e+00  -3.2635730e+06
   8.6095365e-10  -4.6950867e-04   3.3815532e+00   3.2602382e+00  -3.2494919e+06
   8.6162054e-10  -4.6710908e-04   3.3812761e+00   3.2605798e+00  -3.2354489e+06
   8.6228743e-10  -4.6471968e-04   3.3810001e+00   3.2609199e+00  -3.2214440e+06
   8.6295432e-10  -4.6234045e-04   3.3807253e+00   3.2612586e+00  -3.2074773e+06
   8.6362121e-10  -4.5997136e-04   3.3804517e+00   3.2615959e+00  -3.1935488e+06
   8.6428810e-10  -4.5761241e-04   3.3801792e+00   3.2619317e+00  -3.1796585e+06
   8.6495498e-10  -4.5526355e-04   3.3799079e+00   3.2622661e+00  -3.1658065e+06
   8.6562187e-10  -4.5292477e-04   3.3796378e+00   3.2625991e+00  -3.1519928e+06
   8.6628876e-10  -4.5059605e-04   3.3793688e+00   3.2629307e+00  -3.1382174e+06
   8.6695565e-10  -4.4827736e-04   3.3791010e+00   3.2632608e+00  -3.1244804e+06
   8.6762254e-10  -4.4596868e-04   3.3788343e+00   3.2635895e+00  -3.1107818e+06
   8.6828943e-10  -4.4366999e-04   3.3785688e+00   3.2639168e+00  -3.0971216e+06
   8.6895632e-10  -4.4138126e-04   3.3783044e+00   3.2642427e+00  -3.0835000e+06
   8.6962321e-10  -4.3910246e-04   3.3780412e+00   3.2645672e+00  -3.0699169e+06
   8.7029010e-10  -4.3683359e-04   3.3777791e+00   3.2648903e+00  -3.0563723e+06
   8.7095699e-10  -4.3457460e-04   3.3775182e+00   3.2652120e+00  -3.0428663e+06
   8.7162387e-10  -4.3232548e-04   3.3772584e+00   3.2655323e+00  -3.0293990e+06
   8.7229076e-10  -4.3008621e-04   3.3769997e+00   3.2658512e+00  -3.0159704e+06
   8.7295765e-10  -4.2785675e-04   3.3767421e+00   3.2661687e+00  -3.0025804e+06
   8.7362454e-10  -4.2563709e-04   3.3764857e+00   3.2664848e+00  -2.9892292e+06
   8.7429143e-10  -4.2342720e-04   3.3762304e+00   3.2667996e+00  -2.9759168e+06
   8.7495832e-10  -4.2122705e-04   3.3759762e+00   3.2671129e+00  -2.9626432e+06
   8.7562521e-10  -4.1903663e-04   3.3757232e+00   3.2674249e+00  -2.9494085e+06
   8.7629210e-10  -4.1685591e-04   3.3754712e+00   3.2677355e+00  -2.9362126e+06
   8.7695899e-10  -4.1468486e-04   3.3752204e+00   3.2680448e+00  -2.9230557e+06
   8.7762588e-10  -4.1252346e-04   3.3749707e+00   3.2683527e+00  -2.9099377e+06
   8.7829276e-10  -4.1037168e-04   3.3747221e+00   3.2686592e+00  -2.8968587e+06
   8.7895965e-10  -4.0822951e-04   3.3744746e+00   3.2689643e+00  -2.8838187e+06
   8.7962654e-10  -4.0609690e-04   3.3742282e+00   3.2692681e+00  -2.8708177e+06
   8.8029343e-10  -4.0397385e-04   3.3739829e+00   3.2695705e+00  -2.8578559e+06
   8.8096032e-10  -4.0186032e-04   3.3737387e+00   3.2698716e+00  -2.8449331e+06
   8.8162721e-10  -3.9975629e-04   3.3734956e+00   3.2701714e+00  -2.8320495e+06
   8.8229410e-10  -3.9766173e-04   3.3732536e+00   3.2704698e+00  -2.8192051e+06
   8.8296099e-10  -3.9557663e-04   3.3730127e+00   3.2707669e+00  -2.8063999e+06
   8.8362788e-10  -3.9350095e-04   3.3727728e+00   3.2710626e+00  -2.7936339e+06
   8.8429476e-10  -3.9143466e-04   3.3725341e+00   3.2713570e+00  -2.7809072e+06
   8.8496165e-10  -3.8937775e-04   3.3722964e+00   3.2716500e+00  -2.7682198e+06
   8.8562854e-10  -3.8733019e-04   3.3720598e+00   3.2719418e+00  -2.7555717e+06
   8.8629543e-10  -3.8529194e-04   3.3718243e+00   3.2722322e+00  -2.7429630e+06
   8.8696232e-10  -3.8326300e-04   3.3715898e+00   3.2725213e+00  -2.7303936e+06
   8.8762921e-10  -3.8124332e-04   3.3713564e+00   3.2728091e+00  -2.7178636e+06
   8.8829610e-10  -3.7923289e-04   3.3711241e+00   3.2730956e+00  -2.7053731e+06
   8.8896299e-10  -3.7723168e-04   3.3708929e+00   3.2733808e+00  -2.6929220e+06
   8.8962988e-10  -3.7523965e-04   3.3706627e+00   3.2736646e+00  -2.6805103e+06
   8.9029677e-10  -3.7325680e-04   3.3704335e+00   3.2739472e+00  -2.6681382e+06
   8.9096365e-10  -3.7128309e-04   3.3702054e+00   3.2742285e+00  -2.6558055e+06
   8.9163054e-10  -3.6931849e-04   3.3699784e+00   3.2745084e+00  -2.6435124e+06
   8.9229743e-10  -3.6736297e-04   3.3697524e+00   3.2747871e+00  -2.6312589e+06
   8.9296432e-10  -3.6541652e-04   3.3695274e+00   3.2750645e+00  -2.6190449e+06
   8.9363121e-10  -3.6347911e-04   3.3693035e+00   3.2753407e+00  -2.6068705e+06
   8.9429810e-10  -3.6155070e-04   3.3690807e+00   3.2756155e+00  -2.5947358e+06
   8.9496499e-10  -3.5963128e-04   3.3688588e+00   3.2758891e+00  -2.5826407e+06
   8.9563188e-10  -3.5772081e-04   3.3686380e+00   3.2761614e+00  -2.5705852e+06
   8.9629877e-10  -3.5581927e-04   3.3684183e+00   3.2764324e+00  -2.5585693e+06
   8.9696566e-10  -3.5392663e-04   3.3681995e+00   3.2767022e+00  -2.5465932e+06
   8.9763254e-10  -3.5204287e-04   3.3679818e+00   3.2769707e+00  -2.5346568e+06
   8.9829943e-10  -3.5016796e-04   3.3677651e+00   3.2772380e+00  -2.5227600e+06
   8.9896632e-10  -3.4830187e-04   3.3675494e+00   3.2775040e+00  -2.5109029e+06
   8.9963321e-10  -3.4644458e-04   3.3673347e+00   3.2777687e+00  -2.4990856e+06
   9.0030010e-10  -3.4459605e-04   3.3671211e+00   3.2780322e+00  -2.4873081e+06
   9.0096699e-10  -3.4275627e-04   3.3669084e+00   3.2782945e+00  -2.4755702e+06
   9.0163388e-10  -3.4092520e-04   3.3666968e+00   3.2785556e+00  -2.4638721e+06
   9.0230077e-10  -3.3910282e-04   3.3664861e+00   3.2788154e+00  -2.4522138e+06
   9.0296766e-10  -3.3728909e-04   3.3662765e+00   3.2790739e+00  -2.4405953e+06
   9.0363454e-10  -3.3548400e-04   3.3660678e+00   3.2793313e+00  -2.4290165e+06
   9.0430143e-10  -3.3368752e-04   3.3658602e+00   3.2795874e+00  -2.4174775e+06
   9.0496832e-10  -3.3189961e-04   3.3656535e+00   3.2798423e+00  -2.4059782e+06
   9.0563521e-10  -3.3012026e-04   3.3654478e+00   3.2800960e+00  -2.3945188e+06
   9.0630210e-10  -3.2834943e-04   3.3652431e+00   3.2803485e+00  -2.3830991e+06
   9.0696899e-10  -3.2658710e-04   3.3650394e+00   3.2805998e+00  -2.3717193e+06
   9.0763588e-10  -3.2483323e-04   3.3648367e+00   3.2808498e+00  -2.3603792e+06
   9.0830277e-10  -3.2308781e-04   3.3646349e+00   3.2810987e+00  -2.3490789e+06
   9.0896966e-10  -3.2135080e-04   3.3644341e+00   3.2813464e+00  -2.3378184e+06
   9.0963655e-10  -3.1962217e-04   3.3642343e+00   3.2815929e+00  -2.3265976e+06
   9.1030343e-10  -3.1790191e-04   3.3640354e+00   3.2818382e+00  -2.3154167e+06
   9.1097032e-10  -3.1618997e-04   3.3638375e+00   3.2820823e+00  -2.3042755e+06
   9.1163721e-10  -3.1448634e-04   3.3636406e+00   3.2823253e+00  -2.2931740e+06
   9.1230410e-10  -3.1279099e-04   3.3634446e+00   3.2825670e+00  -2.2821124e+06
   9.1297099e-10  -3.1110388e-04   3.3632495e+00   3.2828076e+00  -2.2710904e+06
   9.1363788e-10  -3.0942499e-04   3.3630554e+00   3.2830470e+00  -2.2601082e+06
   9.1430477e-10  -3.0775430e-04   3.3628623e+00   3.2832853e+00  -2.2491658e+06
   9.1497166e-10  -3.0609176e-04   3.3626701e+00   3.2835224e+00  -2.2382630e+06
   9.1563855e-10  -3.0443737e-04   3.3624788e+00   3.2837584e+00  -2.2274000e+06
   9.1630544e-10  -3.0279108e-04   3.3622885e+00   3.2839932e+00  -2.2165767e+06
   9.1697232e-10  -3.0115288e-04   3.3620991e+00   3.2842268e+00  -2.2057930e+06
   9.1763921e-10  -2.9952273e-04   3.3619106e+00   3.2844593e+00  -2.1950490e+06
   9.1830610e-10  -2.9790060e-04   3.3617230e+00   3.2846907e+00  -2.1843446e+06
   9.1897299e-10  -2.9628647e-04   3.3615364e+00   3.2849209e+00  -2.1736799e+06
   9.1963988e-10  -2.9468031e-04   3.3613507e+00   3.2851500e+00  -2.1630547e+06
   9.2030677e-10  -2.9308208e-04   3.3611659e+00   3.2853779e+00  -2.1524692e+06
   9.2097366e-10  -2.9149177e-04   3.3609821e+00   3.2856048e+00  -2.1419232e+06
   9.2164055e-10  -2.8990935e-04   3.3607991e+00   3.2858305e+00  -2.1314168e+06
   9.2230744e-10  -2.8833478e-04   3.3606170e+00   3.2860551e+00  -2.1209499e+06
   9.2297432e-10  -2.8676804e-04   3.3604359e+00   3.2862786e+00  -2.1105225e+06
   9.2364121e-10  -2.8520910e-04   3.3602556e+00   3.2865010e+00  -2.1001345e+06
   9.2430810e-10  -2.8365793e-04   3.3600763e+00   3.2867223e+00  -2.0897861e+06
   9.2497499e-10  -2.8211451e-04   3.3598978e+00   3.2869424e+00  -2.0794770e+06
   9.2564188e-10  -2.8057880e-04   3.3597202e+00   3.2871615e+00  -2.0692073e+06
   9.2630877e-10  -2.7905078e-04   3.3595435e+00   3.2873795e+00  -2.0589770e+06
   9.2697566e-10  -2.7753042e-04   3.3593677e+00   3.2875964e+00  -2.0487861e+06
   9.2764255e-10  -2.7601769e-04   3.3591928e+00   3.2878122e+00  -2.0386344e+06
   9.2830944e-10  -2.7451256e-04   3.3590188e+00   3.2880269e+00  -2.0285220e+06
   9.2897633e-10  -2.7301501e-04   3.3588456e+00   3.2882406e+00  -2.0184489e+06
   9.2964321e-10  -2.7152500e-04   3.3586733e+00   3.2884532e+00  -2.0084149e+06
   9.3031010e-10  -2.7004251e-04   3.3585019e+00   3.2886647e+00  -1.9984201e+06
   9.3097699e-10  -2.6856752e-04   3.3583313e+00   3.2888751e+00  -1.9884645e+06
   9.3164388e-10  -2.6709998e-04   3.3581616e+00   3.2890845e+00  -1.9785479e+06
   9.3231077e-10  -2.6563988e-04   3.3579928e+00   3.2892928e+00  -1.9686704e+06
   9.3297766e-10  -2.6418718e-04   3.3578248e+00   3.2895001e+00  -1.9588320e+06
   9.3364455e-10  -2.6274186e-04   3.3576576e+00   3.2897063e+00  -1.9490325e+06
   9.3431144e-10  -2.6130389e-04   3.3574913e+00   3.2899115e+00  -1.9392719e+06
   9.3497833e-10  -2.5987324e-04   3.3573259e+00   3.2901157e+00  -1.9295503e+06
   9.3564522e-10  -2.5844988e-04   3.3571613e+00   3.2903188e+00  -1.9198675e+06
   9.3631210e-10  -2.5703379e-04   3.3569975e+00   3.2905208e+00  -1.9102235e+06
   9.3697899e-10  -2.5562493e-04   3.3568346e+00   3.2907219e+00  -1.9006182e+06
   9.3764588e-10  -2.5422328e-04   3.3566725e+00   3.2909219e+00  -1.8910517e+06
   9.3831277e-10  -2.5282881e-04   3.3565112e+00   3.2911209e+00  -1.8815239e+06
   9.3897966e-10  -2.5144149e-04   3.3563508e+00   3.2913189e+00  -1.8720347e+06
   9.3964655e-10  -2.5006129e-04   3.3561912e+00   3.2915158e+00  -1.8625840e+06
   9.4031344e-10  -2.4868819e-04   3.3560323e+00   3.2917118e+00  -1.8531719e+06
   9.4098033e-10  -2.4732216e-04   3.3558744e+00   3.2919067e+00  -1.8437982e+06
   9.4164722e-10  -2.4596316e-04   3.3557172e+00   3.2921007e+00  -1.8344630e+06
   9.4231410e-10  -2.4461118e-04   3.3555608e+00   3.2922936e+00  -1.8251661e+06
   9.4298099e-10  -2.4326618e-04   3.3554053e+00   3.2924856e+00  -1.8159076e+06
   9.4364788e-10  -2.4192813e-04   3.3552505e+00   3.2926765e+00  -1.8066873e+06
   9.4431477e-10  -2.4059701e-04   3.3550966e+00   3.2928665e+00  -1.7975052e+06
   9.4498166e-10  -2.3927279e-04   3.3549434e+00   3.2930555e+00  -1.7883613e+06
   9.4564855e-10  -2.3795544e-04   3.3547910e+00   3.2932435e+00  -1.7792555e+06
   9.4631544e-10  -2.3664493e-04   3.3546395e+00   3.2934306e+00  -1.7701876e+06
   9.4698233e-10  -2.3534124e-04   3.3544887e+00   3.2936166e+00  -1.7611578e+06
   9.4764922e-10  -2.3404433e-04   3.3543387e+00   3.2938018e+00  -1.7521659e+06
   9.4831611e-10  -2.3275418e-04   3.3541894e+00   3.2939859e+00  -1.7432118e+06
   9.4898299e-10  -2.3147076e-04   3.3540410e+00   3.2941691e+00  -1.7342955e+06
   9.4964988e-10  -2.3019405e-04   3.3538933e+00   3.2943513e+00  -1.7254170e+06
   9.5031677e-10  -2.2892400e-04   3.3537464e+00   3.2945326e+00  -1.7165761e+06
   9.5098366e-10  -2.2766061e-04   3.3536003e+00   3.2947129e+00  -1.7077728e+06
   9.5165055e-10  -2.2640384e-04   3.3534549e+00   3.2948923e+00  -1.6990070e+06
   9.5231744e-10  -2.2515365e-04   3.3533103e+00   3.2950708e+00  -1.6902787e+06
   9.5298433e-10  -2.2391003e-04   3.3531665e+00   3.2952483e+00  -1.6815878e+06
   9.5365122e-10  -2.2267295e-04   3.3530234e+00   3.2954249e+00  -1.6729342e+06
   9.5431811e-10  -2.2144237e-04   3.3528810e+00   3.2956006e+00  -1.6643179e+06
   9.5498499e-10  -2.2021828e-04   3.3527394e+00   3.2957753e+00  -1.6557388e+06
   9.5565188e-10  -2.1900064e-04   3.3525986e+00   3.2959491e+00  -1.6471968e+06
   9.5631877e-10  -2.1778942e-04   3.3524585e+00   3.2961221e+00  -1.6386919e+06
   9.5698566e-10  -2.1658461e-04   3.3523191e+00   3.2962941e+00  -1.6302239e+06
   9.5765255e-10  -2.1538616e-04   3.3521805e+00   3.2964651e+00  -1.6217929e+06
   9.5831944e-10  -2.1419405e-04   3.3520426e+00   3.2966353e+00  -1.6133987e+06
   9.5898633e-10  -2.1300827e-04   3.3519054e+00   3.2968046e+00  -1.6050412e+06
   9.5965322e-10  -2.1182877e-04   3.3517690e+00   3.2969730e+00  -1.5967205e+06
   9.6032011e-10  -2.1065553e-04   3.3516333e+00   3.2971405e+00  -1.5884363e+06
   9.6098700e-10  -2.0948852e-04   3.3514983e+00   3.2973071e+00  -1.5801887e+06
   9.6165388e-10  -2.0832772e-04   3.3513640e+00   3.2974729e+00  -1.5719775e+06
   9.6232077e-10  -2.0717310e-04   3.3512304e+00   3.2976377e+00  -1.5638027e+06
   9.6298766e-10  -2.0602463e-04   3.3510976e+00   3.2978017e+00  -1.5556642e+06
   9.6365455e-10  -2.0488229e-04   3.3509654e+00   3.2979648e+00  -1.5475619e+06
   9.6432144e-10  -2.0374604e-04   3.3508340e+00   3.2981270e+00  -1.5394958e+06
   9.6498833e-10  -2.0261586e-04   3.3507032e+00   3.2982884e+00  -1.5314657e+06
   9.6565522e-10  -2.0149173e-04   3.3505732e+00   3.2984489e+00  -1.5234716e+06
   9.6632211e-10  -2.0037362e-04   3.3504438e+00   3.2986085e+00  -1.5155134e+06
   9.6698900e-10  -1.9926149e-04   3.3503152e+00   3.2987673e+00  -1.5075910e+06
   9.6765589e-10  -1.9815533e-04   3.3501872e+00   3.2989253e+00  -1.4997043e+06
   9.6832277e-10  -1.9705510e-04   3.3500599e+00   3.2990824e+00  -1.4918533e+06
   9.6898966e-10  -1.9596078e-04   3.3499333e+00   3.2992386e+00  -1.4840378e+06
   9.6965655e-10  -1.9487234e-04   3.3498074e+00   3.2993941e+00  -1.4762578e+06
   9.7032344e-10  -1.9378976e-04   3.3496821e+00   3.2995486e+00  -1.4685132e+06
   9.7099033e-10  -1.9271301e-04   3.3495576e+00   3.2997024e+00  -1.4608039e+06
   9.7165722e-10  -1.9164207e-04   3.3494337e+00   3.2998553e+00  -1.4531298e+06
   9.7232411e-10  -1.9057690e-04   3.3493104e+00   3.3000074e+00  -1.4454908e+06
   9.7299100e-10  -1.8951747e-04   3.3491879e+00   3.3001587e+00  -1.4378868e+06
   9.7365789e-10  -1.8846378e-04   3.3490660e+00   3.3003092e+00  -1.4303178e+06
   9.7432477e-10  -1.8741577e-04   3.3489447e+00   3.3004589e+00  -1.4227837e+06
   9.7499166e-10  -1.8637344e-04   3.3488241e+00   3.3006077e+00  -1.4152843e+06
