   0.0000000e+00  -1.2171114e-01   6.3507003e+00   4.8936493e-04  -5.2133596e+08
   1.0003334e-12  -1.2119033e-01   6.3498177e+00   5.0953386e-04  -5.1994095e+08
   2.0006669e-12  -1.2067091e-01   6.3489194e+00   5.3047511e-04  -5.1854586e+08
   3.0010003e-12  -1.2015290e-01   6.3480052e+00   5.5221566e-04  -5.1715068e+08
   4.0013338e-12  -1.1963627e-01   6.3470748e+00   5.7478329e-04  -5.1575543e+08
   5.0016672e-12  -1.1912105e-01   6.3461281e+00   5.9820667e-04  -5.1436009e+08
   6.0020007e-12  -1.1860722e-01   6.3451647e+00   6.2251534e-04  -5.1296468e+08
   7.0023341e-12  -1.1809478e-01   6.3441845e+00   6.4773971e-04  -5.1156919e+08
   8.0026676e-12  -1.1758374e-01   6.3431871e+00   6.7391113e-04  -5.1017363e+08
   9.0030010e-12  -1.1707410e-01   6.3421725e+00   7.0106190e-04  -5.0877800e+08
   1.0003334e-11  -1.1656586e-01   6.3411403e+00   7.2922525e-04  -5.0738229e+08
   1.1003668e-11  -1.1605900e-01   6.3400903e+00   7.5843545e-04  -5.0598652e+08
   1.2004001e-11  -1.1555355e-01   6.3390222e+00   7.8872774e-04  -5.0459068e+08
   1.3004335e-11  -1.1504949e-01   6.3379358e+00   8.2013841e-04  -5.0319478e+08
   1.4004668e-11  -1.1454683e-01   6.3368310e+00   8.5270482e-04  -5.0179881e+08
   1.5005002e-11  -1.1404557e-01   6.3357073e+00   8.8646540e-04  -5.0040279e+08
   1.6005335e-11  -1.1354570e-01   6.3345646e+00   9.2145970e-04  -4.9900671e+08
   1.7005669e-11  -1.1304723e-01   6.3334026e+00   9.5772842e-04  -4.9761057e+08
   1.8006002e-11  -1.1255015e-01   6.3322211e+00   9.9531340e-04  -4.9621438e+08
   1.9006335e-11  -1.1205447e-01   6.3310197e+00   1.0342577e-03  -4.9481815e+08
   2.0006669e-11  -1.1156019e-01   6.3297984e+00   1.0746055e-03  -4.9342187e+08
   2.1007002e-11  -1.1106730e-01   6.3285567e+00   1.1164024e-03  -4.9202554e+08
   2.2007336e-11  -1.1057582e-01   6.3272944e+00   1.1596951e-03  -4.9062918e+08
   2.3007669e-11  -1.1008572e-01   6.3260113e+00   1.2045318e-03  -4.8923278e+08
   2.4008003e-11  -1.0959703e-01   6.3247071e+00   1.2509617e-03  -4.8783634e+08
   2.5008336e-11  -1.0910973e-01   6.3233816e+00   1.2990356e-03  -4.8643988e+08
   2.6008670e-11  -1.0862383e-01   6.3220344e+00   1.3488057e-03  -4.8504339e+08
   2.7009003e-11  -1.0813933e-01   6.3206653e+00   1.4003255e-03  -4.8364687e+08
   2.8009336e-11  -1.0765622e-01   6.3192740e+00   1.4536500e-03  -4.8225034e+08
   2.9009670e-11  -1.0717451e-01   6.3178603e+00   1.5088356e-03  -4.8085379e+08
   3.0010003e-11  -1.0669419e-01   6.3164238e+00   1.5659403e-03  -4.7945723e+08
   3.1010337e-11  -1.0621528e-01   6.3149644e+00   1.6250236e-03  -4.7806067e+08
   3.2010670e-11  -1.0573776e-01   6.3134817e+00   1.6861465e-03  -4.7666410e+08
   3.3011004e-11  -1.0526164e-01   6.3119754e+00   1.7493717e-03  -4.7526753e+08
   3.4011337e-11  -1.0478691e-01   6.3104453e+00   1.8147634e-03  -4.7387097e+08
   3.5011671e-11  -1.0431358e-01   6.3088911e+00   1.8823874e-03  -4.7247442e+08
   3.6012004e-11  -1.0384165e-01   6.3073125e+00   1.9523115e-03  -4.7107789e+08
   3.7012337e-11  -1.0337112e-01   6.3057092e+00   2.0246048e-03  -4.6968137e+08
   3.8012671e-11  -1.0290198e-01   6.3040809e+00   2.0993385e-03  -4.6828489e+08
   3.9013004e-11  -1.0243424e-01   6.3024274e+00   2.1765853e-03  -4.6688843e+08
   4.0013338e-11  -1.0196789e-01   6.3007484e+00   2.2564199e-03  -4.6549201e+08
   4.1013671e-11  -1.0150295e-01   6.2990435e+00   2.3389188e-03  -4.6409563e+08
   4.2014005e-11  -1.0103939e-01   6.2973124e+00   2.4241602e-03  -4.6269930e+08
   4.3014338e-11  -1.0057724e-01   6.2955550e+00   2.5122245e-03  -4.6130302e+08
   4.4014672e-11  -1.0011648e-01   6.2937709e+00   2.6031937e-03  -4.5990681e+08
   4.5015005e-11  -9.9657123e-02   6.2919597e+00   2.6971521e-03  -4.5851065e+08
   4.6015338e-11  -9.9199159e-02   6.2901213e+00   2.7941858e-03  -4.5711457e+08
   4.7015672e-11  -9.8742591e-02   6.2882552e+00   2.8943829e-03  -4.5571857e+08
   4.8016005e-11  -9.8287420e-02   6.2863613e+00   2.9978336e-03  -4.5432265e+08
   4.9016339e-11  -9.7833645e-02   6.2844392e+00   3.1046303e-03  -4.5292683e+08
   5.0016672e-11  -9.7381266e-02   6.2824886e+00   3.2148675e-03  -4.5153110e+08
   5.1017006e-11  -9.6930283e-02   6.2805092e+00   3.3286417e-03  -4.5013548e+08
   5.2017339e-11  -9.6480696e-02   6.2785007e+00   3.4460517e-03  -4.4873997e+08
   5.3017673e-11  -9.6032505e-02   6.2764629e+00   3.5671985e-03  -4.4734458e+08
   5.4018006e-11  -9.5585710e-02   6.2743953e+00   3.6921853e-03  -4.4594932e+08
   5.5018339e-11  -9.5140310e-02   6.2722978e+00   3.8211178e-03  -4.4455419e+08
   5.6018673e-11  -9.4696306e-02   6.2701700e+00   3.9541037e-03  -4.4315921e+08
   5.7019006e-11  -9.4253697e-02   6.2680115e+00   4.0912532e-03  -4.4176438e+08
   5.8019340e-11  -9.3812483e-02   6.2658222e+00   4.2326789e-03  -4.4036970e+08
   5.9019673e-11  -9.3372664e-02   6.2636017e+00   4.3784957e-03  -4.3897520e+08
   6.0020007e-11  -9.2934240e-02   6.2613497e+00   4.5288210e-03  -4.3758087e+08
   6.1020340e-11  -9.2497210e-02   6.2590659e+00   4.6837747e-03  -4.3618673e+08
   6.2020674e-11  -9.2061575e-02   6.2567499e+00   4.8434790e-03  -4.3479279e+08
   6.3021007e-11  -9.1627334e-02   6.2544016e+00   5.0080588e-03  -4.3339905e+08
   6.4021340e-11  -9.1194487e-02   6.2520205e+00   5.1776414e-03  -4.3200552e+08
   6.5021674e-11  -9.0763034e-02   6.2496064e+00   5.3523569e-03  -4.3061221e+08
   6.6022007e-11  -9.0332974e-02   6.2471590e+00   5.5323377e-03  -4.2921914e+08
   6.7022341e-11  -8.9904308e-02   6.2446779e+00   5.7177190e-03  -4.2782631e+08
   6.8022674e-11  -8.9477035e-02   6.2421629e+00   5.9086385e-03  -4.2643373e+08
   6.9023008e-11  -8.9051155e-02   6.2396137e+00   6.1052368e-03  -4.2504142e+08
   7.0023341e-11  -8.8626667e-02   6.2370299e+00   6.3076570e-03  -4.2364938e+08
   7.1023675e-11  -8.8203571e-02   6.2344113e+00   6.5160449e-03  -4.2225762e+08
   7.2024008e-11  -8.7781868e-02   6.2317576e+00   6.7305492e-03  -4.2086616e+08
   7.3024341e-11  -8.7361556e-02   6.2290684e+00   6.9513212e-03  -4.1947500e+08
   7.4024675e-11  -8.6942635e-02   6.2263434e+00   7.1785151e-03  -4.1808417e+08
   7.5025008e-11  -8.6525106e-02   6.2235824e+00   7.4122877e-03  -4.1669366e+08
   7.6025342e-11  -8.6108967e-02   6.2207851e+00   7.6527988e-03  -4.1530350e+08
   7.7025675e-11  -8.5694219e-02   6.2179511e+00   7.9002110e-03  -4.1391368e+08
   7.8026009e-11  -8.5280860e-02   6.2150802e+00   8.1546897e-03  -4.1252424e+08
   7.9026342e-11  -8.4868891e-02   6.2121720e+00   8.4164031e-03  -4.1113517e+08
   8.0026676e-11  -8.4458312e-02   6.2092263e+00   8.6855226e-03  -4.0974649e+08
   8.1027009e-11  -8.4049121e-02   6.2062428e+00   8.9622219e-03  -4.0835821e+08
   8.2027342e-11  -8.3641319e-02   6.2032212e+00   9.2466783e-03  -4.0697035e+08
   8.3027676e-11  -8.3234904e-02   6.2001612e+00   9.5390714e-03  -4.0558292e+08
   8.4028009e-11  -8.2829878e-02   6.1970624e+00   9.8395841e-03  -4.0419594e+08
   8.5028343e-11  -8.2426238e-02   6.1939247e+00   1.0148402e-02  -4.0280941e+08
   8.6028676e-11  -8.2023985e-02   6.1907477e+00   1.0465714e-02  -4.0142335e+08
   8.7029010e-11  -8.1623118e-02   6.1875312e+00   1.0791711e-02  -4.0003777e+08
   8.8029343e-11  -8.1223637e-02   6.1842748e+00   1.1126589e-02  -3.9865269e+08
   8.9029677e-11  -8.0825541e-02   6.1809784e+00   1.1470543e-02  -3.9726813e+08
   9.0030010e-11  -8.0428830e-02   6.1776415e+00   1.1823776e-02  -3.9588409e+08
   9.1030343e-11  -8.0033503e-02   6.1742639e+00   1.2186490e-02  -3.9450060e+08
   9.2030677e-11  -7.9639559e-02   6.1708454e+00   1.2558892e-02  -3.9311767e+08
   9.3031010e-11  -7.9246999e-02   6.1673857e+00   1.2941190e-02  -3.9173530e+08
   9.4031344e-11  -7.8855821e-02   6.1638845e+00   1.3333597e-02  -3.9035353e+08
   9.5031677e-11  -7.8466025e-02   6.1603416e+00   1.3736329e-02  -3.8897236e+08
   9.6032011e-11  -7.8077610e-02   6.1567566e+00   1.4149602e-02  -3.8759182e+08
   9.7032344e-11  -7.7690575e-02   6.1531293e+00   1.4573638e-02  -3.8621191e+08
   9.8032678e-11  -7.7304921e-02   6.1494595e+00   1.5008662e-02  -3.8483265e+08
   9.9033011e-11  -7.6920645e-02   6.1457469e+00   1.5454898e-02  -3.8345406e+08
   1.0003334e-10  -7.6537749e-02   6.1419913e+00   1.5912578e-02  -3.8207616e+08
   1.0103368e-10  -7.6156230e-02   6.1381924e+00   1.6381933e-02  -3.8069897e+08
   1.0203401e-10  -7.5776089e-02   6.1343499e+00   1.6863198e-02  -3.7932249e+08
   1.0303434e-10  -7.5397324e-02   6.1304636e+00   1.7356612e-02  -3.7794676e+08
   1.0403468e-10  -7.5019934e-02   6.1265333e+00   1.7862416e-02  -3.7657178e+08
   1.0503501e-10  -7.4643920e-02   6.1225587e+00   1.8380852e-02  -3.7519758e+08
   1.0603535e-10  -7.4269280e-02   6.1185397e+00   1.8912167e-02  -3.7382416e+08
   1.0703568e-10  -7.3896013e-02   6.1144759e+00   1.9456611e-02  -3.7245156e+08
   1.0803601e-10  -7.3524119e-02   6.1103671e+00   2.0014433e-02  -3.7107979e+08
   1.0903635e-10  -7.3153596e-02   6.1062132e+00   2.0585890e-02  -3.6970887e+08
   1.1003668e-10  -7.2784445e-02   6.1020138e+00   2.1171237e-02  -3.6833881e+08
   1.1103701e-10  -7.2416663e-02   6.0977689e+00   2.1770734e-02  -3.6696965e+08
   1.1203735e-10  -7.2050251e-02   6.0934781e+00   2.2384642e-02  -3.6560138e+08
   1.1303768e-10  -7.1685206e-02   6.0891413e+00   2.3013227e-02  -3.6423404e+08
   1.1403801e-10  -7.1321529e-02   6.0847583e+00   2.3656754e-02  -3.6286765e+08
   1.1503835e-10  -7.0959218e-02   6.0803288e+00   2.4315492e-02  -3.6150222e+08
   1.1603868e-10  -7.0598273e-02   6.0758528e+00   2.4989713e-02  -3.6013778e+08
   1.1703901e-10  -7.0238692e-02   6.0713299e+00   2.5679691e-02  -3.5877435e+08
   1.1803935e-10  -6.9880474e-02   6.0667600e+00   2.6385701e-02  -3.5741193e+08
   1.1903968e-10  -6.9523618e-02   6.0621430e+00   2.7108021e-02  -3.5605057e+08
   1.2004001e-10  -6.9168124e-02   6.0574786e+00   2.7846932e-02  -3.5469028e+08
   1.2104035e-10  -6.8813989e-02   6.0527667e+00   2.8602715e-02  -3.5333107e+08
   1.2204068e-10  -6.8461214e-02   6.0480072e+00   2.9375654e-02  -3.5197297e+08
   1.2304101e-10  -6.8109797e-02   6.0431998e+00   3.0166035e-02  -3.5061601e+08
   1.2404135e-10  -6.7759736e-02   6.0383444e+00   3.0974146e-02  -3.4926020e+08
   1.2504168e-10  -6.7411031e-02   6.0334409e+00   3.1800276e-02  -3.4790556e+08
   1.2604201e-10  -6.7063681e-02   6.0284891e+00   3.2644717e-02  -3.4655212e+08
   1.2704235e-10  -6.6717684e-02   6.0234889e+00   3.3507761e-02  -3.4519990e+08
   1.2804268e-10  -6.6373038e-02   6.0184401e+00   3.4389702e-02  -3.4384892e+08
   1.2904301e-10  -6.6029744e-02   6.0133427e+00   3.5290836e-02  -3.4249921e+08
   1.3004335e-10  -6.5687799e-02   6.0081965e+00   3.6211461e-02  -3.4115078e+08
   1.3104368e-10  -6.5347202e-02   6.0030014e+00   3.7151874e-02  -3.3980366e+08
   1.3204401e-10  -6.5007952e-02   5.9977573e+00   3.8112375e-02  -3.3845788e+08
   1.3304435e-10  -6.4670048e-02   5.9924641e+00   3.9093264e-02  -3.3711345e+08
   1.3404468e-10  -6.4333488e-02   5.9871217e+00   4.0094844e-02  -3.3577040e+08
   1.3504502e-10  -6.3998270e-02   5.9817300e+00   4.1117416e-02  -3.3442875e+08
   1.3604535e-10  -6.3664394e-02   5.9762890e+00   4.2161284e-02  -3.3308853e+08
   1.3704568e-10  -6.3331858e-02   5.9707984e+00   4.3226752e-02  -3.3174976e+08
   1.3804602e-10  -6.3000660e-02   5.9652584e+00   4.4314125e-02  -3.3041246e+08
   1.3904635e-10  -6.2670799e-02   5.9596688e+00   4.5423708e-02  -3.2907666e+08
   1.4004668e-10  -6.2342274e-02   5.9540296e+00   4.6555806e-02  -3.2774238e+08
   1.4104702e-10  -6.2015082e-02   5.9483406e+00   4.7710726e-02  -3.2640964e+08
   1.4204735e-10  -6.1689223e-02   5.9426020e+00   4.8888773e-02  -3.2507848e+08
   1.4304768e-10  -6.1364695e-02   5.9368136e+00   5.0090254e-02  -3.2374891e+08
   1.4404802e-10  -6.1041496e-02   5.9309754e+00   5.1315474e-02  -3.2242095e+08
   1.4504835e-10  -6.0719625e-02   5.9250874e+00   5.2564740e-02  -3.2109465e+08
   1.4604868e-10  -6.0399079e-02   5.9191495e+00   5.3838358e-02  -3.1977000e+08
   1.4704902e-10  -6.0079858e-02   5.9131619e+00   5.5136633e-02  -3.1844706e+08
   1.4804935e-10  -5.9761959e-02   5.9071244e+00   5.6459871e-02  -3.1712583e+08
   1.4904968e-10  -5.9445382e-02   5.9010371e+00   5.7808374e-02  -3.1580634e+08
   1.5005002e-10  -5.9130123e-02   5.8949000e+00   5.9182447e-02  -3.1448862e+08
   1.5105035e-10  -5.8816181e-02   5.8887131e+00   6.0582394e-02  -3.1317269e+08
   1.5205068e-10  -5.8503555e-02   5.8824765e+00   6.2008514e-02  -3.1185858e+08
   1.5305102e-10  -5.8192243e-02   5.8761901e+00   6.3461111e-02  -3.1054632e+08
   1.5405135e-10  -5.7882242e-02   5.8698541e+00   6.4940482e-02  -3.0923592e+08
   1.5505168e-10  -5.7573552e-02   5.8634685e+00   6.6446926e-02  -3.0792741e+08
   1.5605202e-10  -5.7266169e-02   5.8570333e+00   6.7980740e-02  -3.0662083e+08
   1.5705235e-10  -5.6960092e-02   5.8505486e+00   6.9542220e-02  -3.0531619e+08
   1.5805268e-10  -5.6655320e-02   5.8440146e+00   7.1131658e-02  -3.0401352e+08
   1.5905302e-10  -5.6351850e-02   5.8374312e+00   7.2749346e-02  -3.0271285e+08
   1.6005335e-10  -5.6049680e-02   5.8307985e+00   7.4395574e-02  -3.0141419e+08
   1.6105368e-10  -5.5748808e-02   5.8241168e+00   7.6070629e-02  -3.0011759e+08
   1.6205402e-10  -5.5449232e-02   5.8173860e+00   7.7774797e-02  -2.9882305e+08
   1.6305435e-10  -5.5150950e-02   5.8106063e+00   7.9508360e-02  -2.9753062e+08
   1.6405468e-10  -5.4853960e-02   5.8037779e+00   8.1271599e-02  -2.9624031e+08
   1.6505502e-10  -5.4558260e-02   5.7969008e+00   8.3064793e-02  -2.9495214e+08
   1.6605535e-10  -5.4263847e-02   5.7899751e+00   8.4888215e-02  -2.9366615e+08
   1.6705569e-10  -5.3970720e-02   5.7830012e+00   8.6742138e-02  -2.9238237e+08
   1.6805602e-10  -5.3678876e-02   5.7759790e+00   8.8626832e-02  -2.9110080e+08
   1.6905635e-10  -5.3388313e-02   5.7689088e+00   9.0542562e-02  -2.8982149e+08
   1.7005669e-10  -5.3099028e-02   5.7617907e+00   9.2489591e-02  -2.8854446e+08
   1.7105702e-10  -5.2811020e-02   5.7546249e+00   9.4468179e-02  -2.8726973e+08
   1.7205735e-10  -5.2524286e-02   5.7474116e+00   9.6478580e-02  -2.8599732e+08
   1.7305769e-10  -5.2238824e-02   5.7401510e+00   9.8521048e-02  -2.8472727e+08
   1.7405802e-10  -5.1954631e-02   5.7328433e+00   1.0059583e-01  -2.8345960e+08
   1.7505835e-10  -5.1671706e-02   5.7254888e+00   1.0270317e-01  -2.8219433e+08
   1.7605869e-10  -5.1390044e-02   5.7180875e+00   1.0484331e-01  -2.8093149e+08
   1.7705902e-10  -5.1109645e-02   5.7106399e+00   1.0701649e-01  -2.7967110e+08
   1.7805935e-10  -5.0830506e-02   5.7031460e+00   1.0922294e-01  -2.7841319e+08
   1.7905969e-10  -5.0552624e-02   5.6956062e+00   1.1146288e-01  -2.7715779e+08
   1.8006002e-10  -5.0275996e-02   5.6880206e+00   1.1373654e-01  -2.7590491e+08
   1.8106035e-10  -5.0000621e-02   5.6803897e+00   1.1604413e-01  -2.7465459e+08
   1.8206069e-10  -4.9726496e-02   5.6727135e+00   1.1838588e-01  -2.7340685e+08
   1.8306102e-10  -4.9453617e-02   5.6649925e+00   1.2076198e-01  -2.7216171e+08
   1.8406135e-10  -4.9181983e-02   5.6572268e+00   1.2317265e-01  -2.7091919e+08
   1.8506169e-10  -4.8911590e-02   5.6494168e+00   1.2561808e-01  -2.6967933e+08
   1.8606202e-10  -4.8642437e-02   5.6415628e+00   1.2809846e-01  -2.6844215e+08
   1.8706235e-10  -4.8374520e-02   5.6336651e+00   1.3061398e-01  -2.6720766e+08
   1.8806269e-10  -4.8107836e-02   5.6257240e+00   1.3316483e-01  -2.6597590e+08
   1.8906302e-10  -4.7842384e-02   5.6177398e+00   1.3575118e-01  -2.6474688e+08
   1.9006335e-10  -4.7578160e-02   5.6097129e+00   1.3837321e-01  -2.6352064e+08
   1.9106369e-10  -4.7315161e-02   5.6016435e+00   1.4103107e-01  -2.6229719e+08
   1.9206402e-10  -4.7053385e-02   5.5935321e+00   1.4372493e-01  -2.6107656e+08
   1.9306435e-10  -4.6792828e-02   5.5853790e+00   1.4645494e-01  -2.5985878e+08
   1.9406469e-10  -4.6533489e-02   5.5771845e+00   1.4922126e-01  -2.5864385e+08
   1.9506502e-10  -4.6275363e-02   5.5689490e+00   1.5202401e-01  -2.5743182e+08
   1.9606536e-10  -4.6018449e-02   5.5606729e+00   1.5486334e-01  -2.5622269e+08
   1.9706569e-10  -4.5762743e-02   5.5523566e+00   1.5773938e-01  -2.5501650e+08
   1.9806602e-10  -4.5508243e-02   5.5440004e+00   1.6065224e-01  -2.5381326e+08
   1.9906636e-10  -4.5254944e-02   5.5356048e+00   1.6360206e-01  -2.5261300e+08
   2.0006669e-10  -4.5002845e-02   5.5271701e+00   1.6658892e-01  -2.5141574e+08
   2.0106702e-10  -4.4751943e-02   5.5186968e+00   1.6961294e-01  -2.5022150e+08
   2.0206736e-10  -4.4502233e-02   5.5101852e+00   1.7267422e-01  -2.4903030e+08
   2.0306769e-10  -4.4253714e-02   5.5016359e+00   1.7577284e-01  -2.4784217e+08
   2.0406802e-10  -4.4006382e-02   5.4930491e+00   1.7890889e-01  -2.4665712e+08
   2.0506836e-10  -4.3760235e-02   5.4844254e+00   1.8208243e-01  -2.4547518e+08
   2.0606869e-10  -4.3515268e-02   5.4757652e+00   1.8529355e-01  -2.4429636e+08
   2.0706902e-10  -4.3271479e-02   5.4670689e+00   1.8854231e-01  -2.4312069e+08
   2.0806936e-10  -4.3028864e-02   5.4583371e+00   1.9182875e-01  -2.4194819e+08
   2.0906969e-10  -4.2787422e-02   5.4495700e+00   1.9515292e-01  -2.4077888e+08
   2.1007002e-10  -4.2547147e-02   5.4407683e+00   1.9851487e-01  -2.3961277e+08
   2.1107036e-10  -4.2308038e-02   5.4319324e+00   2.0191464e-01  -2.3844989e+08
   2.1207069e-10  -4.2070090e-02   5.4230627e+00   2.0535223e-01  -2.3729026e+08
   2.1307102e-10  -4.1833301e-02   5.4141597e+00   2.0882769e-01  -2.3613389e+08
   2.1407136e-10  -4.1597667e-02   5.4052240e+00   2.1234101e-01  -2.3498081e+08
   2.1507169e-10  -4.1363186e-02   5.3962559e+00   2.1589220e-01  -2.3383102e+08
   2.1607202e-10  -4.1129853e-02   5.3872561e+00   2.1948126e-01  -2.3268456e+08
   2.1707236e-10  -4.0897665e-02   5.3782250e+00   2.2310818e-01  -2.3154144e+08
   2.1807269e-10  -4.0666620e-02   5.3691630e+00   2.2677294e-01  -2.3040167e+08
   2.1907302e-10  -4.0436713e-02   5.3600708e+00   2.3047552e-01  -2.2926528e+08
   2.2007336e-10  -4.0207941e-02   5.3509488e+00   2.3421588e-01  -2.2813228e+08
   2.2107369e-10  -3.9980301e-02   5.3417976e+00   2.3799398e-01  -2.2700268e+08
   2.2207402e-10  -3.9753790e-02   5.3326176e+00   2.4180978e-01  -2.2587651e+08
   2.2307436e-10  -3.9528404e-02   5.3234094e+00   2.4566322e-01  -2.2475378e+08
   2.2407469e-10  -3.9304139e-02   5.3141736e+00   2.4955424e-01  -2.2363451e+08
   2.2507503e-10  -3.9080993e-02   5.3049106e+00   2.5348278e-01  -2.2251871e+08
   2.2607536e-10  -3.8858961e-02   5.2956210e+00   2.5744875e-01  -2.2140640e+08
   2.2707569e-10  -3.8638040e-02   5.2863053e+00   2.6145207e-01  -2.2029759e+08
   2.2807603e-10  -3.8418227e-02   5.2769641e+00   2.6549264e-01  -2.1919230e+08
   2.2907636e-10  -3.8199518e-02   5.2675980e+00   2.6957038e-01  -2.1809054e+08
   2.3007669e-10  -3.7981909e-02   5.2582074e+00   2.7368518e-01  -2.1699233e+08
   2.3107703e-10  -3.7765398e-02   5.2487929e+00   2.7783691e-01  -2.1589768e+08
   2.3207736e-10  -3.7549980e-02   5.2393552e+00   2.8202547e-01  -2.1480661e+08
   2.3307769e-10  -3.7335651e-02   5.2298947e+00   2.8625072e-01  -2.1371912e+08
   2.3407803e-10  -3.7122409e-02   5.2204120e+00   2.9051253e-01  -2.1263524e+08
   2.3507836e-10  -3.6910250e-02   5.2109077e+00   2.9481076e-01  -2.1155497e+08
   2.3607869e-10  -3.6699170e-02   5.2013823e+00   2.9914525e-01  -2.1047833e+08
   2.3707903e-10  -3.6489165e-02   5.1918364e+00   3.0351586e-01  -2.0940532e+08
   2.3807936e-10  -3.6280231e-02   5.1822706e+00   3.0792242e-01  -2.0833597e+08
   2.3907969e-10  -3.6072366e-02   5.1726854e+00   3.1236476e-01  -2.0727028e+08
   2.4008003e-10  -3.5865565e-02   5.1630815e+00   3.1684271e-01  -2.0620826e+08
   2.4108036e-10  -3.5659825e-02   5.1534593e+00   3.2135608e-01  -2.0514993e+08
   2.4208069e-10  -3.5455142e-02   5.1438196e+00   3.2590468e-01  -2.0409530e+08
   2.4308103e-10  -3.5251512e-02   5.1341627e+00   3.3048831e-01  -2.0304436e+08
   2.4408136e-10  -3.5048932e-02   5.1244894e+00   3.3510678e-01  -2.0199715e+08
   2.4508169e-10  -3.4847397e-02   5.1148003e+00   3.3975986e-01  -2.0095366e+08
   2.4608203e-10  -3.4646905e-02   5.1050957e+00   3.4444736e-01  -1.9991391e+08
   2.4708236e-10  -3.4447451e-02   5.0953765e+00   3.4916904e-01  -1.9887789e+08
   2.4808269e-10  -3.4249032e-02   5.0856431e+00   3.5392467e-01  -1.9784564e+08
   2.4908303e-10  -3.4051643e-02   5.0758961e+00   3.5871403e-01  -1.9681714e+08
   2.5008336e-10  -3.3855282e-02   5.0661361e+00   3.6353687e-01  -1.9579241e+08
   2.5108369e-10  -3.3659944e-02   5.0563637e+00   3.6839294e-01  -1.9477146e+08
   2.5208403e-10  -3.3465626e-02   5.0465795e+00   3.7328199e-01  -1.9375430e+08
   2.5308436e-10  -3.3272323e-02   5.0367840e+00   3.7820376e-01  -1.9274093e+08
   2.5408469e-10  -3.3080033e-02   5.0269779e+00   3.8315799e-01  -1.9173135e+08
   2.5508503e-10  -3.2888750e-02   5.0171616e+00   3.8814441e-01  -1.9072559e+08
   2.5608536e-10  -3.2698472e-02   5.0073359e+00   3.9316275e-01  -1.8972363e+08
   2.5708570e-10  -3.2509194e-02   4.9975011e+00   3.9821272e-01  -1.8872550e+08
   2.5808603e-10  -3.2320913e-02   4.9876581e+00   4.0329403e-01  -1.8773118e+08
   2.5908636e-10  -3.2133625e-02   4.9778072e+00   4.0840640e-01  -1.8674070e+08
   2.6008670e-10  -3.1947326e-02   4.9679491e+00   4.1354952e-01  -1.8575405e+08
   2.6108703e-10  -3.1762012e-02   4.9580844e+00   4.1872311e-01  -1.8477124e+08
   2.6208736e-10  -3.1577679e-02   4.9482136e+00   4.2392684e-01  -1.8379227e+08
   2.6308770e-10  -3.1394324e-02   4.9383374e+00   4.2916041e-01  -1.8281716e+08
   2.6408803e-10  -3.1211942e-02   4.9284561e+00   4.3442351e-01  -1.8184589e+08
   2.6508836e-10  -3.1030530e-02   4.9185706e+00   4.3971582e-01  -1.8087848e+08
   2.6608870e-10  -3.0850085e-02   4.9086812e+00   4.4503700e-01  -1.7991493e+08
   2.6708903e-10  -3.0670601e-02   4.8987885e+00   4.5038673e-01  -1.7895524e+08
   2.6808936e-10  -3.0492075e-02   4.8888932e+00   4.5576468e-01  -1.7799942e+08
   2.6908970e-10  -3.0314504e-02   4.8789958e+00   4.6117050e-01  -1.7704746e+08
   2.7009003e-10  -3.0137883e-02   4.8690968e+00   4.6660387e-01  -1.7609937e+08
   2.7109036e-10  -2.9962208e-02   4.8591968e+00   4.7206443e-01  -1.7515516e+08
   2.7209070e-10  -2.9787476e-02   4.8492963e+00   4.7755183e-01  -1.7421482e+08
   2.7309103e-10  -2.9613684e-02   4.8393959e+00   4.8306572e-01  -1.7327835e+08
   2.7409136e-10  -2.9440825e-02   4.8294961e+00   4.8860574e-01  -1.7234576e+08
   2.7509170e-10  -2.9268898e-02   4.8195974e+00   4.9417155e-01  -1.7141704e+08
   2.7609203e-10  -2.9097899e-02   4.8097005e+00   4.9976276e-01  -1.7049221e+08
   2.7709236e-10  -2.8927822e-02   4.7998058e+00   5.0537902e-01  -1.6957125e+08
   2.7809270e-10  -2.8758665e-02   4.7899139e+00   5.1101995e-01  -1.6865416e+08
   2.7909303e-10  -2.8590423e-02   4.7800252e+00   5.1668520e-01  -1.6774096e+08
   2.8009336e-10  -2.8423093e-02   4.7701404e+00   5.2237437e-01  -1.6683163e+08
   2.8109370e-10  -2.8256671e-02   4.7602599e+00   5.2808709e-01  -1.6592618e+08
   2.8209403e-10  -2.8091152e-02   4.7503842e+00   5.3382299e-01  -1.6502460e+08
   2.8309436e-10  -2.7926534e-02   4.7405140e+00   5.3958168e-01  -1.6412689e+08
   2.8409470e-10  -2.7762811e-02   4.7306496e+00   5.4536277e-01  -1.6323306e+08
   2.8509503e-10  -2.7599981e-02   4.7207915e+00   5.5116588e-01  -1.6234310e+08
   2.8609537e-10  -2.7438039e-02   4.7109404e+00   5.5699062e-01  -1.6145701e+08
   2.8709570e-10  -2.7276982e-02   4.7010966e+00   5.6283661e-01  -1.6057478e+08
   2.8809603e-10  -2.7116805e-02   4.6912607e+00   5.6870343e-01  -1.5969642e+08
   2.8909637e-10  -2.6957505e-02   4.6814332e+00   5.7459071e-01  -1.5882192e+08
   2.9009670e-10  -2.6799078e-02   4.6716145e+00   5.8049805e-01  -1.5795128e+08
   2.9109703e-10  -2.6641520e-02   4.6618051e+00   5.8642504e-01  -1.5708449e+08
   2.9209737e-10  -2.6484827e-02   4.6520056e+00   5.9237129e-01  -1.5622155e+08
   2.9309770e-10  -2.6328995e-02   4.6422163e+00   5.9833640e-01  -1.5536246e+08
   2.9409803e-10  -2.6174021e-02   4.6324377e+00   6.0431997e-01  -1.5450722e+08
   2.9509837e-10  -2.6019900e-02   4.6226703e+00   6.1032160e-01  -1.5365581e+08
   2.9609870e-10  -2.5866630e-02   4.6129146e+00   6.1634087e-01  -1.5280825e+08
   2.9709903e-10  -2.5714205e-02   4.6031710e+00   6.2237739e-01  -1.5196451e+08
   2.9809937e-10  -2.5562622e-02   4.5934400e+00   6.2843076e-01  -1.5112460e+08
   2.9909970e-10  -2.5411878e-02   4.5837219e+00   6.3450057e-01  -1.5028851e+08
   3.0010003e-10  -2.5261967e-02   4.5740173e+00   6.4058640e-01  -1.4945624e+08
   3.0110037e-10  -2.5112888e-02   4.5643265e+00   6.4668787e-01  -1.4862778e+08
   3.0210070e-10  -2.4964635e-02   4.5546501e+00   6.5280455e-01  -1.4780312e+08
   3.0310103e-10  -2.4817206e-02   4.5449883e+00   6.5893604e-01  -1.4698227e+08
   3.0410137e-10  -2.4670595e-02   4.5353417e+00   6.6508194e-01  -1.4616521e+08
   3.0510170e-10  -2.4524801e-02   4.5257107e+00   6.7124184e-01  -1.4535194e+08
   3.0610203e-10  -2.4379817e-02   4.5160956e+00   6.7741534e-01  -1.4454245e+08
   3.0710237e-10  -2.4235642e-02   4.5064968e+00   6.8360202e-01  -1.4373674e+08
   3.0810270e-10  -2.4092270e-02   4.4969149e+00   6.8980148e-01  -1.4293479e+08
   3.0910303e-10  -2.3949699e-02   4.4873500e+00   6.9601332e-01  -1.4213661e+08
   3.1010337e-10  -2.3807924e-02   4.4778027e+00   7.0223713e-01  -1.4134219e+08
   3.1110370e-10  -2.3666943e-02   4.4682734e+00   7.0847251e-01  -1.4055151e+08
   3.1210403e-10  -2.3526750e-02   4.4587623e+00   7.1471905e-01  -1.3976457e+08
   3.1310437e-10  -2.3387342e-02   4.4492699e+00   7.2097635e-01  -1.3898137e+08
   3.1410470e-10  -2.3248716e-02   4.4397965e+00   7.2724401e-01  -1.3820189e+08
   3.1510504e-10  -2.3110868e-02   4.4303425e+00   7.3352163e-01  -1.3742613e+08
   3.1610537e-10  -2.2973794e-02   4.4209083e+00   7.3980881e-01  -1.3665408e+08
   3.1710570e-10  -2.2837491e-02   4.4114941e+00   7.4610515e-01  -1.3588574e+08
   3.1810604e-10  -2.2701954e-02   4.4021004e+00   7.5241025e-01  -1.3512109e+08
   3.1910637e-10  -2.2567180e-02   4.3927275e+00   7.5872372e-01  -1.3436012e+08
   3.2010670e-10  -2.2433165e-02   4.3833757e+00   7.6504517e-01  -1.3360283e+08
   3.2110704e-10  -2.2299906e-02   4.3740454e+00   7.7137419e-01  -1.3284921e+08
   3.2210737e-10  -2.2167399e-02   4.3647368e+00   7.7771040e-01  -1.3209925e+08
   3.2310770e-10  -2.2035641e-02   4.3554503e+00   7.8405341e-01  -1.3135294e+08
   3.2410804e-10  -2.1904627e-02   4.3461862e+00   7.9040283e-01  -1.3061027e+08
   3.2510837e-10  -2.1774354e-02   4.3369448e+00   7.9675828e-01  -1.2987124e+08
   3.2610870e-10  -2.1644819e-02   4.3277264e+00   8.0311937e-01  -1.2913583e+08
   3.2710904e-10  -2.1516017e-02   4.3185313e+00   8.0948571e-01  -1.2840403e+08
   3.2810937e-10  -2.1387945e-02   4.3093599e+00   8.1585694e-01  -1.2767584e+08
   3.2910970e-10  -2.1260600e-02   4.3002122e+00   8.2223266e-01  -1.2695124e+08
   3.3011004e-10  -2.1133978e-02   4.2910888e+00   8.2861250e-01  -1.2623023e+08
   3.3111037e-10  -2.1008076e-02   4.2819898e+00   8.3499610e-01  -1.2551280e+08
   3.3211070e-10  -2.0882889e-02   4.2729155e+00   8.4138307e-01  -1.2479893e+08
   3.3311104e-10  -2.0758415e-02   4.2638662e+00   8.4777305e-01  -1.2408861e+08
   3.3411137e-10  -2.0634649e-02   4.2548421e+00   8.5416567e-01  -1.2338184e+08
   3.3511170e-10  -2.0511588e-02   4.2458435e+00   8.6056056e-01  -1.2267861e+08
   3.3611204e-10  -2.0389229e-02   4.2368706e+00   8.6695737e-01  -1.2197890e+08
   3.3711237e-10  -2.0267568e-02   4.2279237e+00   8.7335573e-01  -1.2128270e+08
   3.3811270e-10  -2.0146602e-02   4.2190030e+00   8.7975528e-01  -1.2059001e+08
   3.3911304e-10  -2.0026327e-02   4.2101088e+00   8.8615568e-01  -1.1990082e+08
   3.4011337e-10  -1.9906739e-02   4.2012412e+00   8.9255657e-01  -1.1921510e+08
   3.4111370e-10  -1.9787836e-02   4.1924006e+00   8.9895760e-01  -1.1853286e+08
   3.4211404e-10  -1.9669613e-02   4.1835871e+00   9.0535842e-01  -1.1785407e+08
   3.4311437e-10  -1.9552068e-02   4.1748009e+00   9.1175870e-01  -1.1717874e+08
   3.4411470e-10  -1.9435196e-02   4.1660422e+00   9.1815808e-01  -1.1650685e+08
   3.4511504e-10  -1.9318994e-02   4.1573113e+00   9.2455624e-01  -1.1583838e+08
   3.4611537e-10  -1.9203460e-02   4.1486083e+00   9.3095283e-01  -1.1517333e+08
   3.4711571e-10  -1.9088589e-02   4.1399335e+00   9.3734752e-01  -1.1451168e+08
   3.4811604e-10  -1.8974378e-02   4.1312869e+00   9.4373999e-01  -1.1385343e+08
   3.4911637e-10  -1.8860823e-02   4.1226689e+00   9.5012991e-01  -1.1319856e+08
   3.5011671e-10  -1.8747922e-02   4.1140796e+00   9.5651696e-01  -1.1254707e+08
   3.5111704e-10  -1.8635671e-02   4.1055191e+00   9.6290081e-01  -1.1189893e+08
   3.5211737e-10  -1.8524067e-02   4.0969877e+00   9.6928115e-01  -1.1125414e+08
   3.5311771e-10  -1.8413106e-02   4.0884855e+00   9.7565767e-01  -1.1061268e+08
   3.5411804e-10  -1.8302784e-02   4.0800126e+00   9.8203005e-01  -1.0997455e+08
   3.5511837e-10  -1.8193100e-02   4.0715692e+00   9.8839798e-01  -1.0933974e+08
   3.5611871e-10  -1.8084048e-02   4.0631554e+00   9.9476118e-01  -1.0870822e+08
   3.5711904e-10  -1.7975627e-02   4.0547715e+00   1.0011193e+00  -1.0808000e+08
   3.5811937e-10  -1.7867832e-02   4.0464175e+00   1.0074721e+00  -1.0745505e+08
   3.5911971e-10  -1.7760661e-02   4.0380936e+00   1.0138193e+00  -1.0683337e+08
   3.6012004e-10  -1.7654110e-02   4.0297999e+00   1.0201605e+00  -1.0621494e+08
   3.6112037e-10  -1.7548176e-02   4.0215366e+00   1.0264955e+00  -1.0559975e+08
   3.6212071e-10  -1.7442856e-02   4.0133037e+00   1.0328240e+00  -1.0498779e+08
   3.6312104e-10  -1.7338146e-02   4.0051014e+00   1.0391457e+00  -1.0437905e+08
   3.6412137e-10  -1.7234043e-02   3.9969297e+00   1.0454604e+00  -1.0377352e+08
   3.6512171e-10  -1.7130544e-02   3.9887889e+00   1.0517677e+00  -1.0317118e+08
   3.6612204e-10  -1.7027646e-02   3.9806791e+00   1.0580674e+00  -1.0257202e+08
   3.6712237e-10  -1.6925346e-02   3.9726002e+00   1.0643592e+00  -1.0197602e+08
   3.6812271e-10  -1.6823641e-02   3.9645524e+00   1.0706429e+00  -1.0138319e+08
   3.6912304e-10  -1.6722527e-02   3.9565359e+00   1.0769181e+00  -1.0079350e+08
   3.7012337e-10  -1.6622001e-02   3.9485506e+00   1.0831847e+00  -1.0020694e+08
   3.7112371e-10  -1.6522060e-02   3.9405968e+00   1.0894424e+00  -9.9623499e+07
   3.7212404e-10  -1.6422701e-02   3.9326744e+00   1.0956910e+00  -9.9043166e+07
   3.7312437e-10  -1.6323921e-02   3.9247835e+00   1.1019301e+00  -9.8465929e+07
   3.7412471e-10  -1.6225717e-02   3.9169243e+00   1.1081595e+00  -9.7891774e+07
   3.7512504e-10  -1.6128086e-02   3.9090967e+00   1.1143791e+00  -9.7320689e+07
   3.7612538e-10  -1.6031024e-02   3.9013010e+00   1.1205885e+00  -9.6752663e+07
   3.7712571e-10  -1.5934529e-02   3.8935370e+00   1.1267875e+00  -9.6187681e+07
   3.7812604e-10  -1.5838597e-02   3.8858049e+00   1.1329759e+00  -9.5625732e+07
   3.7912638e-10  -1.5743226e-02   3.8781048e+00   1.1391535e+00  -9.5066804e+07
   3.8012671e-10  -1.5648413e-02   3.8704366e+00   1.1453201e+00  -9.4510884e+07
   3.8112704e-10  -1.5554154e-02   3.8628005e+00   1.1514753e+00  -9.3957959e+07
   3.8212738e-10  -1.5460446e-02   3.8551964e+00   1.1576191e+00  -9.3408017e+07
   3.8312771e-10  -1.5367287e-02   3.8476245e+00   1.1637512e+00  -9.2861045e+07
   3.8412804e-10  -1.5274674e-02   3.8400847e+00   1.1698713e+00  -9.2317032e+07
   3.8512838e-10  -1.5182603e-02   3.8325771e+00   1.1759793e+00  -9.1775964e+07
   3.8612871e-10  -1.5091073e-02   3.8251018e+00   1.1820750e+00  -9.1237829e+07
   3.8712904e-10  -1.5000078e-02   3.8176587e+00   1.1881582e+00  -9.0702615e+07
   3.8812938e-10  -1.4909618e-02   3.8102479e+00   1.1942286e+00  -9.0170308e+07
   3.8912971e-10  -1.4819689e-02   3.8028694e+00   1.2002861e+00  -8.9640897e+07
   3.9013004e-10  -1.4730287e-02   3.7955232e+00   1.2063305e+00  -8.9114369e+07
   3.9113038e-10  -1.4641411e-02   3.7882094e+00   1.2123616e+00  -8.8590712e+07
   3.9213071e-10  -1.4553057e-02   3.7809279e+00   1.2183792e+00  -8.8069912e+07
   3.9313104e-10  -1.4465223e-02   3.7736787e+00   1.2243832e+00  -8.7551958e+07
   3.9413138e-10  -1.4377905e-02   3.7664620e+00   1.2303733e+00  -8.7036837e+07
   3.9513171e-10  -1.4291102e-02   3.7592776e+00   1.2363493e+00  -8.6524536e+07
   3.9613204e-10  -1.4204809e-02   3.7521255e+00   1.2423112e+00  -8.6015043e+07
   3.9713238e-10  -1.4119024e-02   3.7450059e+00   1.2482588e+00  -8.5508346e+07
   3.9813271e-10  -1.4033745e-02   3.7379186e+00   1.2541918e+00  -8.5004432e+07
   3.9913304e-10  -1.3948968e-02   3.7308636e+00   1.2601101e+00  -8.4503289e+07
   4.0013338e-10  -1.3864691e-02   3.7238411e+00   1.2660136e+00  -8.4004904e+07
   4.0113371e-10  -1.3780911e-02   3.7168508e+00   1.2719020e+00  -8.3509264e+07
   4.0213404e-10  -1.3697626e-02   3.7098929e+00   1.2777753e+00  -8.3016358e+07
   4.0313438e-10  -1.3614832e-02   3.7029673e+00   1.2836334e+00  -8.2526173e+07
   4.0413471e-10  -1.3532527e-02   3.6960739e+00   1.2894759e+00  -8.2038697e+07
   4.0513505e-10  -1.3450708e-02   3.6892128e+00   1.2953029e+00  -8.1553917e+07
   4.0613538e-10  -1.3369373e-02   3.6823840e+00   1.3011141e+00  -8.1071821e+07
   4.0713571e-10  -1.3288519e-02   3.6755874e+00   1.3069095e+00  -8.0592396e+07
   4.0813605e-10  -1.3208143e-02   3.6688229e+00   1.3126889e+00  -8.0115631e+07
   4.0913638e-10  -1.3128242e-02   3.6620906e+00   1.3184521e+00  -7.9641512e+07
   4.1013671e-10  -1.3048815e-02   3.6553904e+00   1.3241990e+00  -7.9170029e+07
   4.1113705e-10  -1.2969857e-02   3.6487223e+00   1.3299296e+00  -7.8701168e+07
   4.1213738e-10  -1.2891367e-02   3.6420862e+00   1.3356436e+00  -7.8234917e+07
   4.1313771e-10  -1.2813343e-02   3.6354821e+00   1.3413410e+00  -7.7771264e+07
   4.1413805e-10  -1.2735780e-02   3.6289100e+00   1.3470217e+00  -7.7310196e+07
   4.1513838e-10  -1.2658678e-02   3.6223698e+00   1.3526855e+00  -7.6851703e+07
   4.1613871e-10  -1.2582033e-02   3.6158614e+00   1.3583323e+00  -7.6395771e+07
   4.1713905e-10  -1.2505842e-02   3.6093849e+00   1.3639620e+00  -7.5942388e+07
   4.1813938e-10  -1.2430104e-02   3.6029401e+00   1.3695745e+00  -7.5491543e+07
   4.1913971e-10  -1.2354815e-02   3.5965270e+00   1.3751698e+00  -7.5043223e+07
   4.2014005e-10  -1.2279974e-02   3.5901456e+00   1.3807476e+00  -7.4597416e+07
   4.2114038e-10  -1.2205577e-02   3.5837958e+00   1.3863079e+00  -7.4154110e+07
   4.2214071e-10  -1.2131622e-02   3.5774775e+00   1.3918507e+00  -7.3713293e+07
   4.2314105e-10  -1.2058107e-02   3.5711907e+00   1.3973757e+00  -7.3274954e+07
   4.2414138e-10  -1.1985029e-02   3.5649353e+00   1.4028830e+00  -7.2839080e+07
   4.2514171e-10  -1.1912386e-02   3.5587113e+00   1.4083724e+00  -7.2405659e+07
   4.2614205e-10  -1.1840175e-02   3.5525186e+00   1.4138438e+00  -7.1974679e+07
   4.2714238e-10  -1.1768394e-02   3.5463570e+00   1.4192973e+00  -7.1546130e+07
   4.2814271e-10  -1.1697040e-02   3.5402267e+00   1.4247326e+00  -7.1119998e+07
   4.2914305e-10  -1.1626111e-02   3.5341274e+00   1.4301497e+00  -7.0696272e+07
   4.3014338e-10  -1.1555605e-02   3.5280592e+00   1.4355486e+00  -7.0274940e+07
   4.3114371e-10  -1.1485519e-02   3.5220219e+00   1.4409291e+00  -6.9855991e+07
   4.3214405e-10  -1.1415851e-02   3.5160154e+00   1.4462912e+00  -6.9439413e+07
   4.3314438e-10  -1.1346599e-02   3.5100398e+00   1.4516348e+00  -6.9025194e+07
   4.3414471e-10  -1.1277759e-02   3.5040949e+00   1.4569599e+00  -6.8613323e+07
   4.3514505e-10  -1.1209331e-02   3.4981806e+00   1.4622664e+00  -6.8203787e+07
   4.3614538e-10  -1.1141310e-02   3.4922969e+00   1.4675542e+00  -6.7796576e+07
   4.3714572e-10  -1.1073696e-02   3.4864436e+00   1.4728233e+00  -6.7391678e+07
   4.3814605e-10  -1.1006486e-02   3.4806208e+00   1.4780736e+00  -6.6989081e+07
   4.3914638e-10  -1.0939677e-02   3.4748282e+00   1.4833050e+00  -6.6588774e+07
   4.4014672e-10  -1.0873267e-02   3.4690659e+00   1.4885176e+00  -6.6190745e+07
   4.4114705e-10  -1.0807255e-02   3.4633338e+00   1.4937112e+00  -6.5794984e+07
   4.4214738e-10  -1.0741637e-02   3.4576317e+00   1.4988859e+00  -6.5401478e+07
   4.4314772e-10  -1.0676411e-02   3.4519595e+00   1.5040415e+00  -6.5010216e+07
   4.4414805e-10  -1.0611576e-02   3.4463173e+00   1.5091780e+00  -6.4621188e+07
   4.4514838e-10  -1.0547128e-02   3.4407048e+00   1.5142954e+00  -6.4234381e+07
   4.4614872e-10  -1.0483067e-02   3.4351221e+00   1.5193936e+00  -6.3849785e+07
   4.4714905e-10  -1.0419389e-02   3.4295689e+00   1.5244726e+00  -6.3467388e+07
   4.4814938e-10  -1.0356092e-02   3.4240453e+00   1.5295324e+00  -6.3087180e+07
   4.4914972e-10  -1.0293175e-02   3.4185511e+00   1.5345730e+00  -6.2709149e+07
   4.5015005e-10  -1.0230634e-02   3.4130862e+00   1.5395942e+00  -6.2333284e+07
   4.5115038e-10  -1.0168468e-02   3.4076506e+00   1.5445961e+00  -6.1959573e+07
   4.5215072e-10  -1.0106675e-02   3.4022440e+00   1.5495786e+00  -6.1588007e+07
   4.5315105e-10  -1.0045253e-02   3.3968666e+00   1.5545417e+00  -6.1218574e+07
   4.5415138e-10  -9.9841989e-03   3.3915180e+00   1.5594855e+00  -6.0851263e+07
   4.5515172e-10  -9.9235112e-03   3.3861984e+00   1.5644098e+00  -6.0486064e+07
   4.5615205e-10  -9.8631877e-03   3.3809074e+00   1.5693146e+00  -6.0122965e+07
   4.5715238e-10  -9.8032263e-03   3.3756451e+00   1.5742000e+00  -5.9761955e+07
   4.5815272e-10  -9.7436250e-03   3.3704114e+00   1.5790658e+00  -5.9403024e+07
   4.5915305e-10  -9.6843815e-03   3.3652061e+00   1.5839122e+00  -5.9046162e+07
   4.6015338e-10  -9.6254940e-03   3.3600291e+00   1.5887390e+00  -5.8691356e+07
   4.6115372e-10  -9.5669602e-03   3.3548804e+00   1.5935463e+00  -5.8338598e+07
   4.6215405e-10  -9.5087783e-03   3.3497598e+00   1.5983341e+00  -5.7987875e+07
   4.6315438e-10  -9.4509461e-03   3.3446672e+00   1.6031022e+00  -5.7639178e+07
   4.6415472e-10  -9.3934617e-03   3.3396026e+00   1.6078509e+00  -5.7292497e+07
   4.6515505e-10  -9.3363230e-03   3.3345658e+00   1.6125799e+00  -5.6947819e+07
   4.6615539e-10  -9.2795280e-03   3.3295567e+00   1.6172894e+00  -5.6605136e+07
   4.6715572e-10  -9.2230747e-03   3.3245752e+00   1.6219793e+00  -5.6264436e+07
   4.6815605e-10  -9.1669612e-03   3.3196212e+00   1.6266496e+00  -5.5925710e+07
   4.6915639e-10  -9.1111855e-03   3.3146946e+00   1.6313004e+00  -5.5588946e+07
   4.7015672e-10  -9.0557456e-03   3.3097953e+00   1.6359315e+00  -5.5254135e+07
   4.7115705e-10  -9.0006396e-03   3.3049232e+00   1.6405431e+00  -5.4921266e+07
   4.7215739e-10  -8.9458655e-03   3.3000781e+00   1.6451351e+00  -5.4590330e+07
   4.7315772e-10  -8.8914215e-03   3.2952601e+00   1.6497075e+00  -5.4261315e+07
   4.7415805e-10  -8.8373055e-03   3.2904689e+00   1.6542604e+00  -5.3934212e+07
   4.7515839e-10  -8.7835158e-03   3.2857044e+00   1.6587938e+00  -5.3609011e+07
   4.7615872e-10  -8.7300503e-03   3.2809666e+00   1.6633075e+00  -5.3285701e+07
   4.7715905e-10  -8.6769072e-03   3.2762552e+00   1.6678018e+00  -5.2964273e+07
   4.7815939e-10  -8.6240847e-03   3.2715704e+00   1.6722765e+00  -5.2644717e+07
   4.7915972e-10  -8.5715809e-03   3.2669118e+00   1.6767317e+00  -5.2327022e+07
   4.8016005e-10  -8.5193938e-03   3.2622794e+00   1.6811675e+00  -5.2011179e+07
   4.8116039e-10  -8.4675217e-03   3.2576731e+00   1.6855837e+00  -5.1697178e+07
   4.8216072e-10  -8.4159627e-03   3.2530928e+00   1.6899805e+00  -5.1385009e+07
   4.8316105e-10  -8.3647151e-03   3.2485383e+00   1.6943578e+00  -5.1074663e+07
   4.8416139e-10  -8.3137769e-03   3.2440096e+00   1.6987158e+00  -5.0766128e+07
   4.8516172e-10  -8.2631463e-03   3.2395066e+00   1.7030543e+00  -5.0459397e+07
   4.8616205e-10  -8.2128217e-03   3.2350290e+00   1.7073734e+00  -5.0154459e+07
   4.8716239e-10  -8.1628011e-03   3.2305769e+00   1.7116732e+00  -4.9851305e+07
   4.8816272e-10  -8.1130828e-03   3.2261501e+00   1.7159536e+00  -4.9549924e+07
   4.8916305e-10  -8.0636650e-03   3.2217485e+00   1.7202147e+00  -4.9250308e+07
   4.9016339e-10  -8.0145461e-03   3.2173720e+00   1.7244566e+00  -4.8952447e+07
   4.9116372e-10  -7.9657241e-03   3.2130204e+00   1.7286791e+00  -4.8656332e+07
   4.9216405e-10  -7.9171974e-03   3.2086937e+00   1.7328825e+00  -4.8361952e+07
   4.9316439e-10  -7.8689643e-03   3.2043917e+00   1.7370666e+00  -4.8069300e+07
   4.9416472e-10  -7.8210230e-03   3.2001144e+00   1.7412316e+00  -4.7778365e+07
   4.9516506e-10  -7.7733718e-03   3.1958616e+00   1.7453774e+00  -4.7489137e+07
   4.9616539e-10  -7.7260090e-03   3.1916332e+00   1.7495041e+00  -4.7201609e+07
   4.9716572e-10  -7.6789329e-03   3.1874290e+00   1.7536118e+00  -4.6915770e+07
   4.9816606e-10  -7.6321419e-03   3.1832491e+00   1.7577003e+00  -4.6631612e+07
   4.9916639e-10  -7.5856342e-03   3.1790932e+00   1.7617699e+00  -4.6349125e+07
   5.0016672e-10  -7.5394082e-03   3.1749613e+00   1.7658205e+00  -4.6068300e+07
   5.0116706e-10  -7.4934622e-03   3.1708532e+00   1.7698522e+00  -4.5789129e+07
   5.0216739e-10  -7.4477946e-03   3.1667689e+00   1.7738649e+00  -4.5511602e+07
   5.0316772e-10  -7.4024038e-03   3.1627081e+00   1.7778588e+00  -4.5235709e+07
   5.0416806e-10  -7.3572880e-03   3.1586709e+00   1.7818338e+00  -4.4961443e+07
   5.0516839e-10  -7.3124457e-03   3.1546571e+00   1.7857901e+00  -4.4688795e+07
   5.0616872e-10  -7.2678753e-03   3.1506665e+00   1.7897276e+00  -4.4417755e+07
   5.0716906e-10  -7.2235752e-03   3.1466991e+00   1.7936463e+00  -4.4148314e+07
   5.0816939e-10  -7.1795438e-03   3.1427548e+00   1.7975464e+00  -4.3880465e+07
   5.0916972e-10  -7.1357794e-03   3.1388334e+00   1.8014279e+00  -4.3614198e+07
   5.1017006e-10  -7.0922805e-03   3.1349349e+00   1.8052908e+00  -4.3349504e+07
   5.1117039e-10  -7.0490456e-03   3.1310590e+00   1.8091352e+00  -4.3086375e+07
   5.1217072e-10  -7.0060730e-03   3.1272058e+00   1.8129610e+00  -4.2824802e+07
   5.1317106e-10  -6.9633613e-03   3.1233750e+00   1.8167684e+00  -4.2564777e+07
   5.1417139e-10  -6.9209089e-03   3.1195667e+00   1.8205574e+00  -4.2306291e+07
   5.1517172e-10  -6.8787142e-03   3.1157806e+00   1.8243280e+00  -4.2049336e+07
   5.1617206e-10  -6.8367757e-03   3.1120167e+00   1.8280803e+00  -4.1793902e+07
   5.1717239e-10  -6.7950919e-03   3.1082748e+00   1.8318144e+00  -4.1539983e+07
   5.1817272e-10  -6.7536613e-03   3.1045549e+00   1.8355302e+00  -4.1287569e+07
   5.1917306e-10  -6.7124824e-03   3.1008568e+00   1.8392278e+00  -4.1036652e+07
   5.2017339e-10  -6.6715537e-03   3.0971805e+00   1.8429073e+00  -4.0787223e+07
   5.2117372e-10  -6.6308737e-03   3.0935257e+00   1.8465687e+00  -4.0539275e+07
   5.2217406e-10  -6.5904410e-03   3.0898924e+00   1.8502121e+00  -4.0292800e+07
   5.2317439e-10  -6.5502540e-03   3.0862806e+00   1.8538375e+00  -4.0047788e+07
   5.2417472e-10  -6.5103113e-03   3.0826900e+00   1.8574450e+00  -3.9804232e+07
   5.2517506e-10  -6.4706115e-03   3.0791206e+00   1.8610346e+00  -3.9562125e+07
   5.2617539e-10  -6.4311530e-03   3.0755722e+00   1.8646064e+00  -3.9321456e+07
   5.2717573e-10  -6.3919346e-03   3.0720448e+00   1.8681604e+00  -3.9082220e+07
   5.2817606e-10  -6.3529547e-03   3.0685383e+00   1.8716967e+00  -3.8844407e+07
   5.2917639e-10  -6.3142119e-03   3.0650524e+00   1.8752153e+00  -3.8608010e+07
   5.3017673e-10  -6.2757049e-03   3.0615873e+00   1.8787163e+00  -3.8373021e+07
   5.3117706e-10  -6.2374321e-03   3.0581426e+00   1.8821998e+00  -3.8139432e+07
   5.3217739e-10  -6.1993923e-03   3.0547184e+00   1.8856657e+00  -3.7907235e+07
   5.3317773e-10  -6.1615840e-03   3.0513144e+00   1.8891142e+00  -3.7676422e+07
   5.3417806e-10  -6.1240058e-03   3.0479307e+00   1.8925453e+00  -3.7446986e+07
   5.3517839e-10  -6.0866565e-03   3.0445671e+00   1.8959590e+00  -3.7218918e+07
   5.3617873e-10  -6.0495345e-03   3.0412234e+00   1.8993554e+00  -3.6992212e+07
   5.3717906e-10  -6.0126386e-03   3.0378996e+00   1.9027347e+00  -3.6766859e+07
   5.3817939e-10  -5.9759673e-03   3.0345956e+00   1.9060967e+00  -3.6542853e+07
   5.3917973e-10  -5.9395195e-03   3.0313113e+00   1.9094416e+00  -3.6320184e+07
   5.4018006e-10  -5.9032936e-03   3.0280466e+00   1.9127695e+00  -3.6098846e+07
   5.4118039e-10  -5.8672885e-03   3.0248013e+00   1.9160803e+00  -3.5878832e+07
   5.4218073e-10  -5.8315027e-03   3.0215753e+00   1.9193743e+00  -3.5660133e+07
   5.4318106e-10  -5.7959350e-03   3.0183687e+00   1.9226513e+00  -3.5442742e+07
   5.4418139e-10  -5.7605841e-03   3.0151811e+00   1.9259115e+00  -3.5226653e+07
   5.4518173e-10  -5.7254486e-03   3.0120126e+00   1.9291549e+00  -3.5011857e+07
   5.4618206e-10  -5.6905273e-03   3.0088631e+00   1.9323816e+00  -3.4798348e+07
   5.4718239e-10  -5.6558189e-03   3.0057324e+00   1.9355916e+00  -3.4586117e+07
   5.4818273e-10  -5.6213221e-03   3.0026204e+00   1.9387850e+00  -3.4375158e+07
   5.4918306e-10  -5.5870356e-03   2.9995271e+00   1.9419620e+00  -3.4165464e+07
   5.5018339e-10  -5.5529583e-03   2.9964523e+00   1.9451224e+00  -3.3957027e+07
   5.5118373e-10  -5.5190887e-03   2.9933960e+00   1.9482664e+00  -3.3749840e+07
   5.5218406e-10  -5.4854258e-03   2.9903579e+00   1.9513940e+00  -3.3543897e+07
   5.5318439e-10  -5.4519682e-03   2.9873382e+00   1.9545054e+00  -3.3339189e+07
   5.5418473e-10  -5.4187147e-03   2.9843365e+00   1.9576005e+00  -3.3135711e+07
   5.5518506e-10  -5.3856641e-03   2.9813529e+00   1.9606794e+00  -3.2933454e+07
   5.5618540e-10  -5.3528151e-03   2.9783872e+00   1.9637422e+00  -3.2732413e+07
   5.5718573e-10  -5.3201667e-03   2.9754393e+00   1.9667890e+00  -3.2532580e+07
   5.5818606e-10  -5.2877174e-03   2.9725092e+00   1.9698198e+00  -3.2333948e+07
   5.5918640e-10  -5.2554663e-03   2.9695967e+00   1.9728346e+00  -3.2136510e+07
   5.6018673e-10  -5.2234120e-03   2.9667017e+00   1.9758335e+00  -3.1940260e+07
   5.6118706e-10  -5.1915533e-03   2.9638242e+00   1.9788167e+00  -3.1745190e+07
   5.6218740e-10  -5.1598892e-03   2.9609640e+00   1.9817841e+00  -3.1551295e+07
   5.6318773e-10  -5.1284184e-03   2.9581211e+00   1.9847358e+00  -3.1358567e+07
   5.6418806e-10  -5.0971398e-03   2.9552953e+00   1.9876718e+00  -3.1166999e+07
   5.6518840e-10  -5.0660522e-03   2.9524866e+00   1.9905923e+00  -3.0976586e+07
   5.6618873e-10  -5.0351544e-03   2.9496948e+00   1.9934973e+00  -3.0787320e+07
   5.6718906e-10  -5.0044454e-03   2.9469199e+00   1.9963869e+00  -3.0599194e+07
   5.6818940e-10  -4.9739240e-03   2.9441618e+00   1.9992611e+00  -3.0412203e+07
   5.6918973e-10  -4.9435889e-03   2.9414203e+00   2.0021199e+00  -3.0226339e+07
   5.7019006e-10  -4.9134393e-03   2.9386954e+00   2.0049635e+00  -3.0041597e+07
   5.7119040e-10  -4.8834738e-03   2.9359870e+00   2.0077919e+00  -2.9857969e+07
   5.7219073e-10  -4.8536914e-03   2.9332950e+00   2.0106052e+00  -2.9675450e+07
   5.7319106e-10  -4.8240910e-03   2.9306193e+00   2.0134034e+00  -2.9494033e+07
   5.7419140e-10  -4.7946715e-03   2.9279598e+00   2.0161866e+00  -2.9313711e+07
   5.7519173e-10  -4.7654318e-03   2.9253164e+00   2.0189548e+00  -2.9134478e+07
   5.7619206e-10  -4.7363708e-03   2.9226890e+00   2.0217082e+00  -2.8956329e+07
   5.7719240e-10  -4.7074874e-03   2.9200775e+00   2.0244467e+00  -2.8779256e+07
   5.7819273e-10  -4.6787806e-03   2.9174819e+00   2.0271705e+00  -2.8603254e+07
   5.7919306e-10  -4.6502493e-03   2.9149021e+00   2.0298796e+00  -2.8428316e+07
   5.8019340e-10  -4.6218924e-03   2.9123379e+00   2.0325741e+00  -2.8254436e+07
   5.8119373e-10  -4.5937089e-03   2.9097892e+00   2.0352540e+00  -2.8081609e+07
   5.8219406e-10  -4.5656977e-03   2.9072561e+00   2.0379194e+00  -2.7909827e+07
   5.8319440e-10  -4.5378578e-03   2.9047383e+00   2.0405703e+00  -2.7739085e+07
   5.8419473e-10  -4.5101882e-03   2.9022358e+00   2.0432068e+00  -2.7569377e+07
   5.8519507e-10  -4.4826877e-03   2.8997485e+00   2.0458291e+00  -2.7400697e+07
   5.8619540e-10  -4.4553555e-03   2.8972764e+00   2.0484370e+00  -2.7233039e+07
   5.8719573e-10  -4.4281904e-03   2.8948193e+00   2.0510308e+00  -2.7066397e+07
   5.8819607e-10  -4.4011915e-03   2.8923772e+00   2.0536105e+00  -2.6900764e+07
   5.8919640e-10  -4.3743577e-03   2.8899499e+00   2.0561760e+00  -2.6736136e+07
   5.9019673e-10  -4.3476881e-03   2.8875374e+00   2.0587276e+00  -2.6572507e+07
   5.9119707e-10  -4.3211816e-03   2.8851395e+00   2.0612652e+00  -2.6409870e+07
   5.9219740e-10  -4.2948374e-03   2.8827563e+00   2.0637890e+00  -2.6248220e+07
   5.9319773e-10  -4.2686542e-03   2.8803876e+00   2.0662989e+00  -2.6087550e+07
   5.9419807e-10  -4.2426313e-03   2.8780334e+00   2.0687950e+00  -2.5927856e+07
   5.9519840e-10  -4.2167677e-03   2.8756935e+00   2.0712775e+00  -2.5769132e+07
   5.9619873e-10  -4.1910623e-03   2.8733678e+00   2.0737463e+00  -2.5611372e+07
   5.9719907e-10  -4.1655142e-03   2.8710564e+00   2.0762015e+00  -2.5454570e+07
   5.9819940e-10  -4.1401224e-03   2.8687590e+00   2.0786432e+00  -2.5298721e+07
   5.9919973e-10  -4.1148861e-03   2.8664757e+00   2.0810715e+00  -2.5143818e+07
   6.0020007e-10  -4.0898042e-03   2.8642063e+00   2.0834864e+00  -2.4989858e+07
   6.0120040e-10  -4.0648758e-03   2.8619507e+00   2.0858880e+00  -2.4836833e+07
   6.0220073e-10  -4.0401000e-03   2.8597089e+00   2.0882763e+00  -2.4684740e+07
   6.0320107e-10  -4.0154758e-03   2.8574809e+00   2.0906513e+00  -2.4533571e+07
   6.0420140e-10  -3.9910024e-03   2.8552664e+00   2.0930133e+00  -2.4383322e+07
   6.0520173e-10  -3.9666788e-03   2.8530654e+00   2.0953622e+00  -2.4233988e+07
   6.0620207e-10  -3.9425042e-03   2.8508780e+00   2.0976980e+00  -2.4085563e+07
   6.0720240e-10  -3.9184775e-03   2.8487038e+00   2.1000209e+00  -2.3938041e+07
   6.0820273e-10  -3.8945979e-03   2.8465430e+00   2.1023309e+00  -2.3791417e+07
   6.0920307e-10  -3.8708645e-03   2.8443954e+00   2.1046280e+00  -2.3645687e+07
   6.1020340e-10  -3.8472764e-03   2.8422609e+00   2.1069124e+00  -2.3500845e+07
   6.1120373e-10  -3.8238327e-03   2.8401395e+00   2.1091840e+00  -2.3356885e+07
   6.1220407e-10  -3.8005326e-03   2.8380311e+00   2.1114430e+00  -2.3213802e+07
   6.1320440e-10  -3.7773752e-03   2.8359355e+00   2.1136894e+00  -2.3071592e+07
   6.1420473e-10  -3.7543596e-03   2.8338528e+00   2.1159233e+00  -2.2930249e+07
   6.1520507e-10  -3.7314849e-03   2.8317829e+00   2.1181446e+00  -2.2789768e+07
   6.1620540e-10  -3.7087503e-03   2.8297256e+00   2.1203536e+00  -2.2650144e+07
   6.1720574e-10  -3.6861549e-03   2.8276809e+00   2.1225502e+00  -2.2511372e+07
   6.1820607e-10  -3.6636979e-03   2.8256487e+00   2.1247345e+00  -2.2373447e+07
   6.1920640e-10  -3.6413784e-03   2.8236290e+00   2.1269066e+00  -2.2236363e+07
   6.2020674e-10  -3.6191956e-03   2.8216217e+00   2.1290665e+00  -2.2100117e+07
   6.2120707e-10  -3.5971487e-03   2.8196267e+00   2.1312143e+00  -2.1964702e+07
   6.2220740e-10  -3.5752368e-03   2.8176438e+00   2.1333500e+00  -2.1830114e+07
   6.2320774e-10  -3.5534591e-03   2.8156732e+00   2.1354737e+00  -2.1696349e+07
   6.2420807e-10  -3.5318148e-03   2.8137146e+00   2.1375855e+00  -2.1563400e+07
   6.2520840e-10  -3.5103031e-03   2.8117681e+00   2.1396854e+00  -2.1431265e+07
   6.2620874e-10  -3.4889231e-03   2.8098334e+00   2.1417735e+00  -2.1299936e+07
   6.2720907e-10  -3.4676741e-03   2.8079107e+00   2.1438498e+00  -2.1169411e+07
   6.2820940e-10  -3.4465552e-03   2.8059997e+00   2.1459144e+00  -2.1039684e+07
   6.2920974e-10  -3.4255657e-03   2.8041005e+00   2.1479674e+00  -2.0910750e+07
   6.3021007e-10  -3.4047047e-03   2.8022129e+00   2.1500087e+00  -2.0782604e+07
   6.3121040e-10  -3.3839716e-03   2.8003369e+00   2.1520385e+00  -2.0655243e+07
   6.3221074e-10  -3.3633654e-03   2.7984724e+00   2.1540569e+00  -2.0528661e+07
   6.3321107e-10  -3.3428855e-03   2.7966193e+00   2.1560638e+00  -2.0402853e+07
   6.3421140e-10  -3.3225310e-03   2.7947777e+00   2.1580594e+00  -2.0277816e+07
   6.3521174e-10  -3.3023012e-03   2.7929473e+00   2.1600437e+00  -2.0153544e+07
   6.3621207e-10  -3.2821954e-03   2.7911282e+00   2.1620167e+00  -2.0030033e+07
   6.3721240e-10  -3.2622127e-03   2.7893202e+00   2.1639785e+00  -1.9907278e+07
   6.3821274e-10  -3.2423524e-03   2.7875233e+00   2.1659292e+00  -1.9785275e+07
   6.3921307e-10  -3.2226138e-03   2.7857375e+00   2.1678688e+00  -1.9664020e+07
   6.4021340e-10  -3.2029960e-03   2.7839627e+00   2.1697974e+00  -1.9543507e+07
   6.4121374e-10  -3.1834985e-03   2.7821987e+00   2.1717150e+00  -1.9423733e+07
   6.4221407e-10  -3.1641204e-03   2.7804456e+00   2.1736217e+00  -1.9304694e+07
   6.4321440e-10  -3.1448610e-03   2.7787033e+00   2.1755176e+00  -1.9186383e+07
   6.4421474e-10  -3.1257196e-03   2.7769716e+00   2.1774027e+00  -1.9068799e+07
   6.4521507e-10  -3.1066954e-03   2.7752506e+00   2.1792770e+00  -1.8951935e+07
   6.4621541e-10  -3.0877878e-03   2.7735402e+00   2.1811406e+00  -1.8835788e+07
   6.4721574e-10  -3.0689960e-03   2.7718403e+00   2.1829936e+00  -1.8720353e+07
   6.4821607e-10  -3.0503193e-03   2.7701508e+00   2.1848361e+00  -1.8605627e+07
   6.4921641e-10  -3.0317571e-03   2.7684718e+00   2.1866680e+00  -1.8491605e+07
   6.5021674e-10  -3.0133085e-03   2.7668030e+00   2.1884894e+00  -1.8378282e+07
   6.5121707e-10  -2.9949729e-03   2.7651445e+00   2.1903004e+00  -1.8265655e+07
   6.5221741e-10  -2.9767497e-03   2.7634962e+00   2.1921011e+00  -1.8153719e+07
   6.5321774e-10  -2.9586381e-03   2.7618581e+00   2.1938914e+00  -1.8042470e+07
   6.5421807e-10  -2.9406374e-03   2.7602300e+00   2.1956715e+00  -1.7931905e+07
   6.5521841e-10  -2.9227470e-03   2.7586119e+00   2.1974414e+00  -1.7822019e+07
   6.5621874e-10  -2.9049662e-03   2.7570038e+00   2.1992012e+00  -1.7712807e+07
   6.5721907e-10  -2.8872943e-03   2.7554055e+00   2.2009508e+00  -1.7604266e+07
   6.5821941e-10  -2.8697306e-03   2.7538171e+00   2.2026904e+00  -1.7496393e+07
   6.5921974e-10  -2.8522745e-03   2.7522385e+00   2.2044201e+00  -1.7389182e+07
   6.6022007e-10  -2.8349253e-03   2.7506695e+00   2.2061398e+00  -1.7282630e+07
   6.6122041e-10  -2.8176824e-03   2.7491102e+00   2.2078496e+00  -1.7176732e+07
   6.6222074e-10  -2.8005451e-03   2.7475605e+00   2.2095496e+00  -1.7071486e+07
   6.6322107e-10  -2.7835128e-03   2.7460204e+00   2.2112398e+00  -1.6966887e+07
   6.6422141e-10  -2.7665847e-03   2.7444897e+00   2.2129202e+00  -1.6862931e+07
   6.6522174e-10  -2.7497604e-03   2.7429684e+00   2.2145910e+00  -1.6759614e+07
   6.6622207e-10  -2.7330391e-03   2.7414565e+00   2.2162522e+00  -1.6656933e+07
   6.6722241e-10  -2.7164201e-03   2.7399539e+00   2.2179038e+00  -1.6554883e+07
   6.6822274e-10  -2.6999030e-03   2.7384605e+00   2.2195459e+00  -1.6453461e+07
   6.6922307e-10  -2.6834870e-03   2.7369763e+00   2.2211785e+00  -1.6352663e+07
   6.7022341e-10  -2.6671715e-03   2.7355013e+00   2.2228017e+00  -1.6252485e+07
   6.7122374e-10  -2.6509560e-03   2.7340353e+00   2.2244155e+00  -1.6152924e+07
   6.7222407e-10  -2.6348397e-03   2.7325784e+00   2.2260200e+00  -1.6053975e+07
   6.7322441e-10  -2.6188221e-03   2.7311304e+00   2.2276152e+00  -1.5955636e+07
   6.7422474e-10  -2.6029026e-03   2.7296913e+00   2.2292012e+00  -1.5857901e+07
   6.7522508e-10  -2.5870806e-03   2.7282611e+00   2.2307781e+00  -1.5760769e+07
   6.7622541e-10  -2.5713554e-03   2.7268396e+00   2.2323458e+00  -1.5664235e+07
   6.7722574e-10  -2.5557266e-03   2.7254270e+00   2.2339044e+00  -1.5568295e+07
   6.7822608e-10  -2.5401934e-03   2.7240230e+00   2.2354541e+00  -1.5472946e+07
   6.7922641e-10  -2.5247553e-03   2.7226276e+00   2.2369947e+00  -1.5378184e+07
   6.8022674e-10  -2.5094117e-03   2.7212409e+00   2.2385264e+00  -1.5284006e+07
   6.8122708e-10  -2.4941620e-03   2.7198626e+00   2.2400492e+00  -1.5190408e+07
   6.8222741e-10  -2.4790057e-03   2.7184929e+00   2.2415633e+00  -1.5097386e+07
   6.8322774e-10  -2.4639422e-03   2.7171316e+00   2.2430685e+00  -1.5004938e+07
   6.8422808e-10  -2.4489709e-03   2.7157786e+00   2.2445650e+00  -1.4913060e+07
   6.8522841e-10  -2.4340912e-03   2.7144340e+00   2.2460528e+00  -1.4821748e+07
   6.8622874e-10  -2.4193026e-03   2.7130977e+00   2.2475319e+00  -1.4730998e+07
   6.8722908e-10  -2.4046045e-03   2.7117695e+00   2.2490025e+00  -1.4640808e+07
   6.8822941e-10  -2.3899963e-03   2.7104496e+00   2.2504645e+00  -1.4551174e+07
   6.8922974e-10  -2.3754776e-03   2.7091377e+00   2.2519181e+00  -1.4462092e+07
   6.9023008e-10  -2.3610477e-03   2.7078340e+00   2.2533631e+00  -1.4373560e+07
   6.9123041e-10  -2.3467061e-03   2.7065382e+00   2.2547998e+00  -1.4285574e+07
   6.9223074e-10  -2.3324522e-03   2.7052505e+00   2.2562281e+00  -1.4198130e+07
   6.9323108e-10  -2.3182856e-03   2.7039706e+00   2.2576481e+00  -1.4111225e+07
   6.9423141e-10  -2.3042057e-03   2.7026987e+00   2.2590598e+00  -1.4024857e+07
   6.9523174e-10  -2.2902119e-03   2.7014345e+00   2.2604633e+00  -1.3939021e+07
   6.9623208e-10  -2.2763037e-03   2.7001781e+00   2.2618587e+00  -1.3853714e+07
   6.9723241e-10  -2.2624806e-03   2.6989295e+00   2.2632459e+00  -1.3768934e+07
   6.9823274e-10  -2.2487421e-03   2.6976885e+00   2.2646250e+00  -1.3684677e+07
   6.9923308e-10  -2.2350876e-03   2.6964552e+00   2.2659960e+00  -1.3600940e+07
   7.0023341e-10  -2.2215167e-03   2.6952295e+00   2.2673591e+00  -1.3517719e+07
   7.0123374e-10  -2.2080287e-03   2.6940113e+00   2.2687142e+00  -1.3435012e+07
   7.0223408e-10  -2.1946233e-03   2.6928006e+00   2.2700614e+00  -1.3352815e+07
   7.0323441e-10  -2.1812998e-03   2.6915973e+00   2.2714007e+00  -1.3271126e+07
   7.0423474e-10  -2.1680579e-03   2.6904015e+00   2.2727322e+00  -1.3189940e+07
   7.0523508e-10  -2.1548969e-03   2.6892130e+00   2.2740560e+00  -1.3109256e+07
   7.0623541e-10  -2.1418164e-03   2.6880318e+00   2.2753720e+00  -1.3029070e+07
   7.0723575e-10  -2.1288158e-03   2.6868578e+00   2.2766803e+00  -1.2949379e+07
   7.0823608e-10  -2.1158948e-03   2.6856911e+00   2.2779809e+00  -1.2870179e+07
   7.0923641e-10  -2.1030528e-03   2.6845316e+00   2.2792740e+00  -1.2791469e+07
   7.1023675e-10  -2.0902892e-03   2.6833792e+00   2.2805594e+00  -1.2713244e+07
   7.1123708e-10  -2.0776038e-03   2.6822339e+00   2.2818374e+00  -1.2635503e+07
   7.1223741e-10  -2.0649958e-03   2.6810956e+00   2.2831079e+00  -1.2558242e+07
   7.1323775e-10  -2.0524650e-03   2.6799643e+00   2.2843709e+00  -1.2481457e+07
   7.1423808e-10  -2.0400107e-03   2.6788400e+00   2.2856265e+00  -1.2405147e+07
   7.1523841e-10  -2.0276325e-03   2.6777226e+00   2.2868748e+00  -1.2329308e+07
   7.1623875e-10  -2.0153300e-03   2.6766120e+00   2.2881158e+00  -1.2253937e+07
   7.1723908e-10  -2.0031027e-03   2.6755083e+00   2.2893495e+00  -1.2179032e+07
   7.1823941e-10  -1.9909501e-03   2.6744114e+00   2.2905759e+00  -1.2104589e+07
   7.1923975e-10  -1.9788718e-03   2.6733212e+00   2.2917952e+00  -1.2030606e+07
   7.2024008e-10  -1.9668673e-03   2.6722377e+00   2.2930073e+00  -1.1957080e+07
   7.2124041e-10  -1.9549361e-03   2.6711609e+00   2.2942123e+00  -1.1884009e+07
   7.2224075e-10  -1.9430779e-03   2.6700907e+00   2.2954103e+00  -1.1811388e+07
   7.2324108e-10  -1.9312920e-03   2.6690270e+00   2.2966012e+00  -1.1739216e+07
   7.2424141e-10  -1.9195782e-03   2.6679699e+00   2.2977851e+00  -1.1667490e+07
   7.2524175e-10  -1.9079359e-03   2.6669193e+00   2.2989620e+00  -1.1596207e+07
   7.2624208e-10  -1.8963648e-03   2.6658752e+00   2.3001321e+00  -1.1525365e+07
   7.2724241e-10  -1.8848643e-03   2.6648374e+00   2.3012952e+00  -1.1454960e+07
   7.2824275e-10  -1.8734340e-03   2.6638061e+00   2.3024516e+00  -1.1384989e+07
   7.2924308e-10  -1.8620736e-03   2.6627811e+00   2.3036011e+00  -1.1315452e+07
   7.3024341e-10  -1.8507825e-03   2.6617623e+00   2.3047439e+00  -1.1246343e+07
   7.3124375e-10  -1.8395604e-03   2.6607499e+00   2.3058800e+00  -1.1177662e+07
   7.3224408e-10  -1.8284068e-03   2.6597436e+00   2.3070093e+00  -1.1109405e+07
   7.3324441e-10  -1.8173213e-03   2.6587435e+00   2.3081321e+00  -1.1041570e+07
   7.3424475e-10  -1.8063035e-03   2.6577496e+00   2.3092482e+00  -1.0974154e+07
   7.3524508e-10  -1.7953529e-03   2.6567618e+00   2.3103578e+00  -1.0907154e+07
   7.3624542e-10  -1.7844692e-03   2.6557800e+00   2.3114608e+00  -1.0840569e+07
   7.3724575e-10  -1.7736519e-03   2.6548043e+00   2.3125574e+00  -1.0774395e+07
   7.3824608e-10  -1.7629006e-03   2.6538345e+00   2.3136474e+00  -1.0708629e+07
   7.3924642e-10  -1.7522150e-03   2.6528707e+00   2.3147311e+00  -1.0643270e+07
   7.4024675e-10  -1.7415945e-03   2.6519129e+00   2.3158084e+00  -1.0578315e+07
   7.4124708e-10  -1.7310389e-03   2.6509609e+00   2.3168793e+00  -1.0513761e+07
   7.4224742e-10  -1.7205476e-03   2.6500147e+00   2.3179439e+00  -1.0449606e+07
   7.4324775e-10  -1.7101204e-03   2.6490744e+00   2.3190023e+00  -1.0385847e+07
   7.4424808e-10  -1.6997568e-03   2.6481398e+00   2.3200544e+00  -1.0322483e+07
   7.4524842e-10  -1.6894564e-03   2.6472109e+00   2.3211003e+00  -1.0259509e+07
   7.4624875e-10  -1.6792189e-03   2.6462878e+00   2.3221401e+00  -1.0196925e+07
   7.4724908e-10  -1.6690438e-03   2.6453703e+00   2.3231737e+00  -1.0134728e+07
   7.4824942e-10  -1.6589307e-03   2.6444585e+00   2.3242012e+00  -1.0072915e+07
   7.4924975e-10  -1.6488794e-03   2.6435522e+00   2.3252226e+00  -1.0011483e+07
   7.5025008e-10  -1.6388893e-03   2.6426515e+00   2.3262381e+00  -9.9504314e+06
   7.5125042e-10  -1.6289601e-03   2.6417563e+00   2.3272475e+00  -9.8897568e+06
   7.5225075e-10  -1.6190915e-03   2.6408666e+00   2.3282510e+00  -9.8294571e+06
   7.5325108e-10  -1.6092831e-03   2.6399824e+00   2.3292485e+00  -9.7695299e+06
   7.5425142e-10  -1.5995344e-03   2.6391036e+00   2.3302402e+00  -9.7099728e+06
   7.5525175e-10  -1.5898452e-03   2.6382302e+00   2.3312260e+00  -9.6507837e+06
   7.5625208e-10  -1.5802150e-03   2.6373621e+00   2.3322060e+00  -9.5919603e+06
   7.5725242e-10  -1.5706435e-03   2.6364994e+00   2.3331802e+00  -9.5335002e+06
   7.5825275e-10  -1.5611304e-03   2.6356419e+00   2.3341486e+00  -9.4754012e+06
   7.5925308e-10  -1.5516753e-03   2.6347897e+00   2.3351113e+00  -9.4176611e+06
   7.6025342e-10  -1.5422777e-03   2.6339427e+00   2.3360684e+00  -9.3602776e+06
   7.6125375e-10  -1.5329374e-03   2.6331010e+00   2.3370197e+00  -9.3032486e+06
   7.6225408e-10  -1.5236541e-03   2.6322643e+00   2.3379655e+00  -9.2465718e+06
   7.6325442e-10  -1.5144273e-03   2.6314328e+00   2.3389057e+00  -9.1902451e+06
   7.6425475e-10  -1.5052566e-03   2.6306064e+00   2.3398403e+00  -9.1342662e+06
   7.6525509e-10  -1.4961419e-03   2.6297851e+00   2.3407693e+00  -9.0786331e+06
   7.6625542e-10  -1.4870827e-03   2.6289687e+00   2.3416929e+00  -9.0233435e+06
   7.6725575e-10  -1.4780786e-03   2.6281574e+00   2.3426110e+00  -8.9683953e+06
   7.6825609e-10  -1.4691294e-03   2.6273511e+00   2.3435237e+00  -8.9137864e+06
   7.6925642e-10  -1.4602347e-03   2.6265497e+00   2.3444310e+00  -8.8595147e+06
   7.7025675e-10  -1.4513941e-03   2.6257532e+00   2.3453329e+00  -8.8055782e+06
   7.7125709e-10  -1.4426074e-03   2.6249616e+00   2.3462295e+00  -8.7519746e+06
   7.7225742e-10  -1.4338741e-03   2.6241748e+00   2.3471208e+00  -8.6987020e+06
   7.7325775e-10  -1.4251941e-03   2.6233928e+00   2.3480068e+00  -8.6457583e+06
   7.7425809e-10  -1.4165668e-03   2.6226156e+00   2.3488875e+00  -8.5931414e+06
   7.7525842e-10  -1.4079921e-03   2.6218432e+00   2.3497631e+00  -8.5408493e+06
   7.7625875e-10  -1.3994696e-03   2.6210755e+00   2.3506334e+00  -8.4888799e+06
   7.7725909e-10  -1.3909989e-03   2.6203125e+00   2.3514986e+00  -8.4372314e+06
   7.7825942e-10  -1.3825797e-03   2.6195542e+00   2.3523587e+00  -8.3859016e+06
   7.7925975e-10  -1.3742118e-03   2.6188005e+00   2.3532137e+00  -8.3348886e+06
   7.8026009e-10  -1.3658949e-03   2.6180514e+00   2.3540636e+00  -8.2841905e+06
   7.8126042e-10  -1.3576285e-03   2.6173070e+00   2.3549085e+00  -8.2338051e+06
   7.8226075e-10  -1.3494124e-03   2.6165670e+00   2.3557484e+00  -8.1837307e+06
   7.8326109e-10  -1.3412462e-03   2.6158316e+00   2.3565833e+00  -8.1339652e+06
   7.8426142e-10  -1.3331298e-03   2.6151007e+00   2.3574133e+00  -8.0845068e+06
   7.8526175e-10  -1.3250627e-03   2.6143742e+00   2.3582383e+00  -8.0353535e+06
   7.8626209e-10  -1.3170446e-03   2.6136522e+00   2.3590584e+00  -7.9865034e+06
   7.8726242e-10  -1.3090753e-03   2.6129346e+00   2.3598737e+00  -7.9379547e+06
   7.8826275e-10  -1.3011545e-03   2.6122214e+00   2.3606842e+00  -7.8897054e+06
   7.8926309e-10  -1.2932819e-03   2.6115126e+00   2.3614898e+00  -7.8417537e+06
   7.9026342e-10  -1.2854570e-03   2.6108081e+00   2.3622907e+00  -7.7940977e+06
   7.9126375e-10  -1.2776798e-03   2.6101079e+00   2.3630868e+00  -7.7467356e+06
   7.9226409e-10  -1.2699498e-03   2.6094119e+00   2.3638782e+00  -7.6996655e+06
   7.9326442e-10  -1.2622668e-03   2.6087203e+00   2.3646649e+00  -7.6528857e+06
   7.9426475e-10  -1.2546306e-03   2.6080328e+00   2.3654470e+00  -7.6063942e+06
   7.9526509e-10  -1.2470407e-03   2.6073496e+00   2.3662244e+00  -7.5601894e+06
   7.9626542e-10  -1.2394969e-03   2.6066705e+00   2.3669972e+00  -7.5142694e+06
   7.9726576e-10  -1.2319990e-03   2.6059956e+00   2.3677654e+00  -7.4686324e+06
   7.9826609e-10  -1.2245466e-03   2.6053248e+00   2.3685290e+00  -7.4232767e+06
   7.9926642e-10  -1.2171395e-03   2.6046581e+00   2.3692881e+00  -7.3782006e+06
   8.0026676e-10  -1.2097774e-03   2.6039954e+00   2.3700427e+00  -7.3334022e+06
   8.0126709e-10  -1.2024600e-03   2.6033368e+00   2.3707929e+00  -7.2888798e+06
   8.0226742e-10  -1.1951870e-03   2.6026822e+00   2.3715385e+00  -7.2446317e+06
   8.0326776e-10  -1.1879582e-03   2.6020317e+00   2.3722798e+00  -7.2006563e+06
   8.0426809e-10  -1.1807733e-03   2.6013851e+00   2.3730167e+00  -7.1569517e+06
   8.0526842e-10  -1.1736321e-03   2.6007424e+00   2.3737491e+00  -7.1135163e+06
   8.0626876e-10  -1.1665342e-03   2.6001037e+00   2.3744773e+00  -7.0703484e+06
   8.0726909e-10  -1.1594794e-03   2.5994688e+00   2.3752011e+00  -7.0274464e+06
   8.0826942e-10  -1.1524674e-03   2.5988379e+00   2.3759206e+00  -6.9848086e+06
   8.0926976e-10  -1.1454980e-03   2.5982107e+00   2.3766358e+00  -6.9424333e+06
   8.1027009e-10  -1.1385709e-03   2.5975875e+00   2.3773468e+00  -6.9003188e+06
   8.1127042e-10  -1.1316858e-03   2.5969680e+00   2.3780536e+00  -6.8584636e+06
   8.1227076e-10  -1.1248425e-03   2.5963523e+00   2.3787561e+00  -6.8168661e+06
   8.1327109e-10  -1.1180407e-03   2.5957403e+00   2.3794545e+00  -6.7755246e+06
   8.1427142e-10  -1.1112802e-03   2.5951321e+00   2.3801488e+00  -6.7344375e+06
   8.1527176e-10  -1.1045608e-03   2.5945276e+00   2.3808389e+00  -6.6936032e+06
   8.1627209e-10  -1.0978821e-03   2.5939267e+00   2.3815249e+00  -6.6530202e+06
   8.1727242e-10  -1.0912439e-03   2.5933296e+00   2.3822069e+00  -6.6126868e+06
   8.1827276e-10  -1.0846459e-03   2.5927360e+00   2.3828848e+00  -6.5726015e+06
   8.1927309e-10  -1.0780880e-03   2.5921461e+00   2.3835586e+00  -6.5327629e+06
   8.2027342e-10  -1.0715699e-03   2.5915598e+00   2.3842285e+00  -6.4931692e+06
   8.2127376e-10  -1.0650913e-03   2.5909771e+00   2.3848944e+00  -6.4538190e+06
   8.2227409e-10  -1.0586519e-03   2.5903979e+00   2.3855563e+00  -6.4147107e+06
   8.2327442e-10  -1.0522517e-03   2.5898222e+00   2.3862143e+00  -6.3758429e+06
   8.2427476e-10  -1.0458902e-03   2.5892501e+00   2.3868684e+00  -6.3372141e+06
   8.2527509e-10  -1.0395673e-03   2.5886814e+00   2.3875186e+00  -6.2988227e+06
   8.2627543e-10  -1.0332827e-03   2.5881162e+00   2.3881649e+00  -6.2606672e+06
   8.2727576e-10  -1.0270362e-03   2.5875544e+00   2.3888074e+00  -6.2227462e+06
   8.2827609e-10  -1.0208276e-03   2.5869961e+00   2.3894460e+00  -6.1850582e+06
   8.2927643e-10  -1.0146566e-03   2.5864411e+00   2.3900809e+00  -6.1476018e+06
   8.3027676e-10  -1.0085230e-03   2.5858896e+00   2.3907120e+00  -6.1103755e+06
   8.3127709e-10  -1.0024266e-03   2.5853414e+00   2.3913393e+00  -6.0733778e+06
   8.3227743e-10  -9.9636707e-04   2.5847965e+00   2.3919630e+00  -6.0366074e+06
   8.3327776e-10  -9.9034429e-04   2.5842549e+00   2.3925829e+00  -6.0000627e+06
   8.3427809e-10  -9.8435800e-04   2.5837167e+00   2.3931991e+00  -5.9637425e+06
   8.3527843e-10  -9.7840797e-04   2.5831817e+00   2.3938116e+00  -5.9276452e+06
   8.3627876e-10  -9.7249398e-04   2.5826500e+00   2.3944205e+00  -5.8917695e+06
   8.3727909e-10  -9.6661582e-04   2.5821215e+00   2.3950258e+00  -5.8561141e+06
   8.3827943e-10  -9.6077325e-04   2.5815962e+00   2.3956275e+00  -5.8206774e+06
   8.3927976e-10  -9.5496607e-04   2.5810741e+00   2.3962256e+00  -5.7854582e+06
   8.4028009e-10  -9.4919406e-04   2.5805552e+00   2.3968202e+00  -5.7504551e+06
   8.4128043e-10  -9.4345699e-04   2.5800395e+00   2.3974112e+00  -5.7156667e+06
   8.4228076e-10  -9.3775467e-04   2.5795269e+00   2.3979987e+00  -5.6810918e+06
   8.4328109e-10  -9.3208686e-04   2.5790174e+00   2.3985827e+00  -5.6467288e+06
   8.4428143e-10  -9.2645337e-04   2.5785110e+00   2.3991632e+00  -5.6125766e+06
   8.4528176e-10  -9.2085398e-04   2.5780077e+00   2.3997403e+00  -5.5786338e+06
   8.4628209e-10  -9.1528848e-04   2.5775074e+00   2.4003139e+00  -5.5448991e+06
   8.4728243e-10  -9.0975667e-04   2.5770102e+00   2.4008841e+00  -5.5113712e+06
   8.4828276e-10  -9.0425833e-04   2.5765160e+00   2.4014510e+00  -5.4780488e+06
   8.4928309e-10  -8.9879328e-04   2.5760248e+00   2.4020144e+00  -5.4449306e+06
   8.5028343e-10  -8.9336129e-04   2.5755366e+00   2.4025746e+00  -5.4120154e+06
   8.5128376e-10  -8.8796216e-04   2.5750514e+00   2.4031313e+00  -5.3793018e+06
   8.5228409e-10  -8.8259571e-04   2.5745691e+00   2.4036848e+00  -5.3467885e+06
   8.5328443e-10  -8.7726172e-04   2.5740897e+00   2.4042350e+00  -5.3144745e+06
   8.5428476e-10  -8.7196000e-04   2.5736133e+00   2.4047818e+00  -5.2823583e+06
   8.5528510e-10  -8.6669035e-04   2.5731398e+00   2.4053255e+00  -5.2504388e+06
   8.5628543e-10  -8.6145258e-04   2.5726691e+00   2.4058659e+00  -5.2187147e+06
   8.5728576e-10  -8.5624648e-04   2.5722013e+00   2.4064031e+00  -5.1871848e+06
   8.5828610e-10  -8.5107187e-04   2.5717363e+00   2.4069371e+00  -5.1558479e+06
   8.5928643e-10  -8.4592856e-04   2.5712741e+00   2.4074679e+00  -5.1247028e+06
   8.6028676e-10  -8.4081634e-04   2.5708148e+00   2.4079955e+00  -5.0937482e+06
   8.6128710e-10  -8.3573504e-04   2.5703582e+00   2.4085200e+00  -5.0629831e+06
   8.6228743e-10  -8.3068446e-04   2.5699045e+00   2.4090414e+00  -5.0324061e+06
   8.6328776e-10  -8.2566442e-04   2.5694534e+00   2.4095597e+00  -5.0020161e+06
   8.6428810e-10  -8.2067472e-04   2.5690051e+00   2.4100749e+00  -4.9718121e+06
   8.6528843e-10  -8.1571519e-04   2.5685596e+00   2.4105870e+00  -4.9417926e+06
   8.6628876e-10  -8.1078564e-04   2.5681167e+00   2.4110961e+00  -4.9119568e+06
   8.6728910e-10  -8.0588588e-04   2.5676765e+00   2.4116021e+00  -4.8823033e+06
   8.6828943e-10  -8.0101573e-04   2.5672390e+00   2.4121052e+00  -4.8528310e+06
   8.6928976e-10  -7.9617502e-04   2.5668042e+00   2.4126052e+00  -4.8235389e+06
   8.7029010e-10  -7.9136356e-04   2.5663720e+00   2.4131023e+00  -4.7944257e+06
   8.7129043e-10  -7.8658118e-04   2.5659424e+00   2.4135964e+00  -4.7654904e+06
   8.7229076e-10  -7.8182769e-04   2.5655154e+00   2.4140875e+00  -4.7367318e+06
   8.7329110e-10  -7.7710292e-04   2.5650910e+00   2.4145757e+00  -4.7081489e+06
   8.7429143e-10  -7.7240670e-04   2.5646692e+00   2.4150611e+00  -4.6797405e+06
   8.7529176e-10  -7.6773885e-04   2.5642499e+00   2.4155435e+00  -4.6515056e+06
   8.7629210e-10  -7.6309919e-04   2.5638332e+00   2.4160231e+00  -4.6234430e+06
   8.7729243e-10  -7.5848757e-04   2.5634190e+00   2.4164998e+00  -4.5955518e+06
   8.7829276e-10  -7.5390380e-04   2.5630073e+00   2.4169736e+00  -4.5678307e+06
   8.7929310e-10  -7.4934771e-04   2.5625981e+00   2.4174447e+00  -4.5402788e+06
   8.8029343e-10  -7.4481914e-04   2.5621914e+00   2.4179129e+00  -4.5128950e+06
   8.8129376e-10  -7.4031792e-04   2.5617872e+00   2.4183783e+00  -4.4856783e+06
   8.8229410e-10  -7.3584388e-04   2.5613854e+00   2.4188410e+00  -4.4586275e+06
   8.8329443e-10  -7.3139685e-04   2.5609861e+00   2.4193009e+00  -4.4317418e+06
   8.8429476e-10  -7.2697668e-04   2.5605891e+00   2.4197581e+00  -4.4050199e+06
   8.8529510e-10  -7.2258319e-04   2.5601946e+00   2.4202126e+00  -4.3784610e+06
   8.8629543e-10  -7.1821623e-04   2.5598025e+00   2.4206643e+00  -4.3520639e+06
   8.8729577e-10  -7.1387564e-04   2.5594127e+00   2.4211134e+00  -4.3258278e+06
   8.8829610e-10  -7.0956124e-04   2.5590253e+00   2.4215597e+00  -4.2997515e+06
   8.8929643e-10  -7.0527289e-04   2.5586403e+00   2.4220035e+00  -4.2738341e+06
   8.9029677e-10  -7.0101043e-04   2.5582575e+00   2.4224445e+00  -4.2480745e+06
   8.9129710e-10  -6.9677369e-04   2.5578771e+00   2.4228830e+00  -4.2224719e+06
   8.9229743e-10  -6.9256252e-04   2.5574990e+00   2.4233188e+00  -4.1970252e+06
   8.9329777e-10  -6.8837677e-04   2.5571232e+00   2.4237520e+00  -4.1717335e+06
   8.9429810e-10  -6.8421627e-04   2.5567497e+00   2.4241827e+00  -4.1465957e+06
   8.9529843e-10  -6.8008089e-04   2.5563784e+00   2.4246108e+00  -4.1216109e+06
   8.9629877e-10  -6.7597046e-04   2.5560094e+00   2.4250363e+00  -4.0967782e+06
   8.9729910e-10  -6.7188482e-04   2.5556426e+00   2.4254593e+00  -4.0720967e+06
   8.9829943e-10  -6.6782384e-04   2.5552781e+00   2.4258798e+00  -4.0475653e+06
   8.9929977e-10  -6.6378737e-04   2.5549157e+00   2.4262978e+00  -4.0231831e+06
   9.0030010e-10  -6.5977524e-04   2.5545556e+00   2.4267132e+00  -3.9989492e+06
   9.0130043e-10  -6.5578732e-04   2.5541976e+00   2.4271262e+00  -3.9748627e+06
   9.0230077e-10  -6.5182345e-04   2.5538418e+00   2.4275368e+00  -3.9509227e+06
   9.0330110e-10  -6.4788349e-04   2.5534881e+00   2.4279449e+00  -3.9271283e+06
   9.0430143e-10  -6.4396730e-04   2.5531366e+00   2.4283505e+00  -3.9034784e+06
   9.0530177e-10  -6.4007473e-04   2.5527872e+00   2.4287538e+00  -3.8799724e+06
   9.0630210e-10  -6.3620564e-04   2.5524399e+00   2.4291546e+00  -3.8566091e+06
   9.0730243e-10  -6.3235988e-04   2.5520947e+00   2.4295531e+00  -3.8333878e+06
   9.0830277e-10  -6.2853732e-04   2.5517516e+00   2.4299491e+00  -3.8103076e+06
   9.0930310e-10  -6.2473780e-04   2.5514106e+00   2.4303429e+00  -3.7873676e+06
   9.1030343e-10  -6.2096120e-04   2.5510717e+00   2.4307342e+00  -3.7645669e+06
   9.1130377e-10  -6.1720737e-04   2.5507348e+00   2.4311233e+00  -3.7419047e+06
   9.1230410e-10  -6.1347618e-04   2.5503999e+00   2.4315100e+00  -3.7193800e+06
   9.1330443e-10  -6.0976748e-04   2.5500671e+00   2.4318944e+00  -3.6969921e+06
   9.1430477e-10  -6.0608114e-04   2.5497363e+00   2.4322765e+00  -3.6747401e+06
   9.1530510e-10  -6.0241703e-04   2.5494074e+00   2.4326563e+00  -3.6526231e+06
   9.1630544e-10  -5.9877501e-04   2.5490806e+00   2.4330339e+00  -3.6306403e+06
   9.1730577e-10  -5.9515494e-04   2.5487557e+00   2.4334092e+00  -3.6087909e+06
   9.1830610e-10  -5.9155670e-04   2.5484329e+00   2.4337823e+00  -3.5870740e+06
   9.1930644e-10  -5.8798014e-04   2.5481119e+00   2.4341532e+00  -3.5654888e+06
   9.2030677e-10  -5.8442515e-04   2.5477929e+00   2.4345218e+00  -3.5440346e+06
   9.2130710e-10  -5.8089158e-04   2.5474759e+00   2.4348882e+00  -3.5227104e+06
   9.2230744e-10  -5.7737931e-04   2.5471607e+00   2.4352525e+00  -3.5015154e+06
   9.2330777e-10  -5.7388821e-04   2.5468475e+00   2.4356146e+00  -3.4804490e+06
   9.2430810e-10  -5.7041815e-04   2.5465361e+00   2.4359745e+00  -3.4595102e+06
   9.2530844e-10  -5.6696900e-04   2.5462266e+00   2.4363323e+00  -3.4386983e+06
   9.2630877e-10  -5.6354064e-04   2.5459190e+00   2.4366879e+00  -3.4180124e+06
   9.2730910e-10  -5.6013294e-04   2.5456133e+00   2.4370415e+00  -3.3974519e+06
   9.2830944e-10  -5.5674578e-04   2.5453094e+00   2.4373929e+00  -3.3770159e+06
   9.2930977e-10  -5.5337902e-04   2.5450073e+00   2.4377422e+00  -3.3567037e+06
   9.3031010e-10  -5.5003256e-04   2.5447071e+00   2.4380894e+00  -3.3365145e+06
   9.3131044e-10  -5.4670625e-04   2.5444087e+00   2.4384346e+00  -3.3164475e+06
   9.3231077e-10  -5.4339999e-04   2.5441121e+00   2.4387777e+00  -3.2965019e+06
   9.3331110e-10  -5.4011365e-04   2.5438173e+00   2.4391188e+00  -3.2766771e+06
   9.3431144e-10  -5.3684711e-04   2.5435242e+00   2.4394578e+00  -3.2569722e+06
   9.3531177e-10  -5.3360025e-04   2.5432330e+00   2.4397948e+00  -3.2373866e+06
   9.3631210e-10  -5.3037295e-04   2.5429435e+00   2.4401298e+00  -3.2179194e+06
   9.3731244e-10  -5.2716509e-04   2.5426557e+00   2.4404627e+00  -3.1985700e+06
   9.3831277e-10  -5.2397656e-04   2.5423697e+00   2.4407937e+00  -3.1793377e+06
   9.3931310e-10  -5.2080723e-04   2.5420854e+00   2.4411228e+00  -3.1602216e+06
   9.4031344e-10  -5.1765700e-04   2.5418028e+00   2.4414498e+00  -3.1412211e+06
   9.4131377e-10  -5.1452574e-04   2.5415220e+00   2.4417749e+00  -3.1223355e+06
   9.4231410e-10  -5.1141335e-04   2.5412428e+00   2.4420981e+00  -3.1035640e+06
   9.4331444e-10  -5.0831970e-04   2.5409653e+00   2.4424194e+00  -3.0849059e+06
   9.4431477e-10  -5.0524469e-04   2.5406895e+00   2.4427387e+00  -3.0663607e+06
   9.4531511e-10  -5.0218820e-04   2.5404154e+00   2.4430561e+00  -3.0479274e+06
   9.4631544e-10  -4.9915011e-04   2.5401429e+00   2.4433716e+00  -3.0296055e+06
   9.4731577e-10  -4.9613033e-04   2.5398720e+00   2.4436853e+00  -3.0113943e+06
   9.4831611e-10  -4.9312873e-04   2.5396028e+00   2.4439970e+00  -2.9932931e+06
   9.4931644e-10  -4.9014521e-04   2.5393352e+00   2.4443069e+00  -2.9753011e+06
   9.5031677e-10  -4.8717966e-04   2.5390693e+00   2.4446150e+00  -2.9574178e+06
   9.5131711e-10  -4.8423197e-04   2.5388049e+00   2.4449212e+00  -2.9396425e+06
   9.5231744e-10  -4.8130203e-04   2.5385422e+00   2.4452256e+00  -2.9219744e+06
   9.5331777e-10  -4.7838974e-04   2.5382810e+00   2.4455282e+00  -2.9044130e+06
   9.5431811e-10  -4.7549498e-04   2.5380214e+00   2.4458289e+00  -2.8869575e+06
   9.5531844e-10  -4.7261766e-04   2.5377634e+00   2.4461279e+00  -2.8696073e+06
   9.5631877e-10  -4.6975766e-04   2.5375069e+00   2.4464251e+00  -2.8523619e+06
   9.5731911e-10  -4.6691488e-04   2.5372520e+00   2.4467205e+00  -2.8352204e+06
   9.5831944e-10  -4.6408923e-04   2.5369986e+00   2.4470141e+00  -2.8181823e+06
   9.5931977e-10  -4.6128058e-04   2.5367467e+00   2.4473060e+00  -2.8012470e+06
   9.6032011e-10  -4.5848885e-04   2.5364964e+00   2.4475962e+00  -2.7844138e+06
   9.6132044e-10  -4.5571393e-04   2.5362476e+00   2.4478846e+00  -2.7676820e+06
   9.6232077e-10  -4.5295572e-04   2.5360003e+00   2.4481713e+00  -2.7510511e+06
   9.6332111e-10  -4.5021412e-04   2.5357544e+00   2.4484563e+00  -2.7345205e+06
   9.6432144e-10  -4.4748902e-04   2.5355101e+00   2.4487396e+00  -2.7180894e+06
   9.6532177e-10  -4.4478033e-04   2.5352672e+00   2.4490211e+00  -2.7017574e+06
   9.6632211e-10  -4.4208795e-04   2.5350258e+00   2.4493010e+00  -2.6855237e+06
   9.6732244e-10  -4.3941179e-04   2.5347859e+00   2.4495793e+00  -2.6693879e+06
   9.6832277e-10  -4.3675173e-04   2.5345474e+00   2.4498558e+00  -2.6533492e+06
   9.6932311e-10  -4.3410769e-04   2.5343103e+00   2.4501308e+00  -2.6374072e+06
   9.7032344e-10  -4.3147957e-04   2.5340747e+00   2.4504040e+00  -2.6215611e+06
   9.7132377e-10  -4.2886727e-04   2.5338405e+00   2.4506757e+00  -2.6058104e+06
   9.7232411e-10  -4.2627070e-04   2.5336077e+00   2.4509457e+00  -2.5901546e+06
   9.7332444e-10  -4.2368977e-04   2.5333763e+00   2.4512141e+00  -2.5745930e+06
   9.7432477e-10  -4.2112437e-04   2.5331463e+00   2.4514809e+00  -2.5591250e+06
   9.7532511e-10  -4.1857441e-04   2.5329177e+00   2.4517461e+00  -2.5437502e+06
   9.7632544e-10  -4.1603981e-04   2.5326905e+00   2.4520097e+00  -2.5284678e+06
   9.7732578e-10  -4.1352047e-04   2.5324647e+00   2.4522718e+00  -2.5132774e+06
   9.7832611e-10  -4.1101630e-04   2.5322402e+00   2.4525323e+00  -2.4981784e+06
   9.7932644e-10  -4.0852720e-04   2.5320170e+00   2.4527912e+00  -2.4831702e+06
   9.8032678e-10  -4.0605309e-04   2.5317953e+00   2.4530486e+00  -2.4682523e+06
   9.8132711e-10  -4.0359387e-04   2.5315748e+00   2.4533044e+00  -2.4534240e+06
   9.8232744e-10  -4.0114946e-04   2.5313557e+00   2.4535587e+00  -2.4386850e+06
   9.8332778e-10  -3.9871976e-04   2.5311379e+00   2.4538115e+00  -2.4240345e+06
   9.8432811e-10  -3.9630470e-04   2.5309214e+00   2.4540628e+00  -2.4094722e+06
   9.8532844e-10  -3.9390417e-04   2.5307062e+00   2.4543126e+00  -2.3949973e+06
   9.8632878e-10  -3.9151809e-04   2.5304924e+00   2.4545609e+00  -2.3806095e+06
   9.8732911e-10  -3.8914638e-04   2.5302798e+00   2.4548077e+00  -2.3663081e+06
   9.8832944e-10  -3.8678895e-04   2.5300685e+00   2.4550530e+00  -2.3520926e+06
   9.8932978e-10  -3.8444571e-04   2.5298585e+00   2.4552968e+00  -2.3379626e+06
   9.9033011e-10  -3.8211657e-04   2.5296497e+00   2.4555392e+00  -2.3239174e+06
   9.9133044e-10  -3.7980146e-04   2.5294422e+00   2.4557802e+00  -2.3099566e+06
   9.9233078e-10  -3.7750029e-04   2.5292359e+00   2.4560197e+00  -2.2960797e+06
   9.9333111e-10  -3.7521297e-04   2.5290309e+00   2.4562578e+00  -2.2822861e+06
   9.9433144e-10  -3.7293942e-04   2.5288272e+00   2.4564944e+00  -2.2685754e+06
   9.9533178e-10  -3.7067956e-04   2.5286246e+00   2.4567296e+00  -2.2549469e+06
   9.9633211e-10  -3.6843331e-04   2.5284233e+00   2.4569635e+00  -2.2414003e+06
   9.9733244e-10  -3.6620057e-04   2.5282232e+00   2.4571959e+00  -2.2279350e+06
   9.9833278e-10  -3.6398129e-04   2.5280243e+00   2.4574269e+00  -2.2145505e+06
   9.9933311e-10  -3.6177536e-04   2.5278266e+00   2.4576566e+00  -2.2012464e+06
   1.0003334e-09  -3.5958271e-04   2.5276301e+00   2.4578849e+00  -2.1880221e+06
   1.0013338e-09  -3.5740327e-04   2.5274348e+00   2.4581118e+00  -2.1748771e+06
   1.0023341e-09  -3.5523694e-04   2.5272407e+00   2.4583374e+00  -2.1618111e+06
   1.0033344e-09  -3.5308366e-04   2.5270477e+00   2.4585616e+00  -2.1488234e+06
   1.0043348e-09  -3.5094335e-04   2.5268559e+00   2.4587844e+00  -2.1359136e+06
   1.0053351e-09  -3.4881592e-04   2.5266653e+00   2.4590060e+00  -2.1230813e+06
   1.0063354e-09  -3.4670130e-04   2.5264758e+00   2.4592262e+00  -2.1103259e+06
   1.0073358e-09  -3.4459941e-04   2.5262874e+00   2.4594451e+00  -2.0976470e+06
   1.0083361e-09  -3.4251018e-04   2.5261002e+00   2.4596627e+00  -2.0850442e+06
   1.0093364e-09  -3.4043352e-04   2.5259141e+00   2.4598790e+00  -2.0725169e+06
   1.0103368e-09  -3.3836938e-04   2.5257291e+00   2.4600939e+00  -2.0600647e+06
   1.0113371e-09  -3.3631766e-04   2.5255453e+00   2.4603076e+00  -2.0476872e+06
   1.0123374e-09  -3.3427829e-04   2.5253626e+00   2.4605201e+00  -2.0353839e+06
   1.0133378e-09  -3.3225121e-04   2.5251809e+00   2.4607312e+00  -2.0231543e+06
   1.0143381e-09  -3.3023633e-04   2.5250004e+00   2.4609411e+00  -2.0109981e+06
   1.0153384e-09  -3.2823358e-04   2.5248209e+00   2.4611497e+00  -1.9989147e+06
   1.0163388e-09  -3.2624289e-04   2.5246426e+00   2.4613571e+00  -1.9869036e+06
   1.0173391e-09  -3.2426420e-04   2.5244653e+00   2.4615632e+00  -1.9749646e+06
   1.0183394e-09  -3.2229741e-04   2.5242891e+00   2.4617681e+00  -1.9630971e+06
   1.0193398e-09  -3.2034247e-04   2.5241139e+00   2.4619718e+00  -1.9513007e+06
   1.0203401e-09  -3.1839931e-04   2.5239398e+00   2.4621743e+00  -1.9395750e+06
   1.0213404e-09  -3.1646784e-04   2.5237667e+00   2.4623755e+00  -1.9279195e+06
   1.0223408e-09  -3.1454801e-04   2.5235947e+00   2.4625756e+00  -1.9163338e+06
   1.0233411e-09  -3.1263974e-04   2.5234238e+00   2.4627744e+00  -1.9048175e+06
   1.0243414e-09  -3.1074297e-04   2.5232538e+00   2.4629720e+00  -1.8933701e+06
   1.0253418e-09  -3.0885761e-04   2.5230849e+00   2.4631685e+00  -1.8819913e+06
   1.0263421e-09  -3.0698361e-04   2.5229170e+00   2.4633638e+00  -1.8706807e+06
   1.0273424e-09  -3.0512090e-04   2.5227501e+00   2.4635579e+00  -1.8594377e+06
   1.0283428e-09  -3.0326941e-04   2.5225843e+00   2.4637509e+00  -1.8482621e+06
   1.0293431e-09  -3.0142907e-04   2.5224194e+00   2.4639427e+00  -1.8371534e+06
   1.0303434e-09  -2.9959981e-04   2.5222555e+00   2.4641333e+00  -1.8261112e+06
   1.0313438e-09  -2.9778158e-04   2.5220926e+00   2.4643228e+00  -1.8151351e+06
   1.0323441e-09  -2.9597429e-04   2.5219307e+00   2.4645112e+00  -1.8042246e+06
   1.0333444e-09  -2.9417790e-04   2.5217698e+00   2.4646984e+00  -1.7933795e+06
   1.0343448e-09  -2.9239232e-04   2.5216098e+00   2.4648846e+00  -1.7825993e+06
   1.0353451e-09  -2.9061750e-04   2.5214509e+00   2.4650696e+00  -1.7718835e+06
   1.0363454e-09  -2.8885337e-04   2.5212928e+00   2.4652535e+00  -1.7612319e+06
   1.0373458e-09  -2.8709987e-04   2.5211357e+00   2.4654363e+00  -1.7506441e+06
   1.0383461e-09  -2.8535693e-04   2.5209796e+00   2.4656180e+00  -1.7401195e+06
   1.0393464e-09  -2.8362450e-04   2.5208244e+00   2.4657986e+00  -1.7296580e+06
   1.0403468e-09  -2.8190250e-04   2.5206702e+00   2.4659781e+00  -1.7192590e+06
   1.0413471e-09  -2.8019087e-04   2.5205168e+00   2.4661566e+00  -1.7089222e+06
   1.0423474e-09  -2.7848956e-04   2.5203644e+00   2.4663339e+00  -1.6986473e+06
   1.0433478e-09  -2.7679850e-04   2.5202130e+00   2.4665103e+00  -1.6884338e+06
   1.0443481e-09  -2.7511763e-04   2.5200624e+00   2.4666855e+00  -1.6782814e+06
   1.0453484e-09  -2.7344689e-04   2.5199128e+00   2.4668597e+00  -1.6681897e+06
   1.0463488e-09  -2.7178621e-04   2.5197640e+00   2.4670329e+00  -1.6581584e+06
   1.0473491e-09  -2.7013554e-04   2.5196162e+00   2.4672050e+00  -1.6481870e+06
   1.0483494e-09  -2.6849482e-04   2.5194692e+00   2.4673761e+00  -1.6382753e+06
   1.0493498e-09  -2.6686399e-04   2.5193231e+00   2.4675462e+00  -1.6284228e+06
   1.0503501e-09  -2.6524298e-04   2.5191779e+00   2.4677152e+00  -1.6186293e+06
   1.0513505e-09  -2.6363175e-04   2.5190336e+00   2.4678833e+00  -1.6088943e+06
   1.0523508e-09  -2.6203022e-04   2.5188902e+00   2.4680503e+00  -1.5992175e+06
   1.0533511e-09  -2.6043835e-04   2.5187476e+00   2.4682163e+00  -1.5895986e+06
   1.0543515e-09  -2.5885607e-04   2.5186059e+00   2.4683813e+00  -1.5800371e+06
   1.0553518e-09  -2.5728333e-04   2.5184650e+00   2.4685454e+00  -1.5705328e+06
   1.0563521e-09  -2.5572007e-04   2.5183250e+00   2.4687084e+00  -1.5610854e+06
   1.0573525e-09  -2.5416623e-04   2.5181858e+00   2.4688705e+00  -1.5516944e+06
   1.0583528e-09  -2.5262176e-04   2.5180475e+00   2.4690316e+00  -1.5423595e+06
   1.0593531e-09  -2.5108660e-04   2.5179100e+00   2.4691917e+00  -1.5330804e+06
   1.0603535e-09  -2.4956069e-04   2.5177734e+00   2.4693509e+00  -1.5238568e+06
   1.0613538e-09  -2.4804398e-04   2.5176375e+00   2.4695091e+00  -1.5146883e+06
   1.0623541e-09  -2.4653642e-04   2.5175025e+00   2.4696664e+00  -1.5055745e+06
   1.0633545e-09  -2.4503794e-04   2.5173683e+00   2.4698227e+00  -1.4965153e+06
   1.0643548e-09  -2.4354850e-04   2.5172349e+00   2.4699781e+00  -1.4875102e+06
   1.0653551e-09  -2.4206804e-04   2.5171023e+00   2.4701326e+00  -1.4785588e+06
   1.0663555e-09  -2.4059651e-04   2.5169706e+00   2.4702861e+00  -1.4696610e+06
   1.0673558e-09  -2.3913385e-04   2.5168396e+00   2.4704387e+00  -1.4608164e+06
   1.0683561e-09  -2.3768001e-04   2.5167094e+00   2.4705904e+00  -1.4520245e+06
   1.0693565e-09  -2.3623494e-04   2.5165800e+00   2.4707412e+00  -1.4432853e+06
   1.0703568e-09  -2.3479858e-04   2.5164513e+00   2.4708910e+00  -1.4345982e+06
   1.0713571e-09  -2.3337088e-04   2.5163235e+00   2.4710400e+00  -1.4259630e+06
   1.0723575e-09  -2.3195180e-04   2.5161964e+00   2.4711881e+00  -1.4173794e+06
   1.0733578e-09  -2.3054127e-04   2.5160701e+00   2.4713353e+00  -1.4088471e+06
   1.0743581e-09  -2.2913925e-04   2.5159445e+00   2.4714816e+00  -1.4003658e+06
   1.0753585e-09  -2.2774569e-04   2.5158198e+00   2.4716270e+00  -1.3919351e+06
   1.0763588e-09  -2.2636054e-04   2.5156957e+00   2.4717715e+00  -1.3835548e+06
   1.0773591e-09  -2.2498374e-04   2.5155724e+00   2.4719152e+00  -1.3752246e+06
   1.0783595e-09  -2.2361524e-04   2.5154499e+00   2.4720580e+00  -1.3669441e+06
   1.0793598e-09  -2.2225500e-04   2.5153281e+00   2.4722000e+00  -1.3587130e+06
   1.0803601e-09  -2.2090297e-04   2.5152070e+00   2.4723411e+00  -1.3505312e+06
   1.0813605e-09  -2.1955909e-04   2.5150867e+00   2.4724814e+00  -1.3423982e+06
   1.0823608e-09  -2.1822332e-04   2.5149671e+00   2.4726208e+00  -1.3343138e+06
   1.0833611e-09  -2.1689562e-04   2.5148482e+00   2.4727594e+00  -1.3262776e+06
   1.0843615e-09  -2.1557592e-04   2.5147300e+00   2.4728971e+00  -1.3182895e+06
   1.0853618e-09  -2.1426419e-04   2.5146126e+00   2.4730340e+00  -1.3103491e+06
   1.0863621e-09  -2.1296037e-04   2.5144958e+00   2.4731701e+00  -1.3024561e+06
   1.0873625e-09  -2.1166442e-04   2.5143798e+00   2.4733054e+00  -1.2946103e+06
   1.0883628e-09  -2.1037629e-04   2.5142644e+00   2.4734399e+00  -1.2868113e+06
   1.0893631e-09  -2.0909593e-04   2.5141498e+00   2.4735735e+00  -1.2790589e+06
   1.0903635e-09  -2.0782331e-04   2.5140359e+00   2.4737064e+00  -1.2713528e+06
   1.0913638e-09  -2.0655836e-04   2.5139226e+00   2.4738384e+00  -1.2636927e+06
   1.0923641e-09  -2.0530105e-04   2.5138100e+00   2.4739697e+00  -1.2560783e+06
   1.0933645e-09  -2.0405133e-04   2.5136981e+00   2.4741001e+00  -1.2485095e+06
   1.0943648e-09  -2.0280915e-04   2.5135869e+00   2.4742298e+00  -1.2409858e+06
   1.0953651e-09  -2.0157447e-04   2.5134764e+00   2.4743587e+00  -1.2335071e+06
   1.0963655e-09  -2.0034725e-04   2.5133665e+00   2.4744868e+00  -1.2260730e+06
   1.0973658e-09  -1.9912744e-04   2.5132573e+00   2.4746142e+00  -1.2186834e+06
   1.0983661e-09  -1.9791498e-04   2.5131487e+00   2.4747408e+00  -1.2113378e+06
   1.0993665e-09  -1.9670986e-04   2.5130408e+00   2.4748666e+00  -1.2040362e+06
   1.1003668e-09  -1.9551200e-04   2.5129336e+00   2.4749917e+00  -1.1967781e+06
   1.1013671e-09  -1.9432138e-04   2.5128270e+00   2.4751160e+00  -1.1895634e+06
   1.1023675e-09  -1.9313795e-04   2.5127210e+00   2.4752396e+00  -1.1823918e+06
   1.1033678e-09  -1.9196167e-04   2.5126157e+00   2.4753624e+00  -1.1752630e+06
   1.1043681e-09  -1.9079249e-04   2.5125110e+00   2.4754845e+00  -1.1681768e+06
   1.1053685e-09  -1.8963037e-04   2.5124070e+00   2.4756058e+00  -1.1611329e+06
   1.1063688e-09  -1.8847528e-04   2.5123036e+00   2.4757265e+00  -1.1541311e+06
   1.1073691e-09  -1.8732715e-04   2.5122008e+00   2.4758464e+00  -1.1471711e+06
   1.1083695e-09  -1.8618597e-04   2.5120986e+00   2.4759655e+00  -1.1402527e+06
   1.1093698e-09  -1.8505168e-04   2.5119971e+00   2.4760840e+00  -1.1333756e+06
   1.1103701e-09  -1.8392424e-04   2.5118962e+00   2.4762017e+00  -1.1265395e+06
   1.1113705e-09  -1.8280361e-04   2.5117958e+00   2.4763188e+00  -1.1197443e+06
   1.1123708e-09  -1.8168975e-04   2.5116961e+00   2.4764351e+00  -1.1129897e+06
   1.1133711e-09  -1.8058262e-04   2.5115970e+00   2.4765507e+00  -1.1062754e+06
   1.1143715e-09  -1.7948218e-04   2.5114985e+00   2.4766656e+00  -1.0996013e+06
   1.1153718e-09  -1.7838839e-04   2.5114006e+00   2.4767799e+00  -1.0929670e+06
   1.1163721e-09  -1.7730121e-04   2.5113033e+00   2.4768934e+00  -1.0863723e+06
   1.1173725e-09  -1.7622060e-04   2.5112065e+00   2.4770063e+00  -1.0798170e+06
   1.1183728e-09  -1.7514652e-04   2.5111104e+00   2.4771185e+00  -1.0733009e+06
   1.1193731e-09  -1.7407894e-04   2.5110148e+00   2.4772300e+00  -1.0668237e+06
   1.1203735e-09  -1.7301780e-04   2.5109198e+00   2.4773408e+00  -1.0603851e+06
   1.1213738e-09  -1.7196308e-04   2.5108254e+00   2.4774510e+00  -1.0539851e+06
   1.1223741e-09  -1.7091474e-04   2.5107315e+00   2.4775605e+00  -1.0476233e+06
   1.1233745e-09  -1.6987273e-04   2.5106383e+00   2.4776694e+00  -1.0412995e+06
   1.1243748e-09  -1.6883702e-04   2.5105456e+00   2.4777776e+00  -1.0350134e+06
   1.1253751e-09  -1.6780757e-04   2.5104534e+00   2.4778851e+00  -1.0287649e+06
   1.1263755e-09  -1.6678435e-04   2.5103618e+00   2.4779920e+00  -1.0225538e+06
   1.1273758e-09  -1.6576731e-04   2.5102708e+00   2.4780982e+00  -1.0163798e+06
   1.1283761e-09  -1.6475643e-04   2.5101803e+00   2.4782038e+00  -1.0102426e+06
   1.1293765e-09  -1.6375165e-04   2.5100903e+00   2.4783088e+00  -1.0041421e+06
   1.1303768e-09  -1.6275295e-04   2.5100010e+00   2.4784131e+00  -9.9807809e+05
   1.1313771e-09  -1.6176030e-04   2.5099121e+00   2.4785168e+00  -9.9205029e+05
   1.1323775e-09  -1.6077364e-04   2.5098238e+00   2.4786199e+00  -9.8605851e+05
   1.1333778e-09  -1.5979295e-04   2.5097360e+00   2.4787224e+00  -9.8010253e+05
   1.1343781e-09  -1.5881820e-04   2.5096487e+00   2.4788242e+00  -9.7418215e+05
   1.1353785e-09  -1.5784934e-04   2.5095620e+00   2.4789254e+00  -9.6829714e+05
   1.1363788e-09  -1.5688634e-04   2.5094758e+00   2.4790261e+00  -9.6244730e+05
   1.1373791e-09  -1.5592917e-04   2.5093902e+00   2.4791261e+00  -9.5663242e+05
   1.1383795e-09  -1.5497778e-04   2.5093050e+00   2.4792255e+00  -9.5085230e+05
   1.1393798e-09  -1.5403216e-04   2.5092204e+00   2.4793243e+00  -9.4510672e+05
   1.1403801e-09  -1.5309225e-04   2.5091362e+00   2.4794225e+00  -9.3939548e+05
   1.1413805e-09  -1.5215804e-04   2.5090526e+00   2.4795201e+00  -9.3371838e+05
   1.1423808e-09  -1.5122947e-04   2.5089695e+00   2.4796171e+00  -9.2807521e+05
   1.1433811e-09  -1.5030653e-04   2.5088869e+00   2.4797136e+00  -9.2246578e+05
   1.1443815e-09  -1.4938917e-04   2.5088048e+00   2.4798094e+00  -9.1688987e+05
   1.1453818e-09  -1.4847736e-04   2.5087232e+00   2.4799047e+00  -9.1134730e+05
   1.1463821e-09  -1.4757107e-04   2.5086421e+00   2.4799994e+00  -9.0583787e+05
   1.1473825e-09  -1.4667027e-04   2.5085614e+00   2.4800936e+00  -9.0036137e+05
   1.1483828e-09  -1.4577492e-04   2.5084813e+00   2.4801871e+00  -8.9491762e+05
   1.1493831e-09  -1.4488499e-04   2.5084016e+00   2.4802801e+00  -8.8950641e+05
   1.1503835e-09  -1.4400044e-04   2.5083225e+00   2.4803726e+00  -8.8412756e+05
   1.1513838e-09  -1.4312126e-04   2.5082438e+00   2.4804645e+00  -8.7878087e+05
   1.1523841e-09  -1.4224739e-04   2.5081656e+00   2.4805558e+00  -8.7346615e+05
   1.1533845e-09  -1.4137882e-04   2.5080878e+00   2.4806466e+00  -8.6818321e+05
   1.1543848e-09  -1.4051550e-04   2.5080106e+00   2.4807368e+00  -8.6293187e+05
   1.1553851e-09  -1.3965742e-04   2.5079338e+00   2.4808265e+00  -8.5771194e+05
   1.1563855e-09  -1.3880453e-04   2.5078574e+00   2.4809156e+00  -8.5252322e+05
   1.1573858e-09  -1.3795680e-04   2.5077816e+00   2.4810042e+00  -8.4736554e+05
   1.1583861e-09  -1.3711421e-04   2.5077062e+00   2.4810923e+00  -8.4223871e+05
   1.1593865e-09  -1.3627672e-04   2.5076312e+00   2.4811798e+00  -8.3714254e+05
   1.1603868e-09  -1.3544431e-04   2.5075567e+00   2.4812668e+00  -8.3207686e+05
   1.1613871e-09  -1.3461694e-04   2.5074827e+00   2.4813533e+00  -8.2704149e+05
   1.1623875e-09  -1.3379458e-04   2.5074091e+00   2.4814392e+00  -8.2203623e+05
   1.1633878e-09  -1.3297720e-04   2.5073359e+00   2.4815247e+00  -8.1706093e+05
   1.1643881e-09  -1.3216478e-04   2.5072632e+00   2.4816096e+00  -8.1211539e+05
   1.1653885e-09  -1.3135727e-04   2.5071909e+00   2.4816940e+00  -8.0719945e+05
   1.1663888e-09  -1.3055466e-04   2.5071191e+00   2.4817779e+00  -8.0231292e+05
   1.1673891e-09  -1.2975692e-04   2.5070477e+00   2.4818613e+00  -7.9745563e+05
   1.1683895e-09  -1.2896401e-04   2.5069767e+00   2.4819442e+00  -7.9262741e+05
   1.1693898e-09  -1.2817590e-04   2.5069062e+00   2.4820266e+00  -7.8782808e+05
   1.1703901e-09  -1.2739257e-04   2.5068361e+00   2.4821084e+00  -7.8305748e+05
   1.1713905e-09  -1.2661399e-04   2.5067664e+00   2.4821898e+00  -7.7831544e+05
   1.1723908e-09  -1.2584012e-04   2.5066972e+00   2.4822707e+00  -7.7360178e+05
   1.1733911e-09  -1.2507095e-04   2.5066283e+00   2.4823511e+00  -7.6891633e+05
   1.1743915e-09  -1.2430644e-04   2.5065599e+00   2.4824311e+00  -7.6425894e+05
   1.1753918e-09  -1.2354657e-04   2.5064919e+00   2.4825105e+00  -7.5962942e+05
   1.1763921e-09  -1.2279130e-04   2.5064243e+00   2.4825895e+00  -7.5502763e+05
   1.1773925e-09  -1.2204062e-04   2.5063572e+00   2.4826679e+00  -7.5045339e+05
   1.1783928e-09  -1.2129448e-04   2.5062904e+00   2.4827459e+00  -7.4590653e+05
   1.1793931e-09  -1.2055287e-04   2.5062240e+00   2.4828235e+00  -7.4138691e+05
   1.1803935e-09  -1.1981575e-04   2.5061581e+00   2.4829005e+00  -7.3689435e+05
   1.1813938e-09  -1.1908311e-04   2.5060925e+00   2.4829771e+00  -7.3242870e+05
   1.1823941e-09  -1.1835491e-04   2.5060273e+00   2.4830533e+00  -7.2798979e+05
   1.1833945e-09  -1.1763113e-04   2.5059626e+00   2.4831289e+00  -7.2357747e+05
   1.1843948e-09  -1.1691173e-04   2.5058982e+00   2.4832042e+00  -7.1919158e+05
   1.1853951e-09  -1.1619671e-04   2.5058342e+00   2.4832789e+00  -7.1483196e+05
   1.1863955e-09  -1.1548601e-04   2.5057706e+00   2.4833532e+00  -7.1049846e+05
   1.1873958e-09  -1.1477963e-04   2.5057074e+00   2.4834271e+00  -7.0619093e+05
   1.1883961e-09  -1.1407754e-04   2.5056446e+00   2.4835005e+00  -7.0190920e+05
   1.1893965e-09  -1.1337971e-04   2.5055821e+00   2.4835735e+00  -6.9765313e+05
   1.1903968e-09  -1.1268611e-04   2.5055201e+00   2.4836460e+00  -6.9342256e+05
   1.1913971e-09  -1.1199672e-04   2.5054584e+00   2.4837181e+00  -6.8921734e+05
   1.1923975e-09  -1.1131151e-04   2.5053970e+00   2.4837897e+00  -6.8503733e+05
   1.1933978e-09  -1.1063046e-04   2.5053361e+00   2.4838609e+00  -6.8088237e+05
   1.1943981e-09  -1.0995354e-04   2.5052755e+00   2.4839317e+00  -6.7675231e+05
   1.1953985e-09  -1.0928074e-04   2.5052153e+00   2.4840021e+00  -6.7264702e+05
   1.1963988e-09  -1.0861201e-04   2.5051555e+00   2.4840720e+00  -6.6856633e+05
   1.1973991e-09  -1.0794735e-04   2.5050960e+00   2.4841415e+00  -6.6451010e+05
   1.1983995e-09  -1.0728672e-04   2.5050369e+00   2.4842106e+00  -6.6047820e+05
   1.1993998e-09  -1.0663011e-04   2.5049781e+00   2.4842792e+00  -6.5647047e+05
   1.2004001e-09  -1.0597748e-04   2.5049197e+00   2.4843475e+00  -6.5248677e+05
   1.2014005e-09  -1.0532881e-04   2.5048617e+00   2.4844153e+00  -6.4852696e+05
   1.2024008e-09  -1.0468408e-04   2.5048040e+00   2.4844827e+00  -6.4459090e+05
   1.2034011e-09  -1.0404326e-04   2.5047467e+00   2.4845498e+00  -6.4067844e+05
   1.2044015e-09  -1.0340634e-04   2.5046897e+00   2.4846164e+00  -6.3678946e+05
   1.2054018e-09  -1.0277329e-04   2.5046330e+00   2.4846826e+00  -6.3292380e+05
   1.2064021e-09  -1.0214408e-04   2.5045767e+00   2.4847484e+00  -6.2908133e+05
   1.2074025e-09  -1.0151869e-04   2.5045208e+00   2.4848138e+00  -6.2526191e+05
   1.2084028e-09  -1.0089710e-04   2.5044652e+00   2.4848788e+00  -6.2146541e+05
   1.2094031e-09  -1.0027929e-04   2.5044099e+00   2.4849434e+00  -6.1769169e+05
   1.2104035e-09  -9.9665231e-05   2.5043549e+00   2.4850076e+00  -6.1394061e+05
   1.2114038e-09  -9.9054903e-05   2.5043003e+00   2.4850715e+00  -6.1021205e+05
   1.2124041e-09  -9.8448282e-05   2.5042460e+00   2.4851349e+00  -6.0650586e+05
   1.2134045e-09  -9.7845348e-05   2.5041921e+00   2.4851980e+00  -6.0282192e+05
   1.2144048e-09  -9.7246078e-05   2.5041385e+00   2.4852606e+00  -5.9916009e+05
   1.2154051e-09  -9.6650449e-05   2.5040852e+00   2.4853229e+00  -5.9552024e+05
   1.2164055e-09  -9.6058440e-05   2.5040322e+00   2.4853849e+00  -5.9190224e+05
   1.2174058e-09  -9.5470029e-05   2.5039796e+00   2.4854464e+00  -5.8830596e+05
   1.2184061e-09  -9.4885195e-05   2.5039272e+00   2.4855076e+00  -5.8473128e+05
   1.2194065e-09  -9.4303915e-05   2.5038752e+00   2.4855684e+00  -5.8117806e+05
   1.2204068e-09  -9.3726169e-05   2.5038235e+00   2.4856288e+00  -5.7764618e+05
   1.2214071e-09  -9.3151936e-05   2.5037722e+00   2.4856889e+00  -5.7413551e+05
   1.2224075e-09  -9.2581193e-05   2.5037211e+00   2.4857486e+00  -5.7064592e+05
   1.2234078e-09  -9.2013920e-05   2.5036703e+00   2.4858079e+00  -5.6717730e+05
   1.2244081e-09  -9.1450096e-05   2.5036199e+00   2.4858669e+00  -5.6372951e+05
   1.2254085e-09  -9.0889701e-05   2.5035697e+00   2.4859255e+00  -5.6030244e+05
   1.2264088e-09  -9.0332714e-05   2.5035199e+00   2.4859837e+00  -5.5689595e+05
   1.2274091e-09  -8.9779114e-05   2.5034704e+00   2.4860417e+00  -5.5350993e+05
   1.2284095e-09  -8.9228880e-05   2.5034212e+00   2.4860992e+00  -5.5014426e+05
   1.2294098e-09  -8.8681994e-05   2.5033722e+00   2.4861564e+00  -5.4679882e+05
   1.2304101e-09  -8.8138433e-05   2.5033236e+00   2.4862133e+00  -5.4347348e+05
   1.2314105e-09  -8.7598179e-05   2.5032753e+00   2.4862698e+00  -5.4016813e+05
   1.2324108e-09  -8.7061212e-05   2.5032272e+00   2.4863260e+00  -5.3688264e+05
   1.2334111e-09  -8.6527511e-05   2.5031795e+00   2.4863818e+00  -5.3361691e+05
   1.2344115e-09  -8.5997057e-05   2.5031320e+00   2.4864373e+00  -5.3037080e+05
   1.2354118e-09  -8.5469830e-05   2.5030848e+00   2.4864924e+00  -5.2714422e+05
   1.2364121e-09  -8.4945812e-05   2.5030379e+00   2.4865473e+00  -5.2393703e+05
   1.2374125e-09  -8.4424982e-05   2.5029913e+00   2.4866017e+00  -5.2074913e+05
   1.2384128e-09  -8.3907322e-05   2.5029450e+00   2.4866559e+00  -5.1758041e+05
   1.2394131e-09  -8.3392812e-05   2.5028990e+00   2.4867097e+00  -5.1443074e+05
   1.2404135e-09  -8.2881433e-05   2.5028532e+00   2.4867632e+00  -5.1130001e+05
   1.2414138e-09  -8.2373167e-05   2.5028078e+00   2.4868164e+00  -5.0818812e+05
   1.2424141e-09  -8.1867994e-05   2.5027626e+00   2.4868692e+00  -5.0509494e+05
   1.2434145e-09  -8.1365897e-05   2.5027177e+00   2.4869218e+00  -5.0202038e+05
   1.2444148e-09  -8.0866856e-05   2.5026730e+00   2.4869740e+00  -4.9896431e+05
   1.2454151e-09  -8.0370853e-05   2.5026286e+00   2.4870259e+00  -4.9592664e+05
   1.2464155e-09  -7.9877870e-05   2.5025845e+00   2.4870774e+00  -4.9290724e+05
   1.2474158e-09  -7.9387889e-05   2.5025407e+00   2.4871287e+00  -4.8990601e+05
   1.2484161e-09  -7.8900891e-05   2.5024971e+00   2.4871797e+00  -4.8692285e+05
   1.2494165e-09  -7.8416859e-05   2.5024538e+00   2.4872303e+00  -4.8395765e+05
   1.2504168e-09  -7.7935774e-05   2.5024108e+00   2.4872806e+00  -4.8101029e+05
   1.2514171e-09  -7.7457619e-05   2.5023680e+00   2.4873307e+00  -4.7808068e+05
   1.2524175e-09  -7.6982377e-05   2.5023255e+00   2.4873804e+00  -4.7516871e+05
   1.2534178e-09  -7.6510029e-05   2.5022832e+00   2.4874298e+00  -4.7227427e+05
   1.2544181e-09  -7.6040558e-05   2.5022412e+00   2.4874789e+00  -4.6939726e+05
   1.2554185e-09  -7.5573947e-05   2.5021995e+00   2.4875277e+00  -4.6653757e+05
   1.2564188e-09  -7.5110178e-05   2.5021580e+00   2.4875763e+00  -4.6369511e+05
   1.2574191e-09  -7.4649235e-05   2.5021168e+00   2.4876245e+00  -4.6086977e+05
   1.2584195e-09  -7.4191101e-05   2.5020758e+00   2.4876724e+00  -4.5806145e+05
   1.2594198e-09  -7.3735757e-05   2.5020350e+00   2.4877201e+00  -4.5527005e+05
   1.2604201e-09  -7.3283188e-05   2.5019945e+00   2.4877674e+00  -4.5249547e+05
   1.2614205e-09  -7.2833378e-05   2.5019543e+00   2.4878145e+00  -4.4973760e+05
   1.2624208e-09  -7.2386308e-05   2.5019143e+00   2.4878613e+00  -4.4699635e+05
   1.2634211e-09  -7.1941963e-05   2.5018746e+00   2.4879078e+00  -4.4427162e+05
   1.2644215e-09  -7.1500326e-05   2.5018350e+00   2.4879540e+00  -4.4156332e+05
   1.2654218e-09  -7.1061381e-05   2.5017958e+00   2.4879999e+00  -4.3887133e+05
   1.2664221e-09  -7.0625111e-05   2.5017567e+00   2.4880455e+00  -4.3619558e+05
   1.2674225e-09  -7.0191501e-05   2.5017180e+00   2.4880909e+00  -4.3353595e+05
   1.2684228e-09  -6.9760535e-05   2.5016794e+00   2.4881360e+00  -4.3089236e+05
   1.2694231e-09  -6.9332195e-05   2.5016411e+00   2.4881808e+00  -4.2826471e+05
   1.2704235e-09  -6.8906468e-05   2.5016030e+00   2.4882254e+00  -4.2565291e+05
   1.2714238e-09  -6.8483336e-05   2.5015651e+00   2.4882697e+00  -4.2305685e+05
   1.2724241e-09  -6.8062784e-05   2.5015275e+00   2.4883137e+00  -4.2047645e+05
   1.2734245e-09  -6.7644797e-05   2.5014901e+00   2.4883574e+00  -4.1791162e+05
   1.2744248e-09  -6.7229359e-05   2.5014530e+00   2.4884009e+00  -4.1536226e+05
   1.2754251e-09  -6.6816454e-05   2.5014160e+00   2.4884441e+00  -4.1282827e+05
   1.2764255e-09  -6.6406068e-05   2.5013793e+00   2.4884870e+00  -4.1030958e+05
   1.2774258e-09  -6.5998185e-05   2.5013428e+00   2.4885297e+00  -4.0780608e+05
   1.2784261e-09  -6.5592790e-05   2.5013066e+00   2.4885721e+00  -4.0531768e+05
   1.2794265e-09  -6.5189868e-05   2.5012705e+00   2.4886143e+00  -4.0284431e+05
   1.2804268e-09  -6.4789404e-05   2.5012347e+00   2.4886562e+00  -4.0038586e+05
   1.2814271e-09  -6.4391383e-05   2.5011991e+00   2.4886979e+00  -3.9794225e+05
   1.2824275e-09  -6.3995791e-05   2.5011637e+00   2.4887393e+00  -3.9551339e+05
   1.2834278e-09  -6.3602612e-05   2.5011285e+00   2.4887804e+00  -3.9309920e+05
   1.2844281e-09  -6.3211833e-05   2.5010936e+00   2.4888213e+00  -3.9069957e+05
   1.2854285e-09  -6.2823438e-05   2.5010588e+00   2.4888619e+00  -3.8831444e+05
   1.2864288e-09  -6.2437413e-05   2.5010243e+00   2.4889023e+00  -3.8594371e+05
   1.2874291e-09  -6.2053744e-05   2.5009900e+00   2.4889425e+00  -3.8358730e+05
   1.2884295e-09  -6.1672417e-05   2.5009559e+00   2.4889824e+00  -3.8124511e+05
   1.2894298e-09  -6.1293418e-05   2.5009220e+00   2.4890221e+00  -3.7891708e+05
   1.2904301e-09  -6.0916732e-05   2.5008883e+00   2.4890615e+00  -3.7660311e+05
   1.2914305e-09  -6.0542345e-05   2.5008548e+00   2.4891007e+00  -3.7430311e+05
   1.2924308e-09  -6.0170244e-05   2.5008215e+00   2.4891396e+00  -3.7201701e+05
   1.2934311e-09  -5.9800414e-05   2.5007884e+00   2.4891783e+00  -3.6974473e+05
   1.2944315e-09  -5.9432843e-05   2.5007555e+00   2.4892168e+00  -3.6748617e+05
   1.2954318e-09  -5.9067516e-05   2.5007228e+00   2.4892550e+00  -3.6524127e+05
   1.2964321e-09  -5.8704419e-05   2.5006904e+00   2.4892930e+00  -3.6300993e+05
   1.2974325e-09  -5.8343540e-05   2.5006581e+00   2.4893308e+00  -3.6079208e+05
   1.2984328e-09  -5.7984865e-05   2.5006260e+00   2.4893683e+00  -3.5858763e+05
   1.2994331e-09  -5.7628380e-05   2.5005941e+00   2.4894056e+00  -3.5639651e+05
   1.3004335e-09  -5.7274072e-05   2.5005624e+00   2.4894427e+00  -3.5421864e+05
   1.3014338e-09  -5.6921929e-05   2.5005309e+00   2.4894796e+00  -3.5205394e+05
   1.3024341e-09  -5.6571936e-05   2.5004996e+00   2.4895162e+00  -3.4990232e+05
   1.3034345e-09  -5.6224082e-05   2.5004685e+00   2.4895526e+00  -3.4776372e+05
   1.3044348e-09  -5.5878352e-05   2.5004376e+00   2.4895888e+00  -3.4563805e+05
   1.3054351e-09  -5.5534734e-05   2.5004068e+00   2.4896248e+00  -3.4352524e+05
   1.3064355e-09  -5.5193216e-05   2.5003763e+00   2.4896605e+00  -3.4142521e+05
   1.3074358e-09  -5.4853785e-05   2.5003459e+00   2.4896960e+00  -3.3933788e+05
   1.3084361e-09  -5.4516428e-05   2.5003157e+00   2.4897313e+00  -3.3726318e+05
   1.3094365e-09  -5.4181132e-05   2.5002857e+00   2.4897664e+00  -3.3520104e+05
   1.3104368e-09  -5.3847885e-05   2.5002559e+00   2.4898013e+00  -3.3315137e+05
   1.3114371e-09  -5.3516674e-05   2.5002263e+00   2.4898360e+00  -3.3111411e+05
   1.3124375e-09  -5.3187488e-05   2.5001969e+00   2.4898704e+00  -3.2908917e+05
   1.3134378e-09  -5.2860314e-05   2.5001676e+00   2.4899047e+00  -3.2707650e+05
   1.3144381e-09  -5.2535140e-05   2.5001385e+00   2.4899387e+00  -3.2507600e+05
   1.3154385e-09  -5.2211953e-05   2.5001096e+00   2.4899726e+00  -3.2308762e+05
   1.3164388e-09  -5.1890742e-05   2.5000809e+00   2.4900062e+00  -3.2111127e+05
   1.3174391e-09  -5.1571494e-05   2.5000523e+00   2.4900396e+00  -3.1914690e+05
   1.3184395e-09  -5.1254199e-05   2.5000239e+00   2.4900728e+00  -3.1719441e+05
   1.3194398e-09  -5.0938843e-05   2.4999957e+00   2.4901058e+00  -3.1525375e+05
   1.3204401e-09  -5.0625416e-05   2.4999677e+00   2.4901386e+00  -3.1332485e+05
   1.3214405e-09  -5.0313905e-05   2.4999398e+00   2.4901712e+00  -3.1140762e+05
   1.3224408e-09  -5.0004299e-05   2.4999121e+00   2.4902036e+00  -3.0950201e+05
   1.3234411e-09  -4.9696586e-05   2.4998846e+00   2.4902358e+00  -3.0760795e+05
   1.3244415e-09  -4.9390755e-05   2.4998572e+00   2.4902679e+00  -3.0572536e+05
   1.3254418e-09  -4.9086795e-05   2.4998300e+00   2.4902997e+00  -3.0385417e+05
   1.3264421e-09  -4.8784694e-05   2.4998030e+00   2.4903313e+00  -3.0199433e+05
   1.3274425e-09  -4.8484441e-05   2.4997762e+00   2.4903627e+00  -3.0014575e+05
   1.3284428e-09  -4.8186024e-05   2.4997495e+00   2.4903940e+00  -2.9830838e+05
   1.3294431e-09  -4.7889433e-05   2.4997229e+00   2.4904250e+00  -2.9648214e+05
   1.3304435e-09  -4.7594656e-05   2.4996966e+00   2.4904559e+00  -2.9466698e+05
   1.3314438e-09  -4.7301683e-05   2.4996704e+00   2.4904865e+00  -2.9286282e+05
   1.3324441e-09  -4.7010502e-05   2.4996443e+00   2.4905170e+00  -2.9106960e+05
   1.3334445e-09  -4.6721103e-05   2.4996184e+00   2.4905473e+00  -2.8928725e+05
   1.3344448e-09  -4.6433475e-05   2.4995927e+00   2.4905774e+00  -2.8751570e+05
   1.3354451e-09  -4.6147607e-05   2.4995671e+00   2.4906073e+00  -2.8575490e+05
   1.3364455e-09  -4.5863488e-05   2.4995417e+00   2.4906371e+00  -2.8400478e+05
   1.3374458e-09  -4.5581108e-05   2.4995165e+00   2.4906666e+00  -2.8226528e+05
   1.3384461e-09  -4.5300457e-05   2.4994914e+00   2.4906960e+00  -2.8053632e+05
   1.3394465e-09  -4.5021523e-05   2.4994664e+00   2.4907252e+00  -2.7881786e+05
   1.3404468e-09  -4.4744296e-05   2.4994416e+00   2.4907542e+00  -2.7710981e+05
   1.3414471e-09  -4.4468767e-05   2.4994170e+00   2.4907831e+00  -2.7541214e+05
   1.3424475e-09  -4.4194924e-05   2.4993925e+00   2.4908118e+00  -2.7372476e+05
   1.3434478e-09  -4.3922757e-05   2.4993681e+00   2.4908402e+00  -2.7204762e+05
   1.3444481e-09  -4.3652257e-05   2.4993439e+00   2.4908686e+00  -2.7038067e+05
   1.3454485e-09  -4.3383413e-05   2.4993199e+00   2.4908967e+00  -2.6872383e+05
   1.3464488e-09  -4.3116216e-05   2.4992960e+00   2.4909247e+00  -2.6707704e+05
   1.3474491e-09  -4.2850654e-05   2.4992722e+00   2.4909525e+00  -2.6544026e+05
   1.3484495e-09  -4.2586718e-05   2.4992486e+00   2.4909801e+00  -2.6381341e+05
   1.3494498e-09  -4.2324399e-05   2.4992252e+00   2.4910076e+00  -2.6219643e+05
   1.3504502e-09  -4.2063686e-05   2.4992019e+00   2.4910349e+00  -2.6058928e+05
   1.3514505e-09  -4.1804570e-05   2.4991787e+00   2.4910620e+00  -2.5899188e+05
   1.3524508e-09  -4.1547041e-05   2.4991556e+00   2.4910890e+00  -2.5740419e+05
   1.3534512e-09  -4.1291090e-05   2.4991328e+00   2.4911157e+00  -2.5582614e+05
   1.3544515e-09  -4.1036706e-05   2.4991100e+00   2.4911424e+00  -2.5425767e+05
   1.3554518e-09  -4.0783881e-05   2.4990874e+00   2.4911688e+00  -2.5269873e+05
   1.3564522e-09  -4.0532604e-05   2.4990649e+00   2.4911952e+00  -2.5114926e+05
   1.3574525e-09  -4.0282867e-05   2.4990426e+00   2.4912213e+00  -2.4960921e+05
   1.3584528e-09  -4.0034660e-05   2.4990204e+00   2.4912473e+00  -2.4807851e+05
   1.3594532e-09  -3.9787974e-05   2.4989983e+00   2.4912731e+00  -2.4655712e+05
   1.3604535e-09  -3.9542799e-05   2.4989764e+00   2.4912988e+00  -2.4504497e+05
   1.3614538e-09  -3.9299126e-05   2.4989546e+00   2.4913243e+00  -2.4354201e+05
   1.3624542e-09  -3.9056947e-05   2.4989329e+00   2.4913496e+00  -2.4204818e+05
   1.3634545e-09  -3.8816252e-05   2.4989114e+00   2.4913748e+00  -2.4056344e+05
   1.3644548e-09  -3.8577032e-05   2.4988900e+00   2.4913999e+00  -2.3908772e+05
   1.3654552e-09  -3.8339279e-05   2.4988687e+00   2.4914248e+00  -2.3762097e+05
   1.3664555e-09  -3.8102982e-05   2.4988476e+00   2.4914495e+00  -2.3616315e+05
   1.3674558e-09  -3.7868134e-05   2.4988266e+00   2.4914741e+00  -2.3471418e+05
   1.3684562e-09  -3.7634725e-05   2.4988057e+00   2.4914985e+00  -2.3327403e+05
   1.3694565e-09  -3.7402748e-05   2.4987850e+00   2.4915228e+00  -2.3184263e+05
   1.3704568e-09  -3.7172192e-05   2.4987643e+00   2.4915470e+00  -2.3041994e+05
   1.3714572e-09  -3.6943050e-05   2.4987439e+00   2.4915710e+00  -2.2900591e+05
   1.3724575e-09  -3.6715313e-05   2.4987235e+00   2.4915948e+00  -2.2760047e+05
   1.3734578e-09  -3.6488972e-05   2.4987032e+00   2.4916185e+00  -2.2620359e+05
   1.3744582e-09  -3.6264019e-05   2.4986831e+00   2.4916420e+00  -2.2481521e+05
   1.3754585e-09  -3.6040445e-05   2.4986631e+00   2.4916655e+00  -2.2343527e+05
   1.3764588e-09  -3.5818243e-05   2.4986432e+00   2.4916887e+00  -2.2206373e+05
   1.3774592e-09  -3.5597403e-05   2.4986235e+00   2.4917118e+00  -2.2070053e+05
   1.3784595e-09  -3.5377918e-05   2.4986039e+00   2.4917348e+00  -2.1934564e+05
   1.3794598e-09  -3.5159778e-05   2.4985844e+00   2.4917577e+00  -2.1799898e+05
   1.3804602e-09  -3.4942977e-05   2.4985650e+00   2.4917804e+00  -2.1666053e+05
   1.3814605e-09  -3.4727505e-05   2.4985457e+00   2.4918029e+00  -2.1533022e+05
   1.3824608e-09  -3.4513355e-05   2.4985265e+00   2.4918253e+00  -2.1400802e+05
   1.3834612e-09  -3.4300519e-05   2.4985075e+00   2.4918476e+00  -2.1269386e+05
   1.3844615e-09  -3.4088989e-05   2.4984886e+00   2.4918698e+00  -2.1138770e+05
   1.3854618e-09  -3.3878756e-05   2.4984698e+00   2.4918918e+00  -2.1008950e+05
   1.3864622e-09  -3.3669813e-05   2.4984511e+00   2.4919137e+00  -2.0879921e+05
   1.3874625e-09  -3.3462152e-05   2.4984325e+00   2.4919354e+00  -2.0751677e+05
   1.3884628e-09  -3.3255765e-05   2.4984141e+00   2.4919570e+00  -2.0624214e+05
   1.3894632e-09  -3.3050645e-05   2.4983957e+00   2.4919785e+00  -2.0497528e+05
   1.3904635e-09  -3.2846783e-05   2.4983775e+00   2.4919998e+00  -2.0371613e+05
   1.3914638e-09  -3.2644173e-05   2.4983594e+00   2.4920211e+00  -2.0246466e+05
   1.3924642e-09  -3.2442806e-05   2.4983413e+00   2.4920421e+00  -2.0122081e+05
   1.3934645e-09  -3.2242674e-05   2.4983234e+00   2.4920631e+00  -1.9998454e+05
   1.3944648e-09  -3.2043771e-05   2.4983057e+00   2.4920839e+00  -1.9875580e+05
   1.3954652e-09  -3.1846089e-05   2.4982880e+00   2.4921046e+00  -1.9753455e+05
   1.3964655e-09  -3.1649621e-05   2.4982704e+00   2.4921252e+00  -1.9632075e+05
   1.3974658e-09  -3.1454358e-05   2.4982529e+00   2.4921456e+00  -1.9511434e+05
   1.3984662e-09  -3.1260294e-05   2.4982356e+00   2.4921660e+00  -1.9391529e+05
   1.3994665e-09  -3.1067422e-05   2.4982183e+00   2.4921861e+00  -1.9272354e+05
   1.4004668e-09  -3.0875733e-05   2.4982012e+00   2.4922062e+00  -1.9153906e+05
   1.4014672e-09  -3.0685221e-05   2.4981842e+00   2.4922262e+00  -1.9036181e+05
   1.4024675e-09  -3.0495880e-05   2.4981672e+00   2.4922460e+00  -1.8919173e+05
   1.4034678e-09  -3.0307700e-05   2.4981504e+00   2.4922657e+00  -1.8802878e+05
   1.4044682e-09  -3.0120677e-05   2.4981337e+00   2.4922853e+00  -1.8687293e+05
   1.4054685e-09  -2.9934801e-05   2.4981170e+00   2.4923047e+00  -1.8572413e+05
   1.4064688e-09  -2.9750068e-05   2.4981005e+00   2.4923241e+00  -1.8458233e+05
   1.4074692e-09  -2.9566468e-05   2.4980841e+00   2.4923433e+00  -1.8344750e+05
   1.4084695e-09  -2.9383997e-05   2.4980678e+00   2.4923624e+00  -1.8231959e+05
   1.4094698e-09  -2.9202646e-05   2.4980516e+00   2.4923814e+00  -1.8119857e+05
   1.4104702e-09  -2.9022409e-05   2.4980354e+00   2.4924003e+00  -1.8008438e+05
   1.4114705e-09  -2.8843279e-05   2.4980194e+00   2.4924190e+00  -1.7897699e+05
   1.4124708e-09  -2.8665249e-05   2.4980035e+00   2.4924377e+00  -1.7787636e+05
   1.4134712e-09  -2.8488313e-05   2.4979877e+00   2.4924562e+00  -1.7678244e+05
   1.4144715e-09  -2.8312464e-05   2.4979719e+00   2.4924746e+00  -1.7569520e+05
   1.4154718e-09  -2.8137696e-05   2.4979563e+00   2.4924929e+00  -1.7461460e+05
   1.4164722e-09  -2.7964001e-05   2.4979408e+00   2.4925111e+00  -1.7354059e+05
   1.4174725e-09  -2.7791373e-05   2.4979253e+00   2.4925292e+00  -1.7247314e+05
   1.4184728e-09  -2.7619806e-05   2.4979100e+00   2.4925472e+00  -1.7141220e+05
   1.4194732e-09  -2.7449293e-05   2.4978947e+00   2.4925650e+00  -1.7035775e+05
   1.4204735e-09  -2.7279828e-05   2.4978796e+00   2.4925828e+00  -1.6930973e+05
   1.4214738e-09  -2.7111405e-05   2.4978645e+00   2.4926004e+00  -1.6826811e+05
   1.4224742e-09  -2.6944016e-05   2.4978496e+00   2.4926179e+00  -1.6723285e+05
   1.4234745e-09  -2.6777656e-05   2.4978347e+00   2.4926353e+00  -1.6620391e+05
   1.4244748e-09  -2.6612319e-05   2.4978199e+00   2.4926526e+00  -1.6518126e+05
   1.4254752e-09  -2.6447998e-05   2.4978052e+00   2.4926699e+00  -1.6416485e+05
   1.4264755e-09  -2.6284687e-05   2.4977906e+00   2.4926870e+00  -1.6315465e+05
   1.4274758e-09  -2.6122380e-05   2.4977761e+00   2.4927040e+00  -1.6215062e+05
   1.4284762e-09  -2.5961070e-05   2.4977616e+00   2.4927208e+00  -1.6115273e+05
   1.4294765e-09  -2.5800752e-05   2.4977473e+00   2.4927376e+00  -1.6016093e+05
   1.4304768e-09  -2.5641420e-05   2.4977331e+00   2.4927543e+00  -1.5917519e+05
   1.4314772e-09  -2.5483067e-05   2.4977189e+00   2.4927709e+00  -1.5819548e+05
   1.4324775e-09  -2.5325688e-05   2.4977048e+00   2.4927874e+00  -1.5722175e+05
   1.4334778e-09  -2.5169276e-05   2.4976908e+00   2.4928038e+00  -1.5625397e+05
   1.4344782e-09  -2.5013827e-05   2.4976769e+00   2.4928200e+00  -1.5529211e+05
   1.4354785e-09  -2.4859333e-05   2.4976631e+00   2.4928362e+00  -1.5433613e+05
   1.4364788e-09  -2.4705789e-05   2.4976494e+00   2.4928523e+00  -1.5338599e+05
   1.4374792e-09  -2.4553189e-05   2.4976357e+00   2.4928683e+00  -1.5244166e+05
   1.4384795e-09  -2.4401528e-05   2.4976222e+00   2.4928842e+00  -1.5150310e+05
   1.4394798e-09  -2.4250799e-05   2.4976087e+00   2.4928999e+00  -1.5057028e+05
   1.4404802e-09  -2.4100998e-05   2.4975953e+00   2.4929156e+00  -1.4964317e+05
   1.4414805e-09  -2.3952118e-05   2.4975820e+00   2.4929312e+00  -1.4872172e+05
   1.4424808e-09  -2.3804153e-05   2.4975687e+00   2.4929467e+00  -1.4780591e+05
   1.4434812e-09  -2.3657099e-05   2.4975556e+00   2.4929621e+00  -1.4689570e+05
   1.4444815e-09  -2.3510949e-05   2.4975425e+00   2.4929774e+00  -1.4599105e+05
   1.4454818e-09  -2.3365698e-05   2.4975295e+00   2.4929926e+00  -1.4509194e+05
   1.4464822e-09  -2.3221341e-05   2.4975166e+00   2.4930077e+00  -1.4419833e+05
   1.4474825e-09  -2.3077872e-05   2.4975038e+00   2.4930228e+00  -1.4331018e+05
   1.4484828e-09  -2.2935286e-05   2.4974910e+00   2.4930377e+00  -1.4242747e+05
   1.4494832e-09  -2.2793577e-05   2.4974784e+00   2.4930525e+00  -1.4155016e+05
   1.4504835e-09  -2.2652740e-05   2.4974658e+00   2.4930673e+00  -1.4067821e+05
   1.4514838e-09  -2.2512769e-05   2.4974532e+00   2.4930820e+00  -1.3981160e+05
   1.4524842e-09  -2.2373660e-05   2.4974408e+00   2.4930965e+00  -1.3895030e+05
   1.4534845e-09  -2.2235406e-05   2.4974284e+00   2.4931110e+00  -1.3809426e+05
   1.4544848e-09  -2.2098004e-05   2.4974162e+00   2.4931254e+00  -1.3724347e+05
   1.4554852e-09  -2.1961447e-05   2.4974039e+00   2.4931397e+00  -1.3639788e+05
   1.4564855e-09  -2.1825730e-05   2.4973918e+00   2.4931539e+00  -1.3555747e+05
   1.4574858e-09  -2.1690849e-05   2.4973797e+00   2.4931680e+00  -1.3472220e+05
   1.4584862e-09  -2.1556798e-05   2.4973677e+00   2.4931821e+00  -1.3389204e+05
   1.4594865e-09  -2.1423572e-05   2.4973558e+00   2.4931960e+00  -1.3306697e+05
   1.4604868e-09  -2.1291166e-05   2.4973440e+00   2.4932099e+00  -1.3224695e+05
   1.4614872e-09  -2.1159575e-05   2.4973322e+00   2.4932237e+00  -1.3143195e+05
   1.4624875e-09  -2.1028794e-05   2.4973205e+00   2.4932374e+00  -1.3062194e+05
