   0.0000000e+00  -1.3544939e-01   6.2800864e+00   1.6614866e-04  -5.1941791e+08
   1.0003334e-12  -1.3493053e-01   6.2778085e+00   1.7293147e-04  -5.1800512e+08
   2.0006669e-12  -1.3441308e-01   6.2754921e+00   1.7997026e-04  -5.1659210e+08
   3.0010003e-12  -1.3389705e-01   6.2731368e+00   1.8727376e-04  -5.1517886e+08
   4.0013338e-12  -1.3338243e-01   6.2707420e+00   1.9485095e-04  -5.1376540e+08
   5.0016672e-12  -1.3286922e-01   6.2683074e+00   2.0271110e-04  -5.1235173e+08
   6.0020007e-12  -1.3235743e-01   6.2658324e+00   2.1086371e-04  -5.1093784e+08
   7.0023341e-12  -1.3184705e-01   6.2633165e+00   2.1931860e-04  -5.0952375e+08
   8.0026676e-12  -1.3133809e-01   6.2607593e+00   2.2808584e-04  -5.0810945e+08
   9.0030010e-12  -1.3083055e-01   6.2581603e+00   2.3717581e-04  -5.0669495e+08
   1.0003334e-11  -1.3032441e-01   6.2555189e+00   2.4659918e-04  -5.0528025e+08
   1.1003668e-11  -1.2981970e-01   6.2528348e+00   2.5636692e-04  -5.0386537e+08
   1.2004001e-11  -1.2931639e-01   6.2501074e+00   2.6649031e-04  -5.0245030e+08
   1.3004335e-11  -1.2881451e-01   6.2473362e+00   2.7698093e-04  -5.0103505e+08
   1.4004668e-11  -1.2831404e-01   6.2445209e+00   2.8785072e-04  -4.9961962e+08
   1.5005002e-11  -1.2781499e-01   6.2416607e+00   2.9911191e-04  -4.9820402e+08
   1.6005335e-11  -1.2731735e-01   6.2387554e+00   3.1077709e-04  -4.9678827e+08
   1.7005669e-11  -1.2682113e-01   6.2358044e+00   3.2285918e-04  -4.9537235e+08
   1.8006002e-11  -1.2632632e-01   6.2328072e+00   3.3537146e-04  -4.9395628e+08
   1.9006335e-11  -1.2583294e-01   6.2297633e+00   3.4832755e-04  -4.9254007e+08
   2.0006669e-11  -1.2534097e-01   6.2266722e+00   3.6174145e-04  -4.9112371e+08
   2.1007002e-11  -1.2485041e-01   6.2235336e+00   3.7562753e-04  -4.8970723e+08
   2.2007336e-11  -1.2436128e-01   6.2203467e+00   3.9000052e-04  -4.8829062e+08
   2.3007669e-11  -1.2387356e-01   6.2171113e+00   4.0487555e-04  -4.8687390e+08
   2.4008003e-11  -1.2338725e-01   6.2138268e+00   4.2026814e-04  -4.8545706e+08
   2.5008336e-11  -1.2290237e-01   6.2104928e+00   4.3619421e-04  -4.8404012e+08
   2.6008670e-11  -1.2241890e-01   6.2071086e+00   4.5267009e-04  -4.8262309e+08
   2.7009003e-11  -1.2193685e-01   6.2036740e+00   4.6971250e-04  -4.8120598e+08
   2.8009336e-11  -1.2145622e-01   6.2001883e+00   4.8733862e-04  -4.7978878e+08
   2.9009670e-11  -1.2097701e-01   6.1966512e+00   5.0556602e-04  -4.7837152e+08
   3.0010003e-11  -1.2049921e-01   6.1930621e+00   5.2441273e-04  -4.7695420e+08
   3.1010337e-11  -1.2002283e-01   6.1894206e+00   5.4389721e-04  -4.7553683e+08
   3.2010670e-11  -1.1954787e-01   6.1857263e+00   5.6403838e-04  -4.7411942e+08
   3.3011004e-11  -1.1907433e-01   6.1819785e+00   5.8485560e-04  -4.7270198e+08
   3.4011337e-11  -1.1860221e-01   6.1781770e+00   6.0636872e-04  -4.7128452e+08
   3.5011671e-11  -1.1813150e-01   6.1743211e+00   6.2859804e-04  -4.6986705e+08
   3.6012004e-11  -1.1766221e-01   6.1704106e+00   6.5156435e-04  -4.6844959e+08
   3.7012337e-11  -1.1719434e-01   6.1664448e+00   6.7528892e-04  -4.6703213e+08
   3.8012671e-11  -1.1672789e-01   6.1624234e+00   6.9979352e-04  -4.6561470e+08
   3.9013004e-11  -1.1626286e-01   6.1583460e+00   7.2510040e-04  -4.6419730e+08
   4.0013338e-11  -1.1579924e-01   6.1542120e+00   7.5123235e-04  -4.6277995e+08
   4.1013671e-11  -1.1533704e-01   6.1500210e+00   7.7821264e-04  -4.6136266e+08
   4.2014005e-11  -1.1487626e-01   6.1457727e+00   8.0606508e-04  -4.5994544e+08
   4.3014338e-11  -1.1441690e-01   6.1414665e+00   8.3481401e-04  -4.5852830e+08
   4.4014672e-11  -1.1395895e-01   6.1371021e+00   8.6448429e-04  -4.5711126e+08
   4.5015005e-11  -1.1350243e-01   6.1326790e+00   8.9510133e-04  -4.5569433e+08
   4.6015338e-11  -1.1304731e-01   6.1281968e+00   9.2669109e-04  -4.5427752e+08
   4.7015672e-11  -1.1259362e-01   6.1236551e+00   9.5928008e-04  -4.5286085e+08
   4.8016005e-11  -1.1214135e-01   6.1190536e+00   9.9289536e-04  -4.5144434e+08
   4.9016339e-11  -1.1169049e-01   6.1143917e+00   1.0275646e-03  -4.5002799e+08
   5.0016672e-11  -1.1124104e-01   6.1096691e+00   1.0633159e-03  -4.4861181e+08
   5.1017006e-11  -1.1079302e-01   6.1048855e+00   1.1001782e-03  -4.4719584e+08
   5.2017339e-11  -1.1034641e-01   6.1000404e+00   1.1381808e-03  -4.4578008e+08
   5.3017673e-11  -1.0990122e-01   6.0951335e+00   1.1773536e-03  -4.4436454e+08
   5.4018006e-11  -1.0945744e-01   6.0901644e+00   1.2177273e-03  -4.4294924e+08
   5.5018339e-11  -1.0901508e-01   6.0851327e+00   1.2593329e-03  -4.4153421e+08
   5.6018673e-11  -1.0857413e-01   6.0800381e+00   1.3022022e-03  -4.4011945e+08
   5.7019006e-11  -1.0813460e-01   6.0748802e+00   1.3463677e-03  -4.3870498e+08
   5.8019340e-11  -1.0769648e-01   6.0696587e+00   1.3918622e-03  -4.3729082e+08
   5.9019673e-11  -1.0725978e-01   6.0643733e+00   1.4387194e-03  -4.3587699e+08
   6.0020007e-11  -1.0682449e-01   6.0590237e+00   1.4869735e-03  -4.3446351e+08
   6.1020340e-11  -1.0639062e-01   6.0536095e+00   1.5366594e-03  -4.3305038e+08
   6.2020674e-11  -1.0595816e-01   6.0481303e+00   1.5878125e-03  -4.3163764e+08
   6.3021007e-11  -1.0552711e-01   6.0425861e+00   1.6404690e-03  -4.3022530e+08
   6.4021340e-11  -1.0509747e-01   6.0369763e+00   1.6946657e-03  -4.2881338e+08
   6.5021674e-11  -1.0466925e-01   6.0313008e+00   1.7504399e-03  -4.2740189e+08
   6.6022007e-11  -1.0424244e-01   6.0255593e+00   1.8078297e-03  -4.2599087e+08
   6.7022341e-11  -1.0381704e-01   6.0197515e+00   1.8668738e-03  -4.2458032e+08
   6.8022674e-11  -1.0339305e-01   6.0138771e+00   1.9276116e-03  -4.2317027e+08
   6.9023008e-11  -1.0297047e-01   6.0079359e+00   1.9900830e-03  -4.2176074e+08
   7.0023341e-11  -1.0254930e-01   6.0019278e+00   2.0543287e-03  -4.2035175e+08
   7.1023675e-11  -1.0212954e-01   5.9958523e+00   2.1203901e-03  -4.1894332e+08
   7.2024008e-11  -1.0171119e-01   5.9897095e+00   2.1883089e-03  -4.1753547e+08
   7.3024341e-11  -1.0129425e-01   5.9834989e+00   2.2581280e-03  -4.1612822e+08
   7.4024675e-11  -1.0087871e-01   5.9772205e+00   2.3298906e-03  -4.1472160e+08
   7.5025008e-11  -1.0046458e-01   5.9708740e+00   2.4036405e-03  -4.1331563e+08
   7.6025342e-11  -1.0005186e-01   5.9644593e+00   2.4794225e-03  -4.1191034e+08
   7.7025675e-11  -9.9640543e-02   5.9579762e+00   2.5572818e-03  -4.1050573e+08
   7.8026009e-11  -9.9230630e-02   5.9514246e+00   2.6372642e-03  -4.0910184e+08
   7.9026342e-11  -9.8822121e-02   5.9448043e+00   2.7194163e-03  -4.0769869e+08
   8.0026676e-11  -9.8415015e-02   5.9381152e+00   2.8037854e-03  -4.0629631e+08
   8.1027009e-11  -9.8009312e-02   5.9313572e+00   2.8904193e-03  -4.0489472e+08
   8.2027342e-11  -9.7605010e-02   5.9245302e+00   2.9793665e-03  -4.0349393e+08
   8.3027676e-11  -9.7202109e-02   5.9176340e+00   3.0706763e-03  -4.0209399e+08
   8.4028009e-11  -9.6800608e-02   5.9106686e+00   3.1643983e-03  -4.0069491e+08
   8.5028343e-11  -9.6400505e-02   5.9036340e+00   3.2605831e-03  -3.9929671e+08
   8.6028676e-11  -9.6001802e-02   5.8965300e+00   3.3592818e-03  -3.9789943e+08
   8.7029010e-11  -9.5604495e-02   5.8893566e+00   3.4605460e-03  -3.9650309e+08
   8.8029343e-11  -9.5208584e-02   5.8821138e+00   3.5644282e-03  -3.9510771e+08
   8.9029677e-11  -9.4814069e-02   5.8748015e+00   3.6709812e-03  -3.9371332e+08
   9.0030010e-11  -9.4420948e-02   5.8674198e+00   3.7802587e-03  -3.9231995e+08
   9.1030343e-11  -9.4029221e-02   5.8599687e+00   3.8923148e-03  -3.9092762e+08
   9.2030677e-11  -9.3638885e-02   5.8524482e+00   4.0072045e-03  -3.8953636e+08
   9.3031010e-11  -9.3249941e-02   5.8448582e+00   4.1249829e-03  -3.8814620e+08
   9.4031344e-11  -9.2862387e-02   5.8371989e+00   4.2457062e-03  -3.8675716e+08
   9.5031677e-11  -9.2476221e-02   5.8294702e+00   4.3694309e-03  -3.8536928e+08
   9.6032011e-11  -9.2091443e-02   5.8216724e+00   4.4962142e-03  -3.8398258e+08
   9.7032344e-11  -9.1708052e-02   5.8138054e+00   4.6261138e-03  -3.8259708e+08
   9.8032678e-11  -9.1326046e-02   5.8058693e+00   4.7591878e-03  -3.8121282e+08
   9.9033011e-11  -9.0945424e-02   5.7978643e+00   4.8954953e-03  -3.7982983e+08
   1.0003334e-10  -9.0566184e-02   5.7897904e+00   5.0350954e-03  -3.7844813e+08
   1.0103368e-10  -9.0188327e-02   5.7816479e+00   5.1780482e-03  -3.7706775e+08
   1.0203401e-10  -8.9811849e-02   5.7734368e+00   5.3244139e-03  -3.7568873e+08
   1.0303434e-10  -8.9436750e-02   5.7651573e+00   5.4742536e-03  -3.7431108e+08
   1.0403468e-10  -8.9063028e-02   5.7568095e+00   5.6276285e-03  -3.7293485e+08
   1.0503501e-10  -8.8690682e-02   5.7483938e+00   5.7846007e-03  -3.7156005e+08
   1.0603535e-10  -8.8319710e-02   5.7399102e+00   5.9452324e-03  -3.7018672e+08
   1.0703568e-10  -8.7950112e-02   5.7313590e+00   6.1095864e-03  -3.6881489e+08
   1.0803601e-10  -8.7581885e-02   5.7227404e+00   6.2777261e-03  -3.6744459e+08
   1.0903635e-10  -8.7215027e-02   5.7140547e+00   6.4497151e-03  -3.6607585e+08
   1.1003668e-10  -8.6849538e-02   5.7053021e+00   6.6256176e-03  -3.6470870e+08
   1.1103701e-10  -8.6485416e-02   5.6964828e+00   6.8054980e-03  -3.6334316e+08
   1.1203735e-10  -8.6122659e-02   5.6875972e+00   6.9894212e-03  -3.6197928e+08
   1.1303768e-10  -8.5761265e-02   5.6786456e+00   7.1774525e-03  -3.6061707e+08
   1.1403801e-10  -8.5401233e-02   5.6696282e+00   7.3696576e-03  -3.5925658e+08
   1.1503835e-10  -8.5042561e-02   5.6605453e+00   7.5661025e-03  -3.5789783e+08
   1.1603868e-10  -8.4685247e-02   5.6513974e+00   7.7668533e-03  -3.5654085e+08
   1.1703901e-10  -8.4329289e-02   5.6421847e+00   7.9719768e-03  -3.5518568e+08
   1.1803935e-10  -8.3974687e-02   5.6329076e+00   8.1815398e-03  -3.5383233e+08
   1.1903968e-10  -8.3621436e-02   5.6235665e+00   8.3956096e-03  -3.5248086e+08
   1.2004001e-10  -8.3269537e-02   5.6141618e+00   8.6142535e-03  -3.5113128e+08
   1.2104035e-10  -8.2918987e-02   5.6046938e+00   8.8375392e-03  -3.4978363e+08
   1.2204068e-10  -8.2569783e-02   5.5951630e+00   9.0655346e-03  -3.4843794e+08
   1.2304101e-10  -8.2221925e-02   5.5855698e+00   9.2983079e-03  -3.4709424e+08
   1.2404135e-10  -8.1875410e-02   5.5759147e+00   9.5359273e-03  -3.4575255e+08
   1.2504168e-10  -8.1530235e-02   5.5661979e+00   9.7784612e-03  -3.4441293e+08
   1.2604201e-10  -8.1186400e-02   5.5564202e+00   1.0025978e-02  -3.4307538e+08
   1.2704235e-10  -8.0843901e-02   5.5465818e+00   1.0278547e-02  -3.4173995e+08
   1.2804268e-10  -8.0502737e-02   5.5366833e+00   1.0536237e-02  -3.4040667e+08
   1.2904301e-10  -8.0162906e-02   5.5267252e+00   1.0799116e-02  -3.3907557e+08
   1.3004335e-10  -7.9824404e-02   5.5167080e+00   1.1067254e-02  -3.3774667e+08
   1.3104368e-10  -7.9487231e-02   5.5066321e+00   1.1340719e-02  -3.3642002e+08
   1.3204401e-10  -7.9151384e-02   5.4964982e+00   1.1619581e-02  -3.3509563e+08
   1.3304435e-10  -7.8816860e-02   5.4863068e+00   1.1903909e-02  -3.3377355e+08
   1.3404468e-10  -7.8483658e-02   5.4760584e+00   1.2193771e-02  -3.3245380e+08
   1.3504502e-10  -7.8151774e-02   5.4657535e+00   1.2489237e-02  -3.3113642e+08
   1.3604535e-10  -7.7821207e-02   5.4553928e+00   1.2790376e-02  -3.2982143e+08
   1.3704568e-10  -7.7491954e-02   5.4449769e+00   1.3097256e-02  -3.2850886e+08
   1.3804602e-10  -7.7164013e-02   5.4345062e+00   1.3409947e-02  -3.2719876e+08
   1.3904635e-10  -7.6837380e-02   5.4239815e+00   1.3728516e-02  -3.2589114e+08
   1.4004668e-10  -7.6512055e-02   5.4134033e+00   1.4053032e-02  -3.2458603e+08
   1.4104702e-10  -7.6188033e-02   5.4027723e+00   1.4383565e-02  -3.2328348e+08
   1.4204735e-10  -7.5865313e-02   5.3920890e+00   1.4720181e-02  -3.2198350e+08
   1.4304768e-10  -7.5543892e-02   5.3813542e+00   1.5062948e-02  -3.2068614e+08
   1.4404802e-10  -7.5223768e-02   5.3705685e+00   1.5411935e-02  -3.1939141e+08
   1.4504835e-10  -7.4904937e-02   5.3597324e+00   1.5767209e-02  -3.1809935e+08
   1.4604868e-10  -7.4587397e-02   5.3488468e+00   1.6128836e-02  -3.1680998e+08
   1.4704902e-10  -7.4271145e-02   5.3379123e+00   1.6496884e-02  -3.1552335e+08
   1.4804935e-10  -7.3956179e-02   5.3269295e+00   1.6871419e-02  -3.1423947e+08
   1.4904968e-10  -7.3642496e-02   5.3158991e+00   1.7252508e-02  -3.1295837e+08
   1.5005002e-10  -7.3330092e-02   5.3048219e+00   1.7640215e-02  -3.1168009e+08
   1.5105035e-10  -7.3018966e-02   5.2936986e+00   1.8034607e-02  -3.1040466e+08
   1.5205068e-10  -7.2709114e-02   5.2825298e+00   1.8435749e-02  -3.0913209e+08
   1.5305102e-10  -7.2400533e-02   5.2713162e+00   1.8843704e-02  -3.0786243e+08
   1.5405135e-10  -7.2093221e-02   5.2600587e+00   1.9258538e-02  -3.0659569e+08
   1.5505168e-10  -7.1787175e-02   5.2487579e+00   1.9680314e-02  -3.0533191e+08
   1.5605202e-10  -7.1482391e-02   5.2374146e+00   2.0109094e-02  -3.0407111e+08
   1.5705235e-10  -7.1178866e-02   5.2260295e+00   2.0544942e-02  -3.0281333e+08
   1.5805268e-10  -7.0876598e-02   5.2146034e+00   2.0987920e-02  -3.0155858e+08
   1.5905302e-10  -7.0575584e-02   5.2031370e+00   2.1438088e-02  -3.0030689e+08
   1.6005335e-10  -7.0275820e-02   5.1916310e+00   2.1895509e-02  -2.9905830e+08
   1.6105368e-10  -6.9977303e-02   5.1800863e+00   2.2360242e-02  -2.9781283e+08
   1.6205402e-10  -6.9680030e-02   5.1685037e+00   2.2832348e-02  -2.9657050e+08
   1.6305435e-10  -6.9383999e-02   5.1568838e+00   2.3311884e-02  -2.9533134e+08
   1.6405468e-10  -6.9089205e-02   5.1452275e+00   2.3798910e-02  -2.9409537e+08
   1.6505502e-10  -6.8795646e-02   5.1335355e+00   2.4293484e-02  -2.9286262e+08
   1.6605535e-10  -6.8503318e-02   5.1218087e+00   2.4795662e-02  -2.9163312e+08
   1.6705569e-10  -6.8212218e-02   5.1100478e+00   2.5305501e-02  -2.9040689e+08
   1.6805602e-10  -6.7922343e-02   5.0982536e+00   2.5823056e-02  -2.8918396e+08
   1.6905635e-10  -6.7633690e-02   5.0864269e+00   2.6348382e-02  -2.8796434e+08
   1.7005669e-10  -6.7346255e-02   5.0745686e+00   2.6881534e-02  -2.8674806e+08
   1.7105702e-10  -6.7060035e-02   5.0626793e+00   2.7422564e-02  -2.8553514e+08
   1.7205735e-10  -6.6775026e-02   5.0507600e+00   2.7971526e-02  -2.8432562e+08
   1.7305769e-10  -6.6491225e-02   5.0388114e+00   2.8528470e-02  -2.8311950e+08
   1.7405802e-10  -6.6208629e-02   5.0268343e+00   2.9093447e-02  -2.8191682e+08
   1.7505835e-10  -6.5927235e-02   5.0148295e+00   2.9666509e-02  -2.8071759e+08
   1.7605869e-10  -6.5647037e-02   5.0027979e+00   3.0247703e-02  -2.7952183e+08
   1.7705902e-10  -6.5368035e-02   4.9907402e+00   3.0837077e-02  -2.7832958e+08
   1.7805935e-10  -6.5090223e-02   4.9786573e+00   3.1434681e-02  -2.7714084e+08
   1.7905969e-10  -6.4813598e-02   4.9665499e+00   3.2040558e-02  -2.7595564e+08
   1.8006002e-10  -6.4538156e-02   4.9544189e+00   3.2654756e-02  -2.7477400e+08
   1.8106035e-10  -6.4263895e-02   4.9422652e+00   3.3277319e-02  -2.7359593e+08
   1.8206069e-10  -6.3990811e-02   4.9300894e+00   3.3908289e-02  -2.7242147e+08
   1.8306102e-10  -6.3718899e-02   4.9178924e+00   3.4547711e-02  -2.7125061e+08
   1.8406135e-10  -6.3448157e-02   4.9056750e+00   3.5195626e-02  -2.7008340e+08
   1.8506169e-10  -6.3178580e-02   4.8934381e+00   3.5852073e-02  -2.6891984e+08
   1.8606202e-10  -6.2910165e-02   4.8811824e+00   3.6517094e-02  -2.6775995e+08
   1.8706235e-10  -6.2642908e-02   4.8689087e+00   3.7190726e-02  -2.6660374e+08
   1.8806269e-10  -6.2376806e-02   4.8566179e+00   3.7873007e-02  -2.6545124e+08
   1.8906302e-10  -6.2111855e-02   4.8443107e+00   3.8563974e-02  -2.6430247e+08
   1.9006335e-10  -6.1848051e-02   4.8319880e+00   3.9263662e-02  -2.6315743e+08
   1.9106369e-10  -6.1585391e-02   4.8196505e+00   3.9972106e-02  -2.6201615e+08
   1.9206402e-10  -6.1323870e-02   4.8072990e+00   4.0689339e-02  -2.6087863e+08
   1.9306435e-10  -6.1063485e-02   4.7949344e+00   4.1415394e-02  -2.5974490e+08
   1.9406469e-10  -6.0804232e-02   4.7825574e+00   4.2150302e-02  -2.5861497e+08
   1.9506502e-10  -6.0546107e-02   4.7701687e+00   4.2894093e-02  -2.5748886e+08
   1.9606536e-10  -6.0289107e-02   4.7577693e+00   4.3646796e-02  -2.5636656e+08
   1.9706569e-10  -6.0033227e-02   4.7453598e+00   4.4408439e-02  -2.5524811e+08
   1.9806602e-10  -5.9778464e-02   4.7329411e+00   4.5179050e-02  -2.5413352e+08
   1.9906636e-10  -5.9524814e-02   4.7205139e+00   4.5958653e-02  -2.5302279e+08
   2.0006669e-10  -5.9272273e-02   4.7080790e+00   4.6747274e-02  -2.5191594e+08
   2.0106702e-10  -5.9020837e-02   4.6956371e+00   4.7544937e-02  -2.5081297e+08
   2.0206736e-10  -5.8770503e-02   4.6831890e+00   4.8351663e-02  -2.4971391e+08
   2.0306769e-10  -5.8521265e-02   4.6707355e+00   4.9167474e-02  -2.4861876e+08
   2.0406802e-10  -5.8273121e-02   4.6582773e+00   4.9992390e-02  -2.4752754e+08
   2.0506836e-10  -5.8026067e-02   4.6458152e+00   5.0826431e-02  -2.4644024e+08
   2.0606869e-10  -5.7780098e-02   4.6333498e+00   5.1669614e-02  -2.4535689e+08
   2.0706902e-10  -5.7535211e-02   4.6208820e+00   5.2521956e-02  -2.4427749e+08
   2.0806936e-10  -5.7291401e-02   4.6084125e+00   5.3383473e-02  -2.4320206e+08
   2.0906969e-10  -5.7048665e-02   4.5959420e+00   5.4254179e-02  -2.4213059e+08
   2.1007002e-10  -5.6806999e-02   4.5834711e+00   5.5134088e-02  -2.4106310e+08
   2.1107036e-10  -5.6566399e-02   4.5710007e+00   5.6023212e-02  -2.3999959e+08
   2.1207069e-10  -5.6326860e-02   4.5585315e+00   5.6921562e-02  -2.3894008e+08
   2.1307102e-10  -5.6088379e-02   4.5460641e+00   5.7829147e-02  -2.3788457e+08
   2.1407136e-10  -5.5850952e-02   4.5335992e+00   5.8745978e-02  -2.3683306e+08
   2.1507169e-10  -5.5614574e-02   4.5211375e+00   5.9672061e-02  -2.3578556e+08
   2.1607202e-10  -5.5379242e-02   4.5086798e+00   6.0607403e-02  -2.3474208e+08
   2.1707236e-10  -5.5144952e-02   4.4962266e+00   6.1552010e-02  -2.3370263e+08
   2.1807269e-10  -5.4911699e-02   4.4837788e+00   6.2505886e-02  -2.3266720e+08
   2.1907302e-10  -5.4679481e-02   4.4713368e+00   6.3469034e-02  -2.3163581e+08
   2.2007336e-10  -5.4448291e-02   4.4589014e+00   6.4441456e-02  -2.3060845e+08
   2.2107369e-10  -5.4218128e-02   4.4464733e+00   6.5423153e-02  -2.2958513e+08
   2.2207402e-10  -5.3988985e-02   4.4340531e+00   6.6414125e-02  -2.2856586e+08
   2.2307436e-10  -5.3760861e-02   4.4216414e+00   6.7414370e-02  -2.2755063e+08
   2.2407469e-10  -5.3533749e-02   4.4092388e+00   6.8423887e-02  -2.2653945e+08
   2.2507503e-10  -5.3307647e-02   4.3968461e+00   6.9442672e-02  -2.2553233e+08
   2.2607536e-10  -5.3082551e-02   4.3844637e+00   7.0470720e-02  -2.2452926e+08
   2.2707569e-10  -5.2858456e-02   4.3720924e+00   7.1508026e-02  -2.2353024e+08
   2.2807603e-10  -5.2635357e-02   4.3597326e+00   7.2554582e-02  -2.2253528e+08
   2.2907636e-10  -5.2413252e-02   4.3473851e+00   7.3610382e-02  -2.2154438e+08
   2.3007669e-10  -5.2192136e-02   4.3350504e+00   7.4675416e-02  -2.2055753e+08
   2.3107703e-10  -5.1972006e-02   4.3227291e+00   7.5749674e-02  -2.1957475e+08
   2.3207736e-10  -5.1752856e-02   4.3104217e+00   7.6833145e-02  -2.1859602e+08
   2.3307769e-10  -5.1534683e-02   4.2981289e+00   7.7925818e-02  -2.1762135e+08
   2.3407803e-10  -5.1317483e-02   4.2858511e+00   7.9027678e-02  -2.1665073e+08
   2.3507836e-10  -5.1101251e-02   4.2735890e+00   8.0138713e-02  -2.1568417e+08
   2.3607869e-10  -5.0885985e-02   4.2613431e+00   8.1258907e-02  -2.1472167e+08
   2.3707903e-10  -5.0671679e-02   4.2491139e+00   8.2388243e-02  -2.1376321e+08
   2.3807936e-10  -5.0458330e-02   4.2369019e+00   8.3526706e-02  -2.1280881e+08
   2.3907969e-10  -5.0245933e-02   4.2247077e+00   8.4674276e-02  -2.1185845e+08
   2.4008003e-10  -5.0034485e-02   4.2125319e+00   8.5830934e-02  -2.1091214e+08
   2.4108036e-10  -4.9823981e-02   4.2003748e+00   8.6996660e-02  -2.0996986e+08
   2.4208069e-10  -4.9614418e-02   4.1882370e+00   8.8171434e-02  -2.0903163e+08
   2.4308103e-10  -4.9405792e-02   4.1761190e+00   8.9355233e-02  -2.0809742e+08
   2.4408136e-10  -4.9198097e-02   4.1640213e+00   9.0548035e-02  -2.0716725e+08
   2.4508169e-10  -4.8991331e-02   4.1519443e+00   9.1749815e-02  -2.0624110e+08
   2.4608203e-10  -4.8785490e-02   4.1398886e+00   9.2960548e-02  -2.0531898e+08
   2.4708236e-10  -4.8580569e-02   4.1278545e+00   9.4180210e-02  -2.0440087e+08
   2.4808269e-10  -4.8376564e-02   4.1158426e+00   9.5408772e-02  -2.0348677e+08
   2.4908303e-10  -4.8173471e-02   4.1038532e+00   9.6646209e-02  -2.0257667e+08
   2.5008336e-10  -4.7971287e-02   4.0918869e+00   9.7892491e-02  -2.0167057e+08
   2.5108369e-10  -4.7770007e-02   4.0799440e+00   9.9147588e-02  -2.0076847e+08
   2.5208403e-10  -4.7569627e-02   4.0680251e+00   1.0041147e-01  -1.9987036e+08
   2.5308436e-10  -4.7370144e-02   4.0561304e+00   1.0168411e-01  -1.9897622e+08
   2.5408469e-10  -4.7171553e-02   4.0442604e+00   1.0296547e-01  -1.9808606e+08
   2.5508503e-10  -4.6973850e-02   4.0324155e+00   1.0425552e-01  -1.9719986e+08
   2.5608536e-10  -4.6777032e-02   4.0205961e+00   1.0555423e-01  -1.9631762e+08
   2.5708570e-10  -4.6581095e-02   4.0088026e+00   1.0686156e-01  -1.9543934e+08
   2.5808603e-10  -4.6386033e-02   3.9970354e+00   1.0817748e-01  -1.9456500e+08
   2.5908636e-10  -4.6191845e-02   3.9852948e+00   1.0950196e-01  -1.9369459e+08
   2.6008670e-10  -4.5998525e-02   3.9735812e+00   1.1083494e-01  -1.9282811e+08
   2.6108703e-10  -4.5806070e-02   3.9618949e+00   1.1217641e-01  -1.9196555e+08
   2.6208736e-10  -4.5614475e-02   3.9502364e+00   1.1352631e-01  -1.9110690e+08
   2.6308770e-10  -4.5423738e-02   3.9386059e+00   1.1488462e-01  -1.9025216e+08
   2.6408803e-10  -4.5233853e-02   3.9270038e+00   1.1625129e-01  -1.8940130e+08
   2.6508836e-10  -4.5044818e-02   3.9154304e+00   1.1762627e-01  -1.8855433e+08
   2.6608870e-10  -4.4856628e-02   3.9038860e+00   1.1900954e-01  -1.8771123e+08
   2.6708903e-10  -4.4669279e-02   3.8923710e+00   1.2040105e-01  -1.8687200e+08
   2.6808936e-10  -4.4482768e-02   3.8808857e+00   1.2180076e-01  -1.8603662e+08
   2.6908970e-10  -4.4297090e-02   3.8694303e+00   1.2320862e-01  -1.8520508e+08
   2.7009003e-10  -4.4112243e-02   3.8580051e+00   1.2462458e-01  -1.8437738e+08
   2.7109036e-10  -4.3928221e-02   3.8466105e+00   1.2604862e-01  -1.8355350e+08
   2.7209070e-10  -4.3745021e-02   3.8352467e+00   1.2748068e-01  -1.8273343e+08
   2.7309103e-10  -4.3562640e-02   3.8239140e+00   1.2892071e-01  -1.8191716e+08
   2.7409136e-10  -4.3381073e-02   3.8126126e+00   1.3036867e-01  -1.8110469e+08
   2.7509170e-10  -4.3200317e-02   3.8013429e+00   1.3182452e-01  -1.8029599e+08
   2.7609203e-10  -4.3020369e-02   3.7901050e+00   1.3328820e-01  -1.7949106e+08
   2.7709236e-10  -4.2841223e-02   3.7788993e+00   1.3475967e-01  -1.7868989e+08
   2.7809270e-10  -4.2662877e-02   3.7677258e+00   1.3623888e-01  -1.7789246e+08
   2.7909303e-10  -4.2485327e-02   3.7565850e+00   1.3772578e-01  -1.7709877e+08
   2.8009336e-10  -4.2308568e-02   3.7454770e+00   1.3922033e-01  -1.7630880e+08
   2.8109370e-10  -4.2132598e-02   3.7344020e+00   1.4072246e-01  -1.7552254e+08
   2.8209403e-10  -4.1957413e-02   3.7233603e+00   1.4223214e-01  -1.7473998e+08
   2.8309436e-10  -4.1783009e-02   3.7123520e+00   1.4374932e-01  -1.7396110e+08
   2.8409470e-10  -4.1609381e-02   3.7013774e+00   1.4527393e-01  -1.7318589e+08
   2.8509503e-10  -4.1436528e-02   3.6904366e+00   1.4680593e-01  -1.7241435e+08
   2.8609537e-10  -4.1264444e-02   3.6795299e+00   1.4834527e-01  -1.7164645e+08
   2.8709570e-10  -4.1093127e-02   3.6686574e+00   1.4989189e-01  -1.7088219e+08
   2.8809603e-10  -4.0922572e-02   3.6578193e+00   1.5144574e-01  -1.7012155e+08
   2.8909637e-10  -4.0752776e-02   3.6470159e+00   1.5300678e-01  -1.6936452e+08
   2.9009670e-10  -4.0583736e-02   3.6362471e+00   1.5457493e-01  -1.6861108e+08
   2.9109703e-10  -4.0415447e-02   3.6255133e+00   1.5615016e-01  -1.6786123e+08
   2.9209737e-10  -4.0247907e-02   3.6148145e+00   1.5773240e-01  -1.6711495e+08
   2.9309770e-10  -4.0081111e-02   3.6041509e+00   1.5932161e-01  -1.6637222e+08
   2.9409803e-10  -3.9915057e-02   3.5935227e+00   1.6091772e-01  -1.6563304e+08
   2.9509837e-10  -3.9749740e-02   3.5829300e+00   1.6252067e-01  -1.6489738e+08
   2.9609870e-10  -3.9585157e-02   3.5723730e+00   1.6413043e-01  -1.6416525e+08
   2.9709903e-10  -3.9421305e-02   3.5618517e+00   1.6574692e-01  -1.6343661e+08
   2.9809937e-10  -3.9258180e-02   3.5513663e+00   1.6737009e-01  -1.6271146e+08
   2.9909970e-10  -3.9095779e-02   3.5409168e+00   1.6899989e-01  -1.6198979e+08
   3.0010003e-10  -3.8934098e-02   3.5305035e+00   1.7063626e-01  -1.6127158e+08
   3.0110037e-10  -3.8773133e-02   3.5201265e+00   1.7227914e-01  -1.6055681e+08
   3.0210070e-10  -3.8612882e-02   3.5097858e+00   1.7392847e-01  -1.5984548e+08
   3.0310103e-10  -3.8453340e-02   3.4994815e+00   1.7558419e-01  -1.5913757e+08
   3.0410137e-10  -3.8294505e-02   3.4892137e+00   1.7724625e-01  -1.5843306e+08
   3.0510170e-10  -3.8136373e-02   3.4789825e+00   1.7891460e-01  -1.5773194e+08
   3.0610203e-10  -3.7978940e-02   3.4687880e+00   1.8058916e-01  -1.5703420e+08
   3.0710237e-10  -3.7822204e-02   3.4586303e+00   1.8226988e-01  -1.5633982e+08
   3.0810270e-10  -3.7666160e-02   3.4485095e+00   1.8395671e-01  -1.5564878e+08
   3.0910303e-10  -3.7510806e-02   3.4384256e+00   1.8564958e-01  -1.5496108e+08
   3.1010337e-10  -3.7356139e-02   3.4283787e+00   1.8734843e-01  -1.5427670e+08
   3.1110370e-10  -3.7202154e-02   3.4183688e+00   1.8905321e-01  -1.5359562e+08
   3.1210403e-10  -3.7048849e-02   3.4083960e+00   1.9076385e-01  -1.5291784e+08
   3.1310437e-10  -3.6896220e-02   3.3984604e+00   1.9248030e-01  -1.5224333e+08
   3.1410470e-10  -3.6744265e-02   3.3885621e+00   1.9420250e-01  -1.5157208e+08
   3.1510504e-10  -3.6592979e-02   3.3787009e+00   1.9593038e-01  -1.5090407e+08
   3.1610537e-10  -3.6442359e-02   3.3688771e+00   1.9766389e-01  -1.5023930e+08
   3.1710570e-10  -3.6292403e-02   3.3590907e+00   1.9940296e-01  -1.4957775e+08
   3.1810604e-10  -3.6143108e-02   3.3493415e+00   2.0114754e-01  -1.4891939e+08
   3.1910637e-10  -3.5994469e-02   3.3396299e+00   2.0289756e-01  -1.4826423e+08
   3.2010670e-10  -3.5846483e-02   3.3299556e+00   2.0465296e-01  -1.4761224e+08
   3.2110704e-10  -3.5699149e-02   3.3203188e+00   2.0641369e-01  -1.4696341e+08
   3.2210737e-10  -3.5552462e-02   3.3107194e+00   2.0817968e-01  -1.4631772e+08
   3.2310770e-10  -3.5406419e-02   3.3011576e+00   2.0995087e-01  -1.4567517e+08
   3.2410804e-10  -3.5261017e-02   3.2916332e+00   2.1172721e-01  -1.4503572e+08
   3.2510837e-10  -3.5116254e-02   3.2821464e+00   2.1350862e-01  -1.4439938e+08
   3.2610870e-10  -3.4972125e-02   3.2726970e+00   2.1529506e-01  -1.4376613e+08
   3.2710904e-10  -3.4828629e-02   3.2632852e+00   2.1708645e-01  -1.4313594e+08
   3.2810937e-10  -3.4685761e-02   3.2539109e+00   2.1888274e-01  -1.4250881e+08
   3.2910970e-10  -3.4543519e-02   3.2445741e+00   2.2068386e-01  -1.4188473e+08
   3.3011004e-10  -3.4401899e-02   3.2352748e+00   2.2248976e-01  -1.4126367e+08
   3.3111037e-10  -3.4260900e-02   3.2260130e+00   2.2430038e-01  -1.4064562e+08
   3.3211070e-10  -3.4120517e-02   3.2167887e+00   2.2611565e-01  -1.4003057e+08
   3.3311104e-10  -3.3980748e-02   3.2076019e+00   2.2793551e-01  -1.3941850e+08
   3.3411137e-10  -3.3841589e-02   3.1984524e+00   2.2975991e-01  -1.3880941e+08
   3.3511170e-10  -3.3703039e-02   3.1893404e+00   2.3158878e-01  -1.3820326e+08
   3.3611204e-10  -3.3565093e-02   3.1802658e+00   2.3342205e-01  -1.3760006e+08
   3.3711237e-10  -3.3427749e-02   3.1712286e+00   2.3525968e-01  -1.3699978e+08
   3.3811270e-10  -3.3291004e-02   3.1622287e+00   2.3710159e-01  -1.3640242e+08
   3.3911304e-10  -3.3154855e-02   3.1532661e+00   2.3894774e-01  -1.3580794e+08
   3.4011337e-10  -3.3019300e-02   3.1443407e+00   2.4079805e-01  -1.3521635e+08
   3.4111370e-10  -3.2884335e-02   3.1354526e+00   2.4265246e-01  -1.3462763e+08
   3.4211404e-10  -3.2749957e-02   3.1266017e+00   2.4451093e-01  -1.3404176e+08
   3.4311437e-10  -3.2616164e-02   3.1177879e+00   2.4637338e-01  -1.3345873e+08
   3.4411470e-10  -3.2482952e-02   3.1090112e+00   2.4823976e-01  -1.3287853e+08
   3.4511504e-10  -3.2350320e-02   3.1002716e+00   2.5011000e-01  -1.3230113e+08
   3.4611537e-10  -3.2218264e-02   3.0915689e+00   2.5198405e-01  -1.3172653e+08
   3.4711571e-10  -3.2086781e-02   3.0829032e+00   2.5386184e-01  -1.3115471e+08
   3.4811604e-10  -3.1955869e-02   3.0742744e+00   2.5574332e-01  -1.3058566e+08
   3.4911637e-10  -3.1825524e-02   3.0656824e+00   2.5762843e-01  -1.3001936e+08
   3.5011671e-10  -3.1695745e-02   3.0571272e+00   2.5951710e-01  -1.2945580e+08
   3.5111704e-10  -3.1566528e-02   3.0486087e+00   2.6140928e-01  -1.2889497e+08
   3.5211737e-10  -3.1437871e-02   3.0401269e+00   2.6330491e-01  -1.2833684e+08
   3.5311771e-10  -3.1309770e-02   3.0316816e+00   2.6520393e-01  -1.2778142e+08
   3.5411804e-10  -3.1182224e-02   3.0232729e+00   2.6710627e-01  -1.2722867e+08
   3.5511837e-10  -3.1055230e-02   3.0149006e+00   2.6901189e-01  -1.2667860e+08
   3.5611871e-10  -3.0928784e-02   3.0065647e+00   2.7092072e-01  -1.2613117e+08
   3.5711904e-10  -3.0802885e-02   2.9982650e+00   2.7283270e-01  -1.2558640e+08
   3.5811937e-10  -3.0677529e-02   2.9900017e+00   2.7474778e-01  -1.2504424e+08
   3.5911971e-10  -3.0552714e-02   2.9817744e+00   2.7666589e-01  -1.2450471e+08
   3.6012004e-10  -3.0428438e-02   2.9735833e+00   2.7858698e-01  -1.2396777e+08
   3.6112037e-10  -3.0304697e-02   2.9654281e+00   2.8051099e-01  -1.2343341e+08
   3.6212071e-10  -3.0181490e-02   2.9573089e+00   2.8243787e-01  -1.2290164e+08
   3.6312104e-10  -3.0058813e-02   2.9492255e+00   2.8436755e-01  -1.2237242e+08
   3.6412137e-10  -2.9936665e-02   2.9411778e+00   2.8629997e-01  -1.2184574e+08
   3.6512171e-10  -2.9815042e-02   2.9331658e+00   2.8823509e-01  -1.2132160e+08
   3.6612204e-10  -2.9693942e-02   2.9251894e+00   2.9017284e-01  -1.2079997e+08
   3.6712237e-10  -2.9573362e-02   2.9172485e+00   2.9211317e-01  -1.2028086e+08
   3.6812271e-10  -2.9453301e-02   2.9093430e+00   2.9405602e-01  -1.1976423e+08
   3.6912304e-10  -2.9333755e-02   2.9014728e+00   2.9600133e-01  -1.1925008e+08
   3.7012337e-10  -2.9214722e-02   2.8936378e+00   2.9794905e-01  -1.1873840e+08
   3.7112371e-10  -2.9096200e-02   2.8858379e+00   2.9989912e-01  -1.1822917e+08
   3.7212404e-10  -2.8978186e-02   2.8780731e+00   3.0185149e-01  -1.1772238e+08
   3.7312437e-10  -2.8860678e-02   2.8703432e+00   3.0380609e-01  -1.1721802e+08
   3.7412471e-10  -2.8743673e-02   2.8626481e+00   3.0576288e-01  -1.1671607e+08
   3.7512504e-10  -2.8627169e-02   2.8549878e+00   3.0772181e-01  -1.1621652e+08
   3.7612538e-10  -2.8511163e-02   2.8473621e+00   3.0968280e-01  -1.1571936e+08
   3.7712571e-10  -2.8395654e-02   2.8397709e+00   3.1164582e-01  -1.1522457e+08
   3.7812604e-10  -2.8280638e-02   2.8322142e+00   3.1361080e-01  -1.1473214e+08
   3.7912638e-10  -2.8166114e-02   2.8246918e+00   3.1557770e-01  -1.1424207e+08
   3.8012671e-10  -2.8052078e-02   2.8172037e+00   3.1754645e-01  -1.1375433e+08
   3.8112704e-10  -2.7938530e-02   2.8097497e+00   3.1951701e-01  -1.1326891e+08
   3.8212738e-10  -2.7825466e-02   2.8023297e+00   3.2148932e-01  -1.1278581e+08
   3.8312771e-10  -2.7712884e-02   2.7949436e+00   3.2346332e-01  -1.1230501e+08
   3.8412804e-10  -2.7600782e-02   2.7875914e+00   3.2543897e-01  -1.1182649e+08
   3.8512838e-10  -2.7489157e-02   2.7802728e+00   3.2741622e-01  -1.1135024e+08
   3.8612871e-10  -2.7378007e-02   2.7729879e+00   3.2939500e-01  -1.1087626e+08
   3.8712904e-10  -2.7267331e-02   2.7657364e+00   3.3137527e-01  -1.1040453e+08
   3.8812938e-10  -2.7157125e-02   2.7585184e+00   3.3335697e-01  -1.0993504e+08
   3.8912971e-10  -2.7047388e-02   2.7513335e+00   3.3534006e-01  -1.0946777e+08
   3.9013004e-10  -2.6938117e-02   2.7441819e+00   3.3732448e-01  -1.0900271e+08
   3.9113038e-10  -2.6829311e-02   2.7370633e+00   3.3931018e-01  -1.0853986e+08
   3.9213071e-10  -2.6720966e-02   2.7299776e+00   3.4129712e-01  -1.0807920e+08
   3.9313104e-10  -2.6613081e-02   2.7229247e+00   3.4328523e-01  -1.0762071e+08
   3.9413138e-10  -2.6505653e-02   2.7159046e+00   3.4527447e-01  -1.0716439e+08
   3.9513171e-10  -2.6398681e-02   2.7089170e+00   3.4726480e-01  -1.0671022e+08
   3.9613204e-10  -2.6292162e-02   2.7019620e+00   3.4925615e-01  -1.0625820e+08
   3.9713238e-10  -2.6186094e-02   2.6950393e+00   3.5124848e-01  -1.0580831e+08
   3.9813271e-10  -2.6080475e-02   2.6881488e+00   3.5324174e-01  -1.0536053e+08
   3.9913304e-10  -2.5975303e-02   2.6812905e+00   3.5523589e-01  -1.0491487e+08
   4.0013338e-10  -2.5870576e-02   2.6744642e+00   3.5723086e-01  -1.0447130e+08
   4.0113371e-10  -2.5766291e-02   2.6676697e+00   3.5922663e-01  -1.0402981e+08
   4.0213404e-10  -2.5662447e-02   2.6609071e+00   3.6122313e-01  -1.0359040e+08
   4.0313438e-10  -2.5559042e-02   2.6541761e+00   3.6322031e-01  -1.0315305e+08
   4.0413471e-10  -2.5456073e-02   2.6474767e+00   3.6521814e-01  -1.0271775e+08
   4.0513505e-10  -2.5353538e-02   2.6408087e+00   3.6721657e-01  -1.0228450e+08
   4.0613538e-10  -2.5251436e-02   2.6341720e+00   3.6921554e-01  -1.0185327e+08
   4.0713571e-10  -2.5149764e-02   2.6275666e+00   3.7121501e-01  -1.0142406e+08
   4.0813605e-10  -2.5048520e-02   2.6209921e+00   3.7321493e-01  -1.0099685e+08
   4.0913638e-10  -2.4947703e-02   2.6144487e+00   3.7521527e-01  -1.0057164e+08
   4.1013671e-10  -2.4847310e-02   2.6079360e+00   3.7721596e-01  -1.0014842e+08
   4.1113705e-10  -2.4747340e-02   2.6014541e+00   3.7921697e-01  -9.9727170e+07
   4.1213738e-10  -2.4647790e-02   2.5950028e+00   3.8121825e-01  -9.9307885e+07
   4.1313771e-10  -2.4548658e-02   2.5885819e+00   3.8321976e-01  -9.8890552e+07
   4.1413805e-10  -2.4449943e-02   2.5821914e+00   3.8522145e-01  -9.8475162e+07
   4.1513838e-10  -2.4351642e-02   2.5758311e+00   3.8722328e-01  -9.8061703e+07
   4.1613871e-10  -2.4253754e-02   2.5695010e+00   3.8922520e-01  -9.7650166e+07
   4.1713905e-10  -2.4156277e-02   2.5632008e+00   3.9122717e-01  -9.7240540e+07
   4.1813938e-10  -2.4059208e-02   2.5569305e+00   3.9322914e-01  -9.6832814e+07
   4.1913971e-10  -2.3962547e-02   2.5506899e+00   3.9523108e-01  -9.6426979e+07
   4.2014005e-10  -2.3866290e-02   2.5444790e+00   3.9723293e-01  -9.6023023e+07
   4.2114038e-10  -2.3770437e-02   2.5382975e+00   3.9923467e-01  -9.5620938e+07
   4.2214071e-10  -2.3674985e-02   2.5321455e+00   4.0123623e-01  -9.5220712e+07
   4.2314105e-10  -2.3579932e-02   2.5260227e+00   4.0323759e-01  -9.4822335e+07
   4.2414138e-10  -2.3485277e-02   2.5199291e+00   4.0523870e-01  -9.4425798e+07
   4.2514171e-10  -2.3391018e-02   2.5138644e+00   4.0723952e-01  -9.4031091e+07
   4.2614205e-10  -2.3297152e-02   2.5078287e+00   4.0924001e-01  -9.3638204e+07
   4.2714238e-10  -2.3203679e-02   2.5018217e+00   4.1124013e-01  -9.3247126e+07
   4.2814271e-10  -2.3110596e-02   2.4958434e+00   4.1323983e-01  -9.2857849e+07
   4.2914305e-10  -2.3017901e-02   2.4898936e+00   4.1523907e-01  -9.2470362e+07
   4.3014338e-10  -2.2925593e-02   2.4839723e+00   4.1723783e-01  -9.2084656e+07
   4.3114371e-10  -2.2833670e-02   2.4780792e+00   4.1923605e-01  -9.1700721e+07
   4.3214405e-10  -2.2742131e-02   2.4722143e+00   4.2123369e-01  -9.1318548e+07
   4.3314438e-10  -2.2650973e-02   2.4663774e+00   4.2323073e-01  -9.0938127e+07
   4.3414471e-10  -2.2560194e-02   2.4605685e+00   4.2522711e-01  -9.0559449e+07
   4.3514505e-10  -2.2469793e-02   2.4547874e+00   4.2722281e-01  -9.0182503e+07
   4.3614538e-10  -2.2379769e-02   2.4490339e+00   4.2921778e-01  -8.9807282e+07
   4.3714572e-10  -2.2290119e-02   2.4433080e+00   4.3121198e-01  -8.9433776e+07
   4.3814605e-10  -2.2200842e-02   2.4376096e+00   4.3320538e-01  -8.9061975e+07
   4.3914638e-10  -2.2111935e-02   2.4319385e+00   4.3519793e-01  -8.8691871e+07
   4.4014672e-10  -2.2023399e-02   2.4262946e+00   4.3718962e-01  -8.8323454e+07
   4.4114705e-10  -2.1935230e-02   2.4206777e+00   4.3918038e-01  -8.7956715e+07
   4.4214738e-10  -2.1847427e-02   2.4150879e+00   4.4117020e-01  -8.7591646e+07
   4.4314772e-10  -2.1759988e-02   2.4095248e+00   4.4315903e-01  -8.7228236e+07
   4.4414805e-10  -2.1672912e-02   2.4039885e+00   4.4514683e-01  -8.6866479e+07
   4.4514838e-10  -2.1586197e-02   2.3984788e+00   4.4713358e-01  -8.6506364e+07
   4.4614872e-10  -2.1499841e-02   2.3929956e+00   4.4911923e-01  -8.6147882e+07
   4.4714905e-10  -2.1413844e-02   2.3875387e+00   4.5110376e-01  -8.5791026e+07
   4.4814938e-10  -2.1328202e-02   2.3821081e+00   4.5308712e-01  -8.5435787e+07
   4.4914972e-10  -2.1242915e-02   2.3767036e+00   4.5506928e-01  -8.5082155e+07
   4.5015005e-10  -2.1157981e-02   2.3713251e+00   4.5705022e-01  -8.4730123e+07
   4.5115038e-10  -2.1073398e-02   2.3659725e+00   4.5902988e-01  -8.4379681e+07
   4.5215072e-10  -2.0989165e-02   2.3606456e+00   4.6100825e-01  -8.4030822e+07
   4.5315105e-10  -2.0905280e-02   2.3553444e+00   4.6298528e-01  -8.3683537e+07
   4.5415138e-10  -2.0821742e-02   2.3500688e+00   4.6496095e-01  -8.3337818e+07
   4.5515172e-10  -2.0738549e-02   2.3448186e+00   4.6693522e-01  -8.2993656e+07
   4.5615205e-10  -2.0655699e-02   2.3395936e+00   4.6890806e-01  -8.2651042e+07
   4.5715238e-10  -2.0573192e-02   2.3343939e+00   4.7087944e-01  -8.2309970e+07
   4.5815272e-10  -2.0491024e-02   2.3292192e+00   4.7284932e-01  -8.1970431e+07
   4.5915305e-10  -2.0409196e-02   2.3240695e+00   4.7481767e-01  -8.1632416e+07
   4.6015338e-10  -2.0327705e-02   2.3189446e+00   4.7678447e-01  -8.1295918e+07
   4.6115372e-10  -2.0246550e-02   2.3138444e+00   4.7874968e-01  -8.0960929e+07
   4.6215405e-10  -2.0165729e-02   2.3087688e+00   4.8071326e-01  -8.0627440e+07
   4.6315438e-10  -2.0085241e-02   2.3037177e+00   4.8267520e-01  -8.0295444e+07
   4.6415472e-10  -2.0005084e-02   2.2986910e+00   4.8463546e-01  -7.9964933e+07
   4.6515505e-10  -1.9925258e-02   2.2936886e+00   4.8659401e-01  -7.9635899e+07
   4.6615539e-10  -1.9845759e-02   2.2887103e+00   4.8855082e-01  -7.9308335e+07
   4.6715572e-10  -1.9766588e-02   2.2837560e+00   4.9050586e-01  -7.8982232e+07
   4.6815605e-10  -1.9687742e-02   2.2788256e+00   4.9245910e-01  -7.8657583e+07
   4.6915639e-10  -1.9609220e-02   2.2739191e+00   4.9441051e-01  -7.8334381e+07
   4.7015672e-10  -1.9531021e-02   2.2690362e+00   4.9636007e-01  -7.8012618e+07
   4.7115705e-10  -1.9453143e-02   2.2641769e+00   4.9830775e-01  -7.7692286e+07
   4.7215739e-10  -1.9375584e-02   2.2593411e+00   5.0025351e-01  -7.7373378e+07
   4.7315772e-10  -1.9298344e-02   2.2545286e+00   5.0219734e-01  -7.7055886e+07
   4.7415805e-10  -1.9221421e-02   2.2497394e+00   5.0413919e-01  -7.6739804e+07
   4.7515839e-10  -1.9144813e-02   2.2449733e+00   5.0607906e-01  -7.6425123e+07
   4.7615872e-10  -1.9068520e-02   2.2402303e+00   5.0801690e-01  -7.6111837e+07
   4.7715905e-10  -1.8992539e-02   2.2355101e+00   5.0995270e-01  -7.5799938e+07
   4.7815939e-10  -1.8916869e-02   2.2308128e+00   5.1188642e-01  -7.5489420e+07
   4.7915972e-10  -1.8841509e-02   2.2261381e+00   5.1381804e-01  -7.5180274e+07
   4.8016005e-10  -1.8766458e-02   2.2214861e+00   5.1574753e-01  -7.4872494e+07
   4.8116039e-10  -1.8691714e-02   2.2168565e+00   5.1767488e-01  -7.4566074e+07
   4.8216072e-10  -1.8617276e-02   2.2122492e+00   5.1960004e-01  -7.4261004e+07
   4.8316105e-10  -1.8543142e-02   2.2076642e+00   5.2152301e-01  -7.3957280e+07
   4.8416139e-10  -1.8469312e-02   2.2031014e+00   5.2344375e-01  -7.3654894e+07
   4.8516172e-10  -1.8395783e-02   2.1985606e+00   5.2536224e-01  -7.3353839e+07
   4.8616205e-10  -1.8322555e-02   2.1940418e+00   5.2727845e-01  -7.3054108e+07
   4.8716239e-10  -1.8249626e-02   2.1895447e+00   5.2919236e-01  -7.2755694e+07
   4.8816272e-10  -1.8176995e-02   2.1850694e+00   5.3110395e-01  -7.2458591e+07
   4.8916305e-10  -1.8104660e-02   2.1806158e+00   5.3301319e-01  -7.2162792e+07
   4.9016339e-10  -1.8032621e-02   2.1761836e+00   5.3492006e-01  -7.1868290e+07
   4.9116372e-10  -1.7960876e-02   2.1717728e+00   5.3682454e-01  -7.1575079e+07
   4.9216405e-10  -1.7889423e-02   2.1673833e+00   5.3872660e-01  -7.1283152e+07
   4.9316439e-10  -1.7818262e-02   2.1630151e+00   5.4062623e-01  -7.0992503e+07
   4.9416472e-10  -1.7747390e-02   2.1586679e+00   5.4252339e-01  -7.0703124e+07
   4.9516506e-10  -1.7676808e-02   2.1543417e+00   5.4441807e-01  -7.0415010e+07
   4.9616539e-10  -1.7606513e-02   2.1500364e+00   5.4631024e-01  -7.0128155e+07
   4.9716572e-10  -1.7536505e-02   2.1457519e+00   5.4819989e-01  -6.9842551e+07
   4.9816606e-10  -1.7466781e-02   2.1414880e+00   5.5008700e-01  -6.9558192e+07
   4.9916639e-10  -1.7397342e-02   2.1372448e+00   5.5197153e-01  -6.9275073e+07
   5.0016672e-10  -1.7328185e-02   2.1330220e+00   5.5385347e-01  -6.8993186e+07
   5.0116706e-10  -1.7259309e-02   2.1288196e+00   5.5573281e-01  -6.8712526e+07
   5.0216739e-10  -1.7190714e-02   2.1246374e+00   5.5760951e-01  -6.8433086e+07
   5.0316772e-10  -1.7122397e-02   2.1204755e+00   5.5948357e-01  -6.8154861e+07
   5.0416806e-10  -1.7054358e-02   2.1163336e+00   5.6135495e-01  -6.7877844e+07
   5.0516839e-10  -1.6986596e-02   2.1122117e+00   5.6322364e-01  -6.7602029e+07
   5.0616872e-10  -1.6919109e-02   2.1081096e+00   5.6508963e-01  -6.7327410e+07
   5.0716906e-10  -1.6851896e-02   2.1040274e+00   5.6695288e-01  -6.7053981e+07
   5.0816939e-10  -1.6784956e-02   2.0999648e+00   5.6881339e-01  -6.6781736e+07
   5.0916972e-10  -1.6718288e-02   2.0959218e+00   5.7067113e-01  -6.6510669e+07
   5.1017006e-10  -1.6651890e-02   2.0918983e+00   5.7252609e-01  -6.6240775e+07
   5.1117039e-10  -1.6585762e-02   2.0878942e+00   5.7437825e-01  -6.5972047e+07
   5.1217072e-10  -1.6519902e-02   2.0839093e+00   5.7622758e-01  -6.5704480e+07
   5.1317106e-10  -1.6454309e-02   2.0799437e+00   5.7807408e-01  -6.5438067e+07
   5.1417139e-10  -1.6388982e-02   2.0759972e+00   5.7991771e-01  -6.5172804e+07
   5.1517172e-10  -1.6323919e-02   2.0720696e+00   5.8175848e-01  -6.4908684e+07
   5.1617206e-10  -1.6259121e-02   2.0681610e+00   5.8359636e-01  -6.4645701e+07
   5.1717239e-10  -1.6194585e-02   2.0642712e+00   5.8543132e-01  -6.4383851e+07
   5.1817272e-10  -1.6130310e-02   2.0604001e+00   5.8726337e-01  -6.4123127e+07
   5.1917306e-10  -1.6066295e-02   2.0565476e+00   5.8909247e-01  -6.3863524e+07
   5.2017339e-10  -1.6002540e-02   2.0527137e+00   5.9091861e-01  -6.3605037e+07
   5.2117372e-10  -1.5939043e-02   2.0488982e+00   5.9274179e-01  -6.3347659e+07
   5.2217406e-10  -1.5875802e-02   2.0451010e+00   5.9456197e-01  -6.3091386e+07
   5.2317439e-10  -1.5812818e-02   2.0413221e+00   5.9637915e-01  -6.2836211e+07
   5.2417472e-10  -1.5750088e-02   2.0375614e+00   5.9819331e-01  -6.2582130e+07
   5.2517506e-10  -1.5687611e-02   2.0338188e+00   6.0000443e-01  -6.2329138e+07
   5.2617539e-10  -1.5625388e-02   2.0300941e+00   6.0181250e-01  -6.2077228e+07
   5.2717573e-10  -1.5563415e-02   2.0263873e+00   6.0361751e-01  -6.1826395e+07
   5.2817606e-10  -1.5501693e-02   2.0226983e+00   6.0541944e-01  -6.1576635e+07
   5.2917639e-10  -1.5440221e-02   2.0190270e+00   6.0721827e-01  -6.1327942e+07
   5.3017673e-10  -1.5378996e-02   2.0153734e+00   6.0901400e-01  -6.1080311e+07
   5.3117706e-10  -1.5318019e-02   2.0117373e+00   6.1080661e-01  -6.0833736e+07
   5.3217739e-10  -1.5257288e-02   2.0081186e+00   6.1259607e-01  -6.0588213e+07
   5.3317773e-10  -1.5196802e-02   2.0045173e+00   6.1438239e-01  -6.0343736e+07
   5.3417806e-10  -1.5136560e-02   2.0009333e+00   6.1616555e-01  -6.0100300e+07
   5.3517839e-10  -1.5076561e-02   1.9973664e+00   6.1794553e-01  -5.9857901e+07
   5.3617873e-10  -1.5016804e-02   1.9938166e+00   6.1972232e-01  -5.9616532e+07
   5.3717906e-10  -1.4957288e-02   1.9902839e+00   6.2149591e-01  -5.9376190e+07
   5.3817939e-10  -1.4898012e-02   1.9867681e+00   6.2326629e-01  -5.9136870e+07
   5.3917973e-10  -1.4838975e-02   1.9832691e+00   6.2503344e-01  -5.8898565e+07
   5.4018006e-10  -1.4780175e-02   1.9797868e+00   6.2679735e-01  -5.8661272e+07
   5.4118039e-10  -1.4721613e-02   1.9763213e+00   6.2855801e-01  -5.8424985e+07
   5.4218073e-10  -1.4663286e-02   1.9728723e+00   6.3031541e-01  -5.8189700e+07
   5.4318106e-10  -1.4605194e-02   1.9694398e+00   6.3206953e-01  -5.7955412e+07
   5.4418139e-10  -1.4547336e-02   1.9660237e+00   6.3382037e-01  -5.7722116e+07
   5.4518173e-10  -1.4489711e-02   1.9626240e+00   6.3556791e-01  -5.7489807e+07
   5.4618206e-10  -1.4432318e-02   1.9592405e+00   6.3731214e-01  -5.7258481e+07
   5.4718239e-10  -1.4375156e-02   1.9558732e+00   6.3905305e-01  -5.7028133e+07
   5.4818273e-10  -1.4318224e-02   1.9525220e+00   6.4079064e-01  -5.6798757e+07
   5.4918306e-10  -1.4261520e-02   1.9491867e+00   6.4252488e-01  -5.6570351e+07
   5.5018339e-10  -1.4205045e-02   1.9458674e+00   6.4425577e-01  -5.6342908e+07
   5.5118373e-10  -1.4148797e-02   1.9425640e+00   6.4598330e-01  -5.6116425e+07
   5.5218406e-10  -1.4092774e-02   1.9392763e+00   6.4770746e-01  -5.5890896e+07
   5.5318439e-10  -1.4036977e-02   1.9360043e+00   6.4942824e-01  -5.5666317e+07
   5.5418473e-10  -1.3981404e-02   1.9327479e+00   6.5114563e-01  -5.5442685e+07
   5.5518506e-10  -1.3926055e-02   1.9295070e+00   6.5285962e-01  -5.5219993e+07
   5.5618540e-10  -1.3870927e-02   1.9262816e+00   6.5457020e-01  -5.4998238e+07
   5.5718573e-10  -1.3816021e-02   1.9230715e+00   6.5627737e-01  -5.4777416e+07
   5.5818606e-10  -1.3761336e-02   1.9198767e+00   6.5798110e-01  -5.4557521e+07
   5.5918640e-10  -1.3706870e-02   1.9166972e+00   6.5968140e-01  -5.4338550e+07
   5.6018673e-10  -1.3652622e-02   1.9135327e+00   6.6137826e-01  -5.4120498e+07
   5.6118706e-10  -1.3598592e-02   1.9103834e+00   6.6307166e-01  -5.3903361e+07
   5.6218740e-10  -1.3544779e-02   1.9072490e+00   6.6476160e-01  -5.3687135e+07
   5.6318773e-10  -1.3491182e-02   1.9041295e+00   6.6644807e-01  -5.3471814e+07
   5.6418806e-10  -1.3437800e-02   1.9010248e+00   6.6813107e-01  -5.3257396e+07
   5.6518840e-10  -1.3384631e-02   1.8979349e+00   6.6981057e-01  -5.3043876e+07
   5.6618873e-10  -1.3331676e-02   1.8948597e+00   6.7148659e-01  -5.2831249e+07
   5.6718906e-10  -1.3278933e-02   1.8917991e+00   6.7315910e-01  -5.2619511e+07
   5.6818940e-10  -1.3226402e-02   1.8887530e+00   6.7482811e-01  -5.2408659e+07
   5.6918973e-10  -1.3174081e-02   1.8857214e+00   6.7649360e-01  -5.2198687e+07
   5.7019006e-10  -1.3121970e-02   1.8827042e+00   6.7815557e-01  -5.1989593e+07
   5.7119040e-10  -1.3070067e-02   1.8797012e+00   6.7981401e-01  -5.1781371e+07
   5.7219073e-10  -1.3018372e-02   1.8767125e+00   6.8146892e-01  -5.1574019e+07
   5.7319106e-10  -1.2966884e-02   1.8737380e+00   6.8312028e-01  -5.1367531e+07
   5.7419140e-10  -1.2915602e-02   1.8707776e+00   6.8476810e-01  -5.1161903e+07
   5.7519173e-10  -1.2864526e-02   1.8678312e+00   6.8641235e-01  -5.0957133e+07
   5.7619206e-10  -1.2813654e-02   1.8648987e+00   6.8805305e-01  -5.0753215e+07
   5.7719240e-10  -1.2762986e-02   1.8619801e+00   6.8969018e-01  -5.0550146e+07
   5.7819273e-10  -1.2712520e-02   1.8590754e+00   6.9132374e-01  -5.0347922e+07
   5.7919306e-10  -1.2662256e-02   1.8561843e+00   6.9295372e-01  -5.0146539e+07
   5.8019340e-10  -1.2612193e-02   1.8533070e+00   6.9458012e-01  -4.9945994e+07
   5.8119373e-10  -1.2562330e-02   1.8504432e+00   6.9620292e-01  -4.9746281e+07
   5.8219406e-10  -1.2512667e-02   1.8475930e+00   6.9782214e-01  -4.9547398e+07
   5.8319440e-10  -1.2463202e-02   1.8447562e+00   6.9943775e-01  -4.9349340e+07
   5.8419473e-10  -1.2413935e-02   1.8419329e+00   7.0104975e-01  -4.9152104e+07
   5.8519507e-10  -1.2364865e-02   1.8391228e+00   7.0265815e-01  -4.8955686e+07
   5.8619540e-10  -1.2315991e-02   1.8363260e+00   7.0426293e-01  -4.8760083e+07
   5.8719573e-10  -1.2267312e-02   1.8335424e+00   7.0586410e-01  -4.8565290e+07
   5.8819607e-10  -1.2218828e-02   1.8307720e+00   7.0746164e-01  -4.8371304e+07
   5.8919640e-10  -1.2170537e-02   1.8280146e+00   7.0905555e-01  -4.8178121e+07
   5.9019673e-10  -1.2122439e-02   1.8252702e+00   7.1064583e-01  -4.7985737e+07
   5.9119707e-10  -1.2074533e-02   1.8225387e+00   7.1223247e-01  -4.7794149e+07
   5.9219740e-10  -1.2026819e-02   1.8198200e+00   7.1381548e-01  -4.7603354e+07
   5.9319773e-10  -1.1979295e-02   1.8171142e+00   7.1539484e-01  -4.7413347e+07
   5.9419807e-10  -1.1931960e-02   1.8144211e+00   7.1697055e-01  -4.7224125e+07
   5.9519840e-10  -1.1884815e-02   1.8117406e+00   7.1854261e-01  -4.7035684e+07
   5.9619873e-10  -1.1837857e-02   1.8090728e+00   7.2011102e-01  -4.6848021e+07
   5.9719907e-10  -1.1791087e-02   1.8064175e+00   7.2167577e-01  -4.6661133e+07
   5.9819940e-10  -1.1744504e-02   1.8037747e+00   7.2323686e-01  -4.6475015e+07
   5.9919973e-10  -1.1698106e-02   1.8011443e+00   7.2479429e-01  -4.6289665e+07
   6.0020007e-10  -1.1651893e-02   1.7985262e+00   7.2634805e-01  -4.6105079e+07
   6.0120040e-10  -1.1605865e-02   1.7959204e+00   7.2789814e-01  -4.5921253e+07
   6.0220073e-10  -1.1560020e-02   1.7933268e+00   7.2944456e-01  -4.5738184e+07
   6.0320107e-10  -1.1514358e-02   1.7907455e+00   7.3098730e-01  -4.5555868e+07
   6.0420140e-10  -1.1468878e-02   1.7881762e+00   7.3252637e-01  -4.5374303e+07
   6.0520173e-10  -1.1423579e-02   1.7856189e+00   7.3406176e-01  -4.5193484e+07
   6.0620207e-10  -1.1378460e-02   1.7830736e+00   7.3559346e-01  -4.5013409e+07
   6.0720240e-10  -1.1333522e-02   1.7805402e+00   7.3712148e-01  -4.4834074e+07
   6.0820273e-10  -1.1288762e-02   1.7780187e+00   7.3864582e-01  -4.4655476e+07
   6.0920307e-10  -1.1244181e-02   1.7755090e+00   7.4016647e-01  -4.4477611e+07
   6.1020340e-10  -1.1199777e-02   1.7730111e+00   7.4168343e-01  -4.4300477e+07
   6.1120373e-10  -1.1155550e-02   1.7705248e+00   7.4319670e-01  -4.4124069e+07
   6.1220407e-10  -1.1111499e-02   1.7680501e+00   7.4470628e-01  -4.3948385e+07
   6.1320440e-10  -1.1067624e-02   1.7655870e+00   7.4621216e-01  -4.3773421e+07
   6.1420473e-10  -1.1023923e-02   1.7631353e+00   7.4771435e-01  -4.3599175e+07
   6.1520507e-10  -1.0980396e-02   1.7606952e+00   7.4921284e-01  -4.3425642e+07
   6.1620540e-10  -1.0937042e-02   1.7582664e+00   7.5070764e-01  -4.3252820e+07
   6.1720574e-10  -1.0893861e-02   1.7558489e+00   7.5219874e-01  -4.3080706e+07
   6.1820607e-10  -1.0850852e-02   1.7534427e+00   7.5368614e-01  -4.2909297e+07
   6.1920640e-10  -1.0808014e-02   1.7510478e+00   7.5516983e-01  -4.2738588e+07
   6.2020674e-10  -1.0765346e-02   1.7486640e+00   7.5664983e-01  -4.2568579e+07
   6.2120707e-10  -1.0722848e-02   1.7462912e+00   7.5812613e-01  -4.2399264e+07
   6.2220740e-10  -1.0680519e-02   1.7439296e+00   7.5959872e-01  -4.2230641e+07
   6.2320774e-10  -1.0638358e-02   1.7415789e+00   7.6106761e-01  -4.2062707e+07
   6.2420807e-10  -1.0596365e-02   1.7392391e+00   7.6253281e-01  -4.1895460e+07
   6.2520840e-10  -1.0554539e-02   1.7369103e+00   7.6399429e-01  -4.1728895e+07
   6.2620874e-10  -1.0512880e-02   1.7345922e+00   7.6545208e-01  -4.1563010e+07
   6.2720907e-10  -1.0471385e-02   1.7322850e+00   7.6690616e-01  -4.1397802e+07
   6.2820940e-10  -1.0430056e-02   1.7299884e+00   7.6835654e-01  -4.1233268e+07
   6.2920974e-10  -1.0388891e-02   1.7277025e+00   7.6980322e-01  -4.1069404e+07
   6.3021007e-10  -1.0347890e-02   1.7254272e+00   7.7124620e-01  -4.0906209e+07
   6.3121040e-10  -1.0307051e-02   1.7231625e+00   7.7268547e-01  -4.0743679e+07
   6.3221074e-10  -1.0266375e-02   1.7209083e+00   7.7412105e-01  -4.0581811e+07
   6.3321107e-10  -1.0225860e-02   1.7186645e+00   7.7555292e-01  -4.0420602e+07
   6.3421140e-10  -1.0185507e-02   1.7164311e+00   7.7698110e-01  -4.0260050e+07
   6.3521174e-10  -1.0145313e-02   1.7142081e+00   7.7840557e-01  -4.0100151e+07
   6.3621207e-10  -1.0105279e-02   1.7119954e+00   7.7982635e-01  -3.9940902e+07
   6.3721240e-10  -1.0065405e-02   1.7097929e+00   7.8124343e-01  -3.9782302e+07
   6.3821274e-10  -1.0025688e-02   1.7076005e+00   7.8265681e-01  -3.9624346e+07
   6.3921307e-10  -9.9861293e-03   1.7054184e+00   7.8406650e-01  -3.9467032e+07
   6.4021340e-10  -9.9467276e-03   1.7032463e+00   7.8547250e-01  -3.9310358e+07
   6.4121374e-10  -9.9074822e-03   1.7010842e+00   7.8687480e-01  -3.9154320e+07
   6.4221407e-10  -9.8683926e-03   1.6989322e+00   7.8827341e-01  -3.8998916e+07
   6.4321440e-10  -9.8294582e-03   1.6967900e+00   7.8966833e-01  -3.8844142e+07
   6.4421474e-10  -9.7906782e-03   1.6946578e+00   7.9105956e-01  -3.8689997e+07
   6.4521507e-10  -9.7520522e-03   1.6925354e+00   7.9244711e-01  -3.8536478e+07
   6.4621541e-10  -9.7135794e-03   1.6904228e+00   7.9383097e-01  -3.8383581e+07
   6.4721574e-10  -9.6752592e-03   1.6883199e+00   7.9521115e-01  -3.8231304e+07
   6.4821607e-10  -9.6370911e-03   1.6862267e+00   7.9658764e-01  -3.8079645e+07
   6.4921641e-10  -9.5990744e-03   1.6841432e+00   7.9796046e-01  -3.7928600e+07
   6.5021674e-10  -9.5612084e-03   1.6820692e+00   7.9932960e-01  -3.7778168e+07
   6.5121707e-10  -9.5234926e-03   1.6800048e+00   8.0069506e-01  -3.7628344e+07
   6.5221741e-10  -9.4859264e-03   1.6779499e+00   8.0205685e-01  -3.7479128e+07
   6.5321774e-10  -9.4485092e-03   1.6759045e+00   8.0341497e-01  -3.7330515e+07
   6.5421807e-10  -9.4112403e-03   1.6738684e+00   8.0476942e-01  -3.7182504e+07
   6.5521841e-10  -9.3741192e-03   1.6718417e+00   8.0612020e-01  -3.7035092e+07
   6.5621874e-10  -9.3371453e-03   1.6698243e+00   8.0746732e-01  -3.6888277e+07
   6.5721907e-10  -9.3003179e-03   1.6678162e+00   8.0881078e-01  -3.6742055e+07
   6.5821941e-10  -9.2636365e-03   1.6658173e+00   8.1015058e-01  -3.6596424e+07
   6.5921974e-10  -9.2271004e-03   1.6638276e+00   8.1148672e-01  -3.6451382e+07
   6.6022007e-10  -9.1907092e-03   1.6618470e+00   8.1281921e-01  -3.6306926e+07
   6.6122041e-10  -9.1544622e-03   1.6598754e+00   8.1414805e-01  -3.6163054e+07
   6.6222074e-10  -9.1183588e-03   1.6579129e+00   8.1547324e-01  -3.6019763e+07
   6.6322107e-10  -9.0823985e-03   1.6559594e+00   8.1679478e-01  -3.5877050e+07
   6.6422141e-10  -9.0465806e-03   1.6540149e+00   8.1811269e-01  -3.5734913e+07
   6.6522174e-10  -9.0109046e-03   1.6520792e+00   8.1942695e-01  -3.5593351e+07
   6.6622207e-10  -8.9753700e-03   1.6501524e+00   8.2073758e-01  -3.5452359e+07
   6.6722241e-10  -8.9399761e-03   1.6482345e+00   8.2204457e-01  -3.5311936e+07
   6.6822274e-10  -8.9047224e-03   1.6463252e+00   8.2334794e-01  -3.5172079e+07
   6.6922307e-10  -8.8696083e-03   1.6444248e+00   8.2464768e-01  -3.5032787e+07
   6.7022341e-10  -8.8346333e-03   1.6425329e+00   8.2594379e-01  -3.4894055e+07
   6.7122374e-10  -8.7997967e-03   1.6406498e+00   8.2723629e-01  -3.4755883e+07
   6.7222407e-10  -8.7650981e-03   1.6387752e+00   8.2852517e-01  -3.4618268e+07
   6.7322441e-10  -8.7305369e-03   1.6369092e+00   8.2981044e-01  -3.4481207e+07
   6.7422474e-10  -8.6961126e-03   1.6350517e+00   8.3109210e-01  -3.4344698e+07
   6.7522508e-10  -8.6618245e-03   1.6332027e+00   8.3237015e-01  -3.4208738e+07
   6.7622541e-10  -8.6276721e-03   1.6313620e+00   8.3364461e-01  -3.4073326e+07
   6.7722574e-10  -8.5936549e-03   1.6295298e+00   8.3491546e-01  -3.3938459e+07
   6.7822608e-10  -8.5597724e-03   1.6277059e+00   8.3618272e-01  -3.3804134e+07
   6.7922641e-10  -8.5260239e-03   1.6258904e+00   8.3744640e-01  -3.3670350e+07
   6.8022674e-10  -8.4924090e-03   1.6240831e+00   8.3870648e-01  -3.3537104e+07
   6.8122708e-10  -8.4589272e-03   1.6222840e+00   8.3996298e-01  -3.3404393e+07
   6.8222741e-10  -8.4255778e-03   1.6204931e+00   8.4121591e-01  -3.3272216e+07
   6.8322774e-10  -8.3923604e-03   1.6187103e+00   8.4246526e-01  -3.3140570e+07
   6.8422808e-10  -8.3592744e-03   1.6169356e+00   8.4371104e-01  -3.3009454e+07
   6.8522841e-10  -8.3263193e-03   1.6151690e+00   8.4495326e-01  -3.2878864e+07
   6.8622874e-10  -8.2934946e-03   1.6134104e+00   8.4619191e-01  -3.2748798e+07
   6.8722908e-10  -8.2607997e-03   1.6116598e+00   8.4742701e-01  -3.2619255e+07
   6.8822941e-10  -8.2282342e-03   1.6099171e+00   8.4865856e-01  -3.2490232e+07
   6.8922974e-10  -8.1957974e-03   1.6081824e+00   8.4988655e-01  -3.2361727e+07
   6.9023008e-10  -8.1634890e-03   1.6064555e+00   8.5111101e-01  -3.2233737e+07
   6.9123041e-10  -8.1313083e-03   1.6047364e+00   8.5233192e-01  -3.2106261e+07
   6.9223074e-10  -8.0992549e-03   1.6030251e+00   8.5354930e-01  -3.1979297e+07
   6.9323108e-10  -8.0673282e-03   1.6013216e+00   8.5476315e-01  -3.1852842e+07
   6.9423141e-10  -8.0355278e-03   1.5996258e+00   8.5597347e-01  -3.1726893e+07
   6.9523174e-10  -8.0038531e-03   1.5979376e+00   8.5718028e-01  -3.1601450e+07
   6.9623208e-10  -7.9723036e-03   1.5962571e+00   8.5838356e-01  -3.1476510e+07
   6.9723241e-10  -7.9408789e-03   1.5945842e+00   8.5958334e-01  -3.1352070e+07
   6.9823274e-10  -7.9095784e-03   1.5929188e+00   8.6077961e-01  -3.1228129e+07
   6.9923308e-10  -7.8784017e-03   1.5912609e+00   8.6197238e-01  -3.1104685e+07
   7.0023341e-10  -7.8473482e-03   1.5896106e+00   8.6316165e-01  -3.0981734e+07
   7.0123374e-10  -7.8164174e-03   1.5879677e+00   8.6434743e-01  -3.0859277e+07
   7.0223408e-10  -7.7856089e-03   1.5863322e+00   8.6552972e-01  -3.0737309e+07
   7.0323441e-10  -7.7549221e-03   1.5847041e+00   8.6670853e-01  -3.0615830e+07
   7.0423474e-10  -7.7243566e-03   1.5830833e+00   8.6788387e-01  -3.0494837e+07
   7.0523508e-10  -7.6939119e-03   1.5814698e+00   8.6905573e-01  -3.0374329e+07
   7.0623541e-10  -7.6635876e-03   1.5798636e+00   8.7022413e-01  -3.0254302e+07
   7.0723575e-10  -7.6333830e-03   1.5782647e+00   8.7138906e-01  -3.0134756e+07
   7.0823608e-10  -7.6032978e-03   1.5766729e+00   8.7255054e-01  -3.0015687e+07
   7.0923641e-10  -7.5733315e-03   1.5750883e+00   8.7370857e-01  -2.9897095e+07
   7.1023675e-10  -7.5434835e-03   1.5735108e+00   8.7486316e-01  -2.9778977e+07
   7.1123708e-10  -7.5137535e-03   1.5719404e+00   8.7601430e-01  -2.9661331e+07
   7.1223741e-10  -7.4841409e-03   1.5703771e+00   8.7716201e-01  -2.9544156e+07
   7.1323775e-10  -7.4546453e-03   1.5688208e+00   8.7830629e-01  -2.9427449e+07
   7.1423808e-10  -7.4252662e-03   1.5672715e+00   8.7944715e-01  -2.9311208e+07
   7.1523841e-10  -7.3960032e-03   1.5657291e+00   8.8058459e-01  -2.9195431e+07
   7.1623875e-10  -7.3668558e-03   1.5641937e+00   8.8171862e-01  -2.9080117e+07
   7.1723908e-10  -7.3378234e-03   1.5626652e+00   8.8284924e-01  -2.8965263e+07
   7.1823941e-10  -7.3089058e-03   1.5611435e+00   8.8397646e-01  -2.8850868e+07
   7.1923975e-10  -7.2801023e-03   1.5596286e+00   8.8510028e-01  -2.8736930e+07
   7.2024008e-10  -7.2514126e-03   1.5581206e+00   8.8622071e-01  -2.8623446e+07
   7.2124041e-10  -7.2228362e-03   1.5566192e+00   8.8733776e-01  -2.8510415e+07
   7.2224075e-10  -7.1943726e-03   1.5551246e+00   8.8845143e-01  -2.8397836e+07
   7.2324108e-10  -7.1660214e-03   1.5536367e+00   8.8956172e-01  -2.8285705e+07
   7.2424141e-10  -7.1377822e-03   1.5521555e+00   8.9066865e-01  -2.8174022e+07
   7.2524175e-10  -7.1096545e-03   1.5506809e+00   8.9177222e-01  -2.8062785e+07
   7.2624208e-10  -7.0816378e-03   1.5492128e+00   8.9287243e-01  -2.7951991e+07
   7.2724241e-10  -7.0537317e-03   1.5477514e+00   8.9396929e-01  -2.7841638e+07
   7.2824275e-10  -7.0259358e-03   1.5462964e+00   8.9506281e-01  -2.7731726e+07
   7.2924308e-10  -6.9982496e-03   1.5448480e+00   8.9615299e-01  -2.7622252e+07
   7.3024341e-10  -6.9706727e-03   1.5434060e+00   8.9723984e-01  -2.7513214e+07
   7.3124375e-10  -6.9432047e-03   1.5419705e+00   8.9832337e-01  -2.7404611e+07
   7.3224408e-10  -6.9158451e-03   1.5405414e+00   8.9940357e-01  -2.7296440e+07
   7.3324441e-10  -6.8885935e-03   1.5391186e+00   9.0048046e-01  -2.7188701e+07
   7.3424475e-10  -6.8614494e-03   1.5377022e+00   9.0155404e-01  -2.7081390e+07
   7.3524508e-10  -6.8344125e-03   1.5362921e+00   9.0262432e-01  -2.6974507e+07
   7.3624542e-10  -6.8074823e-03   1.5348883e+00   9.0369130e-01  -2.6868050e+07
   7.3724575e-10  -6.7806583e-03   1.5334908e+00   9.0475500e-01  -2.6762016e+07
   7.3824608e-10  -6.7539402e-03   1.5320994e+00   9.0581541e-01  -2.6656405e+07
   7.3924642e-10  -6.7273276e-03   1.5307143e+00   9.0687254e-01  -2.6551214e+07
   7.4024675e-10  -6.7008200e-03   1.5293353e+00   9.0792641e-01  -2.6446442e+07
   7.4124708e-10  -6.6744169e-03   1.5279624e+00   9.0897701e-01  -2.6342087e+07
   7.4224742e-10  -6.6481181e-03   1.5265957e+00   9.1002435e-01  -2.6238147e+07
   7.4324775e-10  -6.6219230e-03   1.5252350e+00   9.1106844e-01  -2.6134620e+07
   7.4424808e-10  -6.5958313e-03   1.5238804e+00   9.1210928e-01  -2.6031505e+07
   7.4524842e-10  -6.5698425e-03   1.5225318e+00   9.1314688e-01  -2.5928801e+07
   7.4624875e-10  -6.5439563e-03   1.5211891e+00   9.1418125e-01  -2.5826505e+07
   7.4724908e-10  -6.5181722e-03   1.5198525e+00   9.1521240e-01  -2.5724616e+07
   7.4824942e-10  -6.4924898e-03   1.5185217e+00   9.1624032e-01  -2.5623132e+07
   7.4924975e-10  -6.4669087e-03   1.5171969e+00   9.1726503e-01  -2.5522051e+07
   7.5025008e-10  -6.4414285e-03   1.5158779e+00   9.1828653e-01  -2.5421372e+07
   7.5125042e-10  -6.4160488e-03   1.5145648e+00   9.1930483e-01  -2.5321094e+07
   7.5225075e-10  -6.3907693e-03   1.5132575e+00   9.2031994e-01  -2.5221213e+07
   7.5325108e-10  -6.3655895e-03   1.5119560e+00   9.2133186e-01  -2.5121730e+07
   7.5425142e-10  -6.3405090e-03   1.5106602e+00   9.2234060e-01  -2.5022642e+07
   7.5525175e-10  -6.3155274e-03   1.5093702e+00   9.2334616e-01  -2.4923948e+07
   7.5625208e-10  -6.2906443e-03   1.5080859e+00   9.2434855e-01  -2.4825646e+07
   7.5725242e-10  -6.2658594e-03   1.5068072e+00   9.2534778e-01  -2.4727734e+07
   7.5825275e-10  -6.2411722e-03   1.5055342e+00   9.2634386e-01  -2.4630211e+07
   7.5925308e-10  -6.2165824e-03   1.5042669e+00   9.2733679e-01  -2.4533076e+07
   7.6025342e-10  -6.1920896e-03   1.5030051e+00   9.2832657e-01  -2.4436326e+07
   7.6125375e-10  -6.1676933e-03   1.5017489e+00   9.2931322e-01  -2.4339960e+07
   7.6225408e-10  -6.1433933e-03   1.5004983e+00   9.3029674e-01  -2.4243977e+07
   7.6325442e-10  -6.1191891e-03   1.4992532e+00   9.3127714e-01  -2.4148375e+07
   7.6425475e-10  -6.0950803e-03   1.4980135e+00   9.3225442e-01  -2.4053152e+07
   7.6525509e-10  -6.0710666e-03   1.4967794e+00   9.3322860e-01  -2.3958307e+07
   7.6625542e-10  -6.0471476e-03   1.4955506e+00   9.3419967e-01  -2.3863838e+07
   7.6725575e-10  -6.0233229e-03   1.4943273e+00   9.3516764e-01  -2.3769745e+07
   7.6825609e-10  -5.9995921e-03   1.4931094e+00   9.3613253e-01  -2.3676024e+07
   7.6925642e-10  -5.9759550e-03   1.4918968e+00   9.3709434e-01  -2.3582676e+07
   7.7025675e-10  -5.9524109e-03   1.4906896e+00   9.3805307e-01  -2.3489697e+07
   7.7125709e-10  -5.9289598e-03   1.4894877e+00   9.3900873e-01  -2.3397088e+07
   7.7225742e-10  -5.9056010e-03   1.4882911e+00   9.3996133e-01  -2.3304845e+07
   7.7325775e-10  -5.8823344e-03   1.4870997e+00   9.4091087e-01  -2.3212969e+07
   7.7425809e-10  -5.8591595e-03   1.4859136e+00   9.4185737e-01  -2.3121457e+07
   7.7525842e-10  -5.8360760e-03   1.4847327e+00   9.4280083e-01  -2.3030307e+07
   7.7625875e-10  -5.8130834e-03   1.4835570e+00   9.4374125e-01  -2.2939519e+07
   7.7725909e-10  -5.7901815e-03   1.4823864e+00   9.4467864e-01  -2.2849091e+07
   7.7825942e-10  -5.7673699e-03   1.4812210e+00   9.4561301e-01  -2.2759021e+07
   7.7925975e-10  -5.7446482e-03   1.4800607e+00   9.4654437e-01  -2.2669308e+07
   7.8026009e-10  -5.7220160e-03   1.4789055e+00   9.4747272e-01  -2.2579951e+07
   7.8126042e-10  -5.6994731e-03   1.4777553e+00   9.4839807e-01  -2.2490948e+07
   7.8226075e-10  -5.6770190e-03   1.4766102e+00   9.4932043e-01  -2.2402297e+07
   7.8326109e-10  -5.6546535e-03   1.4754701e+00   9.5023980e-01  -2.2313997e+07
   7.8426142e-10  -5.6323760e-03   1.4743350e+00   9.5115619e-01  -2.2226048e+07
   7.8526175e-10  -5.6101864e-03   1.4732049e+00   9.5206961e-01  -2.2138447e+07
   7.8626209e-10  -5.5880843e-03   1.4720797e+00   9.5298006e-01  -2.2051192e+07
   7.8726242e-10  -5.5660692e-03   1.4709595e+00   9.5388755e-01  -2.1964284e+07
   7.8826275e-10  -5.5441409e-03   1.4698441e+00   9.5479209e-01  -2.1877719e+07
   7.8926309e-10  -5.5222991e-03   1.4687336e+00   9.5569369e-01  -2.1791497e+07
   7.9026342e-10  -5.5005433e-03   1.4676280e+00   9.5659235e-01  -2.1705617e+07
   7.9126375e-10  -5.4788733e-03   1.4665272e+00   9.5748807e-01  -2.1620076e+07
   7.9226409e-10  -5.4572886e-03   1.4654313e+00   9.5838088e-01  -2.1534875e+07
   7.9326442e-10  -5.4357890e-03   1.4643401e+00   9.5927076e-01  -2.1450010e+07
   7.9426475e-10  -5.4143742e-03   1.4632537e+00   9.6015774e-01  -2.1365481e+07
   7.9526509e-10  -5.3930437e-03   1.4621720e+00   9.6104181e-01  -2.1281287e+07
   7.9626542e-10  -5.3717973e-03   1.4610950e+00   9.6192298e-01  -2.1197427e+07
   7.9726576e-10  -5.3506346e-03   1.4600228e+00   9.6280127e-01  -2.1113898e+07
   7.9826609e-10  -5.3295553e-03   1.4589552e+00   9.6367667e-01  -2.1030699e+07
   7.9926642e-10  -5.3085591e-03   1.4578923e+00   9.6454920e-01  -2.0947830e+07
   8.0026676e-10  -5.2876456e-03   1.4568340e+00   9.6541886e-01  -2.0865288e+07
   8.0126709e-10  -5.2668145e-03   1.4557803e+00   9.6628566e-01  -2.0783073e+07
   8.0226742e-10  -5.2460655e-03   1.4547312e+00   9.6714960e-01  -2.0701184e+07
   8.0326776e-10  -5.2253982e-03   1.4536867e+00   9.6801070e-01  -2.0619618e+07
   8.0426809e-10  -5.2048124e-03   1.4526467e+00   9.6886896e-01  -2.0538375e+07
   8.0526842e-10  -5.1843077e-03   1.4516113e+00   9.6972438e-01  -2.0457453e+07
   8.0626876e-10  -5.1638837e-03   1.4505803e+00   9.7057697e-01  -2.0376851e+07
   8.0726909e-10  -5.1435403e-03   1.4495538e+00   9.7142675e-01  -2.0296568e+07
   8.0826942e-10  -5.1232769e-03   1.4485318e+00   9.7227372e-01  -2.0216602e+07
   8.0926976e-10  -5.1030935e-03   1.4475143e+00   9.7311788e-01  -2.0136953e+07
   8.1027009e-10  -5.0829895e-03   1.4465011e+00   9.7395924e-01  -2.0057618e+07
   8.1127042e-10  -5.0629647e-03   1.4454924e+00   9.7479781e-01  -1.9978597e+07
   8.1227076e-10  -5.0430189e-03   1.4444880e+00   9.7563359e-01  -1.9899889e+07
   8.1327109e-10  -5.0231516e-03   1.4434880e+00   9.7646660e-01  -1.9821491e+07
   8.1427142e-10  -5.0033626e-03   1.4424924e+00   9.7729684e-01  -1.9743404e+07
   8.1527176e-10  -4.9836515e-03   1.4415010e+00   9.7812431e-01  -1.9665625e+07
   8.1627209e-10  -4.9640181e-03   1.4405140e+00   9.7894903e-01  -1.9588153e+07
   8.1727242e-10  -4.9444620e-03   1.4395312e+00   9.7977100e-01  -1.9510988e+07
   8.1827276e-10  -4.9249830e-03   1.4385527e+00   9.8059023e-01  -1.9434127e+07
   8.1927309e-10  -4.9055807e-03   1.4375785e+00   9.8140672e-01  -1.9357571e+07
   8.2027342e-10  -4.8862549e-03   1.4366084e+00   9.8222049e-01  -1.9281316e+07
   8.2127376e-10  -4.8670051e-03   1.4356426e+00   9.8303153e-01  -1.9205363e+07
   8.2227409e-10  -4.8478312e-03   1.4346809e+00   9.8383986e-01  -1.9129710e+07
   8.2327442e-10  -4.8287329e-03   1.4337234e+00   9.8464549e-01  -1.9054356e+07
   8.2427476e-10  -4.8097097e-03   1.4327700e+00   9.8544841e-01  -1.8979300e+07
   8.2527509e-10  -4.7907615e-03   1.4318208e+00   9.8624864e-01  -1.8904540e+07
   8.2627543e-10  -4.7718879e-03   1.4308757e+00   9.8704619e-01  -1.8830075e+07
   8.2727576e-10  -4.7530887e-03   1.4299346e+00   9.8784105e-01  -1.8755904e+07
   8.2827609e-10  -4.7343635e-03   1.4289976e+00   9.8863325e-01  -1.8682026e+07
   8.2927643e-10  -4.7157121e-03   1.4280647e+00   9.8942278e-01  -1.8608441e+07
   8.3027676e-10  -4.6971341e-03   1.4271358e+00   9.9020965e-01  -1.8535145e+07
   8.3127709e-10  -4.6786294e-03   1.4262109e+00   9.9099387e-01  -1.8462139e+07
   8.3227743e-10  -4.6601975e-03   1.4252900e+00   9.9177545e-01  -1.8389421e+07
   8.3327776e-10  -4.6418382e-03   1.4243730e+00   9.9255439e-01  -1.8316991e+07
   8.3427809e-10  -4.6235512e-03   1.4234601e+00   9.9333071e-01  -1.8244846e+07
   8.3527843e-10  -4.6053362e-03   1.4225510e+00   9.9410440e-01  -1.8172986e+07
   8.3627876e-10  -4.5871930e-03   1.4216459e+00   9.9487547e-01  -1.8101410e+07
   8.3727909e-10  -4.5691212e-03   1.4207447e+00   9.9564394e-01  -1.8030117e+07
   8.3827943e-10  -4.5511206e-03   1.4198473e+00   9.9640980e-01  -1.7959104e+07
   8.3927976e-10  -4.5331909e-03   1.4189539e+00   9.9717307e-01  -1.7888373e+07
   8.4028009e-10  -4.5153319e-03   1.4180642e+00   9.9793375e-01  -1.7817920e+07
   8.4128043e-10  -4.4975431e-03   1.4171784e+00   9.9869185e-01  -1.7747745e+07
   8.4228076e-10  -4.4798244e-03   1.4162964e+00   9.9944738e-01  -1.7677847e+07
   8.4328109e-10  -4.4621755e-03   1.4154182e+00   1.0002003e+00  -1.7608225e+07
   8.4428143e-10  -4.4445962e-03   1.4145438e+00   1.0009507e+00  -1.7538878e+07
   8.4528176e-10  -4.4270860e-03   1.4136732e+00   1.0016986e+00  -1.7469805e+07
   8.4628209e-10  -4.4096448e-03   1.4128063e+00   1.0024439e+00  -1.7401004e+07
   8.4728243e-10  -4.3922723e-03   1.4119431e+00   1.0031867e+00  -1.7332474e+07
   8.4828276e-10  -4.3749682e-03   1.4110836e+00   1.0039269e+00  -1.7264215e+07
   8.4928309e-10  -4.3577323e-03   1.4102278e+00   1.0046646e+00  -1.7196225e+07
   8.5028343e-10  -4.3405642e-03   1.4093757e+00   1.0053998e+00  -1.7128503e+07
   8.5128376e-10  -4.3234638e-03   1.4085272e+00   1.0061325e+00  -1.7061049e+07
   8.5228409e-10  -4.3064306e-03   1.4076824e+00   1.0068627e+00  -1.6993861e+07
   8.5328443e-10  -4.2894646e-03   1.4068412e+00   1.0075903e+00  -1.6926937e+07
   8.5428476e-10  -4.2725654e-03   1.4060036e+00   1.0083155e+00  -1.6860278e+07
   8.5528510e-10  -4.2557327e-03   1.4051696e+00   1.0090382e+00  -1.6793881e+07
   8.5628543e-10  -4.2389663e-03   1.4043392e+00   1.0097585e+00  -1.6727747e+07
   8.5728576e-10  -4.2222660e-03   1.4035123e+00   1.0104762e+00  -1.6661873e+07
   8.5828610e-10  -4.2056314e-03   1.4026890e+00   1.0111915e+00  -1.6596259e+07
   8.5928643e-10  -4.1890623e-03   1.4018692e+00   1.0119044e+00  -1.6530904e+07
   8.6028676e-10  -4.1725585e-03   1.4010529e+00   1.0126148e+00  -1.6465806e+07
   8.6128710e-10  -4.1561196e-03   1.4002401e+00   1.0133227e+00  -1.6400965e+07
   8.6228743e-10  -4.1397455e-03   1.3994308e+00   1.0140282e+00  -1.6336380e+07
   8.6328776e-10  -4.1234359e-03   1.3986249e+00   1.0147313e+00  -1.6272050e+07
   8.6428810e-10  -4.1071905e-03   1.3978225e+00   1.0154320e+00  -1.6207973e+07
   8.6528843e-10  -4.0910091e-03   1.3970235e+00   1.0161303e+00  -1.6144149e+07
   8.6628876e-10  -4.0748913e-03   1.3962280e+00   1.0168261e+00  -1.6080576e+07
   8.6728910e-10  -4.0588371e-03   1.3954358e+00   1.0175196e+00  -1.6017254e+07
   8.6828943e-10  -4.0428461e-03   1.3946470e+00   1.0182106e+00  -1.5954182e+07
   8.6928976e-10  -4.0269180e-03   1.3938616e+00   1.0188993e+00  -1.5891359e+07
   8.7029010e-10  -4.0110527e-03   1.3930795e+00   1.0195856e+00  -1.5828783e+07
   8.7129043e-10  -3.9952498e-03   1.3923008e+00   1.0202695e+00  -1.5766453e+07
   8.7229076e-10  -3.9795092e-03   1.3915254e+00   1.0209510e+00  -1.5704370e+07
   8.7329110e-10  -3.9638305e-03   1.3907533e+00   1.0216302e+00  -1.5642531e+07
   8.7429143e-10  -3.9482136e-03   1.3899845e+00   1.0223071e+00  -1.5580936e+07
   8.7529176e-10  -3.9326582e-03   1.3892190e+00   1.0229815e+00  -1.5519583e+07
   8.7629210e-10  -3.9171640e-03   1.3884568e+00   1.0236537e+00  -1.5458473e+07
   8.7729243e-10  -3.9017308e-03   1.3876978e+00   1.0243235e+00  -1.5397603e+07
   8.7829276e-10  -3.8863584e-03   1.3869420e+00   1.0249910e+00  -1.5336973e+07
   8.7929310e-10  -3.8710466e-03   1.3861894e+00   1.0256562e+00  -1.5276582e+07
   8.8029343e-10  -3.8557950e-03   1.3854401e+00   1.0263191e+00  -1.5216429e+07
   8.8129376e-10  -3.8406035e-03   1.3846939e+00   1.0269796e+00  -1.5156513e+07
   8.8229410e-10  -3.8254718e-03   1.3839509e+00   1.0276379e+00  -1.5096834e+07
   8.8329443e-10  -3.8103997e-03   1.3832111e+00   1.0282938e+00  -1.5037389e+07
   8.8429476e-10  -3.7953869e-03   1.3824744e+00   1.0289475e+00  -1.4978179e+07
   8.8529510e-10  -3.7804333e-03   1.3817409e+00   1.0295989e+00  -1.4919202e+07
   8.8629543e-10  -3.7655385e-03   1.3810105e+00   1.0302481e+00  -1.4860457e+07
   8.8729577e-10  -3.7507024e-03   1.3802831e+00   1.0308949e+00  -1.4801944e+07
   8.8829610e-10  -3.7359247e-03   1.3795589e+00   1.0315395e+00  -1.4743661e+07
   8.8929643e-10  -3.7212051e-03   1.3788378e+00   1.0321819e+00  -1.4685608e+07
   8.9029677e-10  -3.7065436e-03   1.3781197e+00   1.0328220e+00  -1.4627784e+07
   8.9129710e-10  -3.6919397e-03   1.3774046e+00   1.0334599e+00  -1.4570187e+07
   8.9229743e-10  -3.6773934e-03   1.3766926e+00   1.0340955e+00  -1.4512817e+07
   8.9329777e-10  -3.6629043e-03   1.3759836e+00   1.0347289e+00  -1.4455674e+07
   8.9429810e-10  -3.6484723e-03   1.3752777e+00   1.0353601e+00  -1.4398755e+07
   8.9529843e-10  -3.6340972e-03   1.3745747e+00   1.0359891e+00  -1.4342061e+07
   8.9629877e-10  -3.6197786e-03   1.3738747e+00   1.0366159e+00  -1.4285590e+07
   8.9729910e-10  -3.6055164e-03   1.3731776e+00   1.0372405e+00  -1.4229341e+07
   8.9829943e-10  -3.5913103e-03   1.3724836e+00   1.0378629e+00  -1.4173314e+07
   8.9929977e-10  -3.5771602e-03   1.3717924e+00   1.0384831e+00  -1.4117508e+07
   9.0030010e-10  -3.5630658e-03   1.3711042e+00   1.0391011e+00  -1.4061922e+07
   9.0130043e-10  -3.5490269e-03   1.3704189e+00   1.0397170e+00  -1.4006554e+07
   9.0230077e-10  -3.5350433e-03   1.3697365e+00   1.0403306e+00  -1.3951404e+07
   9.0330110e-10  -3.5211147e-03   1.3690570e+00   1.0409422e+00  -1.3896472e+07
   9.0430143e-10  -3.5072410e-03   1.3683804e+00   1.0415515e+00  -1.3841756e+07
   9.0530177e-10  -3.4934219e-03   1.3677067e+00   1.0421588e+00  -1.3787256e+07
   9.0630210e-10  -3.4796572e-03   1.3670357e+00   1.0427639e+00  -1.3732970e+07
   9.0730243e-10  -3.4659468e-03   1.3663677e+00   1.0433668e+00  -1.3678898e+07
   9.0830277e-10  -3.4522903e-03   1.3657024e+00   1.0439676e+00  -1.3625039e+07
   9.0930310e-10  -3.4386875e-03   1.3650400e+00   1.0445663e+00  -1.3571392e+07
   9.1030343e-10  -3.4251384e-03   1.3643803e+00   1.0451629e+00  -1.3517956e+07
   9.1130377e-10  -3.4116425e-03   1.3637235e+00   1.0457574e+00  -1.3464731e+07
   9.1230410e-10  -3.3981998e-03   1.3630694e+00   1.0463498e+00  -1.3411715e+07
   9.1330443e-10  -3.3848101e-03   1.3624181e+00   1.0469401e+00  -1.3358908e+07
   9.1430477e-10  -3.3714731e-03   1.3617695e+00   1.0475283e+00  -1.3306309e+07
   9.1530510e-10  -3.3581885e-03   1.3611237e+00   1.0481144e+00  -1.3253917e+07
   9.1630544e-10  -3.3449563e-03   1.3604806e+00   1.0486985e+00  -1.3201732e+07
   9.1730577e-10  -3.3317762e-03   1.3598402e+00   1.0492804e+00  -1.3149751e+07
   9.1830610e-10  -3.3186480e-03   1.3592025e+00   1.0498603e+00  -1.3097976e+07
   9.1930644e-10  -3.3055714e-03   1.3585675e+00   1.0504382e+00  -1.3046404e+07
   9.2030677e-10  -3.2925464e-03   1.3579352e+00   1.0510140e+00  -1.2995036e+07
   9.2130710e-10  -3.2795726e-03   1.3573056e+00   1.0515878e+00  -1.2943870e+07
   9.2230744e-10  -3.2666500e-03   1.3566786e+00   1.0521595e+00  -1.2892905e+07
   9.2330777e-10  -3.2537782e-03   1.3560542e+00   1.0527292e+00  -1.2842140e+07
   9.2430810e-10  -3.2409570e-03   1.3554325e+00   1.0532969e+00  -1.2791576e+07
   9.2530844e-10  -3.2281864e-03   1.3548134e+00   1.0538625e+00  -1.2741211e+07
   9.2630877e-10  -3.2154661e-03   1.3541969e+00   1.0544261e+00  -1.2691044e+07
   9.2730910e-10  -3.2027958e-03   1.3535830e+00   1.0549878e+00  -1.2641074e+07
   9.2830944e-10  -3.1901754e-03   1.3529716e+00   1.0555474e+00  -1.2591301e+07
   9.2930977e-10  -3.1776047e-03   1.3523629e+00   1.0561050e+00  -1.2541725e+07
   9.3031010e-10  -3.1650835e-03   1.3517567e+00   1.0566607e+00  -1.2492343e+07
   9.3131044e-10  -3.1526116e-03   1.3511531e+00   1.0572144e+00  -1.2443156e+07
   9.3231077e-10  -3.1401889e-03   1.3505520e+00   1.0577660e+00  -1.2394162e+07
   9.3331110e-10  -3.1278150e-03   1.3499534e+00   1.0583158e+00  -1.2345361e+07
   9.3431144e-10  -3.1154898e-03   1.3493573e+00   1.0588635e+00  -1.2296752e+07
   9.3531177e-10  -3.1032132e-03   1.3487638e+00   1.0594093e+00  -1.2248335e+07
   9.3631210e-10  -3.0909849e-03   1.3481727e+00   1.0599532e+00  -1.2200108e+07
   9.3731244e-10  -3.0788048e-03   1.3475841e+00   1.0604951e+00  -1.2152071e+07
   9.3831277e-10  -3.0666726e-03   1.3469980e+00   1.0610351e+00  -1.2104223e+07
   9.3931310e-10  -3.0545882e-03   1.3464144e+00   1.0615731e+00  -1.2056564e+07
   9.4031344e-10  -3.0425514e-03   1.3458332e+00   1.0621092e+00  -1.2009092e+07
   9.4131377e-10  -3.0305620e-03   1.3452544e+00   1.0626434e+00  -1.1961807e+07
   9.4231410e-10  -3.0186197e-03   1.3446781e+00   1.0631757e+00  -1.1914708e+07
   9.4331444e-10  -3.0067245e-03   1.3441042e+00   1.0637061e+00  -1.1867794e+07
   9.4431477e-10  -2.9948762e-03   1.3435327e+00   1.0642346e+00  -1.1821065e+07
   9.4531511e-10  -2.9830745e-03   1.3429636e+00   1.0647611e+00  -1.1774520e+07
   9.4631544e-10  -2.9713192e-03   1.3423968e+00   1.0652858e+00  -1.1728158e+07
   9.4731577e-10  -2.9596103e-03   1.3418325e+00   1.0658086e+00  -1.1681979e+07
   9.4831611e-10  -2.9479474e-03   1.3412705e+00   1.0663295e+00  -1.1635981e+07
   9.4931644e-10  -2.9363305e-03   1.3407109e+00   1.0668486e+00  -1.1590165e+07
   9.5031677e-10  -2.9247593e-03   1.3401536e+00   1.0673658e+00  -1.1544528e+07
   9.5131711e-10  -2.9132337e-03   1.3395987e+00   1.0678811e+00  -1.1499072e+07
   9.5231744e-10  -2.9017534e-03   1.3390460e+00   1.0683946e+00  -1.1453794e+07
   9.5331777e-10  -2.8903184e-03   1.3384957e+00   1.0689062e+00  -1.1408694e+07
   9.5431811e-10  -2.8789284e-03   1.3379477e+00   1.0694160e+00  -1.1363772e+07
   9.5531844e-10  -2.8675832e-03   1.3374020e+00   1.0699239e+00  -1.1319027e+07
   9.5631877e-10  -2.8562827e-03   1.3368585e+00   1.0704301e+00  -1.1274458e+07
   9.5731911e-10  -2.8450267e-03   1.3363174e+00   1.0709344e+00  -1.1230064e+07
   9.5831944e-10  -2.8338150e-03   1.3357785e+00   1.0714368e+00  -1.1185845e+07
   9.5931977e-10  -2.8226475e-03   1.3352418e+00   1.0719375e+00  -1.1141800e+07
   9.6032011e-10  -2.8115240e-03   1.3347074e+00   1.0724364e+00  -1.1097928e+07
   9.6132044e-10  -2.8004442e-03   1.3341753e+00   1.0729334e+00  -1.1054229e+07
   9.6232077e-10  -2.7894081e-03   1.3336453e+00   1.0734287e+00  -1.1010702e+07
   9.6332111e-10  -2.7784154e-03   1.3331176e+00   1.0739221e+00  -1.0967346e+07
   9.6432144e-10  -2.7674660e-03   1.3325920e+00   1.0744138e+00  -1.0924161e+07
   9.6532177e-10  -2.7565597e-03   1.3320687e+00   1.0749037e+00  -1.0881146e+07
   9.6632211e-10  -2.7456964e-03   1.3315476e+00   1.0753919e+00  -1.0838300e+07
   9.6732244e-10  -2.7348758e-03   1.3310286e+00   1.0758783e+00  -1.0795622e+07
   9.6832277e-10  -2.7240979e-03   1.3305118e+00   1.0763629e+00  -1.0753113e+07
   9.6932311e-10  -2.7133624e-03   1.3299971e+00   1.0768457e+00  -1.0710771e+07
   9.7032344e-10  -2.7026692e-03   1.3294846e+00   1.0773268e+00  -1.0668595e+07
   9.7132377e-10  -2.6920180e-03   1.3289742e+00   1.0778062e+00  -1.0626585e+07
   9.7232411e-10  -2.6814088e-03   1.3284660e+00   1.0782838e+00  -1.0584741e+07
   9.7332444e-10  -2.6708414e-03   1.3279599e+00   1.0787597e+00  -1.0543061e+07
   9.7432477e-10  -2.6603156e-03   1.3274559e+00   1.0792339e+00  -1.0501546e+07
   9.7532511e-10  -2.6498313e-03   1.3269540e+00   1.0797063e+00  -1.0460193e+07
   9.7632544e-10  -2.6393882e-03   1.3264541e+00   1.0801771e+00  -1.0419004e+07
   9.7732578e-10  -2.6289863e-03   1.3259564e+00   1.0806461e+00  -1.0377976e+07
   9.7832611e-10  -2.6186253e-03   1.3254607e+00   1.0811134e+00  -1.0337110e+07
   9.7932644e-10  -2.6083051e-03   1.3249671e+00   1.0815791e+00  -1.0296405e+07
   9.8032678e-10  -2.5980256e-03   1.3244756e+00   1.0820430e+00  -1.0255860e+07
   9.8132711e-10  -2.5877865e-03   1.3239861e+00   1.0825052e+00  -1.0215474e+07
   9.8232744e-10  -2.5775877e-03   1.3234986e+00   1.0829658e+00  -1.0175248e+07
   9.8332778e-10  -2.5674292e-03   1.3230132e+00   1.0834247e+00  -1.0135179e+07
   9.8432811e-10  -2.5573106e-03   1.3225298e+00   1.0838819e+00  -1.0095269e+07
   9.8532844e-10  -2.5472318e-03   1.3220483e+00   1.0843374e+00  -1.0055515e+07
   9.8632878e-10  -2.5371928e-03   1.3215689e+00   1.0847913e+00  -1.0015918e+07
   9.8732911e-10  -2.5271933e-03   1.3210915e+00   1.0852436e+00  -9.9764764e+06
   9.8832944e-10  -2.5172331e-03   1.3206161e+00   1.0856942e+00  -9.9371902e+06
   9.8932978e-10  -2.5073122e-03   1.3201426e+00   1.0861431e+00  -9.8980585e+06
   9.9033011e-10  -2.4974304e-03   1.3196712e+00   1.0865904e+00  -9.8590808e+06
   9.9133044e-10  -2.4875874e-03   1.3192016e+00   1.0870361e+00  -9.8202565e+06
   9.9233078e-10  -2.4777833e-03   1.3187341e+00   1.0874801e+00  -9.7815849e+06
   9.9333111e-10  -2.4680177e-03   1.3182684e+00   1.0879226e+00  -9.7430655e+06
   9.9433144e-10  -2.4582906e-03   1.3178047e+00   1.0883634e+00  -9.7046976e+06
   9.9533178e-10  -2.4486018e-03   1.3173430e+00   1.0888026e+00  -9.6664807e+06
   9.9633211e-10  -2.4389511e-03   1.3168831e+00   1.0892402e+00  -9.6284142e+06
   9.9733244e-10  -2.4293385e-03   1.3164251e+00   1.0896762e+00  -9.5904974e+06
   9.9833278e-10  -2.4197637e-03   1.3159691e+00   1.0901106e+00  -9.5527299e+06
   9.9933311e-10  -2.4102266e-03   1.3155149e+00   1.0905434e+00  -9.5151109e+06
   1.0003334e-09  -2.4007271e-03   1.3150627e+00   1.0909746e+00  -9.4776399e+06
   1.0013338e-09  -2.3912649e-03   1.3146123e+00   1.0914043e+00  -9.4403164e+06
   1.0023341e-09  -2.3818401e-03   1.3141637e+00   1.0918323e+00  -9.4031397e+06
   1.0033344e-09  -2.3724523e-03   1.3137171e+00   1.0922589e+00  -9.3661093e+06
   1.0043348e-09  -2.3631016e-03   1.3132722e+00   1.0926838e+00  -9.3292246e+06
   1.0053351e-09  -2.3537876e-03   1.3128293e+00   1.0931072e+00  -9.2924850e+06
   1.0063354e-09  -2.3445104e-03   1.3123881e+00   1.0935290e+00  -9.2558900e+06
   1.0073358e-09  -2.3352696e-03   1.3119488e+00   1.0939493e+00  -9.2194390e+06
   1.0083361e-09  -2.3260653e-03   1.3115113e+00   1.0943681e+00  -9.1831313e+06
   1.0093364e-09  -2.3168972e-03   1.3110756e+00   1.0947853e+00  -9.1469665e+06
   1.0103368e-09  -2.3077652e-03   1.3106417e+00   1.0952009e+00  -9.1109441e+06
   1.0113371e-09  -2.2986692e-03   1.3102097e+00   1.0956151e+00  -9.0750633e+06
   1.0123374e-09  -2.2896090e-03   1.3097794e+00   1.0960277e+00  -9.0393237e+06
   1.0133378e-09  -2.2805845e-03   1.3093508e+00   1.0964388e+00  -9.0037247e+06
   1.0143381e-09  -2.2715955e-03   1.3089241e+00   1.0968484e+00  -8.9682658e+06
   1.0153384e-09  -2.2626419e-03   1.3084991e+00   1.0972565e+00  -8.9329464e+06
   1.0163388e-09  -2.2537236e-03   1.3080759e+00   1.0976631e+00  -8.8977660e+06
   1.0173391e-09  -2.2448404e-03   1.3076544e+00   1.0980682e+00  -8.8627240e+06
   1.0183394e-09  -2.2359922e-03   1.3072347e+00   1.0984719e+00  -8.8278198e+06
   1.0193398e-09  -2.2271788e-03   1.3068167e+00   1.0988740e+00  -8.7930530e+06
   1.0203401e-09  -2.2184002e-03   1.3064005e+00   1.0992746e+00  -8.7584229e+06
   1.0213404e-09  -2.2096561e-03   1.3059859e+00   1.0996738e+00  -8.7239292e+06
   1.0223408e-09  -2.2009464e-03   1.3055731e+00   1.1000715e+00  -8.6895711e+06
   1.0233411e-09  -2.1922711e-03   1.3051620e+00   1.1004677e+00  -8.6553482e+06
   1.0243414e-09  -2.1836299e-03   1.3047525e+00   1.1008625e+00  -8.6212600e+06
   1.0253418e-09  -2.1750228e-03   1.3043448e+00   1.1012558e+00  -8.5873058e+06
   1.0263421e-09  -2.1664495e-03   1.3039387e+00   1.1016477e+00  -8.5534853e+06
   1.0273424e-09  -2.1579101e-03   1.3035344e+00   1.1020381e+00  -8.5197979e+06
   1.0283428e-09  -2.1494042e-03   1.3031316e+00   1.1024271e+00  -8.4862429e+06
   1.0293431e-09  -2.1409319e-03   1.3027306e+00   1.1028146e+00  -8.4528200e+06
   1.0303434e-09  -2.1324929e-03   1.3023312e+00   1.1032007e+00  -8.4195286e+06
   1.0313438e-09  -2.1240872e-03   1.3019335e+00   1.1035854e+00  -8.3863682e+06
   1.0323441e-09  -2.1157145e-03   1.3015374e+00   1.1039687e+00  -8.3533383e+06
   1.0333444e-09  -2.1073749e-03   1.3011429e+00   1.1043505e+00  -8.3204383e+06
   1.0343448e-09  -2.0990681e-03   1.3007501e+00   1.1047310e+00  -8.2876677e+06
   1.0353451e-09  -2.0907940e-03   1.3003588e+00   1.1051100e+00  -8.2550261e+06
   1.0363454e-09  -2.0825525e-03   1.2999692e+00   1.1054876e+00  -8.2225129e+06
   1.0373458e-09  -2.0743434e-03   1.2995812e+00   1.1058638e+00  -8.1901277e+06
   1.0383461e-09  -2.0661667e-03   1.2991948e+00   1.1062387e+00  -8.1578698e+06
   1.0393464e-09  -2.0580222e-03   1.2988100e+00   1.1066121e+00  -8.1257389e+06
   1.0403468e-09  -2.0499098e-03   1.2984268e+00   1.1069842e+00  -8.0937344e+06
   1.0413471e-09  -2.0418293e-03   1.2980451e+00   1.1073549e+00  -8.0618558e+06
   1.0423474e-09  -2.0337806e-03   1.2976650e+00   1.1077242e+00  -8.0301027e+06
   1.0433478e-09  -2.0257637e-03   1.2972865e+00   1.1080921e+00  -7.9984744e+06
   1.0443481e-09  -2.0177783e-03   1.2969096e+00   1.1084587e+00  -7.9669707e+06
   1.0453484e-09  -2.0098244e-03   1.2965342e+00   1.1088239e+00  -7.9355908e+06
   1.0463488e-09  -2.0019018e-03   1.2961603e+00   1.1091878e+00  -7.9043345e+06
   1.0473491e-09  -1.9940104e-03   1.2957880e+00   1.1095503e+00  -7.8732011e+06
   1.0483494e-09  -1.9861501e-03   1.2954172e+00   1.1099115e+00  -7.8421902e+06
   1.0493498e-09  -1.9783207e-03   1.2950479e+00   1.1102713e+00  -7.8113014e+06
   1.0503501e-09  -1.9705222e-03   1.2946802e+00   1.1106298e+00  -7.7805340e+06
   1.0513505e-09  -1.9627544e-03   1.2943140e+00   1.1109870e+00  -7.7498878e+06
   1.0523508e-09  -1.9550173e-03   1.2939492e+00   1.1113429e+00  -7.7193621e+06
   1.0533511e-09  -1.9473105e-03   1.2935860e+00   1.1116974e+00  -7.6889565e+06
   1.0543515e-09  -1.9396342e-03   1.2932243e+00   1.1120506e+00  -7.6586705e+06
   1.0553518e-09  -1.9319880e-03   1.2928640e+00   1.1124025e+00  -7.6285037e+06
   1.0563521e-09  -1.9243720e-03   1.2925053e+00   1.1127530e+00  -7.5984556e+06
   1.0573525e-09  -1.9167860e-03   1.2921480e+00   1.1131023e+00  -7.5685258e+06
   1.0583528e-09  -1.9092299e-03   1.2917922e+00   1.1134503e+00  -7.5387137e+06
   1.0593531e-09  -1.9017035e-03   1.2914378e+00   1.1137970e+00  -7.5090189e+06
   1.0603535e-09  -1.8942068e-03   1.2910849e+00   1.1141424e+00  -7.4794409e+06
   1.0613538e-09  -1.8867396e-03   1.2907334e+00   1.1144865e+00  -7.4499793e+06
   1.0623541e-09  -1.8793019e-03   1.2903834e+00   1.1148293e+00  -7.4206337e+06
   1.0633545e-09  -1.8718934e-03   1.2900348e+00   1.1151708e+00  -7.3914035e+06
   1.0643548e-09  -1.8645141e-03   1.2896877e+00   1.1155111e+00  -7.3622883e+06
   1.0653551e-09  -1.8571638e-03   1.2893420e+00   1.1158501e+00  -7.3332877e+06
   1.0663555e-09  -1.8498426e-03   1.2889977e+00   1.1161879e+00  -7.3044012e+06
   1.0673558e-09  -1.8425501e-03   1.2886548e+00   1.1165244e+00  -7.2756284e+06
   1.0683561e-09  -1.8352864e-03   1.2883133e+00   1.1168596e+00  -7.2469687e+06
   1.0693565e-09  -1.8280513e-03   1.2879732e+00   1.1171936e+00  -7.2184219e+06
   1.0703568e-09  -1.8208447e-03   1.2876345e+00   1.1175263e+00  -7.1899873e+06
   1.0713571e-09  -1.8136665e-03   1.2872972e+00   1.1178578e+00  -7.1616647e+06
   1.0723575e-09  -1.8065166e-03   1.2869613e+00   1.1181880e+00  -7.1334535e+06
   1.0733578e-09  -1.7993948e-03   1.2866268e+00   1.1185171e+00  -7.1053533e+06
   1.0743581e-09  -1.7923011e-03   1.2862936e+00   1.1188449e+00  -7.0773637e+06
   1.0753585e-09  -1.7852353e-03   1.2859618e+00   1.1191714e+00  -7.0494842e+06
   1.0763588e-09  -1.7781974e-03   1.2856314e+00   1.1194968e+00  -7.0217144e+06
   1.0773591e-09  -1.7711872e-03   1.2853023e+00   1.1198209e+00  -6.9940539e+06
   1.0783595e-09  -1.7642046e-03   1.2849745e+00   1.1201438e+00  -6.9665022e+06
   1.0793598e-09  -1.7572495e-03   1.2846481e+00   1.1204655e+00  -6.9390589e+06
   1.0803601e-09  -1.7503218e-03   1.2843231e+00   1.1207861e+00  -6.9117237e+06
   1.0813605e-09  -1.7434214e-03   1.2839993e+00   1.1211054e+00  -6.8844960e+06
   1.0823608e-09  -1.7365482e-03   1.2836769e+00   1.1214235e+00  -6.8573754e+06
   1.0833611e-09  -1.7297021e-03   1.2833558e+00   1.1217404e+00  -6.8303616e+06
   1.0843615e-09  -1.7228829e-03   1.2830361e+00   1.1220562e+00  -6.8034540e+06
   1.0853618e-09  -1.7160906e-03   1.2827176e+00   1.1223707e+00  -6.7766523e+06
   1.0863621e-09  -1.7093250e-03   1.2824004e+00   1.1226841e+00  -6.7499561e+06
   1.0873625e-09  -1.7025861e-03   1.2820846e+00   1.1229963e+00  -6.7233650e+06
   1.0883628e-09  -1.6958738e-03   1.2817700e+00   1.1233073e+00  -6.6968785e+06
   1.0893631e-09  -1.6891879e-03   1.2814567e+00   1.1236172e+00  -6.6704962e+06
   1.0903635e-09  -1.6825283e-03   1.2811447e+00   1.1239259e+00  -6.6442177e+06
   1.0913638e-09  -1.6758950e-03   1.2808340e+00   1.1242335e+00  -6.6180427e+06
   1.0923641e-09  -1.6692878e-03   1.2805245e+00   1.1245399e+00  -6.5919706e+06
   1.0933645e-09  -1.6627066e-03   1.2802164e+00   1.1248451e+00  -6.5660012e+06
   1.0943648e-09  -1.6561513e-03   1.2799094e+00   1.1251492e+00  -6.5401339e+06
   1.0953651e-09  -1.6496219e-03   1.2796037e+00   1.1254522e+00  -6.5143684e+06
   1.0963655e-09  -1.6431182e-03   1.2792993e+00   1.1257540e+00  -6.4887044e+06
   1.0973658e-09  -1.6366402e-03   1.2789961e+00   1.1260547e+00  -6.4631413e+06
   1.0983661e-09  -1.6301876e-03   1.2786942e+00   1.1263543e+00  -6.4376788e+06
   1.0993665e-09  -1.6237605e-03   1.2783935e+00   1.1266528e+00  -6.4123165e+06
   1.1003668e-09  -1.6173587e-03   1.2780940e+00   1.1269501e+00  -6.3870540e+06
   1.1013671e-09  -1.6109821e-03   1.2777957e+00   1.1272463e+00  -6.3618910e+06
   1.1023675e-09  -1.6046306e-03   1.2774987e+00   1.1275414e+00  -6.3368269e+06
   1.1033678e-09  -1.5983042e-03   1.2772029e+00   1.1278354e+00  -6.3118615e+06
   1.1043681e-09  -1.5920026e-03   1.2769082e+00   1.1281282e+00  -6.2869944e+06
   1.1053685e-09  -1.5857259e-03   1.2766148e+00   1.1284200e+00  -6.2622251e+06
   1.1063688e-09  -1.5794740e-03   1.2763226e+00   1.1287107e+00  -6.2375533e+06
   1.1073691e-09  -1.5732466e-03   1.2760316e+00   1.1290003e+00  -6.2129786e+06
   1.1083695e-09  -1.5670438e-03   1.2757417e+00   1.1292888e+00  -6.1885005e+06
   1.1093698e-09  -1.5608655e-03   1.2754531e+00   1.1295762e+00  -6.1641189e+06
   1.1103701e-09  -1.5547115e-03   1.2751656e+00   1.1298625e+00  -6.1398331e+06
   1.1113705e-09  -1.5485817e-03   1.2748793e+00   1.1301478e+00  -6.1156430e+06
   1.1123708e-09  -1.5424761e-03   1.2745941e+00   1.1304320e+00  -6.0915481e+06
   1.1133711e-09  -1.5363945e-03   1.2743102e+00   1.1307151e+00  -6.0675479e+06
   1.1143715e-09  -1.5303369e-03   1.2740273e+00   1.1309971e+00  -6.0436423e+06
   1.1153718e-09  -1.5243032e-03   1.2737457e+00   1.1312781e+00  -6.0198307e+06
   1.1163721e-09  -1.5182932e-03   1.2734651e+00   1.1315580e+00  -5.9961128e+06
   1.1173725e-09  -1.5123069e-03   1.2731858e+00   1.1318369e+00  -5.9724883e+06
   1.1183728e-09  -1.5063442e-03   1.2729075e+00   1.1321147e+00  -5.9489567e+06
   1.1193731e-09  -1.5004050e-03   1.2726304e+00   1.1323915e+00  -5.9255178e+06
   1.1203735e-09  -1.4944892e-03   1.2723545e+00   1.1326672e+00  -5.9021711e+06
   1.1213738e-09  -1.4885967e-03   1.2720796e+00   1.1329419e+00  -5.8789163e+06
   1.1223741e-09  -1.4827274e-03   1.2718059e+00   1.1332156e+00  -5.8557530e+06
   1.1233745e-09  -1.4768812e-03   1.2715333e+00   1.1334882e+00  -5.8326809e+06
   1.1243748e-09  -1.4710581e-03   1.2712618e+00   1.1337598e+00  -5.8096996e+06
   1.1253751e-09  -1.4652579e-03   1.2709913e+00   1.1340303e+00  -5.7868087e+06
   1.1263755e-09  -1.4594806e-03   1.2707220e+00   1.1342999e+00  -5.7640080e+06
   1.1273758e-09  -1.4537260e-03   1.2704538e+00   1.1345684e+00  -5.7412969e+06
   1.1283761e-09  -1.4479942e-03   1.2701867e+00   1.1348359e+00  -5.7186753e+06
   1.1293765e-09  -1.4422849e-03   1.2699207e+00   1.1351024e+00  -5.6961427e+06
   1.1303768e-09  -1.4365980e-03   1.2696558e+00   1.1353679e+00  -5.6736988e+06
   1.1313771e-09  -1.4309336e-03   1.2693919e+00   1.1356324e+00  -5.6513432e+06
   1.1323775e-09  -1.4252916e-03   1.2691291e+00   1.1358959e+00  -5.6290756e+06
   1.1333778e-09  -1.4196717e-03   1.2688674e+00   1.1361584e+00  -5.6068956e+06
   1.1343781e-09  -1.4140740e-03   1.2686067e+00   1.1364199e+00  -5.5848030e+06
   1.1353785e-09  -1.4084983e-03   1.2683471e+00   1.1366804e+00  -5.5627973e+06
   1.1363788e-09  -1.4029447e-03   1.2680886e+00   1.1369400e+00  -5.5408782e+06
   1.1373791e-09  -1.3974129e-03   1.2678311e+00   1.1371985e+00  -5.5190454e+06
   1.1383795e-09  -1.3919029e-03   1.2675747e+00   1.1374561e+00  -5.4972985e+06
   1.1393798e-09  -1.3864146e-03   1.2673193e+00   1.1377127e+00  -5.4756373e+06
   1.1403801e-09  -1.3809479e-03   1.2670649e+00   1.1379683e+00  -5.4540613e+06
   1.1413805e-09  -1.3755028e-03   1.2668116e+00   1.1382230e+00  -5.4325702e+06
   1.1423808e-09  -1.3700791e-03   1.2665593e+00   1.1384767e+00  -5.4111637e+06
   1.1433811e-09  -1.3646768e-03   1.2663080e+00   1.1387294e+00  -5.3898414e+06
   1.1443815e-09  -1.3592958e-03   1.2660577e+00   1.1389812e+00  -5.3686031e+06
   1.1453818e-09  -1.3539360e-03   1.2658085e+00   1.1392320e+00  -5.3474484e+06
   1.1463821e-09  -1.3485973e-03   1.2655603e+00   1.1394819e+00  -5.3263770e+06
   1.1473825e-09  -1.3432797e-03   1.2653131e+00   1.1397308e+00  -5.3053885e+06
   1.1483828e-09  -1.3379830e-03   1.2650669e+00   1.1399788e+00  -5.2844826e+06
   1.1493831e-09  -1.3327072e-03   1.2648217e+00   1.1402258e+00  -5.2636590e+06
   1.1503835e-09  -1.3274521e-03   1.2645774e+00   1.1404720e+00  -5.2429174e+06
   1.1513838e-09  -1.3222178e-03   1.2643342e+00   1.1407171e+00  -5.2222574e+06
   1.1523841e-09  -1.3170041e-03   1.2640920e+00   1.1409614e+00  -5.2016788e+06
   1.1533845e-09  -1.3118109e-03   1.2638507e+00   1.1412047e+00  -5.1811811e+06
   1.1543848e-09  -1.3066383e-03   1.2636104e+00   1.1414471e+00  -5.1607641e+06
   1.1553851e-09  -1.3014860e-03   1.2633711e+00   1.1416886e+00  -5.1404276e+06
   1.1563855e-09  -1.2963539e-03   1.2631328e+00   1.1419291e+00  -5.1201710e+06
   1.1573858e-09  -1.2912422e-03   1.2628955e+00   1.1421688e+00  -5.0999942e+06
   1.1583861e-09  -1.2861505e-03   1.2626591e+00   1.1424075e+00  -5.0798968e+06
   1.1593865e-09  -1.2810790e-03   1.2624236e+00   1.1426454e+00  -5.0598786e+06
   1.1603868e-09  -1.2760274e-03   1.2621891e+00   1.1428823e+00  -5.0399391e+06
   1.1613871e-09  -1.2709957e-03   1.2619556e+00   1.1431183e+00  -5.0200782e+06
   1.1623875e-09  -1.2659838e-03   1.2617230e+00   1.1433535e+00  -5.0002954e+06
   1.1633878e-09  -1.2609917e-03   1.2614914e+00   1.1435877e+00  -4.9805905e+06
   1.1643881e-09  -1.2560193e-03   1.2612607e+00   1.1438210e+00  -4.9609632e+06
   1.1653885e-09  -1.2510665e-03   1.2610309e+00   1.1440535e+00  -4.9414131e+06
   1.1663888e-09  -1.2461332e-03   1.2608021e+00   1.1442851e+00  -4.9219400e+06
   1.1673891e-09  -1.2412193e-03   1.2605742e+00   1.1445158e+00  -4.9025435e+06
   1.1683895e-09  -1.2363248e-03   1.2603472e+00   1.1447456e+00  -4.8832235e+06
   1.1693898e-09  -1.2314496e-03   1.2601211e+00   1.1449746e+00  -4.8639794e+06
   1.1703901e-09  -1.2265936e-03   1.2598959e+00   1.1452026e+00  -4.8448112e+06
   1.1713905e-09  -1.2217567e-03   1.2596717e+00   1.1454299e+00  -4.8257183e+06
   1.1723908e-09  -1.2169389e-03   1.2594484e+00   1.1456562e+00  -4.8067007e+06
   1.1733911e-09  -1.2121401e-03   1.2592260e+00   1.1458817e+00  -4.7877579e+06
   1.1743915e-09  -1.2073601e-03   1.2590044e+00   1.1461063e+00  -4.7688897e+06
   1.1753918e-09  -1.2025991e-03   1.2587838e+00   1.1463301e+00  -4.7500958e+06
   1.1763921e-09  -1.1978568e-03   1.2585641e+00   1.1465530e+00  -4.7313759e+06
   1.1773925e-09  -1.1931331e-03   1.2583452e+00   1.1467751e+00  -4.7127296e+06
   1.1783928e-09  -1.1884281e-03   1.2581273e+00   1.1469963e+00  -4.6941568e+06
   1.1793931e-09  -1.1837417e-03   1.2579102e+00   1.1472167e+00  -4.6756571e+06
   1.1803935e-09  -1.1790737e-03   1.2576940e+00   1.1474363e+00  -4.6572303e+06
   1.1813938e-09  -1.1744241e-03   1.2574787e+00   1.1476550e+00  -4.6388759e+06
   1.1823941e-09  -1.1697928e-03   1.2572642e+00   1.1478729e+00  -4.6205939e+06
   1.1833945e-09  -1.1651798e-03   1.2570506e+00   1.1480899e+00  -4.6023838e+06
   1.1843948e-09  -1.1605849e-03   1.2568379e+00   1.1483061e+00  -4.5842454e+06
   1.1853951e-09  -1.1560082e-03   1.2566261e+00   1.1485215e+00  -4.5661784e+06
   1.1863955e-09  -1.1514495e-03   1.2564151e+00   1.1487361e+00  -4.5481826e+06
   1.1873958e-09  -1.1469088e-03   1.2562049e+00   1.1489499e+00  -4.5302576e+06
   1.1883961e-09  -1.1423860e-03   1.2559956e+00   1.1491628e+00  -4.5124032e+06
   1.1893965e-09  -1.1378810e-03   1.2557872e+00   1.1493749e+00  -4.4946191e+06
   1.1903968e-09  -1.1333937e-03   1.2555796e+00   1.1495863e+00  -4.4769050e+06
   1.1913971e-09  -1.1289241e-03   1.2553728e+00   1.1497968e+00  -4.4592606e+06
   1.1923975e-09  -1.1244722e-03   1.2551669e+00   1.1500065e+00  -4.4416857e+06
   1.1933978e-09  -1.1200378e-03   1.2549618e+00   1.1502154e+00  -4.4241800e+06
   1.1943981e-09  -1.1156209e-03   1.2547575e+00   1.1504235e+00  -4.4067433e+06
   1.1953985e-09  -1.1112213e-03   1.2545541e+00   1.1506308e+00  -4.3893752e+06
   1.1963988e-09  -1.1068392e-03   1.2543514e+00   1.1508374e+00  -4.3720754e+06
   1.1973991e-09  -1.1024742e-03   1.2541496e+00   1.1510431e+00  -4.3548438e+06
   1.1983995e-09  -1.0981265e-03   1.2539486e+00   1.1512481e+00  -4.3376801e+06
   1.1993998e-09  -1.0937960e-03   1.2537485e+00   1.1514522e+00  -4.3205839e+06
   1.2004001e-09  -1.0894825e-03   1.2535491e+00   1.1516556e+00  -4.3035550e+06
   1.2014005e-09  -1.0851860e-03   1.2533505e+00   1.1518583e+00  -4.2865932e+06
   1.2024008e-09  -1.0809064e-03   1.2531528e+00   1.1520601e+00  -4.2696982e+06
   1.2034011e-09  -1.0766437e-03   1.2529558e+00   1.1522612e+00  -4.2528697e+06
   1.2044015e-09  -1.0723978e-03   1.2527597e+00   1.1524615e+00  -4.2361075e+06
   1.2054018e-09  -1.0681686e-03   1.2525643e+00   1.1526610e+00  -4.2194112e+06
   1.2064021e-09  -1.0639561e-03   1.2523697e+00   1.1528598e+00  -4.2027807e+06
   1.2074025e-09  -1.0597603e-03   1.2521759e+00   1.1530578e+00  -4.1862157e+06
   1.2084028e-09  -1.0555809e-03   1.2519829e+00   1.1532551e+00  -4.1697159e+06
   1.2094031e-09  -1.0514180e-03   1.2517907e+00   1.1534516e+00  -4.1532811e+06
   1.2104035e-09  -1.0472715e-03   1.2515992e+00   1.1536473e+00  -4.1369110e+06
   1.2114038e-09  -1.0431414e-03   1.2514085e+00   1.1538423e+00  -4.1206054e+06
   1.2124041e-09  -1.0390276e-03   1.2512186e+00   1.1540366e+00  -4.1043640e+06
   1.2134045e-09  -1.0349299e-03   1.2510294e+00   1.1542301e+00  -4.0881865e+06
   1.2144048e-09  -1.0308484e-03   1.2508411e+00   1.1544229e+00  -4.0720727e+06
   1.2154051e-09  -1.0267830e-03   1.2506534e+00   1.1546149e+00  -4.0560224e+06
   1.2164055e-09  -1.0227337e-03   1.2504666e+00   1.1548062e+00  -4.0400353e+06
   1.2174058e-09  -1.0187003e-03   1.2502804e+00   1.1549968e+00  -4.0241111e+06
   1.2184061e-09  -1.0146827e-03   1.2500951e+00   1.1551867e+00  -4.0082497e+06
   1.2194065e-09  -1.0106811e-03   1.2499105e+00   1.1553758e+00  -3.9924507e+06
   1.2204068e-09  -1.0066952e-03   1.2497266e+00   1.1555642e+00  -3.9767139e+06
   1.2214071e-09  -1.0027250e-03   1.2495434e+00   1.1557518e+00  -3.9610391e+06
   1.2224075e-09  -9.9877042e-04   1.2493611e+00   1.1559388e+00  -3.9454260e+06
   1.2234078e-09  -9.9483146e-04   1.2491794e+00   1.1561250e+00  -3.9298744e+06
   1.2244081e-09  -9.9090803e-04   1.2489985e+00   1.1563106e+00  -3.9143840e+06
   1.2254085e-09  -9.8700006e-04   1.2488183e+00   1.1564954e+00  -3.8989547e+06
   1.2264088e-09  -9.8310750e-04   1.2486388e+00   1.1566795e+00  -3.8835861e+06
   1.2274091e-09  -9.7923028e-04   1.2484601e+00   1.1568629e+00  -3.8682780e+06
   1.2284095e-09  -9.7536834e-04   1.2482820e+00   1.1570456e+00  -3.8530302e+06
   1.2294098e-09  -9.7152163e-04   1.2481047e+00   1.1572276e+00  -3.8378425e+06
   1.2304101e-09  -9.6769008e-04   1.2479281e+00   1.1574089e+00  -3.8227146e+06
   1.2314105e-09  -9.6387363e-04   1.2477523e+00   1.1575895e+00  -3.8076462e+06
   1.2324108e-09  -9.6007223e-04   1.2475771e+00   1.1577694e+00  -3.7926372e+06
   1.2334111e-09  -9.5628581e-04   1.2474026e+00   1.1579486e+00  -3.7776873e+06
   1.2344115e-09  -9.5251431e-04   1.2472289e+00   1.1581271e+00  -3.7627963e+06
   1.2354118e-09  -9.4875769e-04   1.2470558e+00   1.1583050e+00  -3.7479639e+06
   1.2364121e-09  -9.4501587e-04   1.2468834e+00   1.1584821e+00  -3.7331900e+06
   1.2374125e-09  -9.4128880e-04   1.2467117e+00   1.1586586e+00  -3.7184742e+06
   1.2384128e-09  -9.3757642e-04   1.2465408e+00   1.1588344e+00  -3.7038164e+06
   1.2394131e-09  -9.3387868e-04   1.2463705e+00   1.1590096e+00  -3.6892163e+06
   1.2404135e-09  -9.3019551e-04   1.2462009e+00   1.1591840e+00  -3.6746737e+06
   1.2414138e-09  -9.2652686e-04   1.2460319e+00   1.1593578e+00  -3.6601883e+06
   1.2424141e-09  -9.2287267e-04   1.2458637e+00   1.1595310e+00  -3.6457601e+06
   1.2434145e-09  -9.1923289e-04   1.2456961e+00   1.1597034e+00  -3.6313886e+06
   1.2444148e-09  -9.1560745e-04   1.2455292e+00   1.1598752e+00  -3.6170738e+06
   1.2454151e-09  -9.1199631e-04   1.2453630e+00   1.1600464e+00  -3.6028153e+06
   1.2464155e-09  -9.0839940e-04   1.2451975e+00   1.1602168e+00  -3.5886130e+06
   1.2474158e-09  -9.0481667e-04   1.2450326e+00   1.1603867e+00  -3.5744666e+06
   1.2484161e-09  -9.0124807e-04   1.2448684e+00   1.1605558e+00  -3.5603760e+06
   1.2494165e-09  -8.9769353e-04   1.2447048e+00   1.1607244e+00  -3.5463408e+06
   1.2504168e-09  -8.9415300e-04   1.2445419e+00   1.1608922e+00  -3.5323609e+06
   1.2514171e-09  -8.9062643e-04   1.2443797e+00   1.1610595e+00  -3.5184361e+06
   1.2524175e-09  -8.8711376e-04   1.2442181e+00   1.1612261e+00  -3.5045661e+06
   1.2534178e-09  -8.8361494e-04   1.2440571e+00   1.1613920e+00  -3.4907508e+06
   1.2544181e-09  -8.8012992e-04   1.2438968e+00   1.1615573e+00  -3.4769898e+06
   1.2554185e-09  -8.7665863e-04   1.2437372e+00   1.1617220e+00  -3.4632831e+06
   1.2564188e-09  -8.7320102e-04   1.2435782e+00   1.1618861e+00  -3.4496303e+06
   1.2574191e-09  -8.6975705e-04   1.2434198e+00   1.1620495e+00  -3.4360314e+06
   1.2584195e-09  -8.6632665e-04   1.2432621e+00   1.1622123e+00  -3.4224860e+06
   1.2594198e-09  -8.6290978e-04   1.2431050e+00   1.1623744e+00  -3.4089939e+06
   1.2604201e-09  -8.5950637e-04   1.2429485e+00   1.1625359e+00  -3.3955550e+06
   1.2614205e-09  -8.5611638e-04   1.2427927e+00   1.1626969e+00  -3.3821690e+06
   1.2624208e-09  -8.5273976e-04   1.2426374e+00   1.1628572e+00  -3.3688358e+06
   1.2634211e-09  -8.4937645e-04   1.2424829e+00   1.1630168e+00  -3.3555550e+06
   1.2644215e-09  -8.4602640e-04   1.2423289e+00   1.1631759e+00  -3.3423266e+06
   1.2654218e-09  -8.4268955e-04   1.2421755e+00   1.1633344e+00  -3.3291503e+06
   1.2664221e-09  -8.3936586e-04   1.2420228e+00   1.1634922e+00  -3.3160259e+06
   1.2674225e-09  -8.3605527e-04   1.2418707e+00   1.1636494e+00  -3.3029531e+06
   1.2684228e-09  -8.3275773e-04   1.2417192e+00   1.1638061e+00  -3.2899319e+06
   1.2694231e-09  -8.2947319e-04   1.2415683e+00   1.1639621e+00  -3.2769620e+06
   1.2704235e-09  -8.2620161e-04   1.2414180e+00   1.1641175e+00  -3.2640431e+06
   1.2714238e-09  -8.2294291e-04   1.2412683e+00   1.1642723e+00  -3.2511752e+06
   1.2724241e-09  -8.1969707e-04   1.2411192e+00   1.1644266e+00  -3.2383579e+06
   1.2734245e-09  -8.1646402e-04   1.2409707e+00   1.1645802e+00  -3.2255911e+06
   1.2744248e-09  -8.1324372e-04   1.2408229e+00   1.1647333e+00  -3.2128746e+06
   1.2754251e-09  -8.1003611e-04   1.2406756e+00   1.1648857e+00  -3.2002082e+06
   1.2764255e-09  -8.0684115e-04   1.2405289e+00   1.1650376e+00  -3.1875917e+06
   1.2774258e-09  -8.0365879e-04   1.2403827e+00   1.1651889e+00  -3.1750249e+06
   1.2784261e-09  -8.0048897e-04   1.2402372e+00   1.1653396e+00  -3.1625076e+06
   1.2794265e-09  -7.9733165e-04   1.2400923e+00   1.1654897e+00  -3.1500396e+06
   1.2804268e-09  -7.9418677e-04   1.2399479e+00   1.1656392e+00  -3.1376207e+06
   1.2814271e-09  -7.9105430e-04   1.2398041e+00   1.1657882e+00  -3.1252508e+06
   1.2824275e-09  -7.8793417e-04   1.2396609e+00   1.1659366e+00  -3.1129295e+06
   1.2834278e-09  -7.8482635e-04   1.2395183e+00   1.1660844e+00  -3.1006568e+06
   1.2844281e-09  -7.8173077e-04   1.2393762e+00   1.1662316e+00  -3.0884325e+06
   1.2854285e-09  -7.7864740e-04   1.2392347e+00   1.1663783e+00  -3.0762563e+06
   1.2864288e-09  -7.7557619e-04   1.2390938e+00   1.1665244e+00  -3.0641281e+06
   1.2874291e-09  -7.7251709e-04   1.2389535e+00   1.1666700e+00  -3.0520476e+06
   1.2884295e-09  -7.6947005e-04   1.2388137e+00   1.1668150e+00  -3.0400148e+06
   1.2894298e-09  -7.6643502e-04   1.2386745e+00   1.1669594e+00  -3.0280293e+06
   1.2904301e-09  -7.6341195e-04   1.2385358e+00   1.1671033e+00  -3.0160911e+06
   1.2914305e-09  -7.6040081e-04   1.2383977e+00   1.1672466e+00  -3.0041999e+06
   1.2924308e-09  -7.5740153e-04   1.2382601e+00   1.1673894e+00  -2.9923555e+06
   1.2934311e-09  -7.5441409e-04   1.2381231e+00   1.1675316e+00  -2.9805578e+06
   1.2944315e-09  -7.5143841e-04   1.2379866e+00   1.1676733e+00  -2.9688066e+06
   1.2954318e-09  -7.4847448e-04   1.2378507e+00   1.1678144e+00  -2.9571016e+06
   1.2964321e-09  -7.4552222e-04   1.2377154e+00   1.1679550e+00  -2.9454428e+06
   1.2974325e-09  -7.4258161e-04   1.2375805e+00   1.1680950e+00  -2.9338299e+06
   1.2984328e-09  -7.3965259e-04   1.2374463e+00   1.1682345e+00  -2.9222628e+06
   1.2994331e-09  -7.3673512e-04   1.2373125e+00   1.1683734e+00  -2.9107412e+06
   1.3004335e-09  -7.3382915e-04   1.2371793e+00   1.1685119e+00  -2.8992651e+06
   1.3014338e-09  -7.3093464e-04   1.2370466e+00   1.1686497e+00  -2.8878341e+06
   1.3024341e-09  -7.2805154e-04   1.2369145e+00   1.1687871e+00  -2.8764482e+06
   1.3034345e-09  -7.2517981e-04   1.2367829e+00   1.1689239e+00  -2.8651071e+06
   1.3044348e-09  -7.2231940e-04   1.2366518e+00   1.1690602e+00  -2.8538107e+06
   1.3054351e-09  -7.1947027e-04   1.2365212e+00   1.1691960e+00  -2.8425588e+06
   1.3064355e-09  -7.1663238e-04   1.2363912e+00   1.1693312e+00  -2.8313513e+06
   1.3074358e-09  -7.1380567e-04   1.2362617e+00   1.1694659e+00  -2.8201879e+06
   1.3084361e-09  -7.1099011e-04   1.2361327e+00   1.1696001e+00  -2.8090685e+06
   1.3094365e-09  -7.0818564e-04   1.2360042e+00   1.1697338e+00  -2.7979929e+06
   1.3104368e-09  -7.0539224e-04   1.2358763e+00   1.1698670e+00  -2.7869609e+06
   1.3114371e-09  -7.0260985e-04   1.2357488e+00   1.1699996e+00  -2.7759724e+06
   1.3124375e-09  -6.9983843e-04   1.2356219e+00   1.1701318e+00  -2.7650272e+06
   1.3134378e-09  -6.9707794e-04   1.2354954e+00   1.1702634e+00  -2.7541251e+06
   1.3144381e-09  -6.9432833e-04   1.2353695e+00   1.1703945e+00  -2.7432660e+06
   1.3154385e-09  -6.9158956e-04   1.2352441e+00   1.1705251e+00  -2.7324496e+06
   1.3164388e-09  -6.8886159e-04   1.2351192e+00   1.1706552e+00  -2.7216759e+06
   1.3174391e-09  -6.8614438e-04   1.2349948e+00   1.1707848e+00  -2.7109446e+06
   1.3184395e-09  -6.8343788e-04   1.2348708e+00   1.1709139e+00  -2.7002556e+06
   1.3194398e-09  -6.8074205e-04   1.2347474e+00   1.1710425e+00  -2.6896087e+06
   1.3204401e-09  -6.7805686e-04   1.2346245e+00   1.1711706e+00  -2.6790038e+06
   1.3214405e-09  -6.7538225e-04   1.2345021e+00   1.1712982e+00  -2.6684406e+06
   1.3224408e-09  -6.7271818e-04   1.2343801e+00   1.1714254e+00  -2.6579191e+06
   1.3234411e-09  -6.7006462e-04   1.2342587e+00   1.1715520e+00  -2.6474390e+06
   1.3244415e-09  -6.6742152e-04   1.2341377e+00   1.1716781e+00  -2.6370002e+06
   1.3254418e-09  -6.6478885e-04   1.2340172e+00   1.1718038e+00  -2.6266026e+06
   1.3264421e-09  -6.6216655e-04   1.2338972e+00   1.1719289e+00  -2.6162459e+06
   1.3274425e-09  -6.5955460e-04   1.2337777e+00   1.1720536e+00  -2.6059300e+06
   1.3284428e-09  -6.5695294e-04   1.2336586e+00   1.1721778e+00  -2.5956548e+06
   1.3294431e-09  -6.5436154e-04   1.2335401e+00   1.1723015e+00  -2.5854200e+06
   1.3304435e-09  -6.5178036e-04   1.2334220e+00   1.1724247e+00  -2.5752256e+06
   1.3314438e-09  -6.4920936e-04   1.2333043e+00   1.1725475e+00  -2.5650714e+06
   1.3324441e-09  -6.4664850e-04   1.2331872e+00   1.1726698e+00  -2.5549571e+06
   1.3334445e-09  -6.4409773e-04   1.2330705e+00   1.1727916e+00  -2.5448828e+06
   1.3344448e-09  -6.4155702e-04   1.2329543e+00   1.1729129e+00  -2.5348481e+06
   1.3354451e-09  -6.3902633e-04   1.2328386e+00   1.1730338e+00  -2.5248529e+06
   1.3364455e-09  -6.3650562e-04   1.2327233e+00   1.1731542e+00  -2.5148972e+06
   1.3374458e-09  -6.3399485e-04   1.2326084e+00   1.1732741e+00  -2.5049806e+06
   1.3384461e-09  -6.3149397e-04   1.2324941e+00   1.1733936e+00  -2.4951032e+06
   1.3394465e-09  -6.2900296e-04   1.2323802e+00   1.1735126e+00  -2.4852647e+06
   1.3404468e-09  -6.2652177e-04   1.2322667e+00   1.1736311e+00  -2.4754649e+06
   1.3414471e-09  -6.2405037e-04   1.2321537e+00   1.1737492e+00  -2.4657037e+06
   1.3424475e-09  -6.2158871e-04   1.2320412e+00   1.1738668e+00  -2.4559811e+06
   1.3434478e-09  -6.1913676e-04   1.2319291e+00   1.1739840e+00  -2.4462967e+06
   1.3444481e-09  -6.1669447e-04   1.2318174e+00   1.1741007e+00  -2.4366505e+06
   1.3454485e-09  -6.1426182e-04   1.2317062e+00   1.1742170e+00  -2.4270423e+06
   1.3464488e-09  -6.1183876e-04   1.2315955e+00   1.1743328e+00  -2.4174719e+06
   1.3474491e-09  -6.0942525e-04   1.2314852e+00   1.1744482e+00  -2.4079393e+06
   1.3484495e-09  -6.0702126e-04   1.2313753e+00   1.1745631e+00  -2.3984442e+06
   1.3494498e-09  -6.0462675e-04   1.2312659e+00   1.1746776e+00  -2.3889866e+06
   1.3504502e-09  -6.0224168e-04   1.2311569e+00   1.1747916e+00  -2.3795662e+06
   1.3514505e-09  -5.9986602e-04   1.2310483e+00   1.1749052e+00  -2.3701830e+06
   1.3524508e-09  -5.9749972e-04   1.2309402e+00   1.1750183e+00  -2.3608367e+06
   1.3534512e-09  -5.9514276e-04   1.2308325e+00   1.1751310e+00  -2.3515273e+06
   1.3544515e-09  -5.9279509e-04   1.2307252e+00   1.1752433e+00  -2.3422545e+06
   1.3554518e-09  -5.9045667e-04   1.2306184e+00   1.1753551e+00  -2.3330183e+06
   1.3564522e-09  -5.8812748e-04   1.2305120e+00   1.1754665e+00  -2.3238185e+06
   1.3574525e-09  -5.8580747e-04   1.2304060e+00   1.1755775e+00  -2.3146549e+06
   1.3584528e-09  -5.8349662e-04   1.2303005e+00   1.1756881e+00  -2.3055274e+06
   1.3594532e-09  -5.8119487e-04   1.2301953e+00   1.1757982e+00  -2.2964360e+06
   1.3604535e-09  -5.7890220e-04   1.2300906e+00   1.1759078e+00  -2.2873803e+06
   1.3614538e-09  -5.7661857e-04   1.2299863e+00   1.1760171e+00  -2.2783603e+06
   1.3624542e-09  -5.7434395e-04   1.2298824e+00   1.1761259e+00  -2.2693759e+06
   1.3634545e-09  -5.7207830e-04   1.2297790e+00   1.1762344e+00  -2.2604269e+06
   1.3644548e-09  -5.6982158e-04   1.2296759e+00   1.1763423e+00  -2.2515132e+06
   1.3654552e-09  -5.6757376e-04   1.2295733e+00   1.1764499e+00  -2.2426345e+06
   1.3664555e-09  -5.6533480e-04   1.2294711e+00   1.1765571e+00  -2.2337909e+06
   1.3674558e-09  -5.6310467e-04   1.2293692e+00   1.1766638e+00  -2.2249821e+06
   1.3684562e-09  -5.6088334e-04   1.2292678e+00   1.1767701e+00  -2.2162081e+06
   1.3694565e-09  -5.5867077e-04   1.2291668e+00   1.1768761e+00  -2.2074686e+06
   1.3704568e-09  -5.5646692e-04   1.2290662e+00   1.1769816e+00  -2.1987635e+06
   1.3714572e-09  -5.5427176e-04   1.2289660e+00   1.1770866e+00  -2.1900928e+06
   1.3724575e-09  -5.5208526e-04   1.2288662e+00   1.1771913e+00  -2.1814562e+06
   1.3734578e-09  -5.4990738e-04   1.2287668e+00   1.1772956e+00  -2.1728537e+06
   1.3744582e-09  -5.4773809e-04   1.2286678e+00   1.1773995e+00  -2.1642851e+06
   1.3754585e-09  -5.4557736e-04   1.2285692e+00   1.1775030e+00  -2.1557502e+06
   1.3764588e-09  -5.4342514e-04   1.2284710e+00   1.1776060e+00  -2.1472490e+06
   1.3774592e-09  -5.4128142e-04   1.2283731e+00   1.1777087e+00  -2.1387813e+06
   1.3784595e-09  -5.3914614e-04   1.2282757e+00   1.1778110e+00  -2.1303470e+06
   1.3794598e-09  -5.3701929e-04   1.2281787e+00   1.1779128e+00  -2.1219459e+06
   1.3804602e-09  -5.3490083e-04   1.2280820e+00   1.1780143e+00  -2.1135779e+06
   1.3814605e-09  -5.3279072e-04   1.2279857e+00   1.1781154e+00  -2.1052429e+06
   1.3824608e-09  -5.3068893e-04   1.2278898e+00   1.1782161e+00  -2.0969407e+06
   1.3834612e-09  -5.2859542e-04   1.2277943e+00   1.1783164e+00  -2.0886713e+06
   1.3844615e-09  -5.2651018e-04   1.2276992e+00   1.1784163e+00  -2.0804345e+06
   1.3854618e-09  -5.2443316e-04   1.2276045e+00   1.1785158e+00  -2.0722301e+06
   1.3864622e-09  -5.2236433e-04   1.2275101e+00   1.1786149e+00  -2.0640580e+06
   1.3874625e-09  -5.2030365e-04   1.2274161e+00   1.1787137e+00  -2.0559182e+06
   1.3884628e-09  -5.1825111e-04   1.2273225e+00   1.1788120e+00  -2.0478104e+06
   1.3894632e-09  -5.1620666e-04   1.2272293e+00   1.1789100e+00  -2.0397346e+06
   1.3904635e-09  -5.1417027e-04   1.2271364e+00   1.1790076e+00  -2.0316907e+06
   1.3914638e-09  -5.1214191e-04   1.2270439e+00   1.1791049e+00  -2.0236784e+06
   1.3924642e-09  -5.1012155e-04   1.2269518e+00   1.1792017e+00  -2.0156977e+06
   1.3934645e-09  -5.0810916e-04   1.2268600e+00   1.1792982e+00  -2.0077485e+06
   1.3944648e-09  -5.0610471e-04   1.2267686e+00   1.1793943e+00  -1.9998306e+06
   1.3954652e-09  -5.0410815e-04   1.2266776e+00   1.1794900e+00  -1.9919439e+06
   1.3964655e-09  -5.0211948e-04   1.2265869e+00   1.1795853e+00  -1.9840883e+06
   1.3974658e-09  -5.0013864e-04   1.2264966e+00   1.1796803e+00  -1.9762637e+06
   1.3984662e-09  -4.9816562e-04   1.2264067e+00   1.1797749e+00  -1.9684699e+06
   1.3994665e-09  -4.9620038e-04   1.2263171e+00   1.1798691e+00  -1.9607068e+06
   1.4004668e-09  -4.9424289e-04   1.2262278e+00   1.1799630e+00  -1.9529743e+06
   1.4014672e-09  -4.9229312e-04   1.2261390e+00   1.1800565e+00  -1.9452723e+06
   1.4024675e-09  -4.9035104e-04   1.2260505e+00   1.1801497e+00  -1.9376006e+06
   1.4034678e-09  -4.8841662e-04   1.2259623e+00   1.1802424e+00  -1.9299592e+06
   1.4044682e-09  -4.8648982e-04   1.2258745e+00   1.1803349e+00  -1.9223479e+06
   1.4054685e-09  -4.8457063e-04   1.2257870e+00   1.1804269e+00  -1.9147666e+06
   1.4064688e-09  -4.8265900e-04   1.2256999e+00   1.1805186e+00  -1.9072152e+06
   1.4074692e-09  -4.8075492e-04   1.2256131e+00   1.1806100e+00  -1.8996936e+06
   1.4084695e-09  -4.7885834e-04   1.2255267e+00   1.1807010e+00  -1.8922016e+06
   1.4094698e-09  -4.7696924e-04   1.2254406e+00   1.1807916e+00  -1.8847391e+06
   1.4104702e-09  -4.7508760e-04   1.2253549e+00   1.1808819e+00  -1.8773061e+06
   1.4114705e-09  -4.7321337e-04   1.2252695e+00   1.1809718e+00  -1.8699023e+06
   1.4124708e-09  -4.7134653e-04   1.2251845e+00   1.1810614e+00  -1.8625278e+06
   1.4134712e-09  -4.6948706e-04   1.2250998e+00   1.1811506e+00  -1.8551823e+06
   1.4144715e-09  -4.6763492e-04   1.2250154e+00   1.1812395e+00  -1.8478657e+06
   1.4154718e-09  -4.6579009e-04   1.2249313e+00   1.1813281e+00  -1.8405780e+06
   1.4164722e-09  -4.6395253e-04   1.2248476e+00   1.1814163e+00  -1.8333190e+06
   1.4174725e-09  -4.6212222e-04   1.2247643e+00   1.1815041e+00  -1.8260887e+06
   1.4184728e-09  -4.6029912e-04   1.2246812e+00   1.1815916e+00  -1.8188868e+06
   1.4194732e-09  -4.5848322e-04   1.2245985e+00   1.1816788e+00  -1.8117133e+06
   1.4204735e-09  -4.5667448e-04   1.2245162e+00   1.1817656e+00  -1.8045681e+06
   1.4214738e-09  -4.5487287e-04   1.2244341e+00   1.1818521e+00  -1.7974511e+06
   1.4224742e-09  -4.5307837e-04   1.2243524e+00   1.1819383e+00  -1.7903621e+06
   1.4234745e-09  -4.5129094e-04   1.2242710e+00   1.1820241e+00  -1.7833011e+06
   1.4244748e-09  -4.4951057e-04   1.2241899e+00   1.1821096e+00  -1.7762679e+06
   1.4254752e-09  -4.4773722e-04   1.2241092e+00   1.1821947e+00  -1.7692624e+06
   1.4264755e-09  -4.4597086e-04   1.2240288e+00   1.1822796e+00  -1.7622846e+06
   1.4274758e-09  -4.4421146e-04   1.2239487e+00   1.1823641e+00  -1.7553342e+06
   1.4284762e-09  -4.4245901e-04   1.2238689e+00   1.1824482e+00  -1.7484112e+06
   1.4294765e-09  -4.4071346e-04   1.2237894e+00   1.1825320e+00  -1.7415156e+06
   1.4304768e-09  -4.3897481e-04   1.2237103e+00   1.1826156e+00  -1.7346471e+06
   1.4314772e-09  -4.3724300e-04   1.2236314e+00   1.1826987e+00  -1.7278057e+06
   1.4324775e-09  -4.3551803e-04   1.2235529e+00   1.1827816e+00  -1.7209913e+06
   1.4334778e-09  -4.3379986e-04   1.2234747e+00   1.1828641e+00  -1.7142037e+06
   1.4344782e-09  -4.3208847e-04   1.2233968e+00   1.1829463e+00  -1.7074429e+06
   1.4354785e-09  -4.3038383e-04   1.2233192e+00   1.1830282e+00  -1.7007087e+06
   1.4364788e-09  -4.2868591e-04   1.2232419e+00   1.1831098e+00  -1.6940011e+06
   1.4374792e-09  -4.2699469e-04   1.2231650e+00   1.1831911e+00  -1.6873199e+06
   1.4384795e-09  -4.2531014e-04   1.2230883e+00   1.1832720e+00  -1.6806650e+06
   1.4394798e-09  -4.2363223e-04   1.2230119e+00   1.1833526e+00  -1.6740364e+06
   1.4404802e-09  -4.2196094e-04   1.2229359e+00   1.1834329e+00  -1.6674340e+06
   1.4414805e-09  -4.2029624e-04   1.2228601e+00   1.1835129e+00  -1.6608575e+06
   1.4424808e-09  -4.1863811e-04   1.2227847e+00   1.1835926e+00  -1.6543070e+06
   1.4434812e-09  -4.1698652e-04   1.2227095e+00   1.1836720e+00  -1.6477823e+06
   1.4444815e-09  -4.1534144e-04   1.2226347e+00   1.1837511e+00  -1.6412833e+06
   1.4454818e-09  -4.1370285e-04   1.2225601e+00   1.1838298e+00  -1.6348100e+06
   1.4464822e-09  -4.1207072e-04   1.2224859e+00   1.1839083e+00  -1.6283621e+06
   1.4474825e-09  -4.1044503e-04   1.2224119e+00   1.1839864e+00  -1.6219397e+06
   1.4484828e-09  -4.0882575e-04   1.2223383e+00   1.1840643e+00  -1.6155426e+06
   1.4494832e-09  -4.0721286e-04   1.2222649e+00   1.1841418e+00  -1.6091707e+06
   1.4504835e-09  -4.0560633e-04   1.2221918e+00   1.1842190e+00  -1.6028240e+06
   1.4514838e-09  -4.0400613e-04   1.2221190e+00   1.1842960e+00  -1.5965022e+06
   1.4524842e-09  -4.0241225e-04   1.2220465e+00   1.1843726e+00  -1.5902054e+06
   1.4534845e-09  -4.0082465e-04   1.2219743e+00   1.1844489e+00  -1.5839334e+06
   1.4544848e-09  -3.9924332e-04   1.2219024e+00   1.1845250e+00  -1.5776862e+06
   1.4554852e-09  -3.9766822e-04   1.2218308e+00   1.1846007e+00  -1.5714635e+06
   1.4564855e-09  -3.9609933e-04   1.2217594e+00   1.1846762e+00  -1.5652654e+06
   1.4574858e-09  -3.9453664e-04   1.2216884e+00   1.1847513e+00  -1.5590917e+06
   1.4584862e-09  -3.9298010e-04   1.2216176e+00   1.1848262e+00  -1.5529424e+06
   1.4594865e-09  -3.9142971e-04   1.2215471e+00   1.1849007e+00  -1.5468173e+06
   1.4604868e-09  -3.8988543e-04   1.2214769e+00   1.1849750e+00  -1.5407164e+06
   1.4614872e-09  -3.8834724e-04   1.2214069e+00   1.1850490e+00  -1.5346395e+06
   1.4624875e-09  -3.8681512e-04   1.2213373e+00   1.1851227e+00  -1.5285866e+06
