   0.0000000e+00  -1.4403959e-01   6.2516327e+00   8.4766013e-05  -5.1864293e+08
   2.6675559e-12  -1.4266121e-01   6.2439844e+00   9.4247982e-05  -5.1485629e+08
   5.3351117e-12  -1.4129293e-01   6.2359950e+00   1.0470236e-04  -5.1106773e+08
   8.0026676e-12  -1.3993476e-01   6.2276541e+00   1.1621818e-04  -5.0727735e+08
   1.0670223e-11  -1.3858671e-01   6.2189512e+00   1.2889135e-04  -5.0348526e+08
   1.3337779e-11  -1.3724877e-01   6.2098756e+00   1.4282513e-04  -4.9969156e+08
   1.6005335e-11  -1.3592096e-01   6.2004170e+00   1.5813050e-04  -4.9589638e+08
   1.8672891e-11  -1.3460327e-01   6.1905649e+00   1.7492659e-04  -4.9209987e+08
   2.1340447e-11  -1.3329572e-01   6.1803089e+00   1.9334112e-04  -4.8830217e+08
   2.4008003e-11  -1.3199829e-01   6.1696389e+00   2.1351081e-04  -4.8450346e+08
   2.6675559e-11  -1.3071100e-01   6.1585446e+00   2.3558183e-04  -4.8070391e+08
   2.9343114e-11  -1.2943385e-01   6.1470161e+00   2.5971024e-04  -4.7690373e+08
   3.2010670e-11  -1.2816683e-01   6.1350438e+00   2.8606242e-04  -4.7310313e+08
   3.4678226e-11  -1.2690995e-01   6.1226180e+00   3.1481548e-04  -4.6930233e+08
   3.7345782e-11  -1.2566321e-01   6.1097295e+00   3.4615774e-04  -4.6550159e+08
   4.0013338e-11  -1.2442661e-01   6.0963694e+00   3.8028908e-04  -4.6170116e+08
   4.2680894e-11  -1.2320015e-01   6.0825290e+00   4.1742140e-04  -4.5790132e+08
   4.5348449e-11  -1.2198382e-01   6.0682000e+00   4.5777898e-04  -4.5410238e+08
   4.8016005e-11  -1.2077762e-01   6.0533746e+00   5.0159885e-04  -4.5030463e+08
   5.0683561e-11  -1.1958156e-01   6.0380452e+00   5.4913114e-04  -4.4650843e+08
   5.3351117e-11  -1.1839561e-01   6.0222048e+00   6.0063943e-04  -4.4271410e+08
   5.6018673e-11  -1.1721979e-01   6.0058469e+00   6.5640100e-04  -4.3892202e+08
   5.8686229e-11  -1.1605407e-01   5.9889656e+00   7.1670712e-04  -4.3513258e+08
   6.1353785e-11  -1.1489846e-01   5.9715552e+00   7.8186329e-04  -4.3134618e+08
   6.4021340e-11  -1.1375295e-01   5.9536111e+00   8.5218938e-04  -4.2756323e+08
   6.6688896e-11  -1.1261752e-01   5.9351288e+00   9.2801983e-04  -4.2378417e+08
   6.9356452e-11  -1.1149216e-01   5.9161049e+00   1.0097037e-03  -4.2000946e+08
   7.2024008e-11  -1.1037687e-01   5.8965362e+00   1.0976048e-03  -4.1623957e+08
   7.4691564e-11  -1.0927163e-01   5.8764207e+00   1.1921014e-03  -4.1247498e+08
   7.7359120e-11  -1.0817642e-01   5.8557565e+00   1.2935868e-03  -4.0871621e+08
   8.0026676e-11  -1.0709123e-01   5.8345431e+00   1.4024684e-03  -4.0496376e+08
   8.2694231e-11  -1.0601604e-01   5.8127802e+00   1.5191682e-03  -4.0121817e+08
   8.5361787e-11  -1.0495083e-01   5.7904686e+00   1.6441221e-03  -3.9748000e+08
   8.8029343e-11  -1.0389558e-01   5.7676098e+00   1.7777800e-03  -3.9374979e+08
   9.0696899e-11  -1.0285027e-01   5.7442059e+00   1.9206051e-03  -3.9002814e+08
   9.3364455e-11  -1.0181488e-01   5.7202601e+00   2.0730735e-03  -3.8631562e+08
   9.6032011e-11  -1.0078937e-01   5.6957761e+00   2.2356738e-03  -3.8261283e+08
   9.8699567e-11  -9.9773730e-02   5.6707588e+00   2.4089068e-03  -3.7892038e+08
   1.0136712e-10  -9.8767922e-02   5.6452134e+00   2.5932843e-03  -3.7523890e+08
   1.0403468e-10  -9.7771920e-02   5.6191463e+00   2.7893287e-03  -3.7156899e+08
   1.0670223e-10  -9.6785690e-02   5.5925646e+00   2.9975723e-03  -3.6791130e+08
   1.0936979e-10  -9.5809200e-02   5.5654761e+00   3.2185566e-03  -3.6426646e+08
   1.1203735e-10  -9.4842415e-02   5.5378894e+00   3.4528309e-03  -3.6063512e+08
   1.1470490e-10  -9.3885297e-02   5.5098139e+00   3.7009520e-03  -3.5701792e+08
   1.1737246e-10  -9.2937808e-02   5.4812596e+00   3.9634829e-03  -3.5341551e+08
   1.2004001e-10  -9.1999908e-02   5.4522375e+00   4.2409916e-03  -3.4982854e+08
   1.2270757e-10  -9.1071554e-02   5.4227589e+00   4.5340505e-03  -3.4625765e+08
   1.2537513e-10  -9.0152704e-02   5.3928362e+00   4.8432350e-03  -3.4270350e+08
   1.2804268e-10  -8.9243311e-02   5.3624820e+00   5.1691222e-03  -3.3916672e+08
   1.3071024e-10  -8.8343328e-02   5.3317098e+00   5.5122904e-03  -3.3564795e+08
   1.3337779e-10  -8.7452707e-02   5.3005335e+00   5.8733168e-03  -3.3214782e+08
   1.3604535e-10  -8.6571396e-02   5.2689678e+00   6.2527776e-03  -3.2866697e+08
   1.3871290e-10  -8.5699345e-02   5.2370275e+00   6.6512458e-03  -3.2520600e+08
   1.4138046e-10  -8.4836498e-02   5.2047282e+00   7.0692904e-03  -3.2176553e+08
   1.4404802e-10  -8.3982801e-02   5.1720856e+00   7.5074752e-03  -3.1834614e+08
   1.4671557e-10  -8.3138196e-02   5.1391162e+00   7.9663574e-03  -3.1494842e+08
   1.4938313e-10  -8.2302625e-02   5.1058364e+00   8.4464866e-03  -3.1157295e+08
   1.5205068e-10  -8.1476028e-02   5.0722631e+00   8.9484037e-03  -3.0822027e+08
   1.5471824e-10  -8.0658343e-02   5.0384136e+00   9.4726394e-03  -3.0489093e+08
   1.5738580e-10  -7.9849507e-02   5.0043050e+00   1.0019713e-02  -3.0158545e+08
   1.6005335e-10  -7.9049457e-02   4.9699550e+00   1.0590134e-02  -2.9830434e+08
   1.6272091e-10  -7.8258125e-02   4.9353811e+00   1.1184394e-02  -2.9504808e+08
   1.6538846e-10  -7.7475447e-02   4.9006010e+00   1.1802975e-02  -2.9181715e+08
   1.6805602e-10  -7.6701352e-02   4.8656326e+00   1.2446342e-02  -2.8861198e+08
   1.7072357e-10  -7.5935773e-02   4.8304935e+00   1.3114944e-02  -2.8543301e+08
   1.7339113e-10  -7.5178638e-02   4.7952015e+00   1.3809213e-02  -2.8228065e+08
   1.7605869e-10  -7.4429876e-02   4.7597742e+00   1.4529564e-02  -2.7915527e+08
   1.7872624e-10  -7.3689414e-02   4.7242290e+00   1.5276393e-02  -2.7605725e+08
   1.8139380e-10  -7.2957180e-02   4.6885835e+00   1.6050079e-02  -2.7298692e+08
   1.8406135e-10  -7.2233099e-02   4.6528547e+00   1.6850978e-02  -2.6994460e+08
   1.8672891e-10  -7.1517095e-02   4.6170597e+00   1.7679428e-02  -2.6693057e+08
   1.8939647e-10  -7.0809093e-02   4.5812152e+00   1.8535748e-02  -2.6394512e+08
   1.9206402e-10  -7.0109017e-02   4.5453376e+00   1.9420232e-02  -2.6098849e+08
   1.9473158e-10  -6.9416788e-02   4.5094430e+00   2.0333158e-02  -2.5806091e+08
   1.9739913e-10  -6.8732330e-02   4.4735475e+00   2.1274777e-02  -2.5516256e+08
   2.0006669e-10  -6.8055564e-02   4.4376664e+00   2.2245323e-02  -2.5229364e+08
   2.0273424e-10  -6.7386411e-02   4.4018148e+00   2.3245005e-02  -2.4945429e+08
   2.0540180e-10  -6.6724792e-02   4.3660076e+00   2.4274012e-02  -2.4664465e+08
   2.0806936e-10  -6.6070628e-02   4.3302591e+00   2.5332510e-02  -2.4386483e+08
   2.1073691e-10  -6.5423839e-02   4.2945833e+00   2.6420644e-02  -2.4111490e+08
   2.1340447e-10  -6.4784345e-02   4.2589936e+00   2.7538535e-02  -2.3839495e+08
   2.1607202e-10  -6.4152067e-02   4.2235031e+00   2.8686286e-02  -2.3570500e+08
   2.1873958e-10  -6.3526923e-02   4.1881245e+00   2.9863975e-02  -2.3304509e+08
   2.2140714e-10  -6.2908834e-02   4.1528700e+00   3.1071660e-02  -2.3041522e+08
   2.2407469e-10  -6.2297721e-02   4.1177512e+00   3.2309380e-02  -2.2781537e+08
   2.2674225e-10  -6.1693502e-02   4.0827795e+00   3.3577151e-02  -2.2524550e+08
   2.2940980e-10  -6.1096097e-02   4.0479657e+00   3.4874969e-02  -2.2270556e+08
   2.3207736e-10  -6.0505428e-02   4.0133201e+00   3.6202810e-02  -2.2019548e+08
   2.3474491e-10  -5.9921414e-02   3.9788526e+00   3.7560632e-02  -2.1771517e+08
   2.3741247e-10  -5.9343976e-02   3.9445726e+00   3.8948373e-02  -2.1526453e+08
   2.4008003e-10  -5.8773036e-02   3.9104890e+00   4.0365951e-02  -2.1284342e+08
   2.4274758e-10  -5.8208514e-02   3.8766103e+00   4.1813268e-02  -2.1045172e+08
   2.4541514e-10  -5.7650332e-02   3.8429447e+00   4.3290208e-02  -2.0808927e+08
   2.4808269e-10  -5.7098412e-02   3.8094996e+00   4.4796637e-02  -2.0575591e+08
   2.5075025e-10  -5.6552678e-02   3.7762823e+00   4.6332406e-02  -2.0345146e+08
   2.5341781e-10  -5.6013052e-02   3.7432995e+00   4.7897348e-02  -2.0117573e+08
   2.5608536e-10  -5.5479457e-02   3.7105575e+00   4.9491282e-02  -1.9892853e+08
   2.5875292e-10  -5.4951819e-02   3.6780621e+00   5.1114013e-02  -1.9670962e+08
   2.6142047e-10  -5.4430061e-02   3.6458190e+00   5.2765329e-02  -1.9451881e+08
   2.6408803e-10  -5.3914110e-02   3.6138331e+00   5.4445008e-02  -1.9235584e+08
   2.6675559e-10  -5.3403890e-02   3.5821093e+00   5.6152811e-02  -1.9022049e+08
   2.6942314e-10  -5.2899330e-02   3.5506517e+00   5.7888489e-02  -1.8811249e+08
   2.7209070e-10  -5.2400355e-02   3.5194645e+00   5.9651780e-02  -1.8603161e+08
   2.7475825e-10  -5.1906895e-02   3.4885512e+00   6.1442411e-02  -1.8397756e+08
   2.7742581e-10  -5.1418877e-02   3.4579151e+00   6.3260099e-02  -1.8195009e+08
   2.8009336e-10  -5.0936233e-02   3.4275592e+00   6.5104549e-02  -1.7994891e+08
   2.8276092e-10  -5.0458890e-02   3.3974861e+00   6.6975457e-02  -1.7797375e+08
   2.8542848e-10  -4.9986782e-02   3.3676981e+00   6.8872510e-02  -1.7602432e+08
   2.8809603e-10  -4.9519838e-02   3.3381973e+00   7.0795386e-02  -1.7410032e+08
   2.9076359e-10  -4.9057993e-02   3.3089854e+00   7.2743755e-02  -1.7220148e+08
   2.9343114e-10  -4.8601179e-02   3.2800639e+00   7.4717280e-02  -1.7032749e+08
   2.9609870e-10  -4.8149330e-02   3.2514340e+00   7.6715616e-02  -1.6847805e+08
   2.9876626e-10  -4.7702382e-02   3.2230967e+00   7.8738411e-02  -1.6665287e+08
   3.0143381e-10  -4.7260269e-02   3.1950526e+00   8.0785308e-02  -1.6485163e+08
   3.0410137e-10  -4.6822929e-02   3.1673024e+00   8.2855944e-02  -1.6307404e+08
   3.0676892e-10  -4.6390299e-02   3.1398463e+00   8.4949949e-02  -1.6131979e+08
   3.0943648e-10  -4.5962317e-02   3.1126843e+00   8.7066951e-02  -1.5958858e+08
   3.1210403e-10  -4.5538921e-02   3.0858164e+00   8.9206572e-02  -1.5788010e+08
   3.1477159e-10  -4.5120053e-02   3.0592421e+00   9.1368429e-02  -1.5619404e+08
   3.1743915e-10  -4.4705651e-02   3.0329612e+00   9.3552137e-02  -1.5453010e+08
   3.2010670e-10  -4.4295659e-02   3.0069728e+00   9.5757307e-02  -1.5288797e+08
   3.2277426e-10  -4.3890017e-02   2.9812761e+00   9.7983548e-02  -1.5126735e+08
   3.2544181e-10  -4.3488669e-02   2.9558703e+00   1.0023047e-01  -1.4966795e+08
   3.2810937e-10  -4.3091560e-02   2.9307541e+00   1.0249766e-01  -1.4808945e+08
   3.3077693e-10  -4.2698632e-02   2.9059264e+00   1.0478474e-01  -1.4653156e+08
   3.3344448e-10  -4.2309833e-02   2.8813858e+00   1.0709130e-01  -1.4499398e+08
   3.3611204e-10  -4.1925107e-02   2.8571308e+00   1.0941694e-01  -1.4347641e+08
   3.3877959e-10  -4.1544403e-02   2.8331598e+00   1.1176126e-01  -1.4197857e+08
   3.4144715e-10  -4.1167668e-02   2.8094711e+00   1.1412386e-01  -1.4050016e+08
   3.4411470e-10  -4.0794850e-02   2.7860629e+00   1.1650433e-01  -1.3904089e+08
   3.4678226e-10  -4.0425899e-02   2.7629334e+00   1.1890226e-01  -1.3760048e+08
   3.4944982e-10  -4.0060765e-02   2.7400805e+00   1.2131727e-01  -1.3617865e+08
   3.5211737e-10  -3.9699399e-02   2.7175022e+00   1.2374894e-01  -1.3477511e+08
   3.5478493e-10  -3.9341752e-02   2.6951965e+00   1.2619686e-01  -1.3338960e+08
   3.5745248e-10  -3.8987776e-02   2.6731611e+00   1.2866065e-01  -1.3202183e+08
   3.6012004e-10  -3.8637425e-02   2.6513938e+00   1.3113990e-01  -1.3067153e+08
   3.6278760e-10  -3.8290653e-02   2.6298922e+00   1.3363420e-01  -1.2933844e+08
   3.6545515e-10  -3.7947414e-02   2.6086542e+00   1.3614317e-01  -1.2802230e+08
   3.6812271e-10  -3.7607662e-02   2.5876772e+00   1.3866639e-01  -1.2672284e+08
   3.7079026e-10  -3.7271355e-02   2.5669589e+00   1.4120349e-01  -1.2543980e+08
   3.7345782e-10  -3.6938448e-02   2.5464967e+00   1.4375407e-01  -1.2417295e+08
   3.7612538e-10  -3.6608898e-02   2.5262882e+00   1.4631772e-01  -1.2292201e+08
   3.7879293e-10  -3.6282664e-02   2.5063308e+00   1.4889407e-01  -1.2168675e+08
   3.8146049e-10  -3.5959704e-02   2.4866221e+00   1.5148273e-01  -1.2046693e+08
   3.8412804e-10  -3.5639977e-02   2.4671593e+00   1.5408331e-01  -1.1926230e+08
   3.8679560e-10  -3.5323443e-02   2.4479400e+00   1.5669544e-01  -1.1807263e+08
   3.8946315e-10  -3.5010063e-02   2.4289615e+00   1.5931872e-01  -1.1689768e+08
   3.9213071e-10  -3.4699797e-02   2.4102212e+00   1.6195279e-01  -1.1573724e+08
   3.9479827e-10  -3.4392606e-02   2.3917165e+00   1.6459726e-01  -1.1459106e+08
   3.9746582e-10  -3.4088455e-02   2.3734447e+00   1.6725178e-01  -1.1345894e+08
   4.0013338e-10  -3.3787304e-02   2.3554033e+00   1.6991596e-01  -1.1234065e+08
   4.0280093e-10  -3.3489118e-02   2.3375894e+00   1.7258945e-01  -1.1123598e+08
   4.0546849e-10  -3.3193860e-02   2.3200006e+00   1.7527188e-01  -1.1014472e+08
   4.0813605e-10  -3.2901495e-02   2.3026341e+00   1.7796289e-01  -1.0906666e+08
   4.1080360e-10  -3.2611989e-02   2.2854874e+00   1.8066214e-01  -1.0800159e+08
   4.1347116e-10  -3.2325306e-02   2.2685577e+00   1.8336925e-01  -1.0694932e+08
   4.1613871e-10  -3.2041412e-02   2.2518426e+00   1.8608389e-01  -1.0590965e+08
   4.1880627e-10  -3.1760276e-02   2.2353393e+00   1.8880571e-01  -1.0488238e+08
   4.2147382e-10  -3.1481862e-02   2.2190453e+00   1.9153437e-01  -1.0386732e+08
   4.2414138e-10  -3.1206141e-02   2.2029579e+00   1.9426953e-01  -1.0286429e+08
   4.2680894e-10  -3.0933078e-02   2.1870746e+00   1.9701085e-01  -1.0187310e+08
   4.2947649e-10  -3.0662644e-02   2.1713929e+00   1.9975800e-01  -1.0089357e+08
   4.3214405e-10  -3.0394808e-02   2.1559101e+00   2.0251065e-01  -9.9925521e+07
   4.3481160e-10  -3.0129538e-02   2.1406238e+00   2.0526849e-01  -9.8968782e+07
   4.3747916e-10  -2.9866805e-02   2.1255314e+00   2.0803118e-01  -9.8023180e+07
   4.4014672e-10  -2.9606579e-02   2.1106304e+00   2.1079842e-01  -9.7088545e+07
   4.4281427e-10  -2.9348833e-02   2.0959184e+00   2.1356988e-01  -9.6164713e+07
   4.4548183e-10  -2.9093536e-02   2.0813930e+00   2.1634526e-01  -9.5251520e+07
   4.4814938e-10  -2.8840660e-02   2.0670516e+00   2.1912425e-01  -9.4348807e+07
   4.5081694e-10  -2.8590179e-02   2.0528918e+00   2.2190656e-01  -9.3456417e+07
   4.5348449e-10  -2.8342065e-02   2.0389113e+00   2.2469187e-01  -9.2574196e+07
   4.5615205e-10  -2.8096290e-02   2.0251078e+00   2.2747991e-01  -9.1701993e+07
   4.5881961e-10  -2.7852828e-02   2.0114787e+00   2.3027037e-01  -9.0839659e+07
   4.6148716e-10  -2.7611654e-02   1.9980219e+00   2.3306297e-01  -8.9987048e+07
   4.6415472e-10  -2.7372741e-02   1.9847351e+00   2.3585742e-01  -8.9144016e+07
   4.6682227e-10  -2.7136064e-02   1.9716159e+00   2.3865346e-01  -8.8310424e+07
   4.6948983e-10  -2.6901598e-02   1.9586620e+00   2.4145080e-01  -8.7486133e+07
   4.7215739e-10  -2.6669318e-02   1.9458714e+00   2.4424916e-01  -8.6671007e+07
   4.7482494e-10  -2.6439201e-02   1.9332417e+00   2.4704829e-01  -8.5864914e+07
   4.7749250e-10  -2.6211222e-02   1.9207709e+00   2.4984792e-01  -8.5067722e+07
   4.8016005e-10  -2.5985357e-02   1.9084567e+00   2.5264779e-01  -8.4279303e+07
   4.8282761e-10  -2.5761584e-02   1.8962970e+00   2.5544764e-01  -8.3499531e+07
   4.8549517e-10  -2.5539879e-02   1.8842897e+00   2.5824721e-01  -8.2728282e+07
   4.8816272e-10  -2.5320221e-02   1.8724327e+00   2.6104627e-01  -8.1965435e+07
   4.9083028e-10  -2.5102586e-02   1.8607240e+00   2.6384456e-01  -8.1210869e+07
   4.9349783e-10  -2.4886953e-02   1.8491616e+00   2.6664184e-01  -8.0464469e+07
   4.9616539e-10  -2.4673300e-02   1.8377435e+00   2.6943788e-01  -7.9726119e+07
   4.9883294e-10  -2.4461605e-02   1.8264676e+00   2.7223244e-01  -7.8995705e+07
   5.0150050e-10  -2.4251849e-02   1.8153321e+00   2.7502528e-01  -7.8273117e+07
   5.0416806e-10  -2.4044010e-02   1.8043349e+00   2.7781619e-01  -7.7558246e+07
   5.0683561e-10  -2.3838067e-02   1.7934743e+00   2.8060494e-01  -7.6850985e+07
   5.0950317e-10  -2.3634001e-02   1.7827483e+00   2.8339131e-01  -7.6151228e+07
   5.1217072e-10  -2.3431792e-02   1.7721550e+00   2.8617509e-01  -7.5458873e+07
   5.1483828e-10  -2.3231420e-02   1.7616927e+00   2.8895605e-01  -7.4773817e+07
   5.1750584e-10  -2.3032865e-02   1.7513596e+00   2.9173400e-01  -7.4095962e+07
   5.2017339e-10  -2.2836109e-02   1.7411538e+00   2.9450873e-01  -7.3425209e+07
   5.2284095e-10  -2.2641133e-02   1.7310736e+00   2.9728003e-01  -7.2761462e+07
   5.2550850e-10  -2.2447918e-02   1.7211174e+00   3.0004771e-01  -7.2104627e+07
   5.2817606e-10  -2.2256445e-02   1.7112833e+00   3.0281157e-01  -7.1454611e+07
   5.3084361e-10  -2.2066698e-02   1.7015696e+00   3.0557143e-01  -7.0811323e+07
   5.3351117e-10  -2.1878658e-02   1.6919749e+00   3.0832709e-01  -7.0174674e+07
   5.3617873e-10  -2.1692307e-02   1.6824973e+00   3.1107836e-01  -6.9544575e+07
   5.3884628e-10  -2.1507629e-02   1.6731353e+00   3.1382508e-01  -6.8920940e+07
   5.4151384e-10  -2.1324605e-02   1.6638873e+00   3.1656705e-01  -6.8303684e+07
   5.4418139e-10  -2.1143220e-02   1.6547517e+00   3.1930411e-01  -6.7692723e+07
   5.4684895e-10  -2.0963455e-02   1.6457270e+00   3.2203609e-01  -6.7087977e+07
   5.4951651e-10  -2.0785296e-02   1.6368116e+00   3.2476281e-01  -6.6489363e+07
   5.5218406e-10  -2.0608726e-02   1.6280041e+00   3.2748412e-01  -6.5896803e+07
   5.5485162e-10  -2.0433728e-02   1.6193030e+00   3.3019984e-01  -6.5310220e+07
   5.5751917e-10  -2.0260286e-02   1.6107068e+00   3.3290983e-01  -6.4729536e+07
   5.6018673e-10  -2.0088386e-02   1.6022140e+00   3.3561392e-01  -6.4154676e+07
   5.6285428e-10  -1.9918012e-02   1.5938234e+00   3.3831197e-01  -6.3585566e+07
   5.6552184e-10  -1.9749148e-02   1.5855333e+00   3.4100382e-01  -6.3022134e+07
   5.6818940e-10  -1.9581780e-02   1.5773426e+00   3.4368934e-01  -6.2464308e+07
   5.7085695e-10  -1.9415892e-02   1.5692497e+00   3.4636837e-01  -6.1912018e+07
   5.7352451e-10  -1.9251470e-02   1.5612535e+00   3.4904078e-01  -6.1365195e+07
   5.7619206e-10  -1.9088500e-02   1.5533525e+00   3.5170643e-01  -6.0823770e+07
   5.7885962e-10  -1.8926966e-02   1.5455455e+00   3.5436519e-01  -6.0287678e+07
   5.8152718e-10  -1.8766856e-02   1.5378312e+00   3.5701692e-01  -5.9756852e+07
   5.8419473e-10  -1.8608155e-02   1.5302084e+00   3.5966151e-01  -5.9231228e+07
   5.8686229e-10  -1.8450848e-02   1.5226757e+00   3.6229881e-01  -5.8710742e+07
   5.8952984e-10  -1.8294924e-02   1.5152320e+00   3.6492872e-01  -5.8195331e+07
   5.9219740e-10  -1.8140367e-02   1.5078760e+00   3.6755111e-01  -5.7684934e+07
   5.9486495e-10  -1.7987166e-02   1.5006066e+00   3.7016587e-01  -5.7179492e+07
   5.9753251e-10  -1.7835306e-02   1.4934226e+00   3.7277287e-01  -5.6678943e+07
   6.0020007e-10  -1.7684775e-02   1.4863229e+00   3.7537202e-01  -5.6183229e+07
   6.0286762e-10  -1.7535559e-02   1.4793063e+00   3.7796319e-01  -5.5692294e+07
   6.0553518e-10  -1.7387647e-02   1.4723717e+00   3.8054629e-01  -5.5206079e+07
   6.0820273e-10  -1.7241026e-02   1.4655180e+00   3.8312122e-01  -5.4724530e+07
   6.1087029e-10  -1.7095683e-02   1.4587441e+00   3.8568786e-01  -5.4247591e+07
   6.1353785e-10  -1.6951607e-02   1.4520489e+00   3.8824613e-01  -5.3775209e+07
   6.1620540e-10  -1.6808784e-02   1.4454314e+00   3.9079592e-01  -5.3307329e+07
   6.1887296e-10  -1.6667203e-02   1.4388905e+00   3.9333715e-01  -5.2843900e+07
   6.2154051e-10  -1.6526853e-02   1.4324253e+00   3.9586973e-01  -5.2384871e+07
   6.2420807e-10  -1.6387721e-02   1.4260347e+00   3.9839356e-01  -5.1930189e+07
   6.2687563e-10  -1.6249797e-02   1.4197177e+00   4.0090856e-01  -5.1479806e+07
   6.2954318e-10  -1.6113068e-02   1.4134734e+00   4.0341465e-01  -5.1033672e+07
   6.3221074e-10  -1.5977524e-02   1.4073007e+00   4.0591174e-01  -5.0591739e+07
   6.3487829e-10  -1.5843153e-02   1.4011987e+00   4.0839976e-01  -5.0153959e+07
   6.3754585e-10  -1.5709944e-02   1.3951666e+00   4.1087863e-01  -4.9720284e+07
   6.4021340e-10  -1.5577887e-02   1.3892033e+00   4.1334828e-01  -4.9290669e+07
   6.4288096e-10  -1.5446970e-02   1.3833080e+00   4.1580864e-01  -4.8865068e+07
   6.4554852e-10  -1.5317183e-02   1.3774798e+00   4.1825963e-01  -4.8443436e+07
   6.4821607e-10  -1.5188516e-02   1.3717178e+00   4.2070119e-01  -4.8025729e+07
   6.5088363e-10  -1.5060958e-02   1.3660210e+00   4.2313325e-01  -4.7611903e+07
   6.5355118e-10  -1.4934498e-02   1.3603888e+00   4.2555575e-01  -4.7201915e+07
   6.5621874e-10  -1.4809127e-02   1.3548202e+00   4.2796863e-01  -4.6795723e+07
   6.5888630e-10  -1.4684835e-02   1.3493143e+00   4.3037184e-01  -4.6393285e+07
   6.6155385e-10  -1.4561611e-02   1.3438705e+00   4.3276530e-01  -4.5994561e+07
   6.6422141e-10  -1.4439446e-02   1.3384878e+00   4.3514897e-01  -4.5599508e+07
   6.6688896e-10  -1.4318330e-02   1.3331655e+00   4.3752280e-01  -4.5208089e+07
   6.6955652e-10  -1.4198253e-02   1.3279028e+00   4.3988674e-01  -4.4820263e+07
   6.7222407e-10  -1.4079206e-02   1.3226989e+00   4.4224073e-01  -4.4435991e+07
   6.7489163e-10  -1.3961179e-02   1.3175530e+00   4.4458473e-01  -4.4055235e+07
   6.7755919e-10  -1.3844164e-02   1.3124645e+00   4.4691869e-01  -4.3677958e+07
   6.8022674e-10  -1.3728150e-02   1.3074326e+00   4.4924257e-01  -4.3304122e+07
   6.8289430e-10  -1.3613128e-02   1.3024565e+00   4.5155633e-01  -4.2933691e+07
   6.8556185e-10  -1.3499091e-02   1.2975356e+00   4.5385993e-01  -4.2566629e+07
   6.8822941e-10  -1.3386028e-02   1.2926691e+00   4.5615333e-01  -4.2202899e+07
   6.9089697e-10  -1.3273931e-02   1.2878563e+00   4.5843650e-01  -4.1842467e+07
   6.9356452e-10  -1.3162791e-02   1.2830966e+00   4.6070939e-01  -4.1485299e+07
   6.9623208e-10  -1.3052599e-02   1.2783893e+00   4.6297199e-01  -4.1131359e+07
   6.9889963e-10  -1.2943348e-02   1.2737336e+00   4.6522425e-01  -4.0780614e+07
   7.0156719e-10  -1.2835027e-02   1.2691291e+00   4.6746614e-01  -4.0433032e+07
   7.0423474e-10  -1.2727630e-02   1.2645749e+00   4.6969765e-01  -4.0088578e+07
   7.0690230e-10  -1.2621147e-02   1.2600705e+00   4.7191874e-01  -3.9747222e+07
   7.0956986e-10  -1.2515571e-02   1.2556153e+00   4.7412939e-01  -3.9408930e+07
   7.1223741e-10  -1.2410894e-02   1.2512086e+00   4.7632957e-01  -3.9073671e+07
   7.1490497e-10  -1.2307106e-02   1.2468498e+00   4.7851926e-01  -3.8741415e+07
   7.1757252e-10  -1.2204201e-02   1.2425383e+00   4.8069845e-01  -3.8412130e+07
   7.2024008e-10  -1.2102171e-02   1.2382736e+00   4.8286711e-01  -3.8085786e+07
   7.2290764e-10  -1.2001007e-02   1.2340549e+00   4.8502523e-01  -3.7762354e+07
   7.2557519e-10  -1.1900701e-02   1.2298819e+00   4.8717279e-01  -3.7441804e+07
   7.2824275e-10  -1.1801248e-02   1.2257539e+00   4.8930978e-01  -3.7124106e+07
   7.3091030e-10  -1.1702638e-02   1.2216703e+00   4.9143619e-01  -3.6809232e+07
   7.3357786e-10  -1.1604864e-02   1.2176306e+00   4.9355199e-01  -3.6497154e+07
   7.3624542e-10  -1.1507918e-02   1.2136342e+00   4.9565719e-01  -3.6187844e+07
   7.3891297e-10  -1.1411795e-02   1.2096807e+00   4.9775177e-01  -3.5881274e+07
   7.4158053e-10  -1.1316485e-02   1.2057695e+00   4.9983572e-01  -3.5577416e+07
   7.4424808e-10  -1.1221983e-02   1.2019000e+00   5.0190905e-01  -3.5276244e+07
   7.4691564e-10  -1.1128280e-02   1.1980717e+00   5.0397173e-01  -3.4977731e+07
   7.4958319e-10  -1.1035370e-02   1.1942843e+00   5.0602378e-01  -3.4681851e+07
   7.5225075e-10  -1.0943246e-02   1.1905370e+00   5.0806518e-01  -3.4388577e+07
   7.5491831e-10  -1.0851900e-02   1.1868296e+00   5.1009594e-01  -3.4097885e+07
   7.5758586e-10  -1.0761327e-02   1.1831614e+00   5.1211605e-01  -3.3809749e+07
   7.6025342e-10  -1.0671519e-02   1.1795320e+00   5.1412551e-01  -3.3524144e+07
   7.6292097e-10  -1.0582470e-02   1.1759409e+00   5.1612434e-01  -3.3241044e+07
   7.6558853e-10  -1.0494172e-02   1.1723877e+00   5.1811252e-01  -3.2960427e+07
   7.6825609e-10  -1.0406620e-02   1.1688719e+00   5.2009006e-01  -3.2682267e+07
   7.7092364e-10  -1.0319806e-02   1.1653931e+00   5.2205698e-01  -3.2406541e+07
   7.7359120e-10  -1.0233725e-02   1.1619507e+00   5.2401326e-01  -3.2133226e+07
   7.7625875e-10  -1.0148369e-02   1.1585445e+00   5.2595893e-01  -3.1862297e+07
   7.7892631e-10  -1.0063733e-02   1.1551738e+00   5.2789399e-01  -3.1593733e+07
   7.8159386e-10  -9.9798105e-03   1.1518384e+00   5.2981844e-01  -3.1327510e+07
   7.8426142e-10  -9.8965950e-03   1.1485378e+00   5.3173231e-01  -3.1063606e+07
   7.8692898e-10  -9.8140803e-03   1.1452716e+00   5.3363559e-01  -3.0801999e+07
   7.8959653e-10  -9.7322605e-03   1.1420393e+00   5.3552830e-01  -3.0542666e+07
   7.9226409e-10  -9.6511294e-03   1.1388406e+00   5.3741045e-01  -3.0285587e+07
   7.9493164e-10  -9.5706811e-03   1.1356750e+00   5.3928206e-01  -3.0030740e+07
   7.9759920e-10  -9.4909097e-03   1.1325422e+00   5.4114314e-01  -2.9778103e+07
   8.0026676e-10  -9.4118093e-03   1.1294418e+00   5.4299371e-01  -2.9527656e+07
   8.0293431e-10  -9.3333740e-03   1.1263735e+00   5.4483378e-01  -2.9279379e+07
   8.0560187e-10  -9.2555982e-03   1.1233367e+00   5.4666337e-01  -2.9033250e+07
   8.0826942e-10  -9.1784761e-03   1.1203312e+00   5.4848249e-01  -2.8789250e+07
   8.1093698e-10  -9.1020020e-03   1.1173566e+00   5.5029117e-01  -2.8547358e+07
   8.1360453e-10  -9.0261705e-03   1.1144125e+00   5.5208942e-01  -2.8307555e+07
   8.1627209e-10  -8.9509758e-03   1.1114985e+00   5.5387727e-01  -2.8069821e+07
   8.1893965e-10  -8.8764126e-03   1.1086144e+00   5.5565473e-01  -2.7834137e+07
   8.2160720e-10  -8.8024754e-03   1.1057598e+00   5.5742183e-01  -2.7600484e+07
   8.2427476e-10  -8.7291587e-03   1.1029343e+00   5.5917858e-01  -2.7368843e+07
   8.2694231e-10  -8.6564574e-03   1.1001376e+00   5.6092502e-01  -2.7139195e+07
   8.2960987e-10  -8.5843659e-03   1.0973694e+00   5.6266116e-01  -2.6911523e+07
   8.3227743e-10  -8.5128792e-03   1.0946292e+00   5.6438703e-01  -2.6685807e+07
   8.3494498e-10  -8.4419920e-03   1.0919169e+00   5.6610265e-01  -2.6462029e+07
   8.3761254e-10  -8.3716992e-03   1.0892321e+00   5.6780804e-01  -2.6240173e+07
   8.4028009e-10  -8.3019956e-03   1.0865744e+00   5.6950325e-01  -2.6020219e+07
   8.4294765e-10  -8.2328763e-03   1.0839436e+00   5.7118828e-01  -2.5802151e+07
   8.4561521e-10  -8.1643362e-03   1.0813394e+00   5.7286317e-01  -2.5585951e+07
   8.4828276e-10  -8.0963703e-03   1.0787614e+00   5.7452794e-01  -2.5371603e+07
   8.5095032e-10  -8.0289738e-03   1.0762093e+00   5.7618263e-01  -2.5159089e+07
   8.5361787e-10  -7.9621417e-03   1.0736829e+00   5.7782725e-01  -2.4948392e+07
   8.5628543e-10  -7.8958693e-03   1.0711819e+00   5.7946185e-01  -2.4739497e+07
   8.5895298e-10  -7.8301517e-03   1.0687059e+00   5.8108645e-01  -2.4532386e+07
   8.6162054e-10  -7.7649843e-03   1.0662547e+00   5.8270108e-01  -2.4327044e+07
   8.6428810e-10  -7.7003622e-03   1.0638281e+00   5.8430577e-01  -2.4123454e+07
   8.6695565e-10  -7.6362810e-03   1.0614256e+00   5.8590055e-01  -2.3921601e+07
   8.6962321e-10  -7.5727359e-03   1.0590472e+00   5.8748546e-01  -2.3721469e+07
   8.7229076e-10  -7.5097223e-03   1.0566924e+00   5.8906052e-01  -2.3523042e+07
   8.7495832e-10  -7.4472359e-03   1.0543610e+00   5.9062578e-01  -2.3326305e+07
   8.7762588e-10  -7.3852720e-03   1.0520528e+00   5.9218125e-01  -2.3131243e+07
   8.8029343e-10  -7.3238262e-03   1.0497675e+00   5.9372697e-01  -2.2937840e+07
   8.8296099e-10  -7.2628941e-03   1.0475049e+00   5.9526299e-01  -2.2746083e+07
   8.8562854e-10  -7.2024714e-03   1.0452646e+00   5.9678933e-01  -2.2555955e+07
   8.8829610e-10  -7.1425537e-03   1.0430465e+00   5.9830602e-01  -2.2367443e+07
   8.9096365e-10  -7.0831368e-03   1.0408503e+00   5.9981310e-01  -2.2180533e+07
   8.9363121e-10  -7.0242163e-03   1.0386758e+00   6.0131061e-01  -2.1995209e+07
   8.9629877e-10  -6.9657881e-03   1.0365227e+00   6.0279859e-01  -2.1811457e+07
   8.9896632e-10  -6.9078479e-03   1.0343907e+00   6.0427706e-01  -2.1629264e+07
   9.0163388e-10  -6.8503917e-03   1.0322797e+00   6.0574606e-01  -2.1448616e+07
   9.0430143e-10  -6.7934154e-03   1.0301894e+00   6.0720564e-01  -2.1269499e+07
   9.0696899e-10  -6.7369148e-03   1.0281196e+00   6.0865582e-01  -2.1091900e+07
   9.0963655e-10  -6.6808860e-03   1.0260701e+00   6.1009664e-01  -2.0915804e+07
   9.1230410e-10  -6.6253249e-03   1.0240406e+00   6.1152815e-01  -2.0741199e+07
   9.1497166e-10  -6.5702276e-03   1.0220309e+00   6.1295037e-01  -2.0568072e+07
   9.1763921e-10  -6.5155902e-03   1.0200409e+00   6.1436335e-01  -2.0396409e+07
   9.2030677e-10  -6.4614088e-03   1.0180702e+00   6.1576713e-01  -2.0226198e+07
   9.2297432e-10  -6.4076795e-03   1.0161187e+00   6.1716173e-01  -2.0057425e+07
   9.2564188e-10  -6.3543985e-03   1.0141862e+00   6.1854721e-01  -1.9890079e+07
   9.2830944e-10  -6.3015621e-03   1.0122725e+00   6.1992360e-01  -1.9724146e+07
   9.3097699e-10  -6.2491664e-03   1.0103773e+00   6.2129093e-01  -1.9559614e+07
   9.3364455e-10  -6.1972077e-03   1.0085005e+00   6.2264926e-01  -1.9396471e+07
   9.3631210e-10  -6.1456824e-03   1.0066419e+00   6.2399861e-01  -1.9234705e+07
   9.3897966e-10  -6.0945868e-03   1.0048012e+00   6.2533903e-01  -1.9074303e+07
   9.4164722e-10  -6.0439173e-03   1.0029783e+00   6.2667055e-01  -1.8915254e+07
   9.4431477e-10  -5.9936702e-03   1.0011730e+00   6.2799322e-01  -1.8757545e+07
   9.4698233e-10  -5.9438421e-03   9.9938505e-01   6.2930708e-01  -1.8601166e+07
   9.4964988e-10  -5.8944293e-03   9.9761435e-01   6.3061216e-01  -1.8446104e+07
   9.5231744e-10  -5.8454285e-03   9.9586067e-01   6.3190850e-01  -1.8292348e+07
   9.5498499e-10  -5.7968361e-03   9.9412384e-01   6.3319616e-01  -1.8139887e+07
   9.5765255e-10  -5.7486487e-03   9.9240367e-01   6.3447516e-01  -1.7988710e+07
   9.6032011e-10  -5.7008628e-03   9.9069999e-01   6.3574555e-01  -1.7838804e+07
   9.6298766e-10  -5.6534751e-03   9.8901263e-01   6.3700737e-01  -1.7690160e+07
   9.6565522e-10  -5.6064823e-03   9.8734140e-01   6.3826066e-01  -1.7542766e+07
   9.6832277e-10  -5.5598810e-03   9.8568615e-01   6.3950546e-01  -1.7396611e+07
   9.7099033e-10  -5.5136680e-03   9.8404669e-01   6.4074181e-01  -1.7251685e+07
   9.7365789e-10  -5.4678399e-03   9.8242287e-01   6.4196976e-01  -1.7107976e+07
   9.7632544e-10  -5.4223936e-03   9.8081452e-01   6.4318934e-01  -1.6965476e+07
   9.7899300e-10  -5.3773258e-03   9.7922147e-01   6.4440059e-01  -1.6824172e+07
   9.8166055e-10  -5.3326333e-03   9.7764357e-01   6.4560356e-01  -1.6684055e+07
   9.8432811e-10  -5.2883131e-03   9.7608066e-01   6.4679829e-01  -1.6545114e+07
   9.8699567e-10  -5.2443619e-03   9.7453258e-01   6.4798482e-01  -1.6407340e+07
   9.8966322e-10  -5.2007767e-03   9.7299917e-01   6.4916320e-01  -1.6270722e+07
   9.9233078e-10  -5.1575544e-03   9.7148028e-01   6.5033345e-01  -1.6135250e+07
   9.9499833e-10  -5.1146920e-03   9.6997576e-01   6.5149563e-01  -1.6000914e+07
   9.9766589e-10  -5.0721864e-03   9.6848547e-01   6.5264978e-01  -1.5867705e+07
   1.0003334e-09  -5.0300347e-03   9.6700924e-01   6.5379594e-01  -1.5735613e+07
   1.0030010e-09  -4.9882338e-03   9.6554694e-01   6.5493414e-01  -1.5604628e+07
   1.0056686e-09  -4.9467809e-03   9.6409842e-01   6.5606444e-01  -1.5474742e+07
   1.0083361e-09  -4.9056730e-03   9.6266355e-01   6.5718687e-01  -1.5345943e+07
   1.0110037e-09  -4.8649073e-03   9.6124216e-01   6.5830148e-01  -1.5218224e+07
   1.0136712e-09  -4.8244808e-03   9.5983414e-01   6.5940831e-01  -1.5091574e+07
   1.0163388e-09  -4.7843908e-03   9.5843934e-01   6.6050739e-01  -1.4965985e+07
   1.0190063e-09  -4.7446343e-03   9.5705763e-01   6.6159878e-01  -1.4841448e+07
   1.0216739e-09  -4.7052087e-03   9.5568886e-01   6.6268250e-01  -1.4717953e+07
   1.0243414e-09  -4.6661112e-03   9.5433291e-01   6.6375862e-01  -1.4595492e+07
   1.0270090e-09  -4.6273389e-03   9.5298965e-01   6.6482716e-01  -1.4474055e+07
   1.0296766e-09  -4.5888892e-03   9.5165894e-01   6.6588816e-01  -1.4353635e+07
   1.0323441e-09  -4.5507595e-03   9.5034067e-01   6.6694168e-01  -1.4234222e+07
   1.0350117e-09  -4.5129469e-03   9.4903469e-01   6.6798775e-01  -1.4115808e+07
   1.0376792e-09  -4.4754488e-03   9.4774089e-01   6.6902641e-01  -1.3998384e+07
   1.0403468e-09  -4.4382627e-03   9.4645914e-01   6.7005770e-01  -1.3881942e+07
   1.0430143e-09  -4.4013860e-03   9.4518932e-01   6.7108167e-01  -1.3766474e+07
   1.0456819e-09  -4.3648159e-03   9.4393131e-01   6.7209836e-01  -1.3651971e+07
   1.0483494e-09  -4.3285500e-03   9.4268498e-01   6.7310781e-01  -1.3538425e+07
   1.0510170e-09  -4.2925857e-03   9.4145023e-01   6.7411006e-01  -1.3425827e+07
   1.0536846e-09  -4.2569206e-03   9.4022693e-01   6.7510515e-01  -1.3314171e+07
   1.0563521e-09  -4.2215520e-03   9.3901496e-01   6.7609312e-01  -1.3203447e+07
   1.0590197e-09  -4.1864776e-03   9.3781422e-01   6.7707402e-01  -1.3093648e+07
   1.0616872e-09  -4.1516948e-03   9.3662459e-01   6.7804788e-01  -1.2984766e+07
   1.0643548e-09  -4.1172013e-03   9.3544596e-01   6.7901475e-01  -1.2876794e+07
   1.0670223e-09  -4.0829946e-03   9.3427821e-01   6.7997466e-01  -1.2769723e+07
   1.0696899e-09  -4.0490723e-03   9.3312125e-01   6.8092766e-01  -1.2663546e+07
   1.0723575e-09  -4.0154321e-03   9.3197495e-01   6.8187379e-01  -1.2558255e+07
   1.0750250e-09  -3.9820716e-03   9.3083922e-01   6.8281309e-01  -1.2453843e+07
   1.0776926e-09  -3.9489884e-03   9.2971394e-01   6.8374561e-01  -1.2350302e+07
   1.0803601e-09  -3.9161803e-03   9.2859902e-01   6.8467137e-01  -1.2247625e+07
   1.0830277e-09  -3.8836449e-03   9.2749435e-01   6.8559042e-01  -1.2145806e+07
   1.0856952e-09  -3.8513800e-03   9.2639983e-01   6.8650280e-01  -1.2044835e+07
   1.0883628e-09  -3.8193834e-03   9.2531535e-01   6.8740856e-01  -1.1944707e+07
   1.0910303e-09  -3.7876527e-03   9.2424083e-01   6.8830772e-01  -1.1845414e+07
   1.0936979e-09  -3.7561857e-03   9.2317615e-01   6.8920034e-01  -1.1746948e+07
   1.0963655e-09  -3.7249804e-03   9.2212122e-01   6.9008645e-01  -1.1649305e+07
   1.0990330e-09  -3.6940344e-03   9.2107595e-01   6.9096609e-01  -1.1552475e+07
   1.1017006e-09  -3.6633457e-03   9.2004024e-01   6.9183931e-01  -1.1456452e+07
   1.1043681e-09  -3.6329120e-03   9.1901399e-01   6.9270613e-01  -1.1361230e+07
   1.1070357e-09  -3.6027313e-03   9.1799712e-01   6.9356660e-01  -1.1266802e+07
   1.1097032e-09  -3.5728014e-03   9.1698952e-01   6.9442076e-01  -1.1173161e+07
   1.1123708e-09  -3.5431203e-03   9.1599112e-01   6.9526865e-01  -1.1080300e+07
   1.1150383e-09  -3.5136858e-03   9.1500181e-01   6.9611031e-01  -1.0988213e+07
   1.1177059e-09  -3.4844960e-03   9.1402151e-01   6.9694578e-01  -1.0896893e+07
   1.1203735e-09  -3.4555488e-03   9.1305013e-01   6.9777509e-01  -1.0806334e+07
   1.1230410e-09  -3.4268421e-03   9.1208758e-01   6.9859828e-01  -1.0716530e+07
   1.1257086e-09  -3.3983740e-03   9.1113378e-01   6.9941540e-01  -1.0627474e+07
   1.1283761e-09  -3.3701424e-03   9.1018864e-01   7.0022648e-01  -1.0539159e+07
   1.1310437e-09  -3.3421455e-03   9.0925208e-01   7.0103156e-01  -1.0451580e+07
   1.1337112e-09  -3.3143812e-03   9.0832401e-01   7.0183067e-01  -1.0364731e+07
   1.1363788e-09  -3.2868476e-03   9.0740435e-01   7.0262387e-01  -1.0278604e+07
   1.1390463e-09  -3.2595428e-03   9.0649302e-01   7.0341117e-01  -1.0193195e+07
   1.1417139e-09  -3.2324649e-03   9.0558994e-01   7.0419263e-01  -1.0108497e+07
   1.1443815e-09  -3.2056120e-03   9.0469502e-01   7.0496827e-01  -1.0024505e+07
   1.1470490e-09  -3.1789822e-03   9.0380820e-01   7.0573815e-01  -9.9412112e+06
   1.1497166e-09  -3.1525737e-03   9.0292938e-01   7.0650228e-01  -9.8586111e+06
   1.1523841e-09  -3.1263846e-03   9.0205850e-01   7.0726072e-01  -9.7766986e+06
   1.1550517e-09  -3.1004131e-03   9.0119547e-01   7.0801349e-01  -9.6954679e+06
   1.1577192e-09  -3.0746573e-03   9.0034022e-01   7.0876064e-01  -9.6149133e+06
   1.1603868e-09  -3.0491156e-03   8.9949268e-01   7.0950221e-01  -9.5350291e+06
   1.1630544e-09  -3.0237861e-03   8.9865277e-01   7.1023822e-01  -9.4558097e+06
   1.1657219e-09  -2.9986670e-03   8.9782042e-01   7.1096871e-01  -9.3772495e+06
   1.1683895e-09  -2.9737566e-03   8.9699555e-01   7.1169373e-01  -9.2993430e+06
   1.1710570e-09  -2.9490532e-03   8.9617809e-01   7.1241330e-01  -9.2220847e+06
   1.1737246e-09  -2.9245550e-03   8.9536798e-01   7.1312746e-01  -9.1454693e+06
   1.1763921e-09  -2.9002603e-03   8.9456514e-01   7.1383626e-01  -9.0694912e+06
   1.1790597e-09  -2.8761675e-03   8.9376950e-01   7.1453972e-01  -8.9941452e+06
   1.1817272e-09  -2.8522748e-03   8.9298100e-01   7.1523788e-01  -8.9194260e+06
   1.1843948e-09  -2.8285806e-03   8.9219956e-01   7.1593077e-01  -8.8453283e+06
   1.1870624e-09  -2.8050832e-03   8.9142511e-01   7.1661844e-01  -8.7718470e+06
   1.1897299e-09  -2.7817811e-03   8.9065760e-01   7.1730091e-01  -8.6989768e+06
   1.1923975e-09  -2.7586725e-03   8.8989695e-01   7.1797822e-01  -8.6267127e+06
   1.1950650e-09  -2.7357559e-03   8.8914311e-01   7.1865041e-01  -8.5550495e+06
   1.1977326e-09  -2.7130296e-03   8.8839600e-01   7.1931750e-01  -8.4839824e+06
   1.2004001e-09  -2.6904922e-03   8.8765556e-01   7.1997954e-01  -8.4135062e+06
   1.2030677e-09  -2.6681419e-03   8.8692172e-01   7.2063656e-01  -8.3436161e+06
   1.2057352e-09  -2.6459773e-03   8.8619444e-01   7.2128859e-01  -8.2743071e+06
   1.2084028e-09  -2.6239969e-03   8.8547363e-01   7.2193567e-01  -8.2055744e+06
   1.2110704e-09  -2.6021990e-03   8.8475925e-01   7.2257783e-01  -8.1374132e+06
   1.2137379e-09  -2.5805822e-03   8.8405123e-01   7.2321510e-01  -8.0698186e+06
   1.2164055e-09  -2.5591449e-03   8.8334951e-01   7.2384752e-01  -8.0027861e+06
   1.2190730e-09  -2.5378857e-03   8.8265403e-01   7.2447512e-01  -7.9363108e+06
   1.2217406e-09  -2.5168031e-03   8.8196474e-01   7.2509793e-01  -7.8703881e+06
   1.2244081e-09  -2.4958957e-03   8.8128157e-01   7.2571599e-01  -7.8050134e+06
   1.2270757e-09  -2.4751619e-03   8.8060446e-01   7.2632933e-01  -7.7401822e+06
   1.2297432e-09  -2.4546003e-03   8.7993337e-01   7.2693798e-01  -7.6758898e+06
   1.2324108e-09  -2.4342095e-03   8.7926823e-01   7.2754197e-01  -7.6121319e+06
   1.2350784e-09  -2.4139881e-03   8.7860899e-01   7.2814134e-01  -7.5489038e+06
   1.2377459e-09  -2.3939346e-03   8.7795559e-01   7.2873612e-01  -7.4862013e+06
   1.2404135e-09  -2.3740477e-03   8.7730798e-01   7.2932634e-01  -7.4240199e+06
   1.2430810e-09  -2.3543260e-03   8.7666610e-01   7.2991203e-01  -7.3623553e+06
   1.2457486e-09  -2.3347681e-03   8.7602991e-01   7.3049323e-01  -7.3012032e+06
   1.2484161e-09  -2.3153727e-03   8.7539934e-01   7.3106996e-01  -7.2405593e+06
   1.2510837e-09  -2.2961383e-03   8.7477434e-01   7.3164225e-01  -7.1804193e+06
   1.2537513e-09  -2.2770637e-03   8.7415487e-01   7.3221015e-01  -7.1207791e+06
   1.2564188e-09  -2.2581476e-03   8.7354087e-01   7.3277367e-01  -7.0616345e+06
   1.2590864e-09  -2.2393885e-03   8.7293229e-01   7.3333285e-01  -7.0029813e+06
   1.2617539e-09  -2.2207853e-03   8.7232907e-01   7.3388772e-01  -6.9448156e+06
   1.2644215e-09  -2.2023366e-03   8.7173118e-01   7.3443831e-01  -6.8871331e+06
   1.2670890e-09  -2.1840411e-03   8.7113856e-01   7.3498465e-01  -6.8299299e+06
   1.2697566e-09  -2.1658976e-03   8.7055116e-01   7.3552678e-01  -6.7732019e+06
   1.2724241e-09  -2.1479047e-03   8.6996894e-01   7.3606471e-01  -6.7169453e+06
   1.2750917e-09  -2.1300613e-03   8.6939184e-01   7.3659848e-01  -6.6611561e+06
   1.2777593e-09  -2.1123661e-03   8.6881981e-01   7.3712812e-01  -6.6058304e+06
   1.2804268e-09  -2.0948179e-03   8.6825282e-01   7.3765366e-01  -6.5509643e+06
   1.2830944e-09  -2.0774155e-03   8.6769081e-01   7.3817513e-01  -6.4965541e+06
   1.2857619e-09  -2.0601575e-03   8.6713374e-01   7.3869256e-01  -6.4425958e+06
   1.2884295e-09  -2.0430430e-03   8.6658157e-01   7.3920597e-01  -6.3890858e+06
   1.2910970e-09  -2.0260705e-03   8.6603424e-01   7.3971540e-01  -6.3360204e+06
   1.2937646e-09  -2.0092391e-03   8.6549171e-01   7.4022087e-01  -6.2833957e+06
   1.2964321e-09  -1.9925474e-03   8.6495395e-01   7.4072241e-01  -6.2312083e+06
   1.2990997e-09  -1.9759943e-03   8.6442090e-01   7.4122006e-01  -6.1794543e+06
   1.3017673e-09  -1.9595788e-03   8.6389252e-01   7.4171383e-01  -6.1281302e+06
   1.3044348e-09  -1.9432996e-03   8.6336877e-01   7.4220376e-01  -6.0772325e+06
   1.3071024e-09  -1.9271556e-03   8.6284960e-01   7.4268987e-01  -6.0267575e+06
   1.3097699e-09  -1.9111456e-03   8.6233498e-01   7.4317219e-01  -5.9767018e+06
   1.3124375e-09  -1.8952687e-03   8.6182487e-01   7.4365075e-01  -5.9270618e+06
   1.3151050e-09  -1.8795236e-03   8.6131921e-01   7.4412558e-01  -5.8778342e+06
   1.3177726e-09  -1.8639093e-03   8.6081798e-01   7.4459671e-01  -5.8290154e+06
   1.3204401e-09  -1.8484247e-03   8.6032112e-01   7.4506415e-01  -5.7806022e+06
   1.3231077e-09  -1.8330687e-03   8.5982861e-01   7.4552794e-01  -5.7325910e+06
   1.3257753e-09  -1.8178402e-03   8.5934039e-01   7.4598810e-01  -5.6849786e+06
   1.3284428e-09  -1.8027382e-03   8.5885644e-01   7.4644467e-01  -5.6377616e+06
   1.3311104e-09  -1.7877616e-03   8.5837671e-01   7.4689766e-01  -5.5909368e+06
   1.3337779e-09  -1.7729094e-03   8.5790117e-01   7.4734710e-01  -5.5445009e+06
   1.3364455e-09  -1.7581806e-03   8.5742977e-01   7.4779302e-01  -5.4984507e+06
   1.3391130e-09  -1.7435741e-03   8.5696248e-01   7.4823545e-01  -5.4527829e+06
   1.3417806e-09  -1.7290890e-03   8.5649926e-01   7.4867440e-01  -5.4074944e+06
   1.3444481e-09  -1.7147241e-03   8.5604007e-01   7.4910991e-01  -5.3625819e+06
   1.3471157e-09  -1.7004785e-03   8.5558488e-01   7.4954200e-01  -5.3180425e+06
   1.3497833e-09  -1.6863513e-03   8.5513365e-01   7.4997070e-01  -5.2738730e+06
   1.3524508e-09  -1.6723414e-03   8.5468635e-01   7.5039603e-01  -5.2300703e+06
   1.3551184e-09  -1.6584479e-03   8.5424294e-01   7.5081802e-01  -5.1866313e+06
   1.3577859e-09  -1.6446697e-03   8.5380338e-01   7.5123668e-01  -5.1435531e+06
   1.3604535e-09  -1.6310060e-03   8.5336764e-01   7.5165205e-01  -5.1008327e+06
   1.3631210e-09  -1.6174558e-03   8.5293569e-01   7.5206415e-01  -5.0584670e+06
   1.3657886e-09  -1.6040181e-03   8.5250749e-01   7.5247301e-01  -5.0164531e+06
   1.3684562e-09  -1.5906920e-03   8.5208300e-01   7.5287864e-01  -4.9747881e+06
   1.3711237e-09  -1.5774766e-03   8.5166220e-01   7.5328107e-01  -4.9334692e+06
   1.3737913e-09  -1.5643710e-03   8.5124504e-01   7.5368033e-01  -4.8924933e+06
   1.3764588e-09  -1.5513742e-03   8.5083151e-01   7.5407644e-01  -4.8518577e+06
   1.3791264e-09  -1.5384854e-03   8.5042156e-01   7.5446942e-01  -4.8115596e+06
   1.3817939e-09  -1.5257036e-03   8.5001516e-01   7.5485930e-01  -4.7715961e+06
   1.3844615e-09  -1.5130280e-03   8.4961228e-01   7.5524609e-01  -4.7319644e+06
   1.3871290e-09  -1.5004577e-03   8.4921289e-01   7.5562983e-01  -4.6926619e+06
   1.3897966e-09  -1.4879917e-03   8.4881696e-01   7.5601053e-01  -4.6536857e+06
   1.3924642e-09  -1.4756293e-03   8.4842446e-01   7.5638822e-01  -4.6150332e+06
   1.3951317e-09  -1.4633696e-03   8.4803535e-01   7.5676292e-01  -4.5767016e+06
   1.3977993e-09  -1.4512118e-03   8.4764960e-01   7.5713466e-01  -4.5386884e+06
   1.4004668e-09  -1.4391548e-03   8.4726719e-01   7.5750345e-01  -4.5009908e+06
   1.4031344e-09  -1.4271981e-03   8.4688809e-01   7.5786931e-01  -4.4636062e+06
   1.4058019e-09  -1.4153406e-03   8.4651226e-01   7.5823228e-01  -4.4265320e+06
   1.4084695e-09  -1.4035817e-03   8.4613968e-01   7.5859237e-01  -4.3897657e+06
   1.4111370e-09  -1.3919204e-03   8.4577031e-01   7.5894959e-01  -4.3533048e+06
   1.4138046e-09  -1.3803560e-03   8.4540413e-01   7.5930399e-01  -4.3171465e+06
   1.4164722e-09  -1.3688876e-03   8.4504112e-01   7.5965557e-01  -4.2812885e+06
   1.4191397e-09  -1.3575144e-03   8.4468123e-01   7.6000435e-01  -4.2457283e+06
   1.4218073e-09  -1.3462358e-03   8.4432445e-01   7.6035036e-01  -4.2104633e+06
   1.4244748e-09  -1.3350508e-03   8.4397074e-01   7.6069363e-01  -4.1754912e+06
   1.4271424e-09  -1.3239587e-03   8.4362009e-01   7.6103416e-01  -4.1408095e+06
   1.4298099e-09  -1.3129588e-03   8.4327245e-01   7.6137198e-01  -4.1064157e+06
   1.4324775e-09  -1.3020502e-03   8.4292781e-01   7.6170712e-01  -4.0723075e+06
   1.4351450e-09  -1.2912322e-03   8.4258613e-01   7.6203958e-01  -4.0384826e+06
   1.4378126e-09  -1.2805041e-03   8.4224740e-01   7.6236940e-01  -4.0049385e+06
   1.4404802e-09  -1.2698651e-03   8.4191159e-01   7.6269659e-01  -3.9716729e+06
   1.4431477e-09  -1.2593145e-03   8.4157866e-01   7.6302117e-01  -3.9386836e+06
   1.4458153e-09  -1.2488515e-03   8.4124860e-01   7.6334316e-01  -3.9059682e+06
   1.4484828e-09  -1.2384754e-03   8.4092137e-01   7.6366258e-01  -3.8735245e+06
   1.4511504e-09  -1.2281855e-03   8.4059696e-01   7.6397946e-01  -3.8413501e+06
   1.4538179e-09  -1.2179810e-03   8.4027534e-01   7.6429380e-01  -3.8094429e+06
   1.4564855e-09  -1.2078613e-03   8.3995648e-01   7.6460564e-01  -3.7778007e+06
   1.4591531e-09  -1.1978257e-03   8.3964036e-01   7.6491498e-01  -3.7464211e+06
   1.4618206e-09  -1.1878735e-03   8.3932695e-01   7.6522186e-01  -3.7153022e+06
   1.4644882e-09  -1.1780039e-03   8.3901624e-01   7.6552628e-01  -3.6844416e+06
   1.4671557e-09  -1.1682162e-03   8.3870819e-01   7.6582826e-01  -3.6538373e+06
   1.4698233e-09  -1.1585099e-03   8.3840278e-01   7.6612783e-01  -3.6234872e+06
   1.4724908e-09  -1.1488842e-03   8.3810000e-01   7.6642501e-01  -3.5933890e+06
   1.4751584e-09  -1.1393385e-03   8.3779981e-01   7.6671980e-01  -3.5635407e+06
   1.4778259e-09  -1.1298721e-03   8.3750220e-01   7.6701223e-01  -3.5339403e+06
   1.4804935e-09  -1.1204842e-03   8.3720713e-01   7.6730233e-01  -3.5045857e+06
   1.4831611e-09  -1.1111744e-03   8.3691460e-01   7.6759009e-01  -3.4754749e+06
   1.4858286e-09  -1.1019419e-03   8.3662457e-01   7.6787556e-01  -3.4466057e+06
   1.4884962e-09  -1.0927861e-03   8.3633703e-01   7.6815873e-01  -3.4179763e+06
   1.4911637e-09  -1.0837063e-03   8.3605195e-01   7.6843963e-01  -3.3895846e+06
   1.4938313e-09  -1.0747020e-03   8.3576931e-01   7.6871828e-01  -3.3614287e+06
   1.4964988e-09  -1.0657725e-03   8.3548909e-01   7.6899470e-01  -3.3335065e+06
   1.4991664e-09  -1.0569171e-03   8.3521127e-01   7.6926889e-01  -3.3058162e+06
   1.5018339e-09  -1.0481353e-03   8.3493582e-01   7.6954088e-01  -3.2783559e+06
   1.5045015e-09  -1.0394264e-03   8.3466273e-01   7.6981069e-01  -3.2511235e+06
   1.5071691e-09  -1.0307899e-03   8.3439198e-01   7.7007833e-01  -3.2241173e+06
   1.5098366e-09  -1.0222251e-03   8.3412354e-01   7.7034383e-01  -3.1973353e+06
   1.5125042e-09  -1.0137315e-03   8.3385739e-01   7.7060718e-01  -3.1707758e+06
   1.5151717e-09  -1.0053084e-03   8.3359352e-01   7.7086842e-01  -3.1444367e+06
   1.5178393e-09  -9.9695534e-04   8.3333191e-01   7.7112756e-01  -3.1183164e+06
   1.5205068e-09  -9.8867162e-04   8.3307253e-01   7.7138461e-01  -3.0924130e+06
   1.5231744e-09  -9.8045672e-04   8.3281536e-01   7.7163960e-01  -3.0667247e+06
   1.5258419e-09  -9.7231005e-04   8.3256039e-01   7.7189253e-01  -3.0412497e+06
   1.5285095e-09  -9.6423106e-04   8.3230760e-01   7.7214343e-01  -3.0159862e+06
   1.5311771e-09  -9.5621918e-04   8.3205696e-01   7.7239230e-01  -2.9909325e+06
   1.5338446e-09  -9.4827386e-04   8.3180846e-01   7.7263917e-01  -2.9660869e+06
   1.5365122e-09  -9.4039454e-04   8.3156208e-01   7.7288406e-01  -2.9414475e+06
   1.5391797e-09  -9.3258067e-04   8.3131781e-01   7.7312696e-01  -2.9170128e+06
   1.5418473e-09  -9.2483171e-04   8.3107561e-01   7.7336791e-01  -2.8927810e+06
   1.5445148e-09  -9.1714712e-04   8.3083549e-01   7.7360692e-01  -2.8687504e+06
   1.5471824e-09  -9.0952637e-04   8.3059740e-01   7.7384400e-01  -2.8449193e+06
   1.5498499e-09  -9.0196893e-04   8.3036135e-01   7.7407916e-01  -2.8212862e+06
   1.5525175e-09  -8.9447426e-04   8.3012731e-01   7.7431243e-01  -2.7978493e+06
   1.5551851e-09  -8.8704186e-04   8.2989526e-01   7.7454381e-01  -2.7746070e+06
   1.5578526e-09  -8.7967120e-04   8.2966519e-01   7.7477333e-01  -2.7515577e+06
   1.5605202e-09  -8.7236177e-04   8.2943708e-01   7.7500099e-01  -2.7286999e+06
   1.5631877e-09  -8.6511306e-04   8.2921091e-01   7.7522682e-01  -2.7060318e+06
   1.5658553e-09  -8.5792456e-04   8.2898666e-01   7.7545082e-01  -2.6835520e+06
   1.5685228e-09  -8.5079579e-04   8.2876432e-01   7.7567300e-01  -2.6612588e+06
   1.5711904e-09  -8.4372623e-04   8.2854388e-01   7.7589340e-01  -2.6391508e+06
   1.5738580e-09  -8.3671541e-04   8.2832531e-01   7.7611201e-01  -2.6172264e+06
   1.5765255e-09  -8.2976282e-04   8.2810860e-01   7.7632885e-01  -2.5954841e+06
   1.5791931e-09  -8.2286800e-04   8.2789373e-01   7.7654394e-01  -2.5739223e+06
   1.5818606e-09  -8.1603045e-04   8.2768069e-01   7.7675728e-01  -2.5525395e+06
   1.5845282e-09  -8.0924971e-04   8.2746946e-01   7.7696890e-01  -2.5313344e+06
   1.5871957e-09  -8.0252529e-04   8.2726002e-01   7.7717881e-01  -2.5103053e+06
   1.5898633e-09  -7.9585674e-04   8.2705236e-01   7.7738702e-01  -2.4894508e+06
   1.5925308e-09  -7.8924359e-04   8.2684647e-01   7.7759354e-01  -2.4687696e+06
   1.5951984e-09  -7.8268538e-04   8.2664233e-01   7.7779839e-01  -2.4482601e+06
   1.5978660e-09  -7.7618165e-04   8.2643992e-01   7.7800158e-01  -2.4279209e+06
   1.6005335e-09  -7.6973196e-04   8.2623923e-01   7.7820312e-01  -2.4077506e+06
   1.6032011e-09  -7.6333584e-04   8.2604024e-01   7.7840303e-01  -2.3877479e+06
   1.6058686e-09  -7.5699286e-04   8.2584295e-01   7.7860132e-01  -2.3679112e+06
   1.6085362e-09  -7.5070258e-04   8.2564732e-01   7.7879800e-01  -2.3482393e+06
   1.6112037e-09  -7.4446455e-04   8.2545336e-01   7.7899308e-01  -2.3287308e+06
   1.6138713e-09  -7.3827835e-04   8.2526104e-01   7.7918658e-01  -2.3093842e+06
   1.6165388e-09  -7.3214354e-04   8.2507036e-01   7.7937851e-01  -2.2901984e+06
   1.6192064e-09  -7.2605970e-04   8.2488129e-01   7.7956889e-01  -2.2711718e+06
   1.6218740e-09  -7.2002640e-04   8.2469382e-01   7.7975772e-01  -2.2523033e+06
   1.6245415e-09  -7.1404323e-04   8.2450795e-01   7.7994501e-01  -2.2335915e+06
   1.6272091e-09  -7.0810976e-04   8.2432365e-01   7.8013078e-01  -2.2150351e+06
   1.6298766e-09  -7.0222559e-04   8.2414091e-01   7.8031505e-01  -2.1966328e+06
   1.6325442e-09  -6.9639030e-04   8.2395972e-01   7.8049782e-01  -2.1783833e+06
   1.6352117e-09  -6.9060349e-04   8.2378006e-01   7.8067910e-01  -2.1602854e+06
   1.6378793e-09  -6.8486476e-04   8.2360193e-01   7.8085891e-01  -2.1423378e+06
   1.6405468e-09  -6.7917371e-04   8.2342531e-01   7.8103726e-01  -2.1245393e+06
   1.6432144e-09  -6.7352993e-04   8.2325018e-01   7.8121416e-01  -2.1068885e+06
   1.6458820e-09  -6.6793305e-04   8.2307653e-01   7.8138962e-01  -2.0893844e+06
   1.6485495e-09  -6.6238267e-04   8.2290436e-01   7.8156365e-01  -2.0720256e+06
   1.6512171e-09  -6.5687840e-04   8.2273364e-01   7.8173627e-01  -2.0548110e+06
   1.6538846e-09  -6.5141985e-04   8.2256437e-01   7.8190748e-01  -2.0377394e+06
   1.6565522e-09  -6.4600666e-04   8.2239653e-01   7.8207730e-01  -2.0208096e+06
   1.6592197e-09  -6.4063845e-04   8.2223011e-01   7.8224574e-01  -2.0040203e+06
   1.6618873e-09  -6.3531483e-04   8.2206510e-01   7.8241280e-01  -1.9873705e+06
   1.6645549e-09  -6.3003544e-04   8.2190148e-01   7.8257851e-01  -1.9708590e+06
   1.6672224e-09  -6.2479992e-04   8.2173925e-01   7.8274287e-01  -1.9544847e+06
   1.6698900e-09  -6.1960789e-04   8.2157839e-01   7.8290588e-01  -1.9382463e+06
   1.6725575e-09  -6.1445900e-04   8.2141889e-01   7.8306757e-01  -1.9221428e+06
   1.6752251e-09  -6.0935289e-04   8.2126074e-01   7.8322795e-01  -1.9061730e+06
   1.6778926e-09  -6.0428920e-04   8.2110392e-01   7.8338701e-01  -1.8903359e+06
   1.6805602e-09  -5.9926758e-04   8.2094843e-01   7.8354478e-01  -1.8746303e+06
   1.6832277e-09  -5.9428769e-04   8.2079426e-01   7.8370126e-01  -1.8590552e+06
   1.6858953e-09  -5.8934917e-04   8.2064138e-01   7.8385647e-01  -1.8436094e+06
   1.6885629e-09  -5.8445168e-04   8.2048980e-01   7.8401041e-01  -1.8282919e+06
   1.6912304e-09  -5.7959488e-04   8.2033950e-01   7.8416310e-01  -1.8131016e+06
   1.6938980e-09  -5.7477843e-04   8.2019047e-01   7.8431454e-01  -1.7980375e+06
   1.6965655e-09  -5.7000200e-04   8.2004270e-01   7.8446474e-01  -1.7830986e+06
   1.6992331e-09  -5.6526526e-04   8.1989617e-01   7.8461372e-01  -1.7682837e+06
   1.7019006e-09  -5.6056787e-04   8.1975088e-01   7.8476149e-01  -1.7535918e+06
   1.7045682e-09  -5.5590951e-04   8.1960682e-01   7.8490804e-01  -1.7390220e+06
   1.7072357e-09  -5.5128985e-04   8.1946397e-01   7.8505341e-01  -1.7245732e+06
   1.7099033e-09  -5.4670858e-04   8.1932233e-01   7.8519758e-01  -1.7102444e+06
   1.7125709e-09  -5.4216537e-04   8.1918189e-01   7.8534058e-01  -1.6960346e+06
   1.7152384e-09  -5.3765991e-04   8.1904263e-01   7.8548241e-01  -1.6819429e+06
   1.7179060e-09  -5.3319188e-04   8.1890454e-01   7.8562308e-01  -1.6679681e+06
   1.7205735e-09  -5.2876098e-04   8.1876762e-01   7.8576260e-01  -1.6541095e+06
   1.7232411e-09  -5.2436689e-04   8.1863186e-01   7.8590098e-01  -1.6403660e+06
   1.7259086e-09  -5.2000931e-04   8.1849724e-01   7.8603823e-01  -1.6267366e+06
   1.7285762e-09  -5.1568794e-04   8.1836375e-01   7.8617436e-01  -1.6132205e+06
   1.7312437e-09  -5.1140247e-04   8.1823139e-01   7.8630938e-01  -1.5998166e+06
   1.7339113e-09  -5.0715261e-04   8.1810015e-01   7.8644329e-01  -1.5865241e+06
   1.7365789e-09  -5.0293806e-04   8.1797001e-01   7.8657611e-01  -1.5733419e+06
   1.7392464e-09  -4.9875853e-04   8.1784097e-01   7.8670784e-01  -1.5602693e+06
   1.7419140e-09  -4.9461373e-04   8.1771302e-01   7.8683849e-01  -1.5473052e+06
   1.7445815e-09  -4.9050336e-04   8.1758614e-01   7.8696808e-01  -1.5344489e+06
   1.7472491e-09  -4.8642715e-04   8.1746033e-01   7.8709660e-01  -1.5216993e+06
   1.7499166e-09  -4.8238480e-04   8.1733559e-01   7.8722408e-01  -1.5090556e+06
   1.7525842e-09  -4.7837605e-04   8.1721189e-01   7.8735051e-01  -1.4965170e+06
   1.7552518e-09  -4.7440060e-04   8.1708924e-01   7.8747591e-01  -1.4840825e+06
   1.7579193e-09  -4.7045818e-04   8.1696762e-01   7.8760027e-01  -1.4717513e+06
   1.7605869e-09  -4.6654852e-04   8.1684702e-01   7.8772363e-01  -1.4595225e+06
   1.7632544e-09  -4.6267135e-04   8.1672744e-01   7.8784597e-01  -1.4473953e+06
   1.7659220e-09  -4.5882639e-04   8.1660886e-01   7.8796731e-01  -1.4353688e+06
   1.7685895e-09  -4.5501338e-04   8.1649129e-01   7.8808765e-01  -1.4234423e+06
   1.7712571e-09  -4.5123205e-04   8.1637470e-01   7.8820701e-01  -1.4116148e+06
   1.7739246e-09  -4.4748215e-04   8.1625910e-01   7.8832540e-01  -1.3998855e+06
   1.7765922e-09  -4.4376340e-04   8.1614446e-01   7.8844281e-01  -1.3882537e+06
   1.7792598e-09  -4.4007555e-04   8.1603080e-01   7.8855926e-01  -1.3767185e+06
   1.7819273e-09  -4.3641834e-04   8.1591808e-01   7.8867476e-01  -1.3652792e+06
   1.7845949e-09  -4.3279152e-04   8.1580632e-01   7.8878931e-01  -1.3539348e+06
   1.7872624e-09  -4.2919484e-04   8.1569550e-01   7.8890292e-01  -1.3426847e+06
   1.7899300e-09  -4.2562804e-04   8.1558561e-01   7.8901560e-01  -1.3315281e+06
   1.7925975e-09  -4.2209088e-04   8.1547664e-01   7.8912736e-01  -1.3204641e+06
   1.7952651e-09  -4.1858311e-04   8.1536859e-01   7.8923820e-01  -1.3094921e+06
   1.7979326e-09  -4.1510449e-04   8.1526145e-01   7.8934813e-01  -1.2986111e+06
   1.8006002e-09  -4.1165477e-04   8.1515521e-01   7.8945716e-01  -1.2878206e+06
   1.8032678e-09  -4.0823372e-04   8.1504986e-01   7.8956529e-01  -1.2771197e+06
   1.8059353e-09  -4.0484110e-04   8.1494540e-01   7.8967254e-01  -1.2665077e+06
   1.8086029e-09  -4.0147666e-04   8.1484181e-01   7.8977891e-01  -1.2559839e+06
   1.8112704e-09  -3.9814018e-04   8.1473910e-01   7.8988440e-01  -1.2455475e+06
   1.8139380e-09  -3.9483143e-04   8.1463725e-01   7.8998903e-01  -1.2351978e+06
   1.8166055e-09  -3.9155017e-04   8.1453625e-01   7.9009281e-01  -1.2249340e+06
   1.8192731e-09  -3.8829617e-04   8.1443611e-01   7.9019573e-01  -1.2147556e+06
   1.8219406e-09  -3.8506921e-04   8.1433680e-01   7.9029780e-01  -1.2046616e+06
   1.8246082e-09  -3.8186907e-04   8.1423833e-01   7.9039904e-01  -1.1946516e+06
   1.8272758e-09  -3.7869552e-04   8.1414069e-01   7.9049944e-01  -1.1847247e+06
   1.8299433e-09  -3.7554834e-04   8.1404387e-01   7.9059902e-01  -1.1748802e+06
   1.8326109e-09  -3.7242731e-04   8.1394786e-01   7.9069779e-01  -1.1651176e+06
   1.8352784e-09  -3.6933221e-04   8.1385266e-01   7.9079574e-01  -1.1554360e+06
   1.8379460e-09  -3.6626284e-04   8.1375825e-01   7.9089289e-01  -1.1458349e+06
   1.8406135e-09  -3.6321897e-04   8.1366464e-01   7.9098924e-01  -1.1363135e+06
   1.8432811e-09  -3.6020039e-04   8.1357182e-01   7.9108480e-01  -1.1268713e+06
   1.8459486e-09  -3.5720689e-04   8.1347977e-01   7.9117957e-01  -1.1175075e+06
   1.8486162e-09  -3.5423827e-04   8.1338850e-01   7.9127357e-01  -1.1082214e+06
   1.8512838e-09  -3.5129432e-04   8.1329799e-01   7.9136679e-01  -1.0990125e+06
   1.8539513e-09  -3.4837483e-04   8.1320824e-01   7.9145925e-01  -1.0898802e+06
   1.8566189e-09  -3.4547960e-04   8.1311925e-01   7.9155094e-01  -1.0808237e+06
   1.8592864e-09  -3.4260843e-04   8.1303100e-01   7.9164189e-01  -1.0718424e+06
   1.8619540e-09  -3.3976112e-04   8.1294350e-01   7.9173208e-01  -1.0629357e+06
   1.8646215e-09  -3.3693747e-04   8.1285672e-01   7.9182153e-01  -1.0541031e+06
   1.8672891e-09  -3.3413728e-04   8.1277068e-01   7.9191025e-01  -1.0453438e+06
   1.8699567e-09  -3.3136036e-04   8.1268536e-01   7.9199824e-01  -1.0366573e+06
   1.8726242e-09  -3.2860651e-04   8.1260075e-01   7.9208551e-01  -1.0280429e+06
   1.8752918e-09  -3.2587555e-04   8.1251685e-01   7.9217205e-01  -1.0195001e+06
   1.8779593e-09  -3.2316729e-04   8.1243366e-01   7.9225789e-01  -1.0110283e+06
   1.8806269e-09  -3.2048152e-04   8.1235116e-01   7.9234302e-01  -1.0026269e+06
   1.8832944e-09  -3.1781808e-04   8.1226936e-01   7.9242745e-01  -9.9429530e+05
   1.8859620e-09  -3.1517677e-04   8.1218824e-01   7.9251118e-01  -9.8603289e+05
   1.8886295e-09  -3.1255741e-04   8.1210780e-01   7.9259423e-01  -9.7783913e+05
   1.8912971e-09  -3.0995981e-04   8.1202804e-01   7.9267659e-01  -9.6971345e+05
   1.8939647e-09  -3.0738380e-04   8.1194894e-01   7.9275828e-01  -9.6165528e+05
   1.8966322e-09  -3.0482920e-04   8.1187051e-01   7.9283929e-01  -9.5366405e+05
   1.8992998e-09  -3.0229582e-04   8.1179274e-01   7.9291963e-01  -9.4573921e+05
   1.9019673e-09  -2.9978350e-04   8.1171562e-01   7.9299932e-01  -9.3788022e+05
   1.9046349e-09  -2.9729205e-04   8.1163914e-01   7.9307835e-01  -9.3008652e+05
   1.9073024e-09  -2.9482131e-04   8.1156331e-01   7.9315673e-01  -9.2235757e+05
   1.9099700e-09  -2.9237110e-04   8.1148811e-01   7.9323446e-01  -9.1469284e+05
   1.9126375e-09  -2.8994125e-04   8.1141354e-01   7.9331155e-01  -9.0709178e+05
   1.9153051e-09  -2.8753159e-04   8.1133959e-01   7.9338801e-01  -8.9955388e+05
   1.9179727e-09  -2.8514196e-04   8.1126627e-01   7.9346384e-01  -8.9207861e+05
   1.9206402e-09  -2.8277218e-04   8.1119356e-01   7.9353904e-01  -8.8466544e+05
   1.9233078e-09  -2.8042210e-04   8.1112146e-01   7.9361362e-01  -8.7731387e+05
   1.9259753e-09  -2.7809155e-04   8.1104996e-01   7.9368759e-01  -8.7002337e+05
   1.9286429e-09  -2.7578036e-04   8.1097906e-01   7.9376095e-01  -8.6279345e+05
   1.9313104e-09  -2.7348838e-04   8.1090876e-01   7.9383371e-01  -8.5562360e+05
   1.9339780e-09  -2.7121545e-04   8.1083904e-01   7.9390587e-01  -8.4851331e+05
   1.9366455e-09  -2.6896140e-04   8.1076991e-01   7.9397743e-01  -8.4146210e+05
   1.9393131e-09  -2.6672609e-04   8.1070135e-01   7.9404840e-01  -8.3446948e+05
   1.9419807e-09  -2.6450935e-04   8.1063337e-01   7.9411879e-01  -8.2753496e+05
   1.9446482e-09  -2.6231103e-04   8.1056596e-01   7.9418860e-01  -8.2065805e+05
   1.9473158e-09  -2.6013098e-04   8.1049912e-01   7.9425783e-01  -8.1383828e+05
   1.9499833e-09  -2.5796905e-04   8.1043283e-01   7.9432649e-01  -8.0707517e+05
   1.9526509e-09  -2.5582508e-04   8.1036710e-01   7.9439459e-01  -8.0036826e+05
   1.9553184e-09  -2.5369893e-04   8.1030192e-01   7.9446212e-01  -7.9371707e+05
   1.9579860e-09  -2.5159045e-04   8.1023729e-01   7.9452910e-01  -7.8712114e+05
   1.9606536e-09  -2.4949949e-04   8.1017319e-01   7.9459552e-01  -7.8058002e+05
   1.9633211e-09  -2.4742591e-04   8.1010964e-01   7.9466140e-01  -7.7409324e+05
   1.9659887e-09  -2.4536956e-04   8.1004661e-01   7.9472673e-01  -7.6766037e+05
   1.9686562e-09  -2.4333029e-04   8.0998411e-01   7.9479153e-01  -7.6128094e+05
   1.9713238e-09  -2.4130798e-04   8.0992214e-01   7.9485579e-01  -7.5495451e+05
   1.9739913e-09  -2.3930247e-04   8.0986068e-01   7.9491952e-01  -7.4868065e+05
   1.9766589e-09  -2.3731363e-04   8.0979974e-01   7.9498273e-01  -7.4245893e+05
   1.9793264e-09  -2.3534131e-04   8.0973930e-01   7.9504541e-01  -7.3628889e+05
   1.9819940e-09  -2.3338539e-04   8.0967938e-01   7.9510758e-01  -7.3017012e+05
   1.9846616e-09  -2.3144571e-04   8.0961995e-01   7.9516923e-01  -7.2410219e+05
   1.9873291e-09  -2.2952216e-04   8.0956102e-01   7.9523038e-01  -7.1808469e+05
   1.9899967e-09  -2.2761460e-04   8.0950259e-01   7.9529102e-01  -7.1211717e+05
   1.9926642e-09  -2.2572288e-04   8.0944464e-01   7.9535116e-01  -7.0619925e+05
   1.9953318e-09  -2.2384689e-04   8.0938718e-01   7.9541081e-01  -7.0033049e+05
   1.9979993e-09  -2.2198649e-04   8.0933020e-01   7.9546996e-01  -6.9451050e+05
   2.0006669e-09  -2.2014154e-04   8.0927369e-01   7.9552862e-01  -6.8873887e+05
   2.0033344e-09  -2.1831193e-04   8.0921766e-01   7.9558680e-01  -6.8301519e+05
   2.0060020e-09  -2.1649753e-04   8.0916210e-01   7.9564450e-01  -6.7733907e+05
   2.0086696e-09  -2.1469820e-04   8.0910700e-01   7.9570173e-01  -6.7171012e+05
   2.0113371e-09  -2.1291383e-04   8.0905236e-01   7.9575848e-01  -6.6612794e+05
   2.0140047e-09  -2.1114428e-04   8.0899818e-01   7.9581476e-01  -6.6059214e+05
   2.0166722e-09  -2.0938945e-04   8.0894445e-01   7.9587058e-01  -6.5510234e+05
   2.0193398e-09  -2.0764919e-04   8.0889117e-01   7.9592594e-01  -6.4965815e+05
   2.0220073e-09  -2.0592340e-04   8.0883834e-01   7.9598084e-01  -6.4425920e+05
   2.0246749e-09  -2.0421194e-04   8.0878594e-01   7.9603528e-01  -6.3890511e+05
   2.0273424e-09  -2.0251472e-04   8.0873399e-01   7.9608928e-01  -6.3359551e+05
   2.0300100e-09  -2.0083159e-04   8.0868247e-01   7.9614283e-01  -6.2833003e+05
   2.0326776e-09  -1.9916246e-04   8.0863138e-01   7.9619594e-01  -6.2310830e+05
   2.0353451e-09  -1.9750719e-04   8.0858072e-01   7.9624861e-01  -6.1792996e+05
   2.0380127e-09  -1.9586568e-04   8.0853048e-01   7.9630085e-01  -6.1279465e+05
   2.0406802e-09  -1.9423782e-04   8.0848066e-01   7.9635265e-01  -6.0770201e+05
   2.0433478e-09  -1.9262348e-04   8.0843126e-01   7.9640403e-01  -6.0265169e+05
   2.0460153e-09  -1.9102256e-04   8.0838227e-01   7.9645498e-01  -5.9764333e+05
   2.0486829e-09  -1.8943494e-04   8.0833369e-01   7.9650551e-01  -5.9267659e+05
   2.0513505e-09  -1.8786052e-04   8.0828551e-01   7.9655562e-01  -5.8775111e+05
   2.0540180e-09  -1.8629918e-04   8.0823774e-01   7.9660532e-01  -5.8286657e+05
   2.0566856e-09  -1.8475081e-04   8.0819037e-01   7.9665461e-01  -5.7802261e+05
   2.0593531e-09  -1.8321532e-04   8.0814339e-01   7.9670349e-01  -5.7321891e+05
   2.0620207e-09  -1.8169258e-04   8.0809680e-01   7.9675197e-01  -5.6845512e+05
   2.0646882e-09  -1.8018250e-04   8.0805061e-01   7.9680005e-01  -5.6373091e+05
   2.0673558e-09  -1.7868497e-04   8.0800480e-01   7.9684773e-01  -5.5904596e+05
   2.0700233e-09  -1.7719989e-04   8.0795937e-01   7.9689501e-01  -5.5439994e+05
   2.0726909e-09  -1.7572714e-04   8.0791432e-01   7.9694191e-01  -5.4979253e+05
   2.0753585e-09  -1.7426664e-04   8.0786965e-01   7.9698842e-01  -5.4522340e+05
   2.0780260e-09  -1.7281827e-04   8.0782536e-01   7.9703454e-01  -5.4069224e+05
   2.0806936e-09  -1.7138194e-04   8.0778143e-01   7.9708028e-01  -5.3619874e+05
   2.0833611e-09  -1.6995755e-04   8.0773787e-01   7.9712565e-01  -5.3174257e+05
   2.0860287e-09  -1.6854500e-04   8.0769467e-01   7.9717063e-01  -5.2732343e+05
   2.0886962e-09  -1.6714418e-04   8.0765183e-01   7.9721525e-01  -5.2294101e+05
   2.0913638e-09  -1.6575501e-04   8.0760935e-01   7.9725950e-01  -5.1859501e+05
   2.0940313e-09  -1.6437738e-04   8.0756723e-01   7.9730338e-01  -5.1428512e+05
   2.0966989e-09  -1.6301120e-04   8.0752546e-01   7.9734690e-01  -5.1001105e+05
   2.0993665e-09  -1.6165637e-04   8.0748403e-01   7.9739006e-01  -5.0577249e+05
   2.1020340e-09  -1.6031281e-04   8.0744295e-01   7.9743286e-01  -5.0156915e+05
   2.1047016e-09  -1.5898041e-04   8.0740222e-01   7.9747531e-01  -4.9740074e+05
   2.1073691e-09  -1.5765908e-04   8.0736182e-01   7.9751741e-01  -4.9326697e+05
   2.1100367e-09  -1.5634874e-04   8.0732177e-01   7.9755916e-01  -4.8916755e+05
   2.1127042e-09  -1.5504928e-04   8.0728204e-01   7.9760056e-01  -4.8510220e+05
   2.1153718e-09  -1.5376063e-04   8.0724265e-01   7.9764162e-01  -4.8107063e+05
   2.1180393e-09  -1.5248268e-04   8.0720359e-01   7.9768235e-01  -4.7707256e+05
   2.1207069e-09  -1.5121535e-04   8.0716485e-01   7.9772273e-01  -4.7310771e+05
   2.1233745e-09  -1.4995856e-04   8.0712644e-01   7.9776278e-01  -4.6917582e+05
   2.1260420e-09  -1.4871221e-04   8.0708834e-01   7.9780250e-01  -4.6527659e+05
   2.1287096e-09  -1.4747622e-04   8.0705057e-01   7.9784189e-01  -4.6140977e+05
   2.1313771e-09  -1.4625050e-04   8.0701311e-01   7.9788096e-01  -4.5757508e+05
   2.1340447e-09  -1.4503497e-04   8.0697596e-01   7.9791970e-01  -4.5377225e+05
   2.1367122e-09  -1.4382954e-04   8.0693913e-01   7.9795812e-01  -4.5000103e+05
   2.1393798e-09  -1.4263413e-04   8.0690260e-01   7.9799623e-01  -4.4626114e+05
   2.1420473e-09  -1.4144866e-04   8.0686637e-01   7.9803402e-01  -4.4255234e+05
   2.1447149e-09  -1.4027303e-04   8.0683045e-01   7.9807149e-01  -4.3887435e+05
   2.1473825e-09  -1.3910718e-04   8.0679483e-01   7.9810866e-01  -4.3522693e+05
   2.1500500e-09  -1.3795102e-04   8.0675950e-01   7.9814552e-01  -4.3160981e+05
   2.1527176e-09  -1.3680446e-04   8.0672447e-01   7.9818207e-01  -4.2802276e+05
   2.1553851e-09  -1.3566743e-04   8.0668973e-01   7.9821832e-01  -4.2446551e+05
   2.1580527e-09  -1.3453986e-04   8.0665528e-01   7.9825427e-01  -4.2093783e+05
   2.1607202e-09  -1.3342165e-04   8.0662112e-01   7.9828992e-01  -4.1743946e+05
   2.1633878e-09  -1.3231274e-04   8.0658725e-01   7.9832528e-01  -4.1397016e+05
   2.1660554e-09  -1.3121304e-04   8.0655365e-01   7.9836035e-01  -4.1052969e+05
   2.1687229e-09  -1.3012249e-04   8.0652034e-01   7.9839512e-01  -4.0711782e+05
   2.1713905e-09  -1.2904099e-04   8.0648730e-01   7.9842961e-01  -4.0373429e+05
   2.1740580e-09  -1.2796849e-04   8.0645454e-01   7.9846381e-01  -4.0037888e+05
   2.1767256e-09  -1.2690490e-04   8.0642206e-01   7.9849773e-01  -3.9705136e+05
   2.1793931e-09  -1.2585015e-04   8.0638984e-01   7.9853137e-01  -3.9375149e+05
   2.1820607e-09  -1.2480416e-04   8.0635789e-01   7.9856473e-01  -3.9047904e+05
   2.1847282e-09  -1.2376687e-04   8.0632621e-01   7.9859781e-01  -3.8723379e+05
   2.1873958e-09  -1.2273820e-04   8.0629480e-01   7.9863062e-01  -3.8401550e+05
   2.1900634e-09  -1.2171807e-04   8.0626364e-01   7.9866316e-01  -3.8082396e+05
   2.1927309e-09  -1.2070643e-04   8.0623275e-01   7.9869543e-01  -3.7765894e+05
   2.1953985e-09  -1.1970319e-04   8.0620211e-01   7.9872743e-01  -3.7452023e+05
   2.1980660e-09  -1.1870829e-04   8.0617173e-01   7.9875917e-01  -3.7140759e+05
   2.2007336e-09  -1.1772166e-04   8.0614160e-01   7.9879064e-01  -3.6832083e+05
   2.2034011e-09  -1.1674323e-04   8.0611173e-01   7.9882186e-01  -3.6525971e+05
   2.2060687e-09  -1.1577293e-04   8.0608210e-01   7.9885281e-01  -3.6222404e+05
   2.2087362e-09  -1.1481070e-04   8.0605272e-01   7.9888351e-01  -3.5921359e+05
   2.2114038e-09  -1.1385646e-04   8.0602358e-01   7.9891395e-01  -3.5622816e+05
   2.2140714e-09  -1.1291016e-04   8.0599469e-01   7.9894415e-01  -3.5326754e+05
   2.2167389e-09  -1.1197171e-04   8.0596604e-01   7.9897409e-01  -3.5033152e+05
   2.2194065e-09  -1.1104107e-04   8.0593763e-01   7.9900378e-01  -3.4741990e+05
   2.2220740e-09  -1.1011816e-04   8.0590945e-01   7.9903323e-01  -3.4453248e+05
   2.2247416e-09  -1.0920293e-04   8.0588151e-01   7.9906243e-01  -3.4166906e+05
   2.2274091e-09  -1.0829530e-04   8.0585380e-01   7.9909140e-01  -3.3882943e+05
   2.2300767e-09  -1.0739521e-04   8.0582632e-01   7.9912012e-01  -3.3601339e+05
   2.2327442e-09  -1.0650260e-04   8.0579908e-01   7.9914860e-01  -3.3322076e+05
   2.2354118e-09  -1.0561741e-04   8.0577206e-01   7.9917685e-01  -3.3045134e+05
   2.2380794e-09  -1.0473958e-04   8.0574526e-01   7.9920487e-01  -3.2770494e+05
   2.2407469e-09  -1.0386905e-04   8.0571869e-01   7.9923265e-01  -3.2498135e+05
   2.2434145e-09  -1.0300575e-04   8.0569234e-01   7.9926020e-01  -3.2228041e+05
   2.2460820e-09  -1.0214962e-04   8.0566621e-01   7.9928752e-01  -3.1960190e+05
   2.2487496e-09  -1.0130061e-04   8.0564029e-01   7.9931462e-01  -3.1694566e+05
   2.2514171e-09  -1.0045866e-04   8.0561460e-01   7.9934150e-01  -3.1431149e+05
   2.2540847e-09  -9.9623699e-05   8.0558911e-01   7.9936815e-01  -3.1169921e+05
   2.2567523e-09  -9.8795683e-05   8.0556384e-01   7.9939458e-01  -3.0910865e+05
   2.2594198e-09  -9.7974547e-05   8.0553878e-01   7.9942079e-01  -3.0653961e+05
   2.2620874e-09  -9.7160237e-05   8.0551393e-01   7.9944678e-01  -3.0399192e+05
   2.2647549e-09  -9.6352694e-05   8.0548929e-01   7.9947256e-01  -3.0146540e+05
   2.2674225e-09  -9.5551863e-05   8.0546485e-01   7.9949812e-01  -2.9895988e+05
   2.2700900e-09  -9.4757687e-05   8.0544061e-01   7.9952348e-01  -2.9647518e+05
   2.2727576e-09  -9.3970112e-05   8.0541658e-01   7.9954862e-01  -2.9401114e+05
   2.2754251e-09  -9.3189083e-05   8.0539275e-01   7.9957355e-01  -2.9156756e+05
   2.2780927e-09  -9.2414545e-05   8.0536912e-01   7.9959828e-01  -2.8914430e+05
   2.2807603e-09  -9.1646444e-05   8.0534568e-01   7.9962280e-01  -2.8674118e+05
   2.2834278e-09  -9.0884727e-05   8.0532244e-01   7.9964712e-01  -2.8435802e+05
   2.2860954e-09  -9.0129341e-05   8.0529939e-01   7.9967124e-01  -2.8199467e+05
   2.2887629e-09  -8.9380233e-05   8.0527653e-01   7.9969516e-01  -2.7965097e+05
   2.2914305e-09  -8.8637351e-05   8.0525387e-01   7.9971888e-01  -2.7732674e+05
   2.2940980e-09  -8.7900644e-05   8.0523139e-01   7.9974240e-01  -2.7502182e+05
   2.2967656e-09  -8.7170059e-05   8.0520910e-01   7.9976573e-01  -2.7273607e+05
   2.2994331e-09  -8.6445546e-05   8.0518700e-01   7.9978886e-01  -2.7046930e+05
   2.3021007e-09  -8.5727055e-05   8.0516508e-01   7.9981181e-01  -2.6822138e+05
   2.3047683e-09  -8.5014535e-05   8.0514334e-01   7.9983456e-01  -2.6599214e+05
   2.3074358e-09  -8.4307938e-05   8.0512178e-01   7.9985713e-01  -2.6378142e+05
   2.3101034e-09  -8.3607212e-05   8.0510041e-01   7.9987950e-01  -2.6158908e+05
   2.3127709e-09  -8.2912311e-05   8.0507921e-01   7.9990169e-01  -2.5941495e+05
   2.3154385e-09  -8.2223185e-05   8.0505819e-01   7.9992370e-01  -2.5725890e+05
   2.3181060e-09  -8.1539787e-05   8.0503734e-01   7.9994553e-01  -2.5512076e+05
   2.3207736e-09  -8.0862069e-05   8.0501667e-01   7.9996717e-01  -2.5300039e+05
   2.3234411e-09  -8.0189983e-05   8.0499617e-01   7.9998864e-01  -2.5089765e+05
   2.3261087e-09  -7.9523483e-05   8.0497584e-01   8.0000992e-01  -2.4881238e+05
   2.3287763e-09  -7.8862523e-05   8.0495568e-01   8.0003104e-01  -2.4674444e+05
   2.3314438e-09  -7.8207056e-05   8.0493569e-01   8.0005197e-01  -2.4469368e+05
   2.3341114e-09  -7.7557037e-05   8.0491586e-01   8.0007273e-01  -2.4265997e+05
   2.3367789e-09  -7.6912420e-05   8.0489620e-01   8.0009332e-01  -2.4064316e+05
   2.3394465e-09  -7.6273161e-05   8.0487670e-01   8.0011374e-01  -2.3864311e+05
   2.3421140e-09  -7.5639215e-05   8.0485737e-01   8.0013399e-01  -2.3665969e+05
   2.3447816e-09  -7.5010538e-05   8.0483819e-01   8.0015407e-01  -2.3469275e+05
   2.3474491e-09  -7.4387086e-05   8.0481918e-01   8.0017399e-01  -2.3274215e+05
   2.3501167e-09  -7.3768815e-05   8.0480032e-01   8.0019374e-01  -2.3080777e+05
   2.3527843e-09  -7.3155683e-05   8.0478163e-01   8.0021333e-01  -2.2888946e+05
   2.3554518e-09  -7.2547648e-05   8.0476308e-01   8.0023275e-01  -2.2698709e+05
   2.3581194e-09  -7.1944665e-05   8.0474470e-01   8.0025201e-01  -2.2510054e+05
   2.3607869e-09  -7.1346695e-05   8.0472646e-01   8.0027112e-01  -2.2322966e+05
   2.3634545e-09  -7.0753694e-05   8.0470838e-01   8.0029006e-01  -2.2137433e+05
   2.3661220e-09  -7.0165622e-05   8.0469044e-01   8.0030885e-01  -2.1953443e+05
   2.3687896e-09  -6.9582437e-05   8.0467266e-01   8.0032748e-01  -2.1770981e+05
   2.3714572e-09  -6.9004100e-05   8.0465503e-01   8.0034596e-01  -2.1590035e+05
   2.3741247e-09  -6.8430569e-05   8.0463754e-01   8.0036428e-01  -2.1410594e+05
   2.3767923e-09  -6.7861805e-05   8.0462019e-01   8.0038246e-01  -2.1232644e+05
   2.3794598e-09  -6.7297768e-05   8.0460300e-01   8.0040048e-01  -2.1056172e+05
   2.3821274e-09  -6.6738419e-05   8.0458594e-01   8.0041835e-01  -2.0881168e+05
   2.3847949e-09  -6.6183719e-05   8.0456903e-01   8.0043607e-01  -2.0707618e+05
   2.3874625e-09  -6.5633629e-05   8.0455226e-01   8.0045365e-01  -2.0535510e+05
   2.3901300e-09  -6.5088112e-05   8.0453562e-01   8.0047108e-01  -2.0364832e+05
   2.3927976e-09  -6.4547128e-05   8.0451913e-01   8.0048837e-01  -2.0195573e+05
   2.3954652e-09  -6.4010641e-05   8.0450277e-01   8.0050551e-01  -2.0027721e+05
   2.3981327e-09  -6.3478612e-05   8.0448655e-01   8.0052251e-01  -1.9861264e+05
   2.4008003e-09  -6.2951006e-05   8.0447047e-01   8.0053937e-01  -1.9696190e+05
   2.4034678e-09  -6.2427784e-05   8.0445451e-01   8.0055609e-01  -1.9532488e+05
   2.4061354e-09  -6.1908911e-05   8.0443870e-01   8.0057267e-01  -1.9370147e+05
   2.4088029e-09  -6.1394351e-05   8.0442301e-01   8.0058912e-01  -1.9209154e+05
   2.4114705e-09  -6.0884068e-05   8.0440745e-01   8.0060542e-01  -1.9049500e+05
   2.4141380e-09  -6.0378025e-05   8.0439203e-01   8.0062160e-01  -1.8891173e+05
   2.4168056e-09  -5.9876189e-05   8.0437673e-01   8.0063763e-01  -1.8734161e+05
   2.4194732e-09  -5.9378523e-05   8.0436156e-01   8.0065354e-01  -1.8578455e+05
   2.4221407e-09  -5.8884994e-05   8.0434651e-01   8.0066931e-01  -1.8424042e+05
   2.4248083e-09  -5.8395567e-05   8.0433159e-01   8.0068495e-01  -1.8270913e+05
   2.4274758e-09  -5.7910207e-05   8.0431680e-01   8.0070047e-01  -1.8119057e+05
   2.4301434e-09  -5.7428882e-05   8.0430212e-01   8.0071585e-01  -1.7968462e+05
   2.4328109e-09  -5.6951557e-05   8.0428757e-01   8.0073111e-01  -1.7819119e+05
   2.4354785e-09  -5.6478199e-05   8.0427315e-01   8.0074624e-01  -1.7671018e+05
   2.4381460e-09  -5.6008775e-05   8.0425884e-01   8.0076124e-01  -1.7524147e+05
   2.4408136e-09  -5.5543253e-05   8.0424465e-01   8.0077612e-01  -1.7378497e+05
   2.4434812e-09  -5.5081600e-05   8.0423058e-01   8.0079087e-01  -1.7234057e+05
   2.4461487e-09  -5.4623785e-05   8.0421662e-01   8.0080551e-01  -1.7090818e+05
   2.4488163e-09  -5.4169774e-05   8.0420278e-01   8.0082002e-01  -1.6948769e+05
   2.4514838e-09  -5.3719537e-05   8.0418906e-01   8.0083441e-01  -1.6807901e+05
   2.4541514e-09  -5.3273041e-05   8.0417545e-01   8.0084868e-01  -1.6668204e+05
   2.4568189e-09  -5.2830257e-05   8.0416196e-01   8.0086284e-01  -1.6529667e+05
   2.4594865e-09  -5.2391153e-05   8.0414857e-01   8.0087687e-01  -1.6392282e+05
   2.4621541e-09  -5.1955699e-05   8.0413530e-01   8.0089079e-01  -1.6256039e+05
   2.4648216e-09  -5.1523864e-05   8.0412214e-01   8.0090460e-01  -1.6120929e+05
   2.4674892e-09  -5.1095618e-05   8.0410909e-01   8.0091829e-01  -1.5986941e+05
   2.4701567e-09  -5.0670931e-05   8.0409615e-01   8.0093186e-01  -1.5854066e+05
   2.4728243e-09  -5.0249774e-05   8.0408331e-01   8.0094533e-01  -1.5722296e+05
   2.4754918e-09  -4.9832118e-05   8.0407058e-01   8.0095868e-01  -1.5591622e+05
   2.4781594e-09  -4.9417933e-05   8.0405796e-01   8.0097192e-01  -1.5462033e+05
   2.4808269e-09  -4.9007190e-05   8.0404544e-01   8.0098505e-01  -1.5333521e+05
   2.4834945e-09  -4.8599861e-05   8.0403303e-01   8.0099807e-01  -1.5206077e+05
   2.4861621e-09  -4.8195918e-05   8.0402072e-01   8.0101099e-01  -1.5079693e+05
   2.4888296e-09  -4.7795332e-05   8.0400851e-01   8.0102380e-01  -1.4954359e+05
   2.4914972e-09  -4.7398076e-05   8.0399640e-01   8.0103650e-01  -1.4830066e+05
   2.4941647e-09  -4.7004121e-05   8.0398440e-01   8.0104909e-01  -1.4706807e+05
   2.4968323e-09  -4.6613440e-05   8.0397249e-01   8.0106158e-01  -1.4584572e+05
   2.4994998e-09  -4.6226007e-05   8.0396069e-01   8.0107397e-01  -1.4463353e+05
   2.5021674e-09  -4.5841794e-05   8.0394898e-01   8.0108625e-01  -1.4343142e+05
   2.5048349e-09  -4.5460774e-05   8.0393737e-01   8.0109844e-01  -1.4223929e+05
   2.5075025e-09  -4.5082921e-05   8.0392586e-01   8.0111052e-01  -1.4105707e+05
   2.5101701e-09  -4.4708209e-05   8.0391444e-01   8.0112250e-01  -1.3988468e+05
   2.5128376e-09  -4.4336611e-05   8.0390311e-01   8.0113438e-01  -1.3872204e+05
   2.5155052e-09  -4.3968102e-05   8.0389189e-01   8.0114616e-01  -1.3756905e+05
   2.5181727e-09  -4.3602655e-05   8.0388075e-01   8.0115785e-01  -1.3642565e+05
   2.5208403e-09  -4.3240246e-05   8.0386971e-01   8.0116944e-01  -1.3529175e+05
   2.5235078e-09  -4.2880849e-05   8.0385876e-01   8.0118093e-01  -1.3416728e+05
   2.5261754e-09  -4.2524439e-05   8.0384790e-01   8.0119232e-01  -1.3305215e+05
   2.5288429e-09  -4.2170991e-05   8.0383713e-01   8.0120363e-01  -1.3194629e+05
   2.5315105e-09  -4.1820481e-05   8.0382645e-01   8.0121484e-01  -1.3084962e+05
   2.5341781e-09  -4.1472885e-05   8.0381586e-01   8.0122595e-01  -1.2976206e+05
   2.5368456e-09  -4.1128177e-05   8.0380535e-01   8.0123697e-01  -1.2868355e+05
   2.5395132e-09  -4.0786335e-05   8.0379494e-01   8.0124790e-01  -1.2761399e+05
   2.5421807e-09  -4.0447333e-05   8.0378461e-01   8.0125874e-01  -1.2655333e+05
   2.5448483e-09  -4.0111149e-05   8.0377437e-01   8.0126950e-01  -1.2550148e+05
   2.5475158e-09  -3.9777760e-05   8.0376421e-01   8.0128016e-01  -1.2445838e+05
   2.5501834e-09  -3.9447141e-05   8.0375414e-01   8.0129073e-01  -1.2342394e+05
   2.5528510e-09  -3.9119271e-05   8.0374415e-01   8.0130121e-01  -1.2239810e+05
   2.5555185e-09  -3.8794125e-05   8.0373424e-01   8.0131161e-01  -1.2138079e+05
   2.5581861e-09  -3.8471682e-05   8.0372442e-01   8.0132192e-01  -1.2037193e+05
   2.5608536e-09  -3.8151919e-05   8.0371468e-01   8.0133215e-01  -1.1937146e+05
   2.5635212e-09  -3.7834814e-05   8.0370502e-01   8.0134229e-01  -1.1837930e+05
   2.5661887e-09  -3.7520344e-05   8.0369544e-01   8.0135235e-01  -1.1739539e+05
   2.5688563e-09  -3.7208488e-05   8.0368594e-01   8.0136232e-01  -1.1641966e+05
   2.5715238e-09  -3.6899224e-05   8.0367651e-01   8.0137221e-01  -1.1545203e+05
   2.5741914e-09  -3.6592530e-05   8.0366717e-01   8.0138202e-01  -1.1449245e+05
   2.5768590e-09  -3.6288386e-05   8.0365791e-01   8.0139175e-01  -1.1354084e+05
   2.5795265e-09  -3.5986769e-05   8.0364872e-01   8.0140140e-01  -1.1259715e+05
   2.5821941e-09  -3.5687660e-05   8.0363961e-01   8.0141096e-01  -1.1166129e+05
   2.5848616e-09  -3.5391036e-05   8.0363057e-01   8.0142045e-01  -1.1073322e+05
   2.5875292e-09  -3.5096878e-05   8.0362161e-01   8.0142986e-01  -1.0981285e+05
   2.5901967e-09  -3.4805164e-05   8.0361272e-01   8.0143919e-01  -1.0890014e+05
   2.5928643e-09  -3.4515876e-05   8.0360391e-01   8.0144844e-01  -1.0799501e+05
   2.5955318e-09  -3.4228991e-05   8.0359517e-01   8.0145762e-01  -1.0709741e+05
   2.5981994e-09  -3.3944492e-05   8.0358650e-01   8.0146672e-01  -1.0620727e+05
   2.6008670e-09  -3.3662356e-05   8.0357791e-01   8.0147574e-01  -1.0532452e+05
   2.6035345e-09  -3.3382566e-05   8.0356939e-01   8.0148469e-01  -1.0444911e+05
   2.6062021e-09  -3.3105101e-05   8.0356093e-01   8.0149356e-01  -1.0358098e+05
   2.6088696e-09  -3.2829943e-05   8.0355255e-01   8.0150236e-01  -1.0272006e+05
   2.6115372e-09  -3.2557071e-05   8.0354424e-01   8.0151109e-01  -1.0186630e+05
   2.6142047e-09  -3.2286468e-05   8.0353600e-01   8.0151975e-01  -1.0101963e+05
   2.6168723e-09  -3.2018113e-05   8.0352782e-01   8.0152833e-01  -1.0018000e+05
   2.6195398e-09  -3.1751989e-05   8.0351972e-01   8.0153684e-01  -9.9347349e+04
   2.6222074e-09  -3.1488077e-05   8.0351168e-01   8.0154529e-01  -9.8521618e+04
   2.6248750e-09  -3.1226359e-05   8.0350371e-01   8.0155366e-01  -9.7702750e+04
   2.6275425e-09  -3.0966815e-05   8.0349580e-01   8.0156196e-01  -9.6890688e+04
   2.6302101e-09  -3.0709429e-05   8.0348796e-01   8.0157019e-01  -9.6085375e+04
   2.6328776e-09  -3.0454182e-05   8.0348019e-01   8.0157836e-01  -9.5286756e+04
   2.6355452e-09  -3.0201057e-05   8.0347248e-01   8.0158646e-01  -9.4494774e+04
   2.6382127e-09  -2.9950036e-05   8.0346483e-01   8.0159449e-01  -9.3709374e+04
   2.6408803e-09  -2.9701101e-05   8.0345725e-01   8.0160245e-01  -9.2930503e+04
   2.6435478e-09  -2.9454235e-05   8.0344973e-01   8.0161035e-01  -9.2158105e+04
   2.6462154e-09  -2.9209421e-05   8.0344227e-01   8.0161818e-01  -9.1392126e+04
   2.6488830e-09  -2.8966641e-05   8.0343488e-01   8.0162594e-01  -9.0632514e+04
   2.6515505e-09  -2.8725880e-05   8.0342755e-01   8.0163365e-01  -8.9879215e+04
   2.6542181e-09  -2.8487119e-05   8.0342028e-01   8.0164128e-01  -8.9132178e+04
   2.6568856e-09  -2.8250343e-05   8.0341306e-01   8.0164886e-01  -8.8391349e+04
   2.6595532e-09  -2.8015536e-05   8.0340591e-01   8.0165637e-01  -8.7656677e+04
   2.6622207e-09  -2.7782679e-05   8.0339882e-01   8.0166382e-01  -8.6928112e+04
   2.6648883e-09  -2.7551758e-05   8.0339179e-01   8.0167121e-01  -8.6205602e+04
   2.6675559e-09  -2.7322757e-05   8.0338481e-01   8.0167853e-01  -8.5489097e+04
   2.6702234e-09  -2.7095659e-05   8.0337790e-01   8.0168580e-01  -8.4778547e+04
   2.6728910e-09  -2.6870448e-05   8.0337104e-01   8.0169300e-01  -8.4073903e+04
   2.6755585e-09  -2.6647109e-05   8.0336424e-01   8.0170015e-01  -8.3375116e+04
   2.6782261e-09  -2.6425627e-05   8.0335749e-01   8.0170723e-01  -8.2682136e+04
   2.6808936e-09  -2.6205985e-05   8.0335080e-01   8.0171426e-01  -8.1994916e+04
   2.6835612e-09  -2.5988169e-05   8.0334417e-01   8.0172123e-01  -8.1313408e+04
   2.6862287e-09  -2.5772163e-05   8.0333759e-01   8.0172814e-01  -8.0637564e+04
   2.6888963e-09  -2.5557953e-05   8.0333107e-01   8.0173499e-01  -7.9967338e+04
   2.6915639e-09  -2.5345523e-05   8.0332460e-01   8.0174179e-01  -7.9302682e+04
   2.6942314e-09  -2.5134859e-05   8.0331818e-01   8.0174853e-01  -7.8643550e+04
   2.6968990e-09  -2.4925946e-05   8.0331182e-01   8.0175521e-01  -7.7989896e+04
   2.6995665e-09  -2.4718769e-05   8.0330551e-01   8.0176184e-01  -7.7341675e+04
   2.7022341e-09  -2.4513314e-05   8.0329925e-01   8.0176841e-01  -7.6698842e+04
   2.7049016e-09  -2.4309567e-05   8.0329305e-01   8.0177493e-01  -7.6061352e+04
   2.7075692e-09  -2.4107513e-05   8.0328689e-01   8.0178140e-01  -7.5429160e+04
   2.7102367e-09  -2.3907139e-05   8.0328079e-01   8.0178781e-01  -7.4802223e+04
   2.7129043e-09  -2.3708430e-05   8.0327474e-01   8.0179417e-01  -7.4180497e+04
   2.7155719e-09  -2.3511372e-05   8.0326874e-01   8.0180047e-01  -7.3563937e+04
   2.7182394e-09  -2.3315953e-05   8.0326279e-01   8.0180672e-01  -7.2952503e+04
   2.7209070e-09  -2.3122158e-05   8.0325689e-01   8.0181292e-01  -7.2346150e+04
   2.7235745e-09  -2.2929973e-05   8.0325103e-01   8.0181907e-01  -7.1744837e+04
   2.7262421e-09  -2.2739386e-05   8.0324523e-01   8.0182517e-01  -7.1148522e+04
   2.7289096e-09  -2.2550383e-05   8.0323948e-01   8.0183122e-01  -7.0557163e+04
   2.7315772e-09  -2.2362951e-05   8.0323377e-01   8.0183722e-01  -6.9970719e+04
   2.7342447e-09  -2.2177077e-05   8.0322811e-01   8.0184316e-01  -6.9389149e+04
   2.7369123e-09  -2.1992748e-05   8.0322249e-01   8.0184906e-01  -6.8812413e+04
   2.7395799e-09  -2.1809950e-05   8.0321693e-01   8.0185491e-01  -6.8240471e+04
   2.7422474e-09  -2.1628672e-05   8.0321141e-01   8.0186071e-01  -6.7673282e+04
   2.7449150e-09  -2.1448901e-05   8.0320593e-01   8.0186646e-01  -6.7110807e+04
   2.7475825e-09  -2.1270624e-05   8.0320051e-01   8.0187217e-01  -6.6553008e+04
   2.7502501e-09  -2.1093829e-05   8.0319512e-01   8.0187782e-01  -6.5999844e+04
   2.7529176e-09  -2.0918503e-05   8.0318978e-01   8.0188343e-01  -6.5451278e+04
   2.7555852e-09  -2.0744635e-05   8.0318449e-01   8.0188900e-01  -6.4907272e+04
   2.7582528e-09  -2.0572211e-05   8.0317924e-01   8.0189451e-01  -6.4367787e+04
   2.7609203e-09  -2.0401221e-05   8.0317403e-01   8.0189999e-01  -6.3832786e+04
   2.7635879e-09  -2.0231652e-05   8.0316887e-01   8.0190541e-01  -6.3302231e+04
   2.7662554e-09  -2.0063492e-05   8.0316375e-01   8.0191079e-01  -6.2776087e+04
   2.7689230e-09  -1.9896731e-05   8.0315867e-01   8.0191613e-01  -6.2254315e+04
   2.7715905e-09  -1.9731355e-05   8.0315363e-01   8.0192142e-01  -6.1736880e+04
   2.7742581e-09  -1.9567353e-05   8.0314864e-01   8.0192667e-01  -6.1223746e+04
   2.7769256e-09  -1.9404715e-05   8.0314369e-01   8.0193187e-01  -6.0714877e+04
   2.7795932e-09  -1.9243429e-05   8.0313878e-01   8.0193703e-01  -6.0210237e+04
   2.7822608e-09  -1.9083483e-05   8.0313391e-01   8.0194215e-01  -5.9709791e+04
   2.7849283e-09  -1.8924866e-05   8.0312908e-01   8.0194723e-01  -5.9213505e+04
   2.7875959e-09  -1.8767568e-05   8.0312429e-01   8.0195226e-01  -5.8721344e+04
   2.7902634e-09  -1.8611577e-05   8.0311954e-01   8.0195725e-01  -5.8233273e+04
   2.7929310e-09  -1.8456883e-05   8.0311483e-01   8.0196220e-01  -5.7749259e+04
   2.7955985e-09  -1.8303475e-05   8.0311016e-01   8.0196711e-01  -5.7269268e+04
   2.7982661e-09  -1.8151341e-05   8.0310553e-01   8.0197198e-01  -5.6793267e+04
   2.8009336e-09  -1.8000473e-05   8.0310093e-01   8.0197681e-01  -5.6321221e+04
   2.8036012e-09  -1.7850858e-05   8.0309638e-01   8.0198160e-01  -5.5853099e+04
   2.8062688e-09  -1.7702486e-05   8.0309186e-01   8.0198634e-01  -5.5388868e+04
   2.8089363e-09  -1.7555348e-05   8.0308738e-01   8.0199105e-01  -5.4928495e+04
   2.8116039e-09  -1.7409433e-05   8.0308294e-01   8.0199572e-01  -5.4471949e+04
   2.8142714e-09  -1.7264731e-05   8.0307853e-01   8.0200035e-01  -5.4019198e+04
   2.8169390e-09  -1.7121231e-05   8.0307416e-01   8.0200495e-01  -5.3570209e+04
   2.8196065e-09  -1.6978924e-05   8.0306983e-01   8.0200950e-01  -5.3124952e+04
   2.8222741e-09  -1.6837800e-05   8.0306553e-01   8.0201402e-01  -5.2683396e+04
   2.8249416e-09  -1.6697849e-05   8.0306127e-01   8.0201849e-01  -5.2245510e+04
   2.8276092e-09  -1.6559061e-05   8.0305705e-01   8.0202294e-01  -5.1811264e+04
   2.8302768e-09  -1.6421427e-05   8.0305285e-01   8.0202734e-01  -5.1380626e+04
   2.8329443e-09  -1.6284936e-05   8.0304870e-01   8.0203171e-01  -5.0953568e+04
   2.8356119e-09  -1.6149580e-05   8.0304458e-01   8.0203604e-01  -5.0530060e+04
   2.8382794e-09  -1.6015349e-05   8.0304049e-01   8.0204034e-01  -5.0110071e+04
   2.8409470e-09  -1.5882234e-05   8.0303644e-01   8.0204460e-01  -4.9693574e+04
   2.8436145e-09  -1.5750225e-05   8.0303242e-01   8.0204882e-01  -4.9280538e+04
   2.8462821e-09  -1.5619314e-05   8.0302843e-01   8.0205301e-01  -4.8870935e+04
   2.8489496e-09  -1.5489490e-05   8.0302448e-01   8.0205717e-01  -4.8464736e+04
   2.8516172e-09  -1.5360746e-05   8.0302056e-01   8.0206129e-01  -4.8061914e+04
   2.8542848e-09  -1.5233072e-05   8.0301667e-01   8.0206537e-01  -4.7662439e+04
   2.8569523e-09  -1.5106458e-05   8.0301282e-01   8.0206942e-01  -4.7266285e+04
   2.8596199e-09  -1.4980898e-05   8.0300900e-01   8.0207344e-01  -4.6873424e+04
   2.8622874e-09  -1.4856380e-05   8.0300521e-01   8.0207743e-01  -4.6483828e+04
   2.8649550e-09  -1.4732898e-05   8.0300145e-01   8.0208138e-01  -4.6097470e+04
   2.8676225e-09  -1.4610442e-05   8.0299772e-01   8.0208530e-01  -4.5714323e+04
   2.8702901e-09  -1.4489004e-05   8.0299402e-01   8.0208918e-01  -4.5334361e+04
   2.8729577e-09  -1.4368575e-05   8.0299035e-01   8.0209304e-01  -4.4957557e+04
   2.8756252e-09  -1.4249148e-05   8.0298672e-01   8.0209686e-01  -4.4583885e+04
   2.8782928e-09  -1.4130713e-05   8.0298311e-01   8.0210065e-01  -4.4213318e+04
   2.8809603e-09  -1.4013262e-05   8.0297954e-01   8.0210441e-01  -4.3845832e+04
   2.8836279e-09  -1.3896787e-05   8.0297599e-01   8.0210814e-01  -4.3481400e+04
   2.8862954e-09  -1.3781281e-05   8.0297247e-01   8.0211183e-01  -4.3119997e+04
   2.8889630e-09  -1.3666735e-05   8.0296899e-01   8.0211550e-01  -4.2761597e+04
   2.8916305e-09  -1.3553140e-05   8.0296553e-01   8.0211914e-01  -4.2406177e+04
   2.8942981e-09  -1.3440490e-05   8.0296210e-01   8.0212274e-01  -4.2053711e+04
   2.8969657e-09  -1.3328776e-05   8.0295870e-01   8.0212632e-01  -4.1704174e+04
   2.8996332e-09  -1.3217991e-05   8.0295533e-01   8.0212986e-01  -4.1357543e+04
   2.9023008e-09  -1.3108127e-05   8.0295198e-01   8.0213338e-01  -4.1013792e+04
   2.9049683e-09  -1.2999175e-05   8.0294866e-01   8.0213687e-01  -4.0672899e+04
   2.9076359e-09  -1.2891129e-05   8.0294538e-01   8.0214032e-01  -4.0334839e+04
   2.9103034e-09  -1.2783982e-05   8.0294211e-01   8.0214375e-01  -3.9999589e+04
   2.9129710e-09  -1.2677725e-05   8.0293888e-01   8.0214715e-01  -3.9667125e+04
   2.9156385e-09  -1.2572351e-05   8.0293567e-01   8.0215053e-01  -3.9337425e+04
   2.9183061e-09  -1.2467853e-05   8.0293249e-01   8.0215387e-01  -3.9010465e+04
   2.9209737e-09  -1.2364223e-05   8.0292933e-01   8.0215719e-01  -3.8686222e+04
   2.9236412e-09  -1.2261455e-05   8.0292621e-01   8.0216048e-01  -3.8364675e+04
   2.9263088e-09  -1.2159541e-05   8.0292310e-01   8.0216374e-01  -3.8045800e+04
   2.9289763e-09  -1.2058474e-05   8.0292003e-01   8.0216697e-01  -3.7729575e+04
   2.9316439e-09  -1.1958247e-05   8.0291698e-01   8.0217018e-01  -3.7415979e+04
   2.9343114e-09  -1.1858853e-05   8.0291395e-01   8.0217336e-01  -3.7104989e+04
   2.9369790e-09  -1.1760285e-05   8.0291095e-01   8.0217652e-01  -3.6796584e+04
   2.9396465e-09  -1.1662537e-05   8.0290797e-01   8.0217965e-01  -3.6490743e+04
   2.9423141e-09  -1.1565601e-05   8.0290502e-01   8.0218275e-01  -3.6187443e+04
   2.9449817e-09  -1.1469470e-05   8.0290210e-01   8.0218583e-01  -3.5886664e+04
   2.9476492e-09  -1.1374139e-05   8.0289919e-01   8.0218888e-01  -3.5588386e+04
   2.9503168e-09  -1.1279600e-05   8.0289632e-01   8.0219190e-01  -3.5292586e+04
   2.9529843e-09  -1.1185847e-05   8.0289346e-01   8.0219491e-01  -3.4999245e+04
   2.9556519e-09  -1.1092873e-05   8.0289063e-01   8.0219788e-01  -3.4708342e+04
   2.9583194e-09  -1.1000672e-05   8.0288783e-01   8.0220083e-01  -3.4419858e+04
   2.9609870e-09  -1.0909237e-05   8.0288504e-01   8.0220376e-01  -3.4133770e+04
   2.9636546e-09  -1.0818562e-05   8.0288228e-01   8.0220666e-01  -3.3850061e+04
   2.9663221e-09  -1.0728641e-05   8.0287954e-01   8.0220954e-01  -3.3568710e+04
   2.9689897e-09  -1.0639467e-05   8.0287683e-01   8.0221239e-01  -3.3289697e+04
   2.9716572e-09  -1.0551035e-05   8.0287414e-01   8.0221522e-01  -3.3013003e+04
   2.9743248e-09  -1.0463337e-05   8.0287147e-01   8.0221803e-01  -3.2738610e+04
   2.9769923e-09  -1.0376369e-05   8.0286882e-01   8.0222081e-01  -3.2466496e+04
   2.9796599e-09  -1.0290123e-05   8.0286619e-01   8.0222358e-01  -3.2196645e+04
   2.9823274e-09  -1.0204594e-05   8.0286359e-01   8.0222631e-01  -3.1929036e+04
   2.9849950e-09  -1.0119776e-05   8.0286101e-01   8.0222903e-01  -3.1663652e+04
   2.9876626e-09  -1.0035663e-05   8.0285845e-01   8.0223172e-01  -3.1400473e+04
   2.9903301e-09  -9.9522490e-06   8.0285591e-01   8.0223439e-01  -3.1139482e+04
   2.9929977e-09  -9.8695284e-06   8.0285339e-01   8.0223704e-01  -3.0880660e+04
   2.9956652e-09  -9.7874953e-06   8.0285089e-01   8.0223966e-01  -3.0623989e+04
   2.9983328e-09  -9.7061441e-06   8.0284842e-01   8.0224227e-01  -3.0369452e+04
   3.0010003e-09  -9.6254690e-06   8.0284596e-01   8.0224485e-01  -3.0117030e+04
   3.0036679e-09  -9.5454645e-06   8.0284353e-01   8.0224741e-01  -2.9866707e+04
   3.0063354e-09  -9.4661249e-06   8.0284111e-01   8.0224995e-01  -2.9618464e+04
   3.0090030e-09  -9.3874449e-06   8.0283872e-01   8.0225247e-01  -2.9372284e+04
   3.0116706e-09  -9.3094187e-06   8.0283634e-01   8.0225497e-01  -2.9128150e+04
   3.0143381e-09  -9.2320411e-06   8.0283399e-01   8.0225744e-01  -2.8886046e+04
   3.0170057e-09  -9.1553067e-06   8.0283165e-01   8.0225990e-01  -2.8645954e+04
   3.0196732e-09  -9.0792100e-06   8.0282933e-01   8.0226234e-01  -2.8407857e+04
   3.0223408e-09  -9.0037458e-06   8.0282704e-01   8.0226475e-01  -2.8171740e+04
   3.0250083e-09  -8.9289089e-06   8.0282476e-01   8.0226715e-01  -2.7937584e+04
   3.0276759e-09  -8.8546940e-06   8.0282250e-01   8.0226952e-01  -2.7705376e+04
   3.0303434e-09  -8.7810959e-06   8.0282026e-01   8.0227188e-01  -2.7475097e+04
   3.0330110e-09  -8.7081096e-06   8.0281804e-01   8.0227421e-01  -2.7246732e+04
   3.0356786e-09  -8.6357299e-06   8.0281583e-01   8.0227653e-01  -2.7020265e+04
   3.0383461e-09  -8.5639518e-06   8.0281365e-01   8.0227883e-01  -2.6795681e+04
   3.0410137e-09  -8.4927703e-06   8.0281148e-01   8.0228111e-01  -2.6572963e+04
   3.0436812e-09  -8.4221805e-06   8.0280933e-01   8.0228337e-01  -2.6352096e+04
   3.0463488e-09  -8.3521774e-06   8.0280720e-01   8.0228561e-01  -2.6133065e+04
   3.0490163e-09  -8.2827561e-06   8.0280509e-01   8.0228783e-01  -2.5915855e+04
   3.0516839e-09  -8.2139118e-06   8.0280299e-01   8.0229003e-01  -2.5700450e+04
   3.0543515e-09  -8.1456398e-06   8.0280092e-01   8.0229222e-01  -2.5486835e+04
   3.0570190e-09  -8.0779352e-06   8.0279886e-01   8.0229439e-01  -2.5274996e+04
   3.0596866e-09  -8.0107933e-06   8.0279681e-01   8.0229654e-01  -2.5064918e+04
   3.0623541e-09  -7.9442095e-06   8.0279479e-01   8.0229867e-01  -2.4856586e+04
   3.0650217e-09  -7.8781792e-06   8.0279278e-01   8.0230078e-01  -2.4649985e+04
   3.0676892e-09  -7.8126976e-06   8.0279078e-01   8.0230288e-01  -2.4445101e+04
   3.0703568e-09  -7.7477603e-06   8.0278881e-01   8.0230496e-01  -2.4241921e+04
   3.0730243e-09  -7.6833628e-06   8.0278685e-01   8.0230702e-01  -2.4040429e+04
   3.0756919e-09  -7.6195005e-06   8.0278490e-01   8.0230906e-01  -2.3840612e+04
   3.0783595e-09  -7.5561691e-06   8.0278297e-01   8.0231109e-01  -2.3642456e+04
   3.0810270e-09  -7.4933640e-06   8.0278106e-01   8.0231310e-01  -2.3445947e+04
   3.0836946e-09  -7.4310809e-06   8.0277917e-01   8.0231509e-01  -2.3251071e+04
   3.0863621e-09  -7.3693155e-06   8.0277729e-01   8.0231707e-01  -2.3057814e+04
   3.0890297e-09  -7.3080635e-06   8.0277542e-01   8.0231903e-01  -2.2866164e+04
   3.0916972e-09  -7.2473206e-06   8.0277357e-01   8.0232098e-01  -2.2676107e+04
   3.0943648e-09  -7.1870826e-06   8.0277174e-01   8.0232290e-01  -2.2487630e+04
   3.0970323e-09  -7.1273453e-06   8.0276992e-01   8.0232482e-01  -2.2300719e+04
   3.0996999e-09  -7.0681045e-06   8.0276812e-01   8.0232671e-01  -2.2115362e+04
   3.1023675e-09  -7.0093560e-06   8.0276633e-01   8.0232859e-01  -2.1931546e+04
   3.1050350e-09  -6.9510959e-06   8.0276456e-01   8.0233046e-01  -2.1749257e+04
   3.1077026e-09  -6.8933200e-06   8.0276280e-01   8.0233231e-01  -2.1568483e+04
   3.1103701e-09  -6.8360244e-06   8.0276105e-01   8.0233414e-01  -2.1389212e+04
   3.1130377e-09  -6.7792049e-06   8.0275932e-01   8.0233596e-01  -2.1211431e+04
   3.1157052e-09  -6.7228578e-06   8.0275761e-01   8.0233776e-01  -2.1035128e+04
   3.1183728e-09  -6.6669790e-06   8.0275591e-01   8.0233955e-01  -2.0860290e+04
   3.1210403e-09  -6.6115646e-06   8.0275422e-01   8.0234133e-01  -2.0686905e+04
   3.1237079e-09  -6.5566108e-06   8.0275255e-01   8.0234309e-01  -2.0514961e+04
   3.1263755e-09  -6.5021138e-06   8.0275089e-01   8.0234483e-01  -2.0344447e+04
   3.1290430e-09  -6.4480697e-06   8.0274925e-01   8.0234656e-01  -2.0175349e+04
   3.1317106e-09  -6.3944748e-06   8.0274761e-01   8.0234828e-01  -2.0007658e+04
   3.1343781e-09  -6.3413255e-06   8.0274600e-01   8.0234998e-01  -1.9841360e+04
   3.1370457e-09  -6.2886178e-06   8.0274439e-01   8.0235167e-01  -1.9676444e+04
   3.1397132e-09  -6.2363483e-06   8.0274280e-01   8.0235334e-01  -1.9512899e+04
   3.1423808e-09  -6.1845132e-06   8.0274122e-01   8.0235500e-01  -1.9350713e+04
   3.1450483e-09  -6.1331089e-06   8.0273966e-01   8.0235664e-01  -1.9189875e+04
   3.1477159e-09  -6.0821320e-06   8.0273811e-01   8.0235828e-01  -1.9030374e+04
   3.1503835e-09  -6.0315787e-06   8.0273657e-01   8.0235989e-01  -1.8872199e+04
   3.1530510e-09  -5.9814456e-06   8.0273504e-01   8.0236150e-01  -1.8715339e+04
   3.1557186e-09  -5.9317292e-06   8.0273353e-01   8.0236309e-01  -1.8559782e+04
   3.1583861e-09  -5.8824260e-06   8.0273203e-01   8.0236467e-01  -1.8405518e+04
   3.1610537e-09  -5.8335326e-06   8.0273054e-01   8.0236623e-01  -1.8252537e+04
   3.1637212e-09  -5.7850456e-06   8.0272906e-01   8.0236779e-01  -1.8100827e+04
   3.1663888e-09  -5.7369616e-06   8.0272760e-01   8.0236933e-01  -1.7950378e+04
   3.1690564e-09  -5.6892773e-06   8.0272615e-01   8.0237085e-01  -1.7801179e+04
   3.1717239e-09  -5.6419893e-06   8.0272471e-01   8.0237237e-01  -1.7653221e+04
   3.1743915e-09  -5.5950944e-06   8.0272328e-01   8.0237387e-01  -1.7506492e+04
   3.1770590e-09  -5.5485892e-06   8.0272187e-01   8.0237536e-01  -1.7360983e+04
   3.1797266e-09  -5.5024706e-06   8.0272046e-01   8.0237683e-01  -1.7216683e+04
   3.1823941e-09  -5.4567353e-06   8.0271907e-01   8.0237830e-01  -1.7073583e+04
   3.1850617e-09  -5.4113802e-06   8.0271769e-01   8.0237975e-01  -1.6931672e+04
   3.1877292e-09  -5.3664020e-06   8.0271632e-01   8.0238119e-01  -1.6790941e+04
   3.1903968e-09  -5.3217977e-06   8.0271497e-01   8.0238262e-01  -1.6651379e+04
   3.1930644e-09  -5.2775641e-06   8.0271362e-01   8.0238403e-01  -1.6512977e+04
   3.1957319e-09  -5.2336982e-06   8.0271228e-01   8.0238544e-01  -1.6375726e+04
   3.1983995e-09  -5.1901969e-06   8.0271096e-01   8.0238683e-01  -1.6239615e+04
   3.2010670e-09  -5.1470571e-06   8.0270965e-01   8.0238821e-01  -1.6104636e+04
   3.2037346e-09  -5.1042759e-06   8.0270834e-01   8.0238958e-01  -1.5970779e+04
   3.2064021e-09  -5.0618503e-06   8.0270705e-01   8.0239094e-01  -1.5838034e+04
   3.2090697e-09  -5.0197773e-06   8.0270577e-01   8.0239229e-01  -1.5706393e+04
   3.2117372e-09  -4.9780541e-06   8.0270450e-01   8.0239362e-01  -1.5575846e+04
   3.2144048e-09  -4.9366776e-06   8.0270324e-01   8.0239495e-01  -1.5446383e+04
   3.2170724e-09  -4.8956450e-06   8.0270199e-01   8.0239626e-01  -1.5317997e+04
   3.2197399e-09  -4.8549535e-06   8.0270076e-01   8.0239756e-01  -1.5190678e+04
   3.2224075e-09  -4.8146002e-06   8.0269953e-01   8.0239885e-01  -1.5064417e+04
   3.2250750e-09  -4.7745823e-06   8.0269831e-01   8.0240013e-01  -1.4939206e+04
   3.2277426e-09  -4.7348971e-06   8.0269710e-01   8.0240141e-01  -1.4815035e+04
   3.2304101e-09  -4.6955416e-06   8.0269590e-01   8.0240267e-01  -1.4691897e+04
   3.2330777e-09  -4.6565133e-06   8.0269472e-01   8.0240391e-01  -1.4569782e+04
   3.2357452e-09  -4.6178094e-06   8.0269354e-01   8.0240515e-01  -1.4448682e+04
   3.2384128e-09  -4.5794272e-06   8.0269237e-01   8.0240638e-01  -1.4328588e+04
   3.2410804e-09  -4.5413640e-06   8.0269121e-01   8.0240760e-01  -1.4209493e+04
   3.2437479e-09  -4.5036172e-06   8.0269006e-01   8.0240881e-01  -1.4091387e+04
   3.2464155e-09  -4.4661841e-06   8.0268892e-01   8.0241001e-01  -1.3974264e+04
   3.2490830e-09  -4.4290622e-06   8.0268779e-01   8.0241120e-01  -1.3858113e+04
   3.2517506e-09  -4.3922488e-06   8.0268667e-01   8.0241238e-01  -1.3742928e+04
   3.2544181e-09  -4.3557413e-06   8.0268556e-01   8.0241354e-01  -1.3628701e+04
   3.2570857e-09  -4.3195374e-06   8.0268446e-01   8.0241470e-01  -1.3515423e+04
   3.2597533e-09  -4.2836343e-06   8.0268337e-01   8.0241585e-01  -1.3403086e+04
   3.2624208e-09  -4.2480297e-06   8.0268228e-01   8.0241699e-01  -1.3291683e+04
   3.2650884e-09  -4.2127210e-06   8.0268121e-01   8.0241812e-01  -1.3181206e+04
   3.2677559e-09  -4.1777058e-06   8.0268014e-01   8.0241924e-01  -1.3071648e+04
   3.2704235e-09  -4.1429816e-06   8.0267909e-01   8.0242036e-01  -1.2963000e+04
   3.2730910e-09  -4.1085460e-06   8.0267804e-01   8.0242146e-01  -1.2855255e+04
   3.2757586e-09  -4.0743967e-06   8.0267700e-01   8.0242255e-01  -1.2748405e+04
   3.2784261e-09  -4.0405312e-06   8.0267597e-01   8.0242364e-01  -1.2642444e+04
   3.2810937e-09  -4.0069471e-06   8.0267495e-01   8.0242471e-01  -1.2537363e+04
   3.2837613e-09  -3.9736422e-06   8.0267393e-01   8.0242578e-01  -1.2433156e+04
   3.2864288e-09  -3.9406142e-06   8.0267293e-01   8.0242683e-01  -1.2329815e+04
   3.2890964e-09  -3.9078606e-06   8.0267193e-01   8.0242788e-01  -1.2227333e+04
   3.2917639e-09  -3.8753793e-06   8.0267094e-01   8.0242892e-01  -1.2125703e+04
   3.2944315e-09  -3.8431680e-06   8.0266996e-01   8.0242995e-01  -1.2024917e+04
   3.2970990e-09  -3.8112244e-06   8.0266899e-01   8.0243098e-01  -1.1924969e+04
   3.2997666e-09  -3.7795463e-06   8.0266803e-01   8.0243199e-01  -1.1825852e+04
   3.3024341e-09  -3.7481316e-06   8.0266707e-01   8.0243300e-01  -1.1727558e+04
   3.3051017e-09  -3.7169779e-06   8.0266612e-01   8.0243399e-01  -1.1630082e+04
   3.3077693e-09  -3.6860831e-06   8.0266518e-01   8.0243498e-01  -1.1533416e+04
   3.3104368e-09  -3.6554452e-06   8.0266425e-01   8.0243596e-01  -1.1437553e+04
   3.3131044e-09  -3.6250619e-06   8.0266332e-01   8.0243694e-01  -1.1342487e+04
   3.3157719e-09  -3.5949312e-06   8.0266241e-01   8.0243790e-01  -1.1248212e+04
   3.3184395e-09  -3.5650509e-06   8.0266150e-01   8.0243886e-01  -1.1154719e+04
   3.3211070e-09  -3.5354189e-06   8.0266060e-01   8.0243981e-01  -1.1062004e+04
   3.3237746e-09  -3.5060333e-06   8.0265970e-01   8.0244075e-01  -1.0970060e+04
   3.3264421e-09  -3.4768918e-06   8.0265881e-01   8.0244168e-01  -1.0878880e+04
   3.3291097e-09  -3.4479926e-06   8.0265793e-01   8.0244261e-01  -1.0788457e+04
   3.3317773e-09  -3.4193337e-06   8.0265706e-01   8.0244352e-01  -1.0698786e+04
   3.3344448e-09  -3.3909129e-06   8.0265620e-01   8.0244443e-01  -1.0609861e+04
   3.3371124e-09  -3.3627283e-06   8.0265534e-01   8.0244534e-01  -1.0521675e+04
   3.3397799e-09  -3.3347780e-06   8.0265449e-01   8.0244623e-01  -1.0434221e+04
   3.3424475e-09  -3.3070600e-06   8.0265365e-01   8.0244712e-01  -1.0347495e+04
   3.3451150e-09  -3.2795724e-06   8.0265281e-01   8.0244800e-01  -1.0261489e+04
   3.3477826e-09  -3.2523133e-06   8.0265198e-01   8.0244887e-01  -1.0176198e+04
   3.3504502e-09  -3.2252808e-06   8.0265116e-01   8.0244974e-01  -1.0091616e+04
   3.3531177e-09  -3.1984729e-06   8.0265034e-01   8.0245059e-01  -1.0007737e+04
   3.3557853e-09  -3.1718878e-06   8.0264953e-01   8.0245144e-01  -9.9245557e+03
   3.3584528e-09  -3.1455238e-06   8.0264873e-01   8.0245229e-01  -9.8420654e+03
   3.3611204e-09  -3.1193788e-06   8.0264793e-01   8.0245313e-01  -9.7602607e+03
   3.3637879e-09  -3.0934512e-06   8.0264714e-01   8.0245396e-01  -9.6791359e+03
   3.3664555e-09  -3.0677391e-06   8.0264636e-01   8.0245478e-01  -9.5986855e+03
   3.3691230e-09  -3.0422406e-06   8.0264559e-01   8.0245560e-01  -9.5189037e+03
   3.3717906e-09  -3.0169542e-06   8.0264482e-01   8.0245641e-01  -9.4397851e+03
   3.3744582e-09  -2.9918779e-06   8.0264405e-01   8.0245721e-01  -9.3613240e+03
   3.3771257e-09  -2.9670100e-06   8.0264330e-01   8.0245800e-01  -9.2835151e+03
   3.3797933e-09  -2.9423488e-06   8.0264255e-01   8.0245879e-01  -9.2063530e+03
   3.3824608e-09  -2.9178926e-06   8.0264180e-01   8.0245958e-01  -9.1298321e+03
   3.3851284e-09  -2.8936397e-06   8.0264106e-01   8.0246035e-01  -9.0539473e+03
   3.3877959e-09  -2.8695883e-06   8.0264033e-01   8.0246112e-01  -8.9786933e+03
   3.3904635e-09  -2.8457369e-06   8.0263960e-01   8.0246189e-01  -8.9040647e+03
   3.3931310e-09  -2.8220837e-06   8.0263888e-01   8.0246264e-01  -8.8300564e+03
   3.3957986e-09  -2.7986271e-06   8.0263817e-01   8.0246340e-01  -8.7566633e+03
   3.3984662e-09  -2.7753655e-06   8.0263746e-01   8.0246414e-01  -8.6838802e+03
   3.4011337e-09  -2.7522972e-06   8.0263676e-01   8.0246488e-01  -8.6117020e+03
   3.4038013e-09  -2.7294207e-06   8.0263606e-01   8.0246561e-01  -8.5401237e+03
   3.4064688e-09  -2.7067343e-06   8.0263537e-01   8.0246634e-01  -8.4691404e+03
   3.4091364e-09  -2.6842364e-06   8.0263469e-01   8.0246706e-01  -8.3987471e+03
   3.4118039e-09  -2.6619256e-06   8.0263401e-01   8.0246777e-01  -8.3289389e+03
   3.4144715e-09  -2.6398002e-06   8.0263334e-01   8.0246848e-01  -8.2597109e+03
   3.4171390e-09  -2.6178587e-06   8.0263267e-01   8.0246918e-01  -8.1910583e+03
   3.4198066e-09  -2.5960996e-06   8.0263201e-01   8.0246988e-01  -8.1229763e+03
   3.4224742e-09  -2.5745213e-06   8.0263135e-01   8.0247057e-01  -8.0554602e+03
   3.4251417e-09  -2.5531224e-06   8.0263070e-01   8.0247126e-01  -7.9885053e+03
   3.4278093e-09  -2.5319014e-06   8.0263005e-01   8.0247193e-01  -7.9221069e+03
   3.4304768e-09  -2.5108567e-06   8.0262941e-01   8.0247261e-01  -7.8562604e+03
   3.4331444e-09  -2.4899870e-06   8.0262878e-01   8.0247328e-01  -7.7909612e+03
   3.4358119e-09  -2.4692907e-06   8.0262815e-01   8.0247394e-01  -7.7262047e+03
   3.4384795e-09  -2.4487664e-06   8.0262752e-01   8.0247460e-01  -7.6619865e+03
   3.4411470e-09  -2.4284127e-06   8.0262690e-01   8.0247525e-01  -7.5983020e+03
   3.4438146e-09  -2.4082283e-06   8.0262629e-01   8.0247589e-01  -7.5351468e+03
   3.4464822e-09  -2.3882115e-06   8.0262568e-01   8.0247654e-01  -7.4725166e+03
   3.4491497e-09  -2.3683612e-06   8.0262508e-01   8.0247717e-01  -7.4104070e+03
   3.4518173e-09  -2.3486758e-06   8.0262448e-01   8.0247780e-01  -7.3488136e+03
   3.4544848e-09  -2.3291541e-06   8.0262388e-01   8.0247843e-01  -7.2877321e+03
   3.4571524e-09  -2.3097946e-06   8.0262329e-01   8.0247905e-01  -7.2271583e+03
   3.4598199e-09  -2.2905961e-06   8.0262271e-01   8.0247966e-01  -7.1670880e+03
   3.4624875e-09  -2.2715571e-06   8.0262213e-01   8.0248027e-01  -7.1075170e+03
   3.4651551e-09  -2.2526763e-06   8.0262156e-01   8.0248087e-01  -7.0484411e+03
   3.4678226e-09  -2.2339525e-06   8.0262099e-01   8.0248147e-01  -6.9898563e+03
   3.4704902e-09  -2.2153843e-06   8.0262042e-01   8.0248207e-01  -6.9317584e+03
   3.4731577e-09  -2.1969705e-06   8.0261986e-01   8.0248266e-01  -6.8741434e+03
   3.4758253e-09  -2.1787097e-06   8.0261930e-01   8.0248324e-01  -6.8170072e+03
   3.4784928e-09  -2.1606007e-06   8.0261875e-01   8.0248382e-01  -6.7603460e+03
   3.4811604e-09  -2.1426422e-06   8.0261821e-01   8.0248440e-01  -6.7041557e+03
   3.4838279e-09  -2.1248329e-06   8.0261766e-01   8.0248497e-01  -6.6484325e+03
   3.4864955e-09  -2.1071717e-06   8.0261713e-01   8.0248553e-01  -6.5931724e+03
   3.4891631e-09  -2.0896573e-06   8.0261659e-01   8.0248609e-01  -6.5383716e+03
   3.4918306e-09  -2.0722885e-06   8.0261607e-01   8.0248665e-01  -6.4840263e+03
   3.4944982e-09  -2.0550640e-06   8.0261554e-01   8.0248720e-01  -6.4301327e+03
   3.4971657e-09  -2.0379827e-06   8.0261502e-01   8.0248775e-01  -6.3766871e+03
   3.4998333e-09  -2.0210434e-06   8.0261451e-01   8.0248829e-01  -6.3236857e+03
   3.5025008e-09  -2.0042448e-06   8.0261399e-01   8.0248883e-01  -6.2711248e+03
   3.5051684e-09  -1.9875859e-06   8.0261349e-01   8.0248936e-01  -6.2190008e+03
   3.5078359e-09  -1.9710655e-06   8.0261299e-01   8.0248989e-01  -6.1673100e+03
   3.5105035e-09  -1.9546824e-06   8.0261249e-01   8.0249042e-01  -6.1160489e+03
   3.5131711e-09  -1.9384354e-06   8.0261199e-01   8.0249094e-01  -6.0652138e+03
   3.5158386e-09  -1.9223235e-06   8.0261150e-01   8.0249145e-01  -6.0148013e+03
   3.5185062e-09  -1.9063455e-06   8.0261102e-01   8.0249196e-01  -5.9648078e+03
   3.5211737e-09  -1.8905003e-06   8.0261053e-01   8.0249247e-01  -5.9152298e+03
   3.5238413e-09  -1.8747868e-06   8.0261005e-01   8.0249297e-01  -5.8660639e+03
   3.5265088e-09  -1.8592039e-06   8.0260958e-01   8.0249347e-01  -5.8173066e+03
   3.5291764e-09  -1.8437506e-06   8.0260911e-01   8.0249397e-01  -5.7689546e+03
   3.5318439e-09  -1.8284257e-06   8.0260864e-01   8.0249446e-01  -5.7210045e+03
   3.5345115e-09  -1.8132281e-06   8.0260818e-01   8.0249494e-01  -5.6734530e+03
   3.5371791e-09  -1.7981569e-06   8.0260772e-01   8.0249543e-01  -5.6262966e+03
   3.5398466e-09  -1.7832110e-06   8.0260727e-01   8.0249591e-01  -5.5795323e+03
   3.5425142e-09  -1.7683892e-06   8.0260682e-01   8.0249638e-01  -5.5331566e+03
   3.5451817e-09  -1.7536907e-06   8.0260637e-01   8.0249685e-01  -5.4871664e+03
   3.5478493e-09  -1.7391143e-06   8.0260593e-01   8.0249732e-01  -5.4415584e+03
   3.5505168e-09  -1.7246591e-06   8.0260549e-01   8.0249778e-01  -5.3963295e+03
   3.5531844e-09  -1.7103241e-06   8.0260505e-01   8.0249824e-01  -5.3514766e+03
   3.5558520e-09  -1.6961082e-06   8.0260462e-01   8.0249869e-01  -5.3069965e+03
   3.5585195e-09  -1.6820104e-06   8.0260419e-01   8.0249915e-01  -5.2628860e+03
   3.5611871e-09  -1.6680299e-06   8.0260376e-01   8.0249959e-01  -5.2191422e+03
   3.5638546e-09  -1.6541655e-06   8.0260334e-01   8.0250004e-01  -5.1757620e+03
   3.5665222e-09  -1.6404164e-06   8.0260292e-01   8.0250048e-01  -5.1327424e+03
   3.5691897e-09  -1.6267815e-06   8.0260251e-01   8.0250091e-01  -5.0900803e+03
   3.5718573e-09  -1.6132600e-06   8.0260210e-01   8.0250135e-01  -5.0477728e+03
   3.5745248e-09  -1.5998509e-06   8.0260169e-01   8.0250178e-01  -5.0058170e+03
   3.5771924e-09  -1.5865532e-06   8.0260128e-01   8.0250220e-01  -4.9642099e+03
   3.5798600e-09  -1.5733661e-06   8.0260088e-01   8.0250262e-01  -4.9229486e+03
   3.5825275e-09  -1.5602885e-06   8.0260048e-01   8.0250304e-01  -4.8820302e+03
   3.5851951e-09  -1.5473197e-06   8.0260009e-01   8.0250346e-01  -4.8414520e+03
   3.5878626e-09  -1.5344586e-06   8.0259970e-01   8.0250387e-01  -4.8012111e+03
   3.5905302e-09  -1.5217045e-06   8.0259931e-01   8.0250428e-01  -4.7613046e+03
   3.5931977e-09  -1.5090563e-06   8.0259892e-01   8.0250468e-01  -4.7217298e+03
   3.5958653e-09  -1.4965133e-06   8.0259854e-01   8.0250508e-01  -4.6824839e+03
   3.5985328e-09  -1.4840746e-06   8.0259816e-01   8.0250548e-01  -4.6435643e+03
   3.6012004e-09  -1.4717392e-06   8.0259779e-01   8.0250588e-01  -4.6049681e+03
   3.6038680e-09  -1.4595063e-06   8.0259742e-01   8.0250627e-01  -4.5666928e+03
   3.6065355e-09  -1.4473752e-06   8.0259705e-01   8.0250666e-01  -4.5287355e+03
   3.6092031e-09  -1.4353448e-06   8.0259668e-01   8.0250704e-01  -4.4910938e+03
   3.6118706e-09  -1.4234145e-06   8.0259632e-01   8.0250742e-01  -4.4537649e+03
   3.6145382e-09  -1.4115833e-06   8.0259596e-01   8.0250780e-01  -4.4167463e+03
   3.6172057e-09  -1.3998505e-06   8.0259560e-01   8.0250818e-01  -4.3800354e+03
   3.6198733e-09  -1.3882152e-06   8.0259525e-01   8.0250855e-01  -4.3436296e+03
   3.6225408e-09  -1.3766766e-06   8.0259490e-01   8.0250892e-01  -4.3075265e+03
   3.6252084e-09  -1.3652339e-06   8.0259455e-01   8.0250929e-01  -4.2717233e+03
   3.6278760e-09  -1.3538863e-06   8.0259420e-01   8.0250965e-01  -4.2362178e+03
   3.6305435e-09  -1.3426330e-06   8.0259386e-01   8.0251001e-01  -4.2010074e+03
   3.6332111e-09  -1.3314733e-06   8.0259352e-01   8.0251037e-01  -4.1660897e+03
   3.6358786e-09  -1.3204063e-06   8.0259318e-01   8.0251072e-01  -4.1314622e+03
   3.6385462e-09  -1.3094313e-06   8.0259285e-01   8.0251107e-01  -4.0971225e+03
   3.6412137e-09  -1.2985475e-06   8.0259252e-01   8.0251142e-01  -4.0630682e+03
   3.6438813e-09  -1.2877542e-06   8.0259219e-01   8.0251177e-01  -4.0292969e+03
   3.6465488e-09  -1.2770506e-06   8.0259186e-01   8.0251211e-01  -3.9958064e+03
   3.6492164e-09  -1.2664360e-06   8.0259154e-01   8.0251245e-01  -3.9625942e+03
   3.6518840e-09  -1.2559096e-06   8.0259122e-01   8.0251279e-01  -3.9296581e+03
   3.6545515e-09  -1.2454706e-06   8.0259090e-01   8.0251312e-01  -3.8969958e+03
   3.6572191e-09  -1.2351185e-06   8.0259059e-01   8.0251345e-01  -3.8646049e+03
   3.6598866e-09  -1.2248524e-06   8.0259028e-01   8.0251378e-01  -3.8324832e+03
   3.6625542e-09  -1.2146716e-06   8.0258997e-01   8.0251411e-01  -3.8006285e+03
   3.6652217e-09  -1.2045755e-06   8.0258966e-01   8.0251443e-01  -3.7690386e+03
   3.6678893e-09  -1.1945632e-06   8.0258935e-01   8.0251475e-01  -3.7377113e+03
   3.6705569e-09  -1.1846342e-06   8.0258905e-01   8.0251507e-01  -3.7066443e+03
   3.6732244e-09  -1.1747877e-06   8.0258875e-01   8.0251539e-01  -3.6758356e+03
   3.6758920e-09  -1.1650231e-06   8.0258845e-01   8.0251570e-01  -3.6452830e+03
   3.6785595e-09  -1.1553396e-06   8.0258816e-01   8.0251601e-01  -3.6149842e+03
   3.6812271e-09  -1.1457366e-06   8.0258787e-01   8.0251632e-01  -3.5849374e+03
   3.6838946e-09  -1.1362134e-06   8.0258758e-01   8.0251662e-01  -3.5551402e+03
   3.6865622e-09  -1.1267694e-06   8.0258729e-01   8.0251692e-01  -3.5255908e+03
   3.6892297e-09  -1.1174039e-06   8.0258701e-01   8.0251722e-01  -3.4962869e+03
   3.6918973e-09  -1.1081162e-06   8.0258672e-01   8.0251752e-01  -3.4672266e+03
   3.6945649e-09  -1.0989057e-06   8.0258644e-01   8.0251781e-01  -3.4384079e+03
   3.6972324e-09  -1.0897718e-06   8.0258616e-01   8.0251811e-01  -3.4098286e+03
   3.6999000e-09  -1.0807137e-06   8.0258589e-01   8.0251840e-01  -3.3814870e+03
   3.7025675e-09  -1.0717310e-06   8.0258562e-01   8.0251869e-01  -3.3533809e+03
   3.7052351e-09  -1.0628230e-06   8.0258534e-01   8.0251897e-01  -3.3255084e+03
   3.7079026e-09  -1.0539889e-06   8.0258508e-01   8.0251925e-01  -3.2978675e+03
   3.7105702e-09  -1.0452283e-06   8.0258481e-01   8.0251953e-01  -3.2704564e+03
   3.7132377e-09  -1.0365406e-06   8.0258454e-01   8.0251981e-01  -3.2432732e+03
   3.7159053e-09  -1.0279250e-06   8.0258428e-01   8.0252009e-01  -3.2163159e+03
   3.7185729e-09  -1.0193810e-06   8.0258402e-01   8.0252036e-01  -3.1895826e+03
   3.7212404e-09  -1.0109081e-06   8.0258376e-01   8.0252063e-01  -3.1630716e+03
   3.7239080e-09  -1.0025056e-06   8.0258351e-01   8.0252090e-01  -3.1367809e+03
   3.7265755e-09  -9.9417291e-07   8.0258326e-01   8.0252117e-01  -3.1107087e+03
   3.7292431e-09  -9.8590950e-07   8.0258300e-01   8.0252143e-01  -3.0848532e+03
   3.7319106e-09  -9.7771477e-07   8.0258275e-01   8.0252170e-01  -3.0592127e+03
   3.7345782e-09  -9.6958815e-07   8.0258251e-01   8.0252196e-01  -3.0337852e+03
   3.7372457e-09  -9.6152907e-07   8.0258226e-01   8.0252221e-01  -3.0085691e+03
   3.7399133e-09  -9.5353699e-07   8.0258202e-01   8.0252247e-01  -2.9835626e+03
   3.7425809e-09  -9.4561133e-07   8.0258178e-01   8.0252272e-01  -2.9587639e+03
   3.7452484e-09  -9.3775155e-07   8.0258154e-01   8.0252297e-01  -2.9341714e+03
   3.7479160e-09  -9.2995709e-07   8.0258130e-01   8.0252322e-01  -2.9097832e+03
   3.7505835e-09  -9.2222743e-07   8.0258107e-01   8.0252347e-01  -2.8855978e+03
   3.7532511e-09  -9.1456201e-07   8.0258083e-01   8.0252372e-01  -2.8616134e+03
   3.7559186e-09  -9.0696030e-07   8.0258060e-01   8.0252396e-01  -2.8378284e+03
   3.7585862e-09  -8.9942178e-07   8.0258037e-01   8.0252420e-01  -2.8142410e+03
   3.7612538e-09  -8.9194591e-07   8.0258014e-01   8.0252444e-01  -2.7908497e+03
   3.7639213e-09  -8.8453219e-07   8.0257992e-01   8.0252468e-01  -2.7676528e+03
   3.7665889e-09  -8.7718008e-07   8.0257969e-01   8.0252491e-01  -2.7446487e+03
   3.7692564e-09  -8.6988908e-07   8.0257947e-01   8.0252515e-01  -2.7218358e+03
   3.7719240e-09  -8.6265869e-07   8.0257925e-01   8.0252538e-01  -2.6992126e+03
   3.7745915e-09  -8.5548839e-07   8.0257903e-01   8.0252561e-01  -2.6767774e+03
   3.7772591e-09  -8.4837769e-07   8.0257882e-01   8.0252584e-01  -2.6545286e+03
   3.7799266e-09  -8.4132610e-07   8.0257860e-01   8.0252606e-01  -2.6324648e+03
   3.7825942e-09  -8.3433311e-07   8.0257839e-01   8.0252629e-01  -2.6105844e+03
   3.7852618e-09  -8.2739825e-07   8.0257818e-01   8.0252651e-01  -2.5888858e+03
   3.7879293e-09  -8.2052103e-07   8.0257797e-01   8.0252673e-01  -2.5673676e+03
   3.7905969e-09  -8.1370097e-07   8.0257776e-01   8.0252695e-01  -2.5460282e+03
   3.7932644e-09  -8.0693760e-07   8.0257756e-01   8.0252716e-01  -2.5248662e+03
   3.7959320e-09  -8.0023044e-07   8.0257735e-01   8.0252738e-01  -2.5038801e+03
   3.7985995e-09  -7.9357904e-07   8.0257715e-01   8.0252759e-01  -2.4830685e+03
   3.8012671e-09  -7.8698292e-07   8.0257695e-01   8.0252780e-01  -2.4624298e+03
   3.8039346e-09  -7.8044162e-07   8.0257675e-01   8.0252801e-01  -2.4419626e+03
   3.8066022e-09  -7.7395469e-07   8.0257655e-01   8.0252822e-01  -2.4216656e+03
   3.8092698e-09  -7.6752168e-07   8.0257636e-01   8.0252843e-01  -2.4015373e+03
   3.8119373e-09  -7.6114215e-07   8.0257616e-01   8.0252863e-01  -2.3815762e+03
   3.8146049e-09  -7.5481563e-07   8.0257597e-01   8.0252883e-01  -2.3617811e+03
   3.8172724e-09  -7.4854170e-07   8.0257578e-01   8.0252903e-01  -2.3421505e+03
   3.8199400e-09  -7.4231992e-07   8.0257559e-01   8.0252923e-01  -2.3226831e+03
   3.8226075e-09  -7.3614986e-07   8.0257540e-01   8.0252943e-01  -2.3033775e+03
   3.8252751e-09  -7.3003108e-07   8.0257522e-01   8.0252963e-01  -2.2842324e+03
   3.8279426e-09  -7.2396315e-07   8.0257503e-01   8.0252982e-01  -2.2652464e+03
   3.8306102e-09  -7.1794566e-07   8.0257485e-01   8.0253001e-01  -2.2464182e+03
   3.8332778e-09  -7.1197819e-07   8.0257467e-01   8.0253020e-01  -2.2277464e+03
   3.8359453e-09  -7.0606032e-07   8.0257449e-01   8.0253039e-01  -2.2092299e+03
   3.8386129e-09  -7.0019163e-07   8.0257431e-01   8.0253058e-01  -2.1908673e+03
   3.8412804e-09  -6.9437173e-07   8.0257413e-01   8.0253077e-01  -2.1726573e+03
   3.8439480e-09  -6.8860020e-07   8.0257396e-01   8.0253095e-01  -2.1545987e+03
   3.8466155e-09  -6.8287664e-07   8.0257378e-01   8.0253114e-01  -2.1366902e+03
   3.8492831e-09  -6.7720065e-07   8.0257361e-01   8.0253132e-01  -2.1189305e+03
   3.8519507e-09  -6.7157184e-07   8.0257344e-01   8.0253150e-01  -2.1013184e+03
   3.8546182e-09  -6.6598982e-07   8.0257327e-01   8.0253168e-01  -2.0838527e+03
   3.8572858e-09  -6.6045419e-07   8.0257310e-01   8.0253185e-01  -2.0665322e+03
   3.8599533e-09  -6.5496458e-07   8.0257293e-01   8.0253203e-01  -2.0493557e+03
   3.8626209e-09  -6.4952059e-07   8.0257277e-01   8.0253220e-01  -2.0323219e+03
   3.8652884e-09  -6.4412185e-07   8.0257260e-01   8.0253238e-01  -2.0154297e+03
   3.8679560e-09  -6.3876799e-07   8.0257244e-01   8.0253255e-01  -1.9986779e+03
   3.8706235e-09  -6.3345863e-07   8.0257228e-01   8.0253272e-01  -1.9820653e+03
   3.8732911e-09  -6.2819339e-07   8.0257212e-01   8.0253289e-01  -1.9655908e+03
   3.8759587e-09  -6.2297192e-07   8.0257196e-01   8.0253305e-01  -1.9492533e+03
   3.8786262e-09  -6.1779385e-07   8.0257180e-01   8.0253322e-01  -1.9330515e+03
   3.8812938e-09  -6.1265882e-07   8.0257164e-01   8.0253338e-01  -1.9169844e+03
   3.8839613e-09  -6.0756647e-07   8.0257149e-01   8.0253355e-01  -1.9010509e+03
   3.8866289e-09  -6.0251645e-07   8.0257134e-01   8.0253371e-01  -1.8852498e+03
   3.8892964e-09  -5.9750840e-07   8.0257118e-01   8.0253387e-01  -1.8695800e+03
   3.8919640e-09  -5.9254198e-07   8.0257103e-01   8.0253403e-01  -1.8540405e+03
   3.8946315e-09  -5.8761683e-07   8.0257088e-01   8.0253419e-01  -1.8386301e+03
   3.8972991e-09  -5.8273263e-07   8.0257073e-01   8.0253434e-01  -1.8233478e+03
   3.8999667e-09  -5.7788902e-07   8.0257059e-01   8.0253450e-01  -1.8081926e+03
