   0.0000000e+00  -1.5047999e-01   6.2359518e+00   5.1224752e-05  -5.1821531e+08
   2.6675559e-12  -1.4910280e-01   6.2274913e+00   5.6941885e-05  -5.1441875e+08
   5.3351117e-12  -1.4773575e-01   6.2186568e+00   6.3243294e-05  -5.1062012e+08
   8.0026676e-12  -1.4637883e-01   6.2094371e+00   7.0182158e-05  -5.0681952e+08
   1.0670223e-11  -1.4503205e-01   6.1998211e+00   7.7815741e-05  -5.0301708e+08
   1.3337779e-11  -1.4369543e-01   6.1897975e+00   8.6205632e-05  -4.9921292e+08
   1.6005335e-11  -1.4236895e-01   6.1793555e+00   9.5417973e-05  -4.9540718e+08
   1.8672891e-11  -1.4105263e-01   6.1684838e+00   1.0552371e-04  -4.9160002e+08
   2.1340447e-11  -1.3974647e-01   6.1571718e+00   1.1659882e-04  -4.8779162e+08
   2.4008003e-11  -1.3845047e-01   6.1454087e+00   1.2872459e-04  -4.8398216e+08
   2.6675559e-11  -1.3716464e-01   6.1331841e+00   1.4198782e-04  -4.8017186e+08
   2.9343114e-11  -1.3588897e-01   6.1204876e+00   1.5648109e-04  -4.7636092e+08
   3.2010670e-11  -1.3462347e-01   6.1073092e+00   1.7230302e-04  -4.7254960e+08
   3.4678226e-11  -1.3336814e-01   6.0936393e+00   1.8955848e-04  -4.6873814e+08
   3.7345782e-11  -1.3212298e-01   6.0794685e+00   2.0835885e-04  -4.6492682e+08
   4.0013338e-11  -1.3088798e-01   6.0647877e+00   2.2882221e-04  -4.6111593e+08
   4.2680894e-11  -1.2966316e-01   6.0495884e+00   2.5107362e-04  -4.5730579e+08
   4.5348449e-11  -1.2844849e-01   6.0338624e+00   2.7524528e-04  -4.5349671e+08
   4.8016005e-11  -1.2724399e-01   6.0176020e+00   3.0147673e-04  -4.4968905e+08
   5.0683561e-11  -1.2604964e-01   6.0008000e+00   3.2991505e-04  -4.4588318e+08
   5.3351117e-11  -1.2486544e-01   5.9834499e+00   3.6071503e-04  -4.4207948e+08
   5.6018673e-11  -1.2369138e-01   5.9655455e+00   3.9403931e-04  -4.3827834e+08
   5.8686229e-11  -1.2252747e-01   5.9470814e+00   4.3005847e-04  -4.3448021e+08
   6.1353785e-11  -1.2137368e-01   5.9280530e+00   4.6895122e-04  -4.3068551e+08
   6.4021340e-11  -1.2023000e-01   5.9084559e+00   5.1090439e-04  -4.2689471e+08
   6.6688896e-11  -1.1909644e-01   5.8882870e+00   5.5611304e-04  -4.2310829e+08
   6.9356452e-11  -1.1797297e-01   5.8675435e+00   6.0478048e-04  -4.1932674e+08
   7.2024008e-11  -1.1685958e-01   5.8462235e+00   6.5711825e-04  -4.1555057e+08
   7.4691564e-11  -1.1575625e-01   5.8243259e+00   7.1334610e-04  -4.1178033e+08
   7.7359120e-11  -1.1466298e-01   5.8018504e+00   7.7369192e-04  -4.0801654e+08
   8.0026676e-11  -1.1357973e-01   5.7787976e+00   8.3839164e-04  -4.0425979e+08
   8.2694231e-11  -1.1250650e-01   5.7551689e+00   9.0768910e-04  -4.0051063e+08
   8.5361787e-11  -1.1144325e-01   5.7309664e+00   9.8183586e-04  -3.9676968e+08
   8.8029343e-11  -1.1038998e-01   5.7061932e+00   1.0610910e-03  -3.9303753e+08
   9.0696899e-11  -1.0934664e-01   5.6808533e+00   1.1457210e-03  -3.8931479e+08
   9.3364455e-11  -1.0831323e-01   5.6549515e+00   1.2359991e-03  -3.8560211e+08
   9.6032011e-11  -1.0728970e-01   5.6284935e+00   1.3322056e-03  -3.8190012e+08
   9.8699567e-11  -1.0627603e-01   5.6014859e+00   1.4346267e-03  -3.7820946e+08
   1.0136712e-10  -1.0527219e-01   5.5739361e+00   1.5435549e-03  -3.7453081e+08
   1.0403468e-10  -1.0427815e-01   5.5458524e+00   1.6592881e-03  -3.7086481e+08
   1.0670223e-10  -1.0329386e-01   5.5172439e+00   1.7821294e-03  -3.6721214e+08
   1.0936979e-10  -1.0231930e-01   5.4881206e+00   1.9123862e-03  -3.6357348e+08
   1.1203735e-10  -1.0135443e-01   5.4584931e+00   2.0503704e-03  -3.5994949e+08
   1.1470490e-10  -1.0039920e-01   5.4283731e+00   2.1963971e-03  -3.5634086e+08
   1.1737246e-10  -9.9453578e-02   5.3977728e+00   2.3507846e-03  -3.5274827e+08
   1.2004001e-10  -9.8517514e-02   5.3667052e+00   2.5138535e-03  -3.4917240e+08
   1.2270757e-10  -9.7590965e-02   5.3351840e+00   2.6859261e-03  -3.4561391e+08
   1.2537513e-10  -9.6673882e-02   5.3032235e+00   2.8673262e-03  -3.4207348e+08
   1.2804268e-10  -9.5766218e-02   5.2708387e+00   3.0583778e-03  -3.3855177e+08
   1.3071024e-10  -9.4867920e-02   5.2380450e+00   3.2594048e-03  -3.3504944e+08
   1.3337779e-10  -9.3978937e-02   5.2048587e+00   3.4707307e-03  -3.3156714e+08
   1.3604535e-10  -9.3099215e-02   5.1712962e+00   3.6926771e-03  -3.2810551e+08
   1.3871290e-10  -9.2228696e-02   5.1373746e+00   3.9255639e-03  -3.2466517e+08
   1.4138046e-10  -9.1367324e-02   5.1031112e+00   4.1697081e-03  -3.2124674e+08
   1.4404802e-10  -9.0515039e-02   5.0685240e+00   4.4254234e-03  -3.1785083e+08
   1.4671557e-10  -8.9671780e-02   5.0336309e+00   4.6930194e-03  -3.1447801e+08
   1.4938313e-10  -8.8837485e-02   4.9984504e+00   4.9728012e-03  -3.1112887e+08
   1.5205068e-10  -8.8012090e-02   4.9630010e+00   5.2650687e-03  -3.0780394e+08
   1.5471824e-10  -8.7195529e-02   4.9273016e+00   5.5701157e-03  -3.0450377e+08
   1.5738580e-10  -8.6387737e-02   4.8913708e+00   5.8882299e-03  -3.0122888e+08
   1.6005335e-10  -8.5588644e-02   4.8552278e+00   6.2196919e-03  -2.9797975e+08
   1.6272091e-10  -8.4798181e-02   4.8188916e+00   6.5647750e-03  -2.9475687e+08
   1.6538846e-10  -8.4016278e-02   4.7823810e+00   6.9237444e-03  -2.9156067e+08
   1.6805602e-10  -8.3242863e-02   4.7457151e+00   7.2968569e-03  -2.8839161e+08
   1.7072357e-10  -8.2477863e-02   4.7089127e+00   7.6843607e-03  -2.8525007e+08
   1.7339113e-10  -8.1721203e-02   4.6719924e+00   8.0864944e-03  -2.8213645e+08
   1.7605869e-10  -8.0972810e-02   4.6349729e+00   8.5034872e-03  -2.7905110e+08
   1.7872624e-10  -8.0232607e-02   4.5978724e+00   8.9355585e-03  -2.7599436e+08
   1.8139380e-10  -7.9500518e-02   4.5607090e+00   9.3829172e-03  -2.7296654e+08
   1.8406135e-10  -7.8776464e-02   4.5235006e+00   9.8457619e-03  -2.6996793e+08
   1.8672891e-10  -7.8060368e-02   4.4862646e+00   1.0324281e-02  -2.6699878e+08
   1.8939647e-10  -7.7352151e-02   4.4490181e+00   1.0818650e-02  -2.6405934e+08
   1.9206402e-10  -7.6651733e-02   4.4117780e+00   1.1329036e-02  -2.6114981e+08
   1.9473158e-10  -7.5959034e-02   4.3745608e+00   1.1855593e-02  -2.5827038e+08
   1.9739913e-10  -7.5273973e-02   4.3373823e+00   1.2398465e-02  -2.5542122e+08
   2.0006669e-10  -7.4596471e-02   4.3002583e+00   1.2957784e-02  -2.5260245e+08
   2.0273424e-10  -7.3926445e-02   4.2632038e+00   1.3533671e-02  -2.4981420e+08
   2.0540180e-10  -7.3263814e-02   4.2262336e+00   1.4126235e-02  -2.4705656e+08
   2.0806936e-10  -7.2608496e-02   4.1893619e+00   1.4735574e-02  -2.4432959e+08
   2.1073691e-10  -7.1960410e-02   4.1526023e+00   1.5361774e-02  -2.4163334e+08
   2.1340447e-10  -7.1319473e-02   4.1159682e+00   1.6004913e-02  -2.3896782e+08
   2.1607202e-10  -7.0685604e-02   4.0794723e+00   1.6665053e-02  -2.3633305e+08
   2.1873958e-10  -7.0058720e-02   4.0431269e+00   1.7342249e-02  -2.3372900e+08
   2.2140714e-10  -6.9438740e-02   4.0069437e+00   1.8036544e-02  -2.3115564e+08
   2.2407469e-10  -6.8825582e-02   3.9709340e+00   1.8747969e-02  -2.2861289e+08
   2.2674225e-10  -6.8219164e-02   3.9351085e+00   1.9476547e-02  -2.2610069e+08
   2.2940980e-10  -6.7619405e-02   3.8994774e+00   2.0222289e-02  -2.2361894e+08
   2.3207736e-10  -6.7026225e-02   3.8640504e+00   2.0985196e-02  -2.2116752e+08
   2.3474491e-10  -6.6439541e-02   3.8288368e+00   2.1765261e-02  -2.1874630e+08
   2.3741247e-10  -6.5859275e-02   3.7938453e+00   2.2562466e-02  -2.1635514e+08
   2.4008003e-10  -6.5285345e-02   3.7590842e+00   2.3376784e-02  -2.1399387e+08
   2.4274758e-10  -6.4717673e-02   3.7245612e+00   2.4208179e-02  -2.1166232e+08
   2.4541514e-10  -6.4156180e-02   3.6902836e+00   2.5056606e-02  -2.0936029e+08
   2.4808269e-10  -6.3600786e-02   3.6562582e+00   2.5922011e-02  -2.0708759e+08
   2.5075025e-10  -6.3051415e-02   3.6224915e+00   2.6804335e-02  -2.0484400e+08
   2.5341781e-10  -6.2507989e-02   3.5889893e+00   2.7703506e-02  -2.0262930e+08
   2.5608536e-10  -6.1970431e-02   3.5557572e+00   2.8619450e-02  -2.0044323e+08
   2.5875292e-10  -6.1438665e-02   3.5228002e+00   2.9552080e-02  -1.9828557e+08
   2.6142047e-10  -6.0912616e-02   3.4901231e+00   3.0501307e-02  -1.9615605e+08
   2.6408803e-10  -6.0392208e-02   3.4577300e+00   3.1467032e-02  -1.9405441e+08
   2.6675559e-10  -5.9877369e-02   3.4256249e+00   3.2449151e-02  -1.9198038e+08
   2.6942314e-10  -5.9368025e-02   3.3938113e+00   3.3447552e-02  -1.8993367e+08
   2.7209070e-10  -5.8864103e-02   3.3622924e+00   3.4462121e-02  -1.8791401e+08
   2.7475825e-10  -5.8365532e-02   3.3310708e+00   3.5492734e-02  -1.8592109e+08
   2.7742581e-10  -5.7872240e-02   3.3001493e+00   3.6539265e-02  -1.8395462e+08
   2.8009336e-10  -5.7384158e-02   3.2695298e+00   3.7601580e-02  -1.8201431e+08
   2.8276092e-10  -5.6901216e-02   3.2392142e+00   3.8679542e-02  -1.8009984e+08
   2.8542848e-10  -5.6423346e-02   3.2092041e+00   3.9773010e-02  -1.7821090e+08
   2.8809603e-10  -5.5950480e-02   3.1795007e+00   4.0881837e-02  -1.7634719e+08
   2.9076359e-10  -5.5482551e-02   3.1501050e+00   4.2005873e-02  -1.7450838e+08
   2.9343114e-10  -5.5019494e-02   3.1210178e+00   4.3144964e-02  -1.7269416e+08
   2.9609870e-10  -5.4561243e-02   3.0922395e+00   4.4298951e-02  -1.7090422e+08
   2.9876626e-10  -5.4107733e-02   3.0637705e+00   4.5467675e-02  -1.6913823e+08
   3.0143381e-10  -5.3658902e-02   3.0356106e+00   4.6650971e-02  -1.6739586e+08
   3.0410137e-10  -5.3214687e-02   3.0077598e+00   4.7848671e-02  -1.6567681e+08
   3.0676892e-10  -5.2775026e-02   2.9802175e+00   4.9060606e-02  -1.6398075e+08
   3.0943648e-10  -5.2339858e-02   2.9529834e+00   5.0286604e-02  -1.6230735e+08
   3.1210403e-10  -5.1909123e-02   2.9260565e+00   5.1526489e-02  -1.6065630e+08
   3.1477159e-10  -5.1482762e-02   2.8994360e+00   5.2780086e-02  -1.5902728e+08
   3.1743915e-10  -5.1060717e-02   2.8731207e+00   5.4047214e-02  -1.5741997e+08
   3.2010670e-10  -5.0642931e-02   2.8471095e+00   5.5327694e-02  -1.5583405e+08
   3.2277426e-10  -5.0229346e-02   2.8214008e+00   5.6621344e-02  -1.5426921e+08
   3.2544181e-10  -4.9819907e-02   2.7959933e+00   5.7927978e-02  -1.5272513e+08
   3.2810937e-10  -4.9414558e-02   2.7708852e+00   5.9247414e-02  -1.5120151e+08
   3.3077693e-10  -4.9013247e-02   2.7460748e+00   6.0579463e-02  -1.4969803e+08
   3.3344448e-10  -4.8615919e-02   2.7215603e+00   6.1923940e-02  -1.4821439e+08
   3.3611204e-10  -4.8222522e-02   2.6973395e+00   6.3280655e-02  -1.4675029e+08
   3.3877959e-10  -4.7833004e-02   2.6734106e+00   6.4649421e-02  -1.4530543e+08
   3.4144715e-10  -4.7447315e-02   2.6497712e+00   6.6030047e-02  -1.4387950e+08
   3.4411470e-10  -4.7065404e-02   2.6264192e+00   6.7422343e-02  -1.4247221e+08
   3.4678226e-10  -4.6687221e-02   2.6033523e+00   6.8826120e-02  -1.4108328e+08
   3.4944982e-10  -4.6312720e-02   2.5805681e+00   7.0241185e-02  -1.3971241e+08
   3.5211737e-10  -4.5941851e-02   2.5580642e+00   7.1667349e-02  -1.3835932e+08
   3.5478493e-10  -4.5574567e-02   2.5358380e+00   7.3104419e-02  -1.3702373e+08
   3.5745248e-10  -4.5210823e-02   2.5138869e+00   7.4552206e-02  -1.3570536e+08
   3.6012004e-10  -4.4850572e-02   2.4922085e+00   7.6010517e-02  -1.3440393e+08
   3.6278760e-10  -4.4493771e-02   2.4708001e+00   7.7479162e-02  -1.3311919e+08
   3.6545515e-10  -4.4140374e-02   2.4496590e+00   7.8957951e-02  -1.3185085e+08
   3.6812271e-10  -4.3790338e-02   2.4287825e+00   8.0446692e-02  -1.3059866e+08
   3.7079026e-10  -4.3443621e-02   2.4081678e+00   8.1945197e-02  -1.2936236e+08
   3.7345782e-10  -4.3100181e-02   2.3878122e+00   8.3453275e-02  -1.2814169e+08
   3.7612538e-10  -4.2759976e-02   2.3677130e+00   8.4970737e-02  -1.2693641e+08
   3.7879293e-10  -4.2422966e-02   2.3478673e+00   8.6497396e-02  -1.2574626e+08
   3.8146049e-10  -4.2089110e-02   2.3282723e+00   8.8033063e-02  -1.2457100e+08
   3.8412804e-10  -4.1758369e-02   2.3089252e+00   8.9577551e-02  -1.2341039e+08
   3.8679560e-10  -4.1430705e-02   2.2898233e+00   9.1130673e-02  -1.2226419e+08
   3.8946315e-10  -4.1106079e-02   2.2709635e+00   9.2692245e-02  -1.2113218e+08
   3.9213071e-10  -4.0784454e-02   2.2523432e+00   9.4262082e-02  -1.2001412e+08
   3.9479827e-10  -4.0465793e-02   2.2339594e+00   9.5839999e-02  -1.1890979e+08
   3.9746582e-10  -4.0150059e-02   2.2158094e+00   9.7425814e-02  -1.1781896e+08
   4.0013338e-10  -3.9837217e-02   2.1978903e+00   9.9019345e-02  -1.1674143e+08
   4.0280093e-10  -3.9527231e-02   2.1801992e+00   1.0062041e-01  -1.1567697e+08
   4.0546849e-10  -3.9220068e-02   2.1627335e+00   1.0222883e-01  -1.1462538e+08
   4.0813605e-10  -3.8915693e-02   2.1454902e+00   1.0384443e-01  -1.1358645e+08
   4.1080360e-10  -3.8614072e-02   2.1284667e+00   1.0546702e-01  -1.1255998e+08
   4.1347116e-10  -3.8315173e-02   2.1116600e+00   1.0709644e-01  -1.1154577e+08
   4.1613871e-10  -3.8018962e-02   2.0950675e+00   1.0873250e-01  -1.1054362e+08
   4.1880627e-10  -3.7725410e-02   2.0786864e+00   1.1037504e-01  -1.0955334e+08
   4.2147382e-10  -3.7434482e-02   2.0625140e+00   1.1202387e-01  -1.0857474e+08
   4.2414138e-10  -3.7146150e-02   2.0465475e+00   1.1367883e-01  -1.0760764e+08
   4.2680894e-10  -3.6860383e-02   2.0307843e+00   1.1533975e-01  -1.0665185e+08
   4.2947649e-10  -3.6577149e-02   2.0152217e+00   1.1700645e-01  -1.0570719e+08
   4.3214405e-10  -3.6296421e-02   1.9998570e+00   1.1867877e-01  -1.0477350e+08
   4.3481160e-10  -3.6018169e-02   1.9846877e+00   1.2035654e-01  -1.0385059e+08
   4.3747916e-10  -3.5742365e-02   1.9697111e+00   1.2203960e-01  -1.0293830e+08
   4.4014672e-10  -3.5468980e-02   1.9549246e+00   1.2372778e-01  -1.0203647e+08
   4.4281427e-10  -3.5197987e-02   1.9403258e+00   1.2542092e-01  -1.0114492e+08
   4.4548183e-10  -3.4929358e-02   1.9259120e+00   1.2711886e-01  -1.0026350e+08
   4.4814938e-10  -3.4663067e-02   1.9116807e+00   1.2882143e-01  -9.9392053e+07
   4.5081694e-10  -3.4399088e-02   1.8976295e+00   1.3052848e-01  -9.8530423e+07
   4.5348449e-10  -3.4137394e-02   1.8837559e+00   1.3223985e-01  -9.7678459e+07
   4.5615205e-10  -3.3877960e-02   1.8700575e+00   1.3395539e-01  -9.6836013e+07
   4.5881961e-10  -3.3620760e-02   1.8565319e+00   1.3567494e-01  -9.6002939e+07
   4.6148716e-10  -3.3365770e-02   1.8431768e+00   1.3739834e-01  -9.5179094e+07
   4.6415472e-10  -3.3112966e-02   1.8299896e+00   1.3912545e-01  -9.4364337e+07
   4.6682227e-10  -3.2862323e-02   1.8169683e+00   1.4085611e-01  -9.3558531e+07
   4.6948983e-10  -3.2613817e-02   1.8041104e+00   1.4259018e-01  -9.2761540e+07
   4.7215739e-10  -3.2367426e-02   1.7914136e+00   1.4432750e-01  -9.1973233e+07
   4.7482494e-10  -3.2123126e-02   1.7788759e+00   1.4606794e-01  -9.1193478e+07
   4.7749250e-10  -3.1880895e-02   1.7664948e+00   1.4781134e-01  -9.0422149e+07
   4.8016005e-10  -3.1640710e-02   1.7542684e+00   1.4955756e-01  -8.9659119e+07
   4.8282761e-10  -3.1402550e-02   1.7421944e+00   1.5130647e-01  -8.8904265e+07
   4.8549517e-10  -3.1166393e-02   1.7302706e+00   1.5305792e-01  -8.8157467e+07
   4.8816272e-10  -3.0932216e-02   1.7184950e+00   1.5481176e-01  -8.7418607e+07
   4.9083028e-10  -3.0700001e-02   1.7068656e+00   1.5656787e-01  -8.6687568e+07
   4.9349783e-10  -3.0469725e-02   1.6953802e+00   1.5832611e-01  -8.5964235e+07
   4.9616539e-10  -3.0241368e-02   1.6840369e+00   1.6008634e-01  -8.5248498e+07
   4.9883294e-10  -3.0014910e-02   1.6728336e+00   1.6184842e-01  -8.4540246e+07
   5.0150050e-10  -2.9790332e-02   1.6617684e+00   1.6361224e-01  -8.3839371e+07
   5.0416806e-10  -2.9567614e-02   1.6508394e+00   1.6537765e-01  -8.3145767e+07
   5.0683561e-10  -2.9346736e-02   1.6400447e+00   1.6714453e-01  -8.2459330e+07
   5.0950317e-10  -2.9127680e-02   1.6293824e+00   1.6891274e-01  -8.1779959e+07
   5.1217072e-10  -2.8910427e-02   1.6188505e+00   1.7068217e-01  -8.1107553e+07
   5.1483828e-10  -2.8694958e-02   1.6084474e+00   1.7245269e-01  -8.0442014e+07
   5.1750584e-10  -2.8481256e-02   1.5981711e+00   1.7422417e-01  -7.9783245e+07
   5.2017339e-10  -2.8269301e-02   1.5880200e+00   1.7599649e-01  -7.9131152e+07
   5.2284095e-10  -2.8059078e-02   1.5779922e+00   1.7776953e-01  -7.8485642e+07
   5.2550850e-10  -2.7850568e-02   1.5680860e+00   1.7954317e-01  -7.7846623e+07
   5.2817606e-10  -2.7643753e-02   1.5582998e+00   1.8131730e-01  -7.7214007e+07
   5.3084361e-10  -2.7438618e-02   1.5486318e+00   1.8309180e-01  -7.6587704e+07
   5.3351117e-10  -2.7235145e-02   1.5390804e+00   1.8486655e-01  -7.5967628e+07
   5.3617873e-10  -2.7033318e-02   1.5296440e+00   1.8664143e-01  -7.5353695e+07
   5.3884628e-10  -2.6833120e-02   1.5203209e+00   1.8841634e-01  -7.4745821e+07
   5.4151384e-10  -2.6634536e-02   1.5111096e+00   1.9019117e-01  -7.4143925e+07
   5.4418139e-10  -2.6437550e-02   1.5020085e+00   1.9196580e-01  -7.3547926e+07
   5.4684895e-10  -2.6242146e-02   1.4930161e+00   1.9374013e-01  -7.2957746e+07
   5.4951651e-10  -2.6048308e-02   1.4841308e+00   1.9551405e-01  -7.2373306e+07
   5.5218406e-10  -2.5856022e-02   1.4753512e+00   1.9728745e-01  -7.1794531e+07
   5.5485162e-10  -2.5665272e-02   1.4666758e+00   1.9906023e-01  -7.1221345e+07
   5.5751917e-10  -2.5476044e-02   1.4581032e+00   2.0083229e-01  -7.0653676e+07
   5.6018673e-10  -2.5288322e-02   1.4496319e+00   2.0260352e-01  -7.0091452e+07
   5.6285428e-10  -2.5102094e-02   1.4412605e+00   2.0437383e-01  -6.9534601e+07
   5.6552184e-10  -2.4917343e-02   1.4329877e+00   2.0614311e-01  -6.8983053e+07
   5.6818940e-10  -2.4734057e-02   1.4248120e+00   2.0791127e-01  -6.8436741e+07
   5.7085695e-10  -2.4552222e-02   1.4167322e+00   2.0967822e-01  -6.7895598e+07
   5.7352451e-10  -2.4371822e-02   1.4087469e+00   2.1144384e-01  -6.7359556e+07
   5.7619206e-10  -2.4192847e-02   1.4008548e+00   2.1320807e-01  -6.6828551e+07
   5.7885962e-10  -2.4015281e-02   1.3930546e+00   2.1497079e-01  -6.6302520e+07
   5.8152718e-10  -2.3839111e-02   1.3853451e+00   2.1673192e-01  -6.5781400e+07
   5.8419473e-10  -2.3664325e-02   1.3777251e+00   2.1849137e-01  -6.5265128e+07
   5.8686229e-10  -2.3490910e-02   1.3701932e+00   2.2024905e-01  -6.4753645e+07
   5.8952984e-10  -2.3318853e-02   1.3627483e+00   2.2200487e-01  -6.4246891e+07
   5.9219740e-10  -2.3148142e-02   1.3553893e+00   2.2375875e-01  -6.3744807e+07
   5.9486495e-10  -2.2978764e-02   1.3481149e+00   2.2551060e-01  -6.3247336e+07
   5.9753251e-10  -2.2810706e-02   1.3409239e+00   2.2726034e-01  -6.2754422e+07
   6.0020007e-10  -2.2643958e-02   1.3338153e+00   2.2900788e-01  -6.2266008e+07
   6.0286762e-10  -2.2478506e-02   1.3267880e+00   2.3075314e-01  -6.1782040e+07
   6.0553518e-10  -2.2314340e-02   1.3198408e+00   2.3249605e-01  -6.1302463e+07
   6.0820273e-10  -2.2151447e-02   1.3129726e+00   2.3423653e-01  -6.0827227e+07
   6.1087029e-10  -2.1989816e-02   1.3061824e+00   2.3597449e-01  -6.0356277e+07
   6.1353785e-10  -2.1829435e-02   1.2994691e+00   2.3770986e-01  -5.9889563e+07
   6.1620540e-10  -2.1670294e-02   1.2928318e+00   2.3944257e-01  -5.9427035e+07
   6.1887296e-10  -2.1512382e-02   1.2862693e+00   2.4117254e-01  -5.8968644e+07
   6.2154051e-10  -2.1355686e-02   1.2797806e+00   2.4289970e-01  -5.8514339e+07
   6.2420807e-10  -2.1200197e-02   1.2733649e+00   2.4462397e-01  -5.8064075e+07
   6.2687563e-10  -2.1045904e-02   1.2670211e+00   2.4634529e-01  -5.7617802e+07
   6.2954318e-10  -2.0892796e-02   1.2607482e+00   2.4806358e-01  -5.7175476e+07
   6.3221074e-10  -2.0740863e-02   1.2545453e+00   2.4977878e-01  -5.6737049e+07
   6.3487829e-10  -2.0590094e-02   1.2484115e+00   2.5149082e-01  -5.6302479e+07
   6.3754585e-10  -2.0440479e-02   1.2423459e+00   2.5319964e-01  -5.5871719e+07
   6.4021340e-10  -2.0292009e-02   1.2363475e+00   2.5490516e-01  -5.5444728e+07
   6.4288096e-10  -2.0144672e-02   1.2304154e+00   2.5660733e-01  -5.5021461e+07
   6.4554852e-10  -1.9998459e-02   1.2245489e+00   2.5830608e-01  -5.4601876e+07
   6.4821607e-10  -1.9853361e-02   1.2187470e+00   2.6000135e-01  -5.4185933e+07
   6.5088363e-10  -1.9709368e-02   1.2130089e+00   2.6169307e-01  -5.3773591e+07
   6.5355118e-10  -1.9566470e-02   1.2073337e+00   2.6338120e-01  -5.3364808e+07
   6.5621874e-10  -1.9424657e-02   1.2017207e+00   2.6506567e-01  -5.2959546e+07
   6.5888630e-10  -1.9283921e-02   1.1961690e+00   2.6674642e-01  -5.2557766e+07
   6.6155385e-10  -1.9144252e-02   1.1906777e+00   2.6842340e-01  -5.2159429e+07
   6.6422141e-10  -1.9005641e-02   1.1852462e+00   2.7009655e-01  -5.1764497e+07
   6.6688896e-10  -1.8868080e-02   1.1798737e+00   2.7176581e-01  -5.1372933e+07
   6.6955652e-10  -1.8731558e-02   1.1745593e+00   2.7343114e-01  -5.0984701e+07
   6.7222407e-10  -1.8596067e-02   1.1693024e+00   2.7509248e-01  -5.0599764e+07
   6.7489163e-10  -1.8461599e-02   1.1641022e+00   2.7674978e-01  -5.0218086e+07
   6.7755919e-10  -1.8328145e-02   1.1589579e+00   2.7840298e-01  -4.9839634e+07
   6.8022674e-10  -1.8195696e-02   1.1538689e+00   2.8005205e-01  -4.9464371e+07
   6.8289430e-10  -1.8064244e-02   1.1488344e+00   2.8169692e-01  -4.9092265e+07
   6.8556185e-10  -1.7933780e-02   1.1438537e+00   2.8333756e-01  -4.8723281e+07
   6.8822941e-10  -1.7804297e-02   1.1389262e+00   2.8497391e-01  -4.8357387e+07
   6.9089697e-10  -1.7675785e-02   1.1340512e+00   2.8660594e-01  -4.7994549e+07
   6.9356452e-10  -1.7548237e-02   1.1292280e+00   2.8823359e-01  -4.7634737e+07
   6.9623208e-10  -1.7421645e-02   1.1244559e+00   2.8985682e-01  -4.7277917e+07
   6.9889963e-10  -1.7296001e-02   1.1197343e+00   2.9147559e-01  -4.6924060e+07
   7.0156719e-10  -1.7171297e-02   1.1150626e+00   2.9308986e-01  -4.6573134e+07
   7.0423474e-10  -1.7047525e-02   1.1104402e+00   2.9469958e-01  -4.6225110e+07
   7.0690230e-10  -1.6924678e-02   1.1058663e+00   2.9630472e-01  -4.5879956e+07
   7.0956986e-10  -1.6802748e-02   1.1013405e+00   2.9790523e-01  -4.5537644e+07
   7.1223741e-10  -1.6681727e-02   1.0968620e+00   2.9950108e-01  -4.5198146e+07
   7.1490497e-10  -1.6561608e-02   1.0924304e+00   3.0109223e-01  -4.4861431e+07
   7.1757252e-10  -1.6442383e-02   1.0880450e+00   3.0267865e-01  -4.4527472e+07
   7.2024008e-10  -1.6324046e-02   1.0837052e+00   3.0426029e-01  -4.4196241e+07
   7.2290764e-10  -1.6206589e-02   1.0794106e+00   3.0583712e-01  -4.3867712e+07
   7.2557519e-10  -1.6090004e-02   1.0751604e+00   3.0740912e-01  -4.3541855e+07
   7.2824275e-10  -1.5974285e-02   1.0709543e+00   3.0897623e-01  -4.3218646e+07
   7.3091030e-10  -1.5859425e-02   1.0667915e+00   3.1053844e-01  -4.2898057e+07
   7.3357786e-10  -1.5745417e-02   1.0626717e+00   3.1209571e-01  -4.2580063e+07
   7.3624542e-10  -1.5632253e-02   1.0585942e+00   3.1364801e-01  -4.2264638e+07
   7.3891297e-10  -1.5519928e-02   1.0545586e+00   3.1519531e-01  -4.1951757e+07
   7.4158053e-10  -1.5408433e-02   1.0505643e+00   3.1673758e-01  -4.1641394e+07
   7.4424808e-10  -1.5297764e-02   1.0466109e+00   3.1827480e-01  -4.1333526e+07
   7.4691564e-10  -1.5187912e-02   1.0426978e+00   3.1980692e-01  -4.1028128e+07
   7.4958319e-10  -1.5078871e-02   1.0388246e+00   3.2133393e-01  -4.0725175e+07
   7.5225075e-10  -1.4970636e-02   1.0349907e+00   3.2285581e-01  -4.0424645e+07
   7.5491831e-10  -1.4863199e-02   1.0311957e+00   3.2437252e-01  -4.0126514e+07
   7.5758586e-10  -1.4756554e-02   1.0274391e+00   3.2588403e-01  -3.9830759e+07
   7.6025342e-10  -1.4650695e-02   1.0237205e+00   3.2739034e-01  -3.9537357e+07
   7.6292097e-10  -1.4545615e-02   1.0200394e+00   3.2889140e-01  -3.9246286e+07
   7.6558853e-10  -1.4441309e-02   1.0163953e+00   3.3038721e-01  -3.8957524e+07
   7.6825609e-10  -1.4337770e-02   1.0127878e+00   3.3187774e-01  -3.8671048e+07
   7.7092364e-10  -1.4234993e-02   1.0092165e+00   3.3336296e-01  -3.8386838e+07
   7.7359120e-10  -1.4132970e-02   1.0056810e+00   3.3484286e-01  -3.8104871e+07
   7.7625875e-10  -1.4031697e-02   1.0021807e+00   3.3631741e-01  -3.7825127e+07
   7.7892631e-10  -1.3931167e-02   9.9871536e-01   3.3778661e-01  -3.7547585e+07
   7.8159386e-10  -1.3831374e-02   9.9528449e-01   3.3925042e-01  -3.7272225e+07
   7.8426142e-10  -1.3732313e-02   9.9188769e-01   3.4070883e-01  -3.6999026e+07
   7.8692898e-10  -1.3633978e-02   9.8852456e-01   3.4216183e-01  -3.6727968e+07
   7.8959653e-10  -1.3536363e-02   9.8519471e-01   3.4360939e-01  -3.6459032e+07
   7.9226409e-10  -1.3439463e-02   9.8189774e-01   3.4505151e-01  -3.6192198e+07
   7.9493164e-10  -1.3343271e-02   9.7863327e-01   3.4648816e-01  -3.5927446e+07
   7.9759920e-10  -1.3247784e-02   9.7540092e-01   3.4791933e-01  -3.5664758e+07
   8.0026676e-10  -1.3152994e-02   9.7220031e-01   3.4934501e-01  -3.5404114e+07
   8.0293431e-10  -1.3058897e-02   9.6903109e-01   3.5076519e-01  -3.5145497e+07
   8.0560187e-10  -1.2965487e-02   9.6589287e-01   3.5217984e-01  -3.4888888e+07
   8.0826942e-10  -1.2872759e-02   9.6278530e-01   3.5358897e-01  -3.4634268e+07
   8.1093698e-10  -1.2780707e-02   9.5970803e-01   3.5499255e-01  -3.4381620e+07
   8.1360453e-10  -1.2689327e-02   9.5666071e-01   3.5639057e-01  -3.4130926e+07
   8.1627209e-10  -1.2598613e-02   9.5364300e-01   3.5778303e-01  -3.3882169e+07
   8.1893965e-10  -1.2508560e-02   9.5065454e-01   3.5916992e-01  -3.3635330e+07
   8.2160720e-10  -1.2419163e-02   9.4769501e-01   3.6055123e-01  -3.3390394e+07
   8.2427476e-10  -1.2330417e-02   9.4476408e-01   3.6192694e-01  -3.3147343e+07
   8.2694231e-10  -1.2242316e-02   9.4186142e-01   3.6329704e-01  -3.2906160e+07
   8.2960987e-10  -1.2154857e-02   9.3898671e-01   3.6466154e-01  -3.2666830e+07
   8.3227743e-10  -1.2068033e-02   9.3613963e-01   3.6602043e-01  -3.2429335e+07
   8.3494498e-10  -1.1981841e-02   9.3331987e-01   3.6737369e-01  -3.2193659e+07
   8.3761254e-10  -1.1896275e-02   9.3052711e-01   3.6872132e-01  -3.1959787e+07
   8.4028009e-10  -1.1811330e-02   9.2776106e-01   3.7006331e-01  -3.1727703e+07
   8.4294765e-10  -1.1727002e-02   9.2502141e-01   3.7139967e-01  -3.1497391e+07
   8.4561521e-10  -1.1643286e-02   9.2230786e-01   3.7273038e-01  -3.1268835e+07
   8.4828276e-10  -1.1560178e-02   9.1962012e-01   3.7405544e-01  -3.1042022e+07
   8.5095032e-10  -1.1477672e-02   9.1695791e-01   3.7537485e-01  -3.0816934e+07
   8.5361787e-10  -1.1395764e-02   9.1432094e-01   3.7668860e-01  -3.0593558e+07
   8.5628543e-10  -1.1314450e-02   9.1170892e-01   3.7799669e-01  -3.0371879e+07
   8.5895298e-10  -1.1233725e-02   9.0912158e-01   3.7929912e-01  -3.0151882e+07
   8.6162054e-10  -1.1153585e-02   9.0655865e-01   3.8059588e-01  -2.9933553e+07
   8.6428810e-10  -1.1074025e-02   9.0401985e-01   3.8188698e-01  -2.9716878e+07
   8.6695565e-10  -1.0995040e-02   9.0150492e-01   3.8317241e-01  -2.9501841e+07
   8.6962321e-10  -1.0916628e-02   8.9901359e-01   3.8445218e-01  -2.9288431e+07
   8.7229076e-10  -1.0838782e-02   8.9654560e-01   3.8572628e-01  -2.9076632e+07
   8.7495832e-10  -1.0761499e-02   8.9410070e-01   3.8699471e-01  -2.8866431e+07
   8.7762588e-10  -1.0684775e-02   8.9167864e-01   3.8825748e-01  -2.8657814e+07
   8.8029343e-10  -1.0608605e-02   8.8927915e-01   3.8951458e-01  -2.8450769e+07
   8.8296099e-10  -1.0532985e-02   8.8690201e-01   3.9076601e-01  -2.8245281e+07
   8.8562854e-10  -1.0457912e-02   8.8454696e-01   3.9201179e-01  -2.8041338e+07
   8.8829610e-10  -1.0383380e-02   8.8221376e-01   3.9325190e-01  -2.7838928e+07
   8.9096365e-10  -1.0309386e-02   8.7990218e-01   3.9448636e-01  -2.7638036e+07
   8.9363121e-10  -1.0235927e-02   8.7761198e-01   3.9571516e-01  -2.7438651e+07
   8.9629877e-10  -1.0162997e-02   8.7534294e-01   3.9693831e-01  -2.7240759e+07
   8.9896632e-10  -1.0090593e-02   8.7309481e-01   3.9815582e-01  -2.7044349e+07
   9.0163388e-10  -1.0018711e-02   8.7086738e-01   3.9936768e-01  -2.6849409e+07
   9.0430143e-10  -9.9473468e-03   8.6866043e-01   4.0057390e-01  -2.6655925e+07
   9.0696899e-10  -9.8764971e-03   8.6647373e-01   4.0177448e-01  -2.6463886e+07
   9.0963655e-10  -9.8061577e-03   8.6430707e-01   4.0296944e-01  -2.6273281e+07
   9.1230410e-10  -9.7363249e-03   8.6216024e-01   4.0415878e-01  -2.6084096e+07
   9.1497166e-10  -9.6669948e-03   8.6003301e-01   4.0534249e-01  -2.5896322e+07
   9.1763921e-10  -9.5981638e-03   8.5792520e-01   4.0652060e-01  -2.5709945e+07
   9.2030677e-10  -9.5298281e-03   8.5583658e-01   4.0769310e-01  -2.5524955e+07
   9.2297432e-10  -9.4619840e-03   8.5376695e-01   4.0886000e-01  -2.5341341e+07
   9.2564188e-10  -9.3946280e-03   8.5171612e-01   4.1002131e-01  -2.5159090e+07
   9.2830944e-10  -9.3277562e-03   8.4968388e-01   4.1117704e-01  -2.4978193e+07
   9.3097699e-10  -9.2613653e-03   8.4767005e-01   4.1232719e-01  -2.4798638e+07
   9.3364455e-10  -9.1954515e-03   8.4567442e-01   4.1347177e-01  -2.4620414e+07
   9.3631210e-10  -9.1300114e-03   8.4369680e-01   4.1461079e-01  -2.4443510e+07
   9.3897966e-10  -9.0650415e-03   8.4173701e-01   4.1574426e-01  -2.4267917e+07
   9.4164722e-10  -9.0005382e-03   8.3979486e-01   4.1687218e-01  -2.4093622e+07
   9.4431477e-10  -8.9364981e-03   8.3787017e-01   4.1799457e-01  -2.3920616e+07
   9.4698233e-10  -8.8729179e-03   8.3596275e-01   4.1911144e-01  -2.3748889e+07
   9.4964988e-10  -8.8097940e-03   8.3407243e-01   4.2022279e-01  -2.3578430e+07
   9.5231744e-10  -8.7471232e-03   8.3219902e-01   4.2132864e-01  -2.3409229e+07
   9.5498499e-10  -8.6849020e-03   8.3034236e-01   4.2242899e-01  -2.3241276e+07
   9.5765255e-10  -8.6231272e-03   8.2850226e-01   4.2352386e-01  -2.3074561e+07
   9.6032011e-10  -8.5617955e-03   8.2667856e-01   4.2461325e-01  -2.2909075e+07
   9.6298766e-10  -8.5009037e-03   8.2487109e-01   4.2569718e-01  -2.2744806e+07
   9.6565522e-10  -8.4404484e-03   8.2307969e-01   4.2677566e-01  -2.2581747e+07
   9.6832277e-10  -8.3804265e-03   8.2130418e-01   4.2784869e-01  -2.2419886e+07
   9.7099033e-10  -8.3208347e-03   8.1954441e-01   4.2891630e-01  -2.2259215e+07
   9.7365789e-10  -8.2616700e-03   8.1780021e-01   4.2997849e-01  -2.2099725e+07
   9.7632544e-10  -8.2029292e-03   8.1607143e-01   4.3103528e-01  -2.1941405e+07
   9.7899300e-10  -8.1446091e-03   8.1435791e-01   4.3208667e-01  -2.1784248e+07
   9.8166055e-10  -8.0867068e-03   8.1265949e-01   4.3313268e-01  -2.1628243e+07
   9.8432811e-10  -8.0292190e-03   8.1097602e-01   4.3417332e-01  -2.1473381e+07
   9.8699567e-10  -7.9721429e-03   8.0930735e-01   4.3520860e-01  -2.1319654e+07
   9.8966322e-10  -7.9154753e-03   8.0765333e-01   4.3623855e-01  -2.1167053e+07
   9.9233078e-10  -7.8592133e-03   8.0601381e-01   4.3726316e-01  -2.1015568e+07
   9.9499833e-10  -7.8033539e-03   8.0438864e-01   4.3828246e-01  -2.0865192e+07
   9.9766589e-10  -7.7478942e-03   8.0277769e-01   4.3929646e-01  -2.0715915e+07
   1.0003334e-09  -7.6928312e-03   8.0118081e-01   4.4030516e-01  -2.0567729e+07
   1.0030010e-09  -7.6381621e-03   7.9959786e-01   4.4130859e-01  -2.0420626e+07
   1.0056686e-09  -7.5838839e-03   7.9802869e-01   4.4230677e-01  -2.0274597e+07
   1.0083361e-09  -7.5299939e-03   7.9647318e-01   4.4329969e-01  -2.0129633e+07
   1.0110037e-09  -7.4764892e-03   7.9493118e-01   4.4428738e-01  -1.9985727e+07
   1.0136712e-09  -7.4233669e-03   7.9340256e-01   4.4526986e-01  -1.9842870e+07
   1.0163388e-09  -7.3706243e-03   7.9188719e-01   4.4624713e-01  -1.9701055e+07
   1.0190063e-09  -7.3182587e-03   7.9038494e-01   4.4721921e-01  -1.9560272e+07
   1.0216739e-09  -7.2662672e-03   7.8889568e-01   4.4818613e-01  -1.9420515e+07
   1.0243414e-09  -7.2146472e-03   7.8741927e-01   4.4914788e-01  -1.9281775e+07
   1.0270090e-09  -7.1633959e-03   7.8595560e-01   4.5010449e-01  -1.9144044e+07
   1.0296766e-09  -7.1125107e-03   7.8450453e-01   4.5105598e-01  -1.9007315e+07
   1.0323441e-09  -7.0619889e-03   7.8306595e-01   4.5200235e-01  -1.8871580e+07
   1.0350117e-09  -7.0118279e-03   7.8163973e-01   4.5294363e-01  -1.8736832e+07
   1.0376792e-09  -6.9620250e-03   7.8022575e-01   4.5387983e-01  -1.8603062e+07
   1.0403468e-09  -6.9125776e-03   7.7882389e-01   4.5481096e-01  -1.8470264e+07
   1.0430143e-09  -6.8634832e-03   7.7743403e-01   4.5573705e-01  -1.8338429e+07
   1.0456819e-09  -6.8147392e-03   7.7605606e-01   4.5665810e-01  -1.8207551e+07
   1.0483494e-09  -6.7663431e-03   7.7468985e-01   4.5757414e-01  -1.8077622e+07
   1.0510170e-09  -6.7182923e-03   7.7333531e-01   4.5848518e-01  -1.7948636e+07
   1.0536846e-09  -6.6705843e-03   7.7199230e-01   4.5939124e-01  -1.7820584e+07
   1.0563521e-09  -6.6232167e-03   7.7066073e-01   4.6029234e-01  -1.7693460e+07
   1.0590197e-09  -6.5761869e-03   7.6934047e-01   4.6118848e-01  -1.7567257e+07
   1.0616872e-09  -6.5294926e-03   7.6803143e-01   4.6207970e-01  -1.7441967e+07
   1.0643548e-09  -6.4831313e-03   7.6673350e-01   4.6296600e-01  -1.7317585e+07
   1.0670223e-09  -6.4371006e-03   7.6544656e-01   4.6384740e-01  -1.7194102e+07
   1.0696899e-09  -6.3913981e-03   7.6417051e-01   4.6472392e-01  -1.7071512e+07
   1.0723575e-09  -6.3460214e-03   7.6290525e-01   4.6559558e-01  -1.6949809e+07
   1.0750250e-09  -6.3009682e-03   7.6165067e-01   4.6646239e-01  -1.6828986e+07
   1.0776926e-09  -6.2562361e-03   7.6040668e-01   4.6732437e-01  -1.6709035e+07
   1.0803601e-09  -6.2118229e-03   7.5917317e-01   4.6818154e-01  -1.6589951e+07
   1.0830277e-09  -6.1677262e-03   7.5795004e-01   4.6903392e-01  -1.6471727e+07
   1.0856952e-09  -6.1239437e-03   7.5673719e-01   4.6988152e-01  -1.6354357e+07
   1.0883628e-09  -6.0804731e-03   7.5553453e-01   4.7072437e-01  -1.6237833e+07
   1.0910303e-09  -6.0373123e-03   7.5434196e-01   4.7156247e-01  -1.6122151e+07
   1.0936979e-09  -5.9944589e-03   7.5315938e-01   4.7239585e-01  -1.6007303e+07
   1.0963655e-09  -5.9519109e-03   7.5198670e-01   4.7322452e-01  -1.5893283e+07
   1.0990330e-09  -5.9096658e-03   7.5082383e-01   4.7404851e-01  -1.5780084e+07
   1.1017006e-09  -5.8677216e-03   7.4967067e-01   4.7486783e-01  -1.5667702e+07
   1.1043681e-09  -5.8260762e-03   7.4852714e-01   4.7568250e-01  -1.5556130e+07
   1.1070357e-09  -5.7847273e-03   7.4739314e-01   4.7649254e-01  -1.5445361e+07
   1.1097032e-09  -5.7436728e-03   7.4626858e-01   4.7729796e-01  -1.5335389e+07
   1.1123708e-09  -5.7029106e-03   7.4515337e-01   4.7809878e-01  -1.5226210e+07
   1.1150383e-09  -5.6624386e-03   7.4404744e-01   4.7889503e-01  -1.5117816e+07
   1.1177059e-09  -5.6222547e-03   7.4295069e-01   4.7968672e-01  -1.5010203e+07
   1.1203735e-09  -5.5823568e-03   7.4186303e-01   4.8047387e-01  -1.4903363e+07
   1.1230410e-09  -5.5427429e-03   7.4078438e-01   4.8125649e-01  -1.4797292e+07
   1.1257086e-09  -5.5034110e-03   7.3971466e-01   4.8203461e-01  -1.4691983e+07
   1.1283761e-09  -5.4643589e-03   7.3865379e-01   4.8280824e-01  -1.4587432e+07
   1.1310437e-09  -5.4255848e-03   7.3760168e-01   4.8357741e-01  -1.4483632e+07
   1.1337112e-09  -5.3870865e-03   7.3655826e-01   4.8434212e-01  -1.4380578e+07
   1.1363788e-09  -5.3488622e-03   7.3552343e-01   4.8510241e-01  -1.4278264e+07
   1.1390463e-09  -5.3109098e-03   7.3449713e-01   4.8585828e-01  -1.4176685e+07
   1.1417139e-09  -5.2732274e-03   7.3347927e-01   4.8660977e-01  -1.4075835e+07
   1.1443815e-09  -5.2358130e-03   7.3246979e-01   4.8735687e-01  -1.3975709e+07
   1.1470490e-09  -5.1986648e-03   7.3146859e-01   4.8809962e-01  -1.3876302e+07
   1.1497166e-09  -5.1617808e-03   7.3047560e-01   4.8883804e-01  -1.3777609e+07
   1.1523841e-09  -5.1251591e-03   7.2949076e-01   4.8957213e-01  -1.3679623e+07
   1.1550517e-09  -5.0887979e-03   7.2851398e-01   4.9030193e-01  -1.3582340e+07
   1.1577192e-09  -5.0526952e-03   7.2754520e-01   4.9102744e-01  -1.3485755e+07
   1.1603868e-09  -5.0168493e-03   7.2658433e-01   4.9174869e-01  -1.3389863e+07
   1.1630544e-09  -4.9812583e-03   7.2563131e-01   4.9246570e-01  -1.3294657e+07
   1.1657219e-09  -4.9459203e-03   7.2468607e-01   4.9317849e-01  -1.3200135e+07
   1.1683895e-09  -4.9108335e-03   7.2374853e-01   4.9388706e-01  -1.3106289e+07
   1.1710570e-09  -4.8759962e-03   7.2281862e-01   4.9459145e-01  -1.3013116e+07
   1.1737246e-09  -4.8414065e-03   7.2189629e-01   4.9529168e-01  -1.2920611e+07
   1.1763921e-09  -4.8070627e-03   7.2098145e-01   4.9598775e-01  -1.2828768e+07
   1.1790597e-09  -4.7729631e-03   7.2007404e-01   4.9667969e-01  -1.2737582e+07
   1.1817272e-09  -4.7391058e-03   7.1917400e-01   4.9736752e-01  -1.2647050e+07
   1.1843948e-09  -4.7054891e-03   7.1828126e-01   4.9805126e-01  -1.2557165e+07
   1.1870624e-09  -4.6721113e-03   7.1739575e-01   4.9873092e-01  -1.2467924e+07
   1.1897299e-09  -4.6389708e-03   7.1651740e-01   4.9940652e-01  -1.2379321e+07
   1.1923975e-09  -4.6060658e-03   7.1564616e-01   5.0007809e-01  -1.2291353e+07
   1.1950650e-09  -4.5733945e-03   7.1478196e-01   5.0074565e-01  -1.2204013e+07
   1.1977326e-09  -4.5409555e-03   7.1392473e-01   5.0140920e-01  -1.2117299e+07
   1.2004001e-09  -4.5087469e-03   7.1307442e-01   5.0206877e-01  -1.2031204e+07
   1.2030677e-09  -4.4767671e-03   7.1223097e-01   5.0272438e-01  -1.1945725e+07
   1.2057352e-09  -4.4450146e-03   7.1139430e-01   5.0337604e-01  -1.1860857e+07
   1.2084028e-09  -4.4134876e-03   7.1056437e-01   5.0402378e-01  -1.1776596e+07
   1.2110704e-09  -4.3821846e-03   7.0974111e-01   5.0466762e-01  -1.1692937e+07
   1.2137379e-09  -4.3511040e-03   7.0892447e-01   5.0530757e-01  -1.1609876e+07
   1.2164055e-09  -4.3202442e-03   7.0811437e-01   5.0594365e-01  -1.1527408e+07
   1.2190730e-09  -4.2896035e-03   7.0731078e-01   5.0657587e-01  -1.1445530e+07
   1.2217406e-09  -4.2591805e-03   7.0651363e-01   5.0720427e-01  -1.1364236e+07
   1.2244081e-09  -4.2289736e-03   7.0572285e-01   5.0782886e-01  -1.1283523e+07
   1.2270757e-09  -4.1989812e-03   7.0493841e-01   5.0844965e-01  -1.1203386e+07
   1.2297432e-09  -4.1692018e-03   7.0416023e-01   5.0906667e-01  -1.1123822e+07
   1.2324108e-09  -4.1396339e-03   7.0338828e-01   5.0967992e-01  -1.1044825e+07
   1.2350784e-09  -4.1102759e-03   7.0262248e-01   5.1028944e-01  -1.0966393e+07
   1.2377459e-09  -4.0811265e-03   7.0186279e-01   5.1089524e-01  -1.0888520e+07
   1.2404135e-09  -4.0521840e-03   7.0110916e-01   5.1149734e-01  -1.0811203e+07
   1.2430810e-09  -4.0234470e-03   7.0036152e-01   5.1209576e-01  -1.0734437e+07
   1.2457486e-09  -3.9949141e-03   6.9961984e-01   5.1269051e-01  -1.0658220e+07
   1.2484161e-09  -3.9665838e-03   6.9888405e-01   5.1328161e-01  -1.0582546e+07
   1.2510837e-09  -3.9384546e-03   6.9815411e-01   5.1386908e-01  -1.0507412e+07
   1.2537513e-09  -3.9105252e-03   6.9742996e-01   5.1445295e-01  -1.0432813e+07
   1.2564188e-09  -3.8827940e-03   6.9671156e-01   5.1503322e-01  -1.0358747e+07
   1.2590864e-09  -3.8552596e-03   6.9599886e-01   5.1560992e-01  -1.0285209e+07
   1.2617539e-09  -3.8279208e-03   6.9529180e-01   5.1618306e-01  -1.0212195e+07
   1.2644215e-09  -3.8007760e-03   6.9459033e-01   5.1675267e-01  -1.0139702e+07
   1.2670890e-09  -3.7738239e-03   6.9389442e-01   5.1731876e-01  -1.0067725e+07
   1.2697566e-09  -3.7470632e-03   6.9320400e-01   5.1788134e-01  -9.9962619e+06
   1.2724241e-09  -3.7204923e-03   6.9251904e-01   5.1844044e-01  -9.9253077e+06
   1.2750917e-09  -3.6941101e-03   6.9183949e-01   5.1899608e-01  -9.8548592e+06
   1.2777593e-09  -3.6679151e-03   6.9116529e-01   5.1954827e-01  -9.7849126e+06
   1.2804268e-09  -3.6419061e-03   6.9049641e-01   5.2009703e-01  -9.7154644e+06
   1.2830944e-09  -3.6160816e-03   6.8983280e-01   5.2064238e-01  -9.6465110e+06
   1.2857619e-09  -3.5904405e-03   6.8917441e-01   5.2118434e-01  -9.5780487e+06
   1.2884295e-09  -3.5649813e-03   6.8852119e-01   5.2172292e-01  -9.5100741e+06
   1.2910970e-09  -3.5397028e-03   6.8787312e-01   5.2225814e-01  -9.4425837e+06
   1.2937646e-09  -3.5146037e-03   6.8723013e-01   5.2279002e-01  -9.3755738e+06
   1.2964321e-09  -3.4896826e-03   6.8659219e-01   5.2331858e-01  -9.3090411e+06
   1.2990997e-09  -3.4649385e-03   6.8595925e-01   5.2384383e-01  -9.2429822e+06
   1.3017673e-09  -3.4403699e-03   6.8533128e-01   5.2436580e-01  -9.1773936e+06
   1.3044348e-09  -3.4159757e-03   6.8470822e-01   5.2488449e-01  -9.1122719e+06
   1.3071024e-09  -3.3917546e-03   6.8409004e-01   5.2539993e-01  -9.0476138e+06
   1.3097699e-09  -3.3677053e-03   6.8347670e-01   5.2591214e-01  -8.9834159e+06
   1.3124375e-09  -3.3438266e-03   6.8286815e-01   5.2642113e-01  -8.9196749e+06
   1.3151050e-09  -3.3201174e-03   6.8226436e-01   5.2692691e-01  -8.8563876e+06
   1.3177726e-09  -3.2965765e-03   6.8166528e-01   5.2742952e-01  -8.7935506e+06
   1.3204401e-09  -3.2732025e-03   6.8107087e-01   5.2792895e-01  -8.7311608e+06
   1.3231077e-09  -3.2499944e-03   6.8048110e-01   5.2842524e-01  -8.6692148e+06
   1.3257753e-09  -3.2269509e-03   6.7989593e-01   5.2891840e-01  -8.6077096e+06
   1.3284428e-09  -3.2040709e-03   6.7931531e-01   5.2940844e-01  -8.5466420e+06
   1.3311104e-09  -3.1813533e-03   6.7873922e-01   5.2989538e-01  -8.4860087e+06
   1.3337779e-09  -3.1587968e-03   6.7816760e-01   5.3037924e-01  -8.4258068e+06
   1.3364455e-09  -3.1364003e-03   6.7760043e-01   5.3086003e-01  -8.3660330e+06
   1.3391130e-09  -3.1141627e-03   6.7703766e-01   5.3133778e-01  -8.3066844e+06
   1.3417806e-09  -3.0920829e-03   6.7647926e-01   5.3181250e-01  -8.2477578e+06
   1.3444481e-09  -3.0701596e-03   6.7592520e-01   5.3228420e-01  -8.1892503e+06
   1.3471157e-09  -3.0483920e-03   6.7537543e-01   5.3275291e-01  -8.1311588e+06
   1.3497833e-09  -3.0267787e-03   6.7482992e-01   5.3321863e-01  -8.0734804e+06
   1.3524508e-09  -3.0053187e-03   6.7428864e-01   5.3368139e-01  -8.0162120e+06
   1.3551184e-09  -2.9840109e-03   6.7375154e-01   5.3414120e-01  -7.9593508e+06
   1.3577859e-09  -2.9628543e-03   6.7321860e-01   5.3459808e-01  -7.9028938e+06
   1.3604535e-09  -2.9418478e-03   6.7268978e-01   5.3505205e-01  -7.8468382e+06
   1.3631210e-09  -2.9209903e-03   6.7216505e-01   5.3550311e-01  -7.7911810e+06
   1.3657886e-09  -2.9002807e-03   6.7164437e-01   5.3595130e-01  -7.7359194e+06
   1.3684562e-09  -2.8797179e-03   6.7112771e-01   5.3639661e-01  -7.6810505e+06
   1.3711237e-09  -2.8593011e-03   6.7061504e-01   5.3683908e-01  -7.6265716e+06
   1.3737913e-09  -2.8390290e-03   6.7010631e-01   5.3727871e-01  -7.5724799e+06
   1.3764588e-09  -2.8189007e-03   6.6960151e-01   5.3771553e-01  -7.5187726e+06
   1.3791264e-09  -2.7989152e-03   6.6910059e-01   5.3814954e-01  -7.4654469e+06
   1.3817939e-09  -2.7790714e-03   6.6860353e-01   5.3858076e-01  -7.4125001e+06
   1.3844615e-09  -2.7593684e-03   6.6811029e-01   5.3900922e-01  -7.3599294e+06
   1.3871290e-09  -2.7398051e-03   6.6762085e-01   5.3943492e-01  -7.3077323e+06
   1.3897966e-09  -2.7203805e-03   6.6713516e-01   5.3985788e-01  -7.2559061e+06
   1.3924642e-09  -2.7010937e-03   6.6665321e-01   5.4027812e-01  -7.2044480e+06
   1.3951317e-09  -2.6819437e-03   6.6617495e-01   5.4069565e-01  -7.1533554e+06
   1.3977993e-09  -2.6629295e-03   6.6570036e-01   5.4111048e-01  -7.1026258e+06
   1.4004668e-09  -2.6440501e-03   6.6522942e-01   5.4152264e-01  -7.0522565e+06
   1.4031344e-09  -2.6253046e-03   6.6476208e-01   5.4193214e-01  -7.0022450e+06
   1.4058019e-09  -2.6066920e-03   6.6429832e-01   5.4233899e-01  -6.9525887e+06
   1.4084695e-09  -2.5882115e-03   6.6383811e-01   5.4274322e-01  -6.9032850e+06
   1.4111370e-09  -2.5698619e-03   6.6338142e-01   5.4314482e-01  -6.8543315e+06
   1.4138046e-09  -2.5516426e-03   6.6292822e-01   5.4354383e-01  -6.8057257e+06
   1.4164722e-09  -2.5335524e-03   6.6247849e-01   5.4394025e-01  -6.7574650e+06
   1.4191397e-09  -2.5155904e-03   6.6203220e-01   5.4433410e-01  -6.7095470e+06
   1.4218073e-09  -2.4977559e-03   6.6158931e-01   5.4472539e-01  -6.6619692e+06
   1.4244748e-09  -2.4800478e-03   6.6114980e-01   5.4511414e-01  -6.6147293e+06
   1.4271424e-09  -2.4624653e-03   6.6071364e-01   5.4550037e-01  -6.5678248e+06
   1.4298099e-09  -2.4450075e-03   6.6028081e-01   5.4588409e-01  -6.5212533e+06
   1.4324775e-09  -2.4276734e-03   6.5985128e-01   5.4626531e-01  -6.4750124e+06
   1.4351450e-09  -2.4104623e-03   6.5942502e-01   5.4664405e-01  -6.4290998e+06
   1.4378126e-09  -2.3933732e-03   6.5900201e-01   5.4702032e-01  -6.3835132e+06
   1.4404802e-09  -2.3764053e-03   6.5858221e-01   5.4739414e-01  -6.3382502e+06
   1.4431477e-09  -2.3595576e-03   6.5816561e-01   5.4776552e-01  -6.2933084e+06
   1.4458153e-09  -2.3428295e-03   6.5775217e-01   5.4813448e-01  -6.2486857e+06
   1.4484828e-09  -2.3262200e-03   6.5734188e-01   5.4850102e-01  -6.2043798e+06
   1.4511504e-09  -2.3097282e-03   6.5693470e-01   5.4886518e-01  -6.1603883e+06
   1.4538179e-09  -2.2933533e-03   6.5653061e-01   5.4922695e-01  -6.1167090e+06
   1.4564855e-09  -2.2770946e-03   6.5612959e-01   5.4958636e-01  -6.0733398e+06
   1.4591531e-09  -2.2609511e-03   6.5573161e-01   5.4994341e-01  -6.0302783e+06
   1.4618206e-09  -2.2449221e-03   6.5533665e-01   5.5029812e-01  -5.9875225e+06
   1.4644882e-09  -2.2290068e-03   6.5494468e-01   5.5065051e-01  -5.9450701e+06
   1.4671557e-09  -2.2132043e-03   6.5455568e-01   5.5100059e-01  -5.9029190e+06
   1.4698233e-09  -2.1975138e-03   6.5416962e-01   5.5134837e-01  -5.8610670e+06
   1.4724908e-09  -2.1819346e-03   6.5378649e-01   5.5169387e-01  -5.8195120e+06
   1.4751584e-09  -2.1664658e-03   6.5340625e-01   5.5203710e-01  -5.7782518e+06
   1.4778259e-09  -2.1511067e-03   6.5302889e-01   5.5237808e-01  -5.7372845e+06
   1.4804935e-09  -2.1358565e-03   6.5265438e-01   5.5271681e-01  -5.6966078e+06
   1.4831611e-09  -2.1207145e-03   6.5228270e-01   5.5305331e-01  -5.6562197e+06
   1.4858286e-09  -2.1056797e-03   6.5191383e-01   5.5338760e-01  -5.6161182e+06
   1.4884962e-09  -2.0907516e-03   6.5154774e-01   5.5371968e-01  -5.5763013e+06
   1.4911637e-09  -2.0759293e-03   6.5118441e-01   5.5404958e-01  -5.5367668e+06
   1.4938313e-09  -2.0612121e-03   6.5082382e-01   5.5437730e-01  -5.4975128e+06
   1.4964988e-09  -2.0465992e-03   6.5046595e-01   5.5470286e-01  -5.4585373e+06
   1.4991664e-09  -2.0320900e-03   6.5011078e-01   5.5502627e-01  -5.4198384e+06
   1.5018339e-09  -2.0176836e-03   6.4975828e-01   5.5534754e-01  -5.3814139e+06
   1.5045015e-09  -2.0033793e-03   6.4940844e-01   5.5566670e-01  -5.3432621e+06
   1.5071691e-09  -1.9891765e-03   6.4906123e-01   5.5598374e-01  -5.3053809e+06
   1.5098366e-09  -1.9750743e-03   6.4871663e-01   5.5629868e-01  -5.2677684e+06
   1.5125042e-09  -1.9610721e-03   6.4837462e-01   5.5661154e-01  -5.2304227e+06
   1.5151717e-09  -1.9471692e-03   6.4803519e-01   5.5692233e-01  -5.1933420e+06
   1.5178393e-09  -1.9333648e-03   6.4769830e-01   5.5723106e-01  -5.1565242e+06
   1.5205068e-09  -1.9196583e-03   6.4736394e-01   5.5753774e-01  -5.1199676e+06
   1.5231744e-09  -1.9060490e-03   6.4703210e-01   5.5784239e-01  -5.0836704e+06
   1.5258419e-09  -1.8925362e-03   6.4670274e-01   5.5814501e-01  -5.0476306e+06
   1.5285095e-09  -1.8791191e-03   6.4637585e-01   5.5844563e-01  -5.0118464e+06
   1.5311771e-09  -1.8657972e-03   6.4605142e-01   5.5874425e-01  -4.9763160e+06
   1.5338446e-09  -1.8525697e-03   6.4572942e-01   5.5904089e-01  -4.9410376e+06
   1.5365122e-09  -1.8394360e-03   6.4540983e-01   5.5933555e-01  -4.9060094e+06
   1.5391797e-09  -1.8263954e-03   6.4509264e-01   5.5962826e-01  -4.8712297e+06
   1.5418473e-09  -1.8134473e-03   6.4477782e-01   5.5991902e-01  -4.8366966e+06
   1.5445148e-09  -1.8005909e-03   6.4446535e-01   5.6020784e-01  -4.8024084e+06
   1.5471824e-09  -1.7878257e-03   6.4415523e-01   5.6049474e-01  -4.7683634e+06
   1.5498499e-09  -1.7751510e-03   6.4384742e-01   5.6077972e-01  -4.7345599e+06
   1.5525175e-09  -1.7625661e-03   6.4354191e-01   5.6106281e-01  -4.7009960e+06
   1.5551851e-09  -1.7500704e-03   6.4323869e-01   5.6134401e-01  -4.6676702e+06
   1.5578526e-09  -1.7376633e-03   6.4293774e-01   5.6162333e-01  -4.6345807e+06
   1.5605202e-09  -1.7253442e-03   6.4263903e-01   5.6190079e-01  -4.6017259e+06
   1.5631877e-09  -1.7131124e-03   6.4234255e-01   5.6217639e-01  -4.5691041e+06
   1.5658553e-09  -1.7009674e-03   6.4204828e-01   5.6245016e-01  -4.5367136e+06
   1.5685228e-09  -1.6889084e-03   6.4175621e-01   5.6272209e-01  -4.5045528e+06
   1.5711904e-09  -1.6769349e-03   6.4146632e-01   5.6299221e-01  -4.4726200e+06
   1.5738580e-09  -1.6650463e-03   6.4117859e-01   5.6326051e-01  -4.4409136e+06
   1.5765255e-09  -1.6532419e-03   6.4089300e-01   5.6352703e-01  -4.4094321e+06
   1.5791931e-09  -1.6415213e-03   6.4060954e-01   5.6379175e-01  -4.3781739e+06
   1.5818606e-09  -1.6298837e-03   6.4032820e-01   5.6405471e-01  -4.3471372e+06
   1.5845282e-09  -1.6183286e-03   6.4004894e-01   5.6431590e-01  -4.3163207e+06
   1.5871957e-09  -1.6068555e-03   6.3977177e-01   5.6457534e-01  -4.2857226e+06
   1.5898633e-09  -1.5954636e-03   6.3949665e-01   5.6483304e-01  -4.2553415e+06
   1.5925308e-09  -1.5841526e-03   6.3922359e-01   5.6508902e-01  -4.2251758e+06
   1.5951984e-09  -1.5729217e-03   6.3895255e-01   5.6534327e-01  -4.1952240e+06
   1.5978660e-09  -1.5617704e-03   6.3868353e-01   5.6559582e-01  -4.1654845e+06
   1.6005335e-09  -1.5506982e-03   6.3841651e-01   5.6584667e-01  -4.1359559e+06
   1.6032011e-09  -1.5397045e-03   6.3815147e-01   5.6609583e-01  -4.1066367e+06
   1.6058686e-09  -1.5287887e-03   6.3788840e-01   5.6634332e-01  -4.0775253e+06
   1.6085362e-09  -1.5179502e-03   6.3762728e-01   5.6658914e-01  -4.0486204e+06
   1.6112037e-09  -1.5071886e-03   6.3736810e-01   5.6683332e-01  -4.0199204e+06
   1.6138713e-09  -1.4965033e-03   6.3711084e-01   5.6707584e-01  -3.9914238e+06
   1.6165388e-09  -1.4858938e-03   6.3685549e-01   5.6731674e-01  -3.9631293e+06
   1.6192064e-09  -1.4753594e-03   6.3660204e-01   5.6755601e-01  -3.9350354e+06
   1.6218740e-09  -1.4648998e-03   6.3635046e-01   5.6779367e-01  -3.9071406e+06
   1.6245415e-09  -1.4545142e-03   6.3610075e-01   5.6802973e-01  -3.8794436e+06
   1.6272091e-09  -1.4442023e-03   6.3585288e-01   5.6826419e-01  -3.8519430e+06
   1.6298766e-09  -1.4339635e-03   6.3560685e-01   5.6849707e-01  -3.8246374e+06
   1.6325442e-09  -1.4237973e-03   6.3536265e-01   5.6872839e-01  -3.7975253e+06
   1.6352117e-09  -1.4137032e-03   6.3512025e-01   5.6895814e-01  -3.7706054e+06
   1.6378793e-09  -1.4036806e-03   6.3487964e-01   5.6918634e-01  -3.7438764e+06
   1.6405468e-09  -1.3937290e-03   6.3464081e-01   5.6941299e-01  -3.7173368e+06
   1.6432144e-09  -1.3838480e-03   6.3440375e-01   5.6963812e-01  -3.6909854e+06
   1.6458820e-09  -1.3740370e-03   6.3416844e-01   5.6986172e-01  -3.6648208e+06
   1.6485495e-09  -1.3642956e-03   6.3393487e-01   5.7008382e-01  -3.6388417e+06
   1.6512171e-09  -1.3546233e-03   6.3370303e-01   5.7030440e-01  -3.6130468e+06
   1.6538846e-09  -1.3450195e-03   6.3347290e-01   5.7052350e-01  -3.5874347e+06
   1.6565522e-09  -1.3354837e-03   6.3324447e-01   5.7074111e-01  -3.5620042e+06
   1.6592197e-09  -1.3260156e-03   6.3301772e-01   5.7095725e-01  -3.5367539e+06
   1.6618873e-09  -1.3166146e-03   6.3279265e-01   5.7117193e-01  -3.5116827e+06
   1.6645549e-09  -1.3072803e-03   6.3256923e-01   5.7138515e-01  -3.4867892e+06
   1.6672224e-09  -1.2980121e-03   6.3234747e-01   5.7159692e-01  -3.4620721e+06
   1.6698900e-09  -1.2888096e-03   6.3212734e-01   5.7180726e-01  -3.4375302e+06
   1.6725575e-09  -1.2796723e-03   6.3190883e-01   5.7201618e-01  -3.4131624e+06
   1.6752251e-09  -1.2705998e-03   6.3169194e-01   5.7222367e-01  -3.3889672e+06
   1.6778926e-09  -1.2615917e-03   6.3147664e-01   5.7242976e-01  -3.3649436e+06
   1.6805602e-09  -1.2526473e-03   6.3126293e-01   5.7263445e-01  -3.3410903e+06
   1.6832277e-09  -1.2437664e-03   6.3105079e-01   5.7283774e-01  -3.3174060e+06
   1.6858953e-09  -1.2349485e-03   6.3084021e-01   5.7303966e-01  -3.2938896e+06
   1.6885629e-09  -1.2261930e-03   6.3063118e-01   5.7324020e-01  -3.2705400e+06
   1.6912304e-09  -1.2174996e-03   6.3042369e-01   5.7343938e-01  -3.2473558e+06
   1.6938980e-09  -1.2088679e-03   6.3021773e-01   5.7363721e-01  -3.2243360e+06
   1.6965655e-09  -1.2002973e-03   6.3001328e-01   5.7383369e-01  -3.2014794e+06
   1.6992331e-09  -1.1917875e-03   6.2981033e-01   5.7402883e-01  -3.1787847e+06
   1.7019006e-09  -1.1833380e-03   6.2960888e-01   5.7422265e-01  -3.1562510e+06
   1.7045682e-09  -1.1749484e-03   6.2940891e-01   5.7441514e-01  -3.1338769e+06
   1.7072357e-09  -1.1666183e-03   6.2921040e-01   5.7460633e-01  -3.1116615e+06
   1.7099033e-09  -1.1583472e-03   6.2901336e-01   5.7479621e-01  -3.0896035e+06
   1.7125709e-09  -1.1501348e-03   6.2881776e-01   5.7498480e-01  -3.0677019e+06
   1.7152384e-09  -1.1419806e-03   6.2862360e-01   5.7517210e-01  -3.0459556e+06
   1.7179060e-09  -1.1338842e-03   6.2843086e-01   5.7535813e-01  -3.0243633e+06
   1.7205735e-09  -1.1258451e-03   6.2823953e-01   5.7554288e-01  -3.0029242e+06
   1.7232411e-09  -1.1178631e-03   6.2804961e-01   5.7572638e-01  -2.9816369e+06
   1.7259086e-09  -1.1099376e-03   6.2786109e-01   5.7590862e-01  -2.9605006e+06
   1.7285762e-09  -1.1020684e-03   6.2767394e-01   5.7608962e-01  -2.9395141e+06
   1.7312437e-09  -1.0942549e-03   6.2748817e-01   5.7626939e-01  -2.9186764e+06
   1.7339113e-09  -1.0864968e-03   6.2730376e-01   5.7644792e-01  -2.8979863e+06
   1.7365789e-09  -1.0787937e-03   6.2712070e-01   5.7662524e-01  -2.8774429e+06
   1.7392464e-09  -1.0711452e-03   6.2693898e-01   5.7680135e-01  -2.8570451e+06
   1.7419140e-09  -1.0635509e-03   6.2675859e-01   5.7697625e-01  -2.8367919e+06
   1.7445815e-09  -1.0560105e-03   6.2657953e-01   5.7714995e-01  -2.8166823e+06
   1.7472491e-09  -1.0485235e-03   6.2640177e-01   5.7732247e-01  -2.7967151e+06
   1.7499166e-09  -1.0410896e-03   6.2622532e-01   5.7749381e-01  -2.7768896e+06
   1.7525842e-09  -1.0337084e-03   6.2605015e-01   5.7766397e-01  -2.7572045e+06
   1.7552518e-09  -1.0263795e-03   6.2587627e-01   5.7783297e-01  -2.7376590e+06
   1.7579193e-09  -1.0191025e-03   6.2570366e-01   5.7800082e-01  -2.7182520e+06
   1.7605869e-09  -1.0118772e-03   6.2553231e-01   5.7816751e-01  -2.6989825e+06
   1.7632544e-09  -1.0047030e-03   6.2536222e-01   5.7833306e-01  -2.6798497e+06
   1.7659220e-09  -9.9757976e-04   6.2519337e-01   5.7849748e-01  -2.6608524e+06
   1.7685895e-09  -9.9050699e-04   6.2502575e-01   5.7866077e-01  -2.6419898e+06
   1.7712571e-09  -9.8348434e-04   6.2485936e-01   5.7882295e-01  -2.6232609e+06
   1.7739246e-09  -9.7651149e-04   6.2469418e-01   5.7898401e-01  -2.6046648e+06
   1.7765922e-09  -9.6958806e-04   6.2453021e-01   5.7914396e-01  -2.5862005e+06
   1.7792598e-09  -9.6271371e-04   6.2436744e-01   5.7930282e-01  -2.5678670e+06
   1.7819273e-09  -9.5588810e-04   6.2420585e-01   5.7946059e-01  -2.5496635e+06
   1.7845949e-09  -9.4911087e-04   6.2404544e-01   5.7961727e-01  -2.5315890e+06
   1.7872624e-09  -9.4238168e-04   6.2388621e-01   5.7977288e-01  -2.5136426e+06
   1.7899300e-09  -9.3570020e-04   6.2372814e-01   5.7992743e-01  -2.4958234e+06
   1.7925975e-09  -9.2906608e-04   6.2357122e-01   5.8008091e-01  -2.4781305e+06
   1.7952651e-09  -9.2247899e-04   6.2341544e-01   5.8023333e-01  -2.4605631e+06
   1.7979326e-09  -9.1593860e-04   6.2326080e-01   5.8038471e-01  -2.4431201e+06
   1.8006002e-09  -9.0944457e-04   6.2310729e-01   5.8053505e-01  -2.4258008e+06
   1.8032678e-09  -9.0299658e-04   6.2295490e-01   5.8068435e-01  -2.4086042e+06
   1.8059353e-09  -8.9659430e-04   6.2280362e-01   5.8083263e-01  -2.3915295e+06
   1.8086029e-09  -8.9023741e-04   6.2265344e-01   5.8097989e-01  -2.3745759e+06
   1.8112704e-09  -8.8392557e-04   6.2250435e-01   5.8112614e-01  -2.3577424e+06
   1.8139380e-09  -8.7765849e-04   6.2235635e-01   5.8127138e-01  -2.3410282e+06
   1.8166055e-09  -8.7143583e-04   6.2220943e-01   5.8141562e-01  -2.3244325e+06
   1.8192731e-09  -8.6525729e-04   6.2206358e-01   5.8155886e-01  -2.3079544e+06
   1.8219406e-09  -8.5912254e-04   6.2191878e-01   5.8170113e-01  -2.2915931e+06
   1.8246082e-09  -8.5303128e-04   6.2177505e-01   5.8184241e-01  -2.2753478e+06
   1.8272758e-09  -8.4698321e-04   6.2163236e-01   5.8198272e-01  -2.2592176e+06
   1.8299433e-09  -8.4097801e-04   6.2149070e-01   5.8212206e-01  -2.2432018e+06
   1.8326109e-09  -8.3501539e-04   6.2135008e-01   5.8226044e-01  -2.2272994e+06
   1.8352784e-09  -8.2909503e-04   6.2121048e-01   5.8239787e-01  -2.2115098e+06
   1.8379460e-09  -8.2321664e-04   6.2107190e-01   5.8253435e-01  -2.1958321e+06
   1.8406135e-09  -8.1737993e-04   6.2093432e-01   5.8266989e-01  -2.1802655e+06
   1.8432811e-09  -8.1158459e-04   6.2079775e-01   5.8280449e-01  -2.1648093e+06
   1.8459486e-09  -8.0583034e-04   6.2066216e-01   5.8293817e-01  -2.1494626e+06
   1.8486162e-09  -8.0011688e-04   6.2052756e-01   5.8307092e-01  -2.1342247e+06
   1.8512838e-09  -7.9444392e-04   6.2039394e-01   5.8320276e-01  -2.1190948e+06
   1.8539513e-09  -7.8881118e-04   6.2026129e-01   5.8333369e-01  -2.1040721e+06
   1.8566189e-09  -7.8321838e-04   6.2012961e-01   5.8346371e-01  -2.0891559e+06
   1.8592864e-09  -7.7766522e-04   6.1999888e-01   5.8359284e-01  -2.0743454e+06
   1.8619540e-09  -7.7215143e-04   6.1986909e-01   5.8372108e-01  -2.0596399e+06
   1.8646215e-09  -7.6667672e-04   6.1974026e-01   5.8384842e-01  -2.0450387e+06
   1.8672891e-09  -7.6124083e-04   6.1961235e-01   5.8397489e-01  -2.0305409e+06
   1.8699567e-09  -7.5584348e-04   6.1948538e-01   5.8410049e-01  -2.0161459e+06
   1.8726242e-09  -7.5048438e-04   6.1935932e-01   5.8422522e-01  -2.0018529e+06
   1.8752918e-09  -7.4516328e-04   6.1923418e-01   5.8434908e-01  -1.9876612e+06
   1.8779593e-09  -7.3987991e-04   6.1910995e-01   5.8447209e-01  -1.9735701e+06
   1.8806269e-09  -7.3463398e-04   6.1898662e-01   5.8459425e-01  -1.9595789e+06
   1.8832944e-09  -7.2942525e-04   6.1886418e-01   5.8471557e-01  -1.9456869e+06
   1.8859620e-09  -7.2425345e-04   6.1874263e-01   5.8483604e-01  -1.9318933e+06
   1.8886295e-09  -7.1911831e-04   6.1862197e-01   5.8495568e-01  -1.9181975e+06
   1.8912971e-09  -7.1401957e-04   6.1850217e-01   5.8507450e-01  -1.9045988e+06
   1.8939647e-09  -7.0895698e-04   6.1838325e-01   5.8519249e-01  -1.8910964e+06
   1.8966322e-09  -7.0393028e-04   6.1826518e-01   5.8530966e-01  -1.8776898e+06
   1.8992998e-09  -6.9893922e-04   6.1814798e-01   5.8542603e-01  -1.8643782e+06
   1.9019673e-09  -6.9398354e-04   6.1803162e-01   5.8554158e-01  -1.8511609e+06
   1.9046349e-09  -6.8906299e-04   6.1791610e-01   5.8565634e-01  -1.8380374e+06
   1.9073024e-09  -6.8417732e-04   6.1780142e-01   5.8577030e-01  -1.8250068e+06
   1.9099700e-09  -6.7932630e-04   6.1768757e-01   5.8588347e-01  -1.8120686e+06
   1.9126375e-09  -6.7450966e-04   6.1757455e-01   5.8599586e-01  -1.7992221e+06
   1.9153051e-09  -6.6972717e-04   6.1746234e-01   5.8610747e-01  -1.7864667e+06
   1.9179727e-09  -6.6497859e-04   6.1735094e-01   5.8621831e-01  -1.7738017e+06
   1.9206402e-09  -6.6026367e-04   6.1724036e-01   5.8632838e-01  -1.7612265e+06
   1.9233078e-09  -6.5558217e-04   6.1713057e-01   5.8643768e-01  -1.7487403e+06
   1.9259753e-09  -6.5093387e-04   6.1702157e-01   5.8654623e-01  -1.7363427e+06
   1.9286429e-09  -6.4631852e-04   6.1691337e-01   5.8665402e-01  -1.7240330e+06
   1.9313104e-09  -6.4173589e-04   6.1680594e-01   5.8676107e-01  -1.7118105e+06
   1.9339780e-09  -6.3718575e-04   6.1669929e-01   5.8686737e-01  -1.6996747e+06
   1.9366455e-09  -6.3266786e-04   6.1659342e-01   5.8697294e-01  -1.6876249e+06
   1.9393131e-09  -6.2818201e-04   6.1648831e-01   5.8707777e-01  -1.6756604e+06
   1.9419807e-09  -6.2372796e-04   6.1638396e-01   5.8718187e-01  -1.6637808e+06
   1.9446482e-09  -6.1930548e-04   6.1628036e-01   5.8728526e-01  -1.6519854e+06
   1.9473158e-09  -6.1491436e-04   6.1617751e-01   5.8738792e-01  -1.6402736e+06
   1.9499833e-09  -6.1055437e-04   6.1607541e-01   5.8748987e-01  -1.6286448e+06
   1.9526509e-09  -6.0622529e-04   6.1597404e-01   5.8759112e-01  -1.6170985e+06
   1.9553184e-09  -6.0192690e-04   6.1587341e-01   5.8769166e-01  -1.6056340e+06
   1.9579860e-09  -5.9765899e-04   6.1577350e-01   5.8779150e-01  -1.5942507e+06
   1.9606536e-09  -5.9342133e-04   6.1567431e-01   5.8789065e-01  -1.5829482e+06
   1.9633211e-09  -5.8921371e-04   6.1557584e-01   5.8798911e-01  -1.5717257e+06
   1.9659887e-09  -5.8503593e-04   6.1547808e-01   5.8808688e-01  -1.5605828e+06
   1.9686562e-09  -5.8088776e-04   6.1538103e-01   5.8818398e-01  -1.5495189e+06
   1.9713238e-09  -5.7676901e-04   6.1528468e-01   5.8828040e-01  -1.5385334e+06
   1.9739913e-09  -5.7267945e-04   6.1518902e-01   5.8837615e-01  -1.5276258e+06
   1.9766589e-09  -5.6861889e-04   6.1509405e-01   5.8847123e-01  -1.5167955e+06
   1.9793264e-09  -5.6458712e-04   6.1499977e-01   5.8856565e-01  -1.5060419e+06
   1.9819940e-09  -5.6058392e-04   6.1490617e-01   5.8865942e-01  -1.4953646e+06
   1.9846616e-09  -5.5660911e-04   6.1481324e-01   5.8875253e-01  -1.4847630e+06
   1.9873291e-09  -5.5266249e-04   6.1472098e-01   5.8884499e-01  -1.4742365e+06
   1.9899967e-09  -5.4874384e-04   6.1462939e-01   5.8893682e-01  -1.4637847e+06
   1.9926642e-09  -5.4485297e-04   6.1453846e-01   5.8902800e-01  -1.4534069e+06
   1.9953318e-09  -5.4098969e-04   6.1444819e-01   5.8911855e-01  -1.4431027e+06
   1.9979993e-09  -5.3715379e-04   6.1435856e-01   5.8920846e-01  -1.4328715e+06
   2.0006669e-09  -5.3334510e-04   6.1426958e-01   5.8929775e-01  -1.4227128e+06
   2.0033344e-09  -5.2956340e-04   6.1418125e-01   5.8938642e-01  -1.4126262e+06
   2.0060020e-09  -5.2580852e-04   6.1409355e-01   5.8947447e-01  -1.4026110e+06
   2.0086696e-09  -5.2208026e-04   6.1400648e-01   5.8956191e-01  -1.3926669e+06
   2.0113371e-09  -5.1837843e-04   6.1392004e-01   5.8964874e-01  -1.3827932e+06
   2.0140047e-09  -5.1470284e-04   6.1383422e-01   5.8973497e-01  -1.3729895e+06
   2.0166722e-09  -5.1105332e-04   6.1374902e-01   5.8982059e-01  -1.3632553e+06
   2.0193398e-09  -5.0742967e-04   6.1366443e-01   5.8990562e-01  -1.3535902e+06
   2.0220073e-09  -5.0383170e-04   6.1358046e-01   5.8999005e-01  -1.3439935e+06
   2.0246749e-09  -5.0025925e-04   6.1349708e-01   5.9007390e-01  -1.3344648e+06
   2.0273424e-09  -4.9671213e-04   6.1341431e-01   5.9015716e-01  -1.3250037e+06
   2.0300100e-09  -4.9319015e-04   6.1333214e-01   5.9023984e-01  -1.3156097e+06
   2.0326776e-09  -4.8969315e-04   6.1325055e-01   5.9032194e-01  -1.3062823e+06
   2.0353451e-09  -4.8622094e-04   6.1316955e-01   5.9040347e-01  -1.2970209e+06
   2.0380127e-09  -4.8277334e-04   6.1308914e-01   5.9048443e-01  -1.2878252e+06
   2.0406802e-09  -4.7935019e-04   6.1300930e-01   5.9056483e-01  -1.2786947e+06
   2.0433478e-09  -4.7595131e-04   6.1293004e-01   5.9064467e-01  -1.2696290e+06
   2.0460153e-09  -4.7257652e-04   6.1285135e-01   5.9072395e-01  -1.2606275e+06
   2.0486829e-09  -4.6922567e-04   6.1277323e-01   5.9080267e-01  -1.2516898e+06
   2.0513505e-09  -4.6589857e-04   6.1269566e-01   5.9088085e-01  -1.2428154e+06
   2.0540180e-09  -4.6259506e-04   6.1261866e-01   5.9095848e-01  -1.2340040e+06
   2.0566856e-09  -4.5931497e-04   6.1254221e-01   5.9103557e-01  -1.2252550e+06
   2.0593531e-09  -4.5605813e-04   6.1246631e-01   5.9111212e-01  -1.2165681e+06
   2.0620207e-09  -4.5282439e-04   6.1239095e-01   5.9118814e-01  -1.2079427e+06
   2.0646882e-09  -4.4961357e-04   6.1231614e-01   5.9126362e-01  -1.1993784e+06
   2.0673558e-09  -4.4642552e-04   6.1224186e-01   5.9133858e-01  -1.1908749e+06
   2.0700233e-09  -4.4326007e-04   6.1216812e-01   5.9141302e-01  -1.1824317e+06
   2.0726909e-09  -4.4011706e-04   6.1209491e-01   5.9148693e-01  -1.1740483e+06
   2.0753585e-09  -4.3699634e-04   6.1202222e-01   5.9156033e-01  -1.1657243e+06
   2.0780260e-09  -4.3389774e-04   6.1195006e-01   5.9163322e-01  -1.1574593e+06
   2.0806936e-09  -4.3082112e-04   6.1187842e-01   5.9170559e-01  -1.1492530e+06
   2.0833611e-09  -4.2776630e-04   6.1180729e-01   5.9177746e-01  -1.1411048e+06
   2.0860287e-09  -4.2473315e-04   6.1173667e-01   5.9184883e-01  -1.1330143e+06
   2.0886962e-09  -4.2172150e-04   6.1166656e-01   5.9191970e-01  -1.1249812e+06
   2.0913638e-09  -4.1873120e-04   6.1159695e-01   5.9199007e-01  -1.1170051e+06
   2.0940313e-09  -4.1576210e-04   6.1152784e-01   5.9205996e-01  -1.1090855e+06
   2.0966989e-09  -4.1281406e-04   6.1145923e-01   5.9212935e-01  -1.1012220e+06
   2.0993665e-09  -4.0988691e-04   6.1139111e-01   5.9219826e-01  -1.0934143e+06
   2.1020340e-09  -4.0698052e-04   6.1132348e-01   5.9226668e-01  -1.0856620e+06
   2.1047016e-09  -4.0409474e-04   6.1125634e-01   5.9233463e-01  -1.0779646e+06
   2.1073691e-09  -4.0122941e-04   6.1118968e-01   5.9240210e-01  -1.0703217e+06
   2.1100367e-09  -3.9838441e-04   6.1112349e-01   5.9246910e-01  -1.0627330e+06
   2.1127042e-09  -3.9555957e-04   6.1105779e-01   5.9253563e-01  -1.0551982e+06
   2.1153718e-09  -3.9275476e-04   6.1099255e-01   5.9260170e-01  -1.0477167e+06
   2.1180393e-09  -3.8996984e-04   6.1092778e-01   5.9266730e-01  -1.0402883e+06
   2.1207069e-09  -3.8720466e-04   6.1086348e-01   5.9273245e-01  -1.0329125e+06
   2.1233745e-09  -3.8445909e-04   6.1079963e-01   5.9279714e-01  -1.0255891e+06
   2.1260420e-09  -3.8173298e-04   6.1073625e-01   5.9286137e-01  -1.0183175e+06
   2.1287096e-09  -3.7902621e-04   6.1067332e-01   5.9292516e-01  -1.0110975e+06
   2.1313771e-09  -3.7633862e-04   6.1061084e-01   5.9298850e-01  -1.0039287e+06
   2.1340447e-09  -3.7367009e-04   6.1054881e-01   5.9305139e-01  -9.9681065e+05
   2.1367122e-09  -3.7102048e-04   6.1048723e-01   5.9311385e-01  -9.8974311e+05
   2.1393798e-09  -3.6838966e-04   6.1042609e-01   5.9317587e-01  -9.8272566e+05
   2.1420473e-09  -3.6577749e-04   6.1036538e-01   5.9323745e-01  -9.7575796e+05
   2.1447149e-09  -3.6318384e-04   6.1030511e-01   5.9329860e-01  -9.6883966e+05
   2.1473825e-09  -3.6060858e-04   6.1024528e-01   5.9335933e-01  -9.6197040e+05
   2.1500500e-09  -3.5805158e-04   6.1018587e-01   5.9341963e-01  -9.5514984e+05
   2.1527176e-09  -3.5551271e-04   6.1012689e-01   5.9347950e-01  -9.4837763e+05
   2.1553851e-09  -3.5299184e-04   6.1006833e-01   5.9353896e-01  -9.4165343e+05
   2.1580527e-09  -3.5048884e-04   6.1001019e-01   5.9359800e-01  -9.3497690e+05
   2.1607202e-09  -3.4800359e-04   6.0995246e-01   5.9365663e-01  -9.2834770e+05
   2.1633878e-09  -3.4553596e-04   6.0989515e-01   5.9371484e-01  -9.2176549e+05
   2.1660554e-09  -3.4308583e-04   6.0983826e-01   5.9377265e-01  -9.1522995e+05
   2.1687229e-09  -3.4065307e-04   6.0978177e-01   5.9383005e-01  -9.0874074e+05
   2.1713905e-09  -3.3823756e-04   6.0972568e-01   5.9388705e-01  -9.0229753e+05
   2.1740580e-09  -3.3583917e-04   6.0967000e-01   5.9394365e-01  -8.9590000e+05
   2.1767256e-09  -3.3345779e-04   6.0961471e-01   5.9399986e-01  -8.8954782e+05
   2.1793931e-09  -3.3109330e-04   6.0955982e-01   5.9405567e-01  -8.8324068e+05
   2.1820607e-09  -3.2874557e-04   6.0950533e-01   5.9411108e-01  -8.7697825e+05
   2.1847282e-09  -3.2641448e-04   6.0945122e-01   5.9416611e-01  -8.7076021e+05
   2.1873958e-09  -3.2409993e-04   6.0939750e-01   5.9422076e-01  -8.6458626e+05
   2.1900634e-09  -3.2180178e-04   6.0934417e-01   5.9427502e-01  -8.5845607e+05
   2.1927309e-09  -3.1951993e-04   6.0929122e-01   5.9432890e-01  -8.5236934e+05
   2.1953985e-09  -3.1725426e-04   6.0923865e-01   5.9438240e-01  -8.4632577e+05
   2.1980660e-09  -3.1500465e-04   6.0918645e-01   5.9443552e-01  -8.4032504e+05
   2.2007336e-09  -3.1277099e-04   6.0913463e-01   5.9448828e-01  -8.3436685e+05
   2.2034011e-09  -3.1055317e-04   6.0908318e-01   5.9454066e-01  -8.2845090e+05
   2.2060687e-09  -3.0835108e-04   6.0903210e-01   5.9459268e-01  -8.2257689e+05
   2.2087362e-09  -3.0616460e-04   6.0898138e-01   5.9464433e-01  -8.1674452e+05
   2.2114038e-09  -3.0399362e-04   6.0893103e-01   5.9469562e-01  -8.1095350e+05
   2.2140714e-09  -3.0183803e-04   6.0888103e-01   5.9474654e-01  -8.0520354e+05
   2.2167389e-09  -2.9969773e-04   6.0883140e-01   5.9479712e-01  -7.9949434e+05
   2.2194065e-09  -2.9757261e-04   6.0878212e-01   5.9484733e-01  -7.9382561e+05
   2.2220740e-09  -2.9546255e-04   6.0873319e-01   5.9489719e-01  -7.8819708e+05
   2.2247416e-09  -2.9336745e-04   6.0868461e-01   5.9494671e-01  -7.8260844e+05
   2.2274091e-09  -2.9128721e-04   6.0863638e-01   5.9499587e-01  -7.7705943e+05
   2.2300767e-09  -2.8922172e-04   6.0858850e-01   5.9504469e-01  -7.7154975e+05
   2.2327442e-09  -2.8717088e-04   6.0854096e-01   5.9509317e-01  -7.6607914e+05
   2.2354118e-09  -2.8513457e-04   6.0849376e-01   5.9514131e-01  -7.6064731e+05
   2.2380794e-09  -2.8311270e-04   6.0844689e-01   5.9518911e-01  -7.5525399e+05
   2.2407469e-09  -2.8110517e-04   6.0840036e-01   5.9523657e-01  -7.4989891e+05
   2.2434145e-09  -2.7911188e-04   6.0835417e-01   5.9528370e-01  -7.4458179e+05
   2.2460820e-09  -2.7713271e-04   6.0830830e-01   5.9533050e-01  -7.3930237e+05
   2.2487496e-09  -2.7516758e-04   6.0826276e-01   5.9537697e-01  -7.3406037e+05
   2.2514171e-09  -2.7321639e-04   6.0821755e-01   5.9542311e-01  -7.2885554e+05
   2.2540847e-09  -2.7127903e-04   6.0817266e-01   5.9546893e-01  -7.2368761e+05
   2.2567523e-09  -2.6935540e-04   6.0812809e-01   5.9551443e-01  -7.1855632e+05
   2.2594198e-09  -2.6744542e-04   6.0808385e-01   5.9555961e-01  -7.1346140e+05
   2.2620874e-09  -2.6554897e-04   6.0803991e-01   5.9560447e-01  -7.0840261e+05
   2.2647549e-09  -2.6366598e-04   6.0799629e-01   5.9564901e-01  -7.0337968e+05
   2.2674225e-09  -2.6179633e-04   6.0795299e-01   5.9569324e-01  -6.9839236e+05
   2.2700900e-09  -2.5993994e-04   6.0790999e-01   5.9573716e-01  -6.9344040e+05
   2.2727576e-09  -2.5809672e-04   6.0786730e-01   5.9578078e-01  -6.8852355e+05
   2.2754251e-09  -2.5626656e-04   6.0782491e-01   5.9582408e-01  -6.8364156e+05
   2.2780927e-09  -2.5444939e-04   6.0778283e-01   5.9586708e-01  -6.7879418e+05
   2.2807603e-09  -2.5264509e-04   6.0774105e-01   5.9590978e-01  -6.7398116e+05
   2.2834278e-09  -2.5085359e-04   6.0769957e-01   5.9595218e-01  -6.6920227e+05
   2.2860954e-09  -2.4907479e-04   6.0765838e-01   5.9599428e-01  -6.6445726e+05
   2.2887629e-09  -2.4730861e-04   6.0761749e-01   5.9603608e-01  -6.5974589e+05
   2.2914305e-09  -2.4555495e-04   6.0757689e-01   5.9607759e-01  -6.5506792e+05
   2.2940980e-09  -2.4381372e-04   6.0753658e-01   5.9611881e-01  -6.5042312e+05
   2.2967656e-09  -2.4208484e-04   6.0749656e-01   5.9615974e-01  -6.4581125e+05
   2.2994331e-09  -2.4036821e-04   6.0745683e-01   5.9620038e-01  -6.4123208e+05
   2.3021007e-09  -2.3866376e-04   6.0741737e-01   5.9624074e-01  -6.3668537e+05
   2.3047683e-09  -2.3697140e-04   6.0737820e-01   5.9628081e-01  -6.3217089e+05
   2.3074358e-09  -2.3529103e-04   6.0733931e-01   5.9632060e-01  -6.2768842e+05
   2.3101034e-09  -2.3362258e-04   6.0730070e-01   5.9636010e-01  -6.2323774e+05
   2.3127709e-09  -2.3196596e-04   6.0726236e-01   5.9639934e-01  -6.1881860e+05
   2.3154385e-09  -2.3032109e-04   6.0722430e-01   5.9643829e-01  -6.1443080e+05
   2.3181060e-09  -2.2868788e-04   6.0718651e-01   5.9647697e-01  -6.1007411e+05
   2.3207736e-09  -2.2706625e-04   6.0714899e-01   5.9651538e-01  -6.0574830e+05
   2.3234411e-09  -2.2545612e-04   6.0711174e-01   5.9655352e-01  -6.0145316e+05
   2.3261087e-09  -2.2385740e-04   6.0707475e-01   5.9659139e-01  -5.9718848e+05
   2.3287763e-09  -2.2227002e-04   6.0703803e-01   5.9662899e-01  -5.9295403e+05
   2.3314438e-09  -2.2069390e-04   6.0700157e-01   5.9666633e-01  -5.8874961e+05
   2.3341114e-09  -2.1912895e-04   6.0696537e-01   5.9670341e-01  -5.8457499e+05
   2.3367789e-09  -2.1757510e-04   6.0692942e-01   5.9674022e-01  -5.8042997e+05
   2.3394465e-09  -2.1603227e-04   6.0689374e-01   5.9677678e-01  -5.7631434e+05
   2.3421140e-09  -2.1450037e-04   6.0685831e-01   5.9681308e-01  -5.7222788e+05
   2.3447816e-09  -2.1297934e-04   6.0682313e-01   5.9684912e-01  -5.6817040e+05
   2.3474491e-09  -2.1146909e-04   6.0678820e-01   5.9688491e-01  -5.6414169e+05
   2.3501167e-09  -2.0996956e-04   6.0675353e-01   5.9692045e-01  -5.6014154e+05
   2.3527843e-09  -2.0848065e-04   6.0671910e-01   5.9695573e-01  -5.5616975e+05
   2.3554518e-09  -2.0700230e-04   6.0668491e-01   5.9699077e-01  -5.5222612e+05
   2.3581194e-09  -2.0553444e-04   6.0665097e-01   5.9702556e-01  -5.4831045e+05
   2.3607869e-09  -2.0407698e-04   6.0661727e-01   5.9706011e-01  -5.4442255e+05
   2.3634545e-09  -2.0262986e-04   6.0658382e-01   5.9709441e-01  -5.4056221e+05
   2.3661220e-09  -2.0119300e-04   6.0655060e-01   5.9712848e-01  -5.3672923e+05
   2.3687896e-09  -1.9976632e-04   6.0651762e-01   5.9716230e-01  -5.3292344e+05
   2.3714572e-09  -1.9834977e-04   6.0648487e-01   5.9719588e-01  -5.2914463e+05
   2.3741247e-09  -1.9694325e-04   6.0645236e-01   5.9722923e-01  -5.2539260e+05
   2.3767923e-09  -1.9554671e-04   6.0642008e-01   5.9726234e-01  -5.2166719e+05
   2.3794598e-09  -1.9416008e-04   6.0638803e-01   5.9729522e-01  -5.1796818e+05
   2.3821274e-09  -1.9278327e-04   6.0635620e-01   5.9732787e-01  -5.1429540e+05
   2.3847949e-09  -1.9141623e-04   6.0632461e-01   5.9736028e-01  -5.1064866e+05
   2.3874625e-09  -1.9005888e-04   6.0629324e-01   5.9739247e-01  -5.0702778e+05
   2.3901300e-09  -1.8871116e-04   6.0626209e-01   5.9742444e-01  -5.0343257e+05
   2.3927976e-09  -1.8737299e-04   6.0623117e-01   5.9745617e-01  -4.9986285e+05
   2.3954652e-09  -1.8604431e-04   6.0620047e-01   5.9748769e-01  -4.9631844e+05
   2.3981327e-09  -1.8472505e-04   6.0616998e-01   5.9751898e-01  -4.9279916e+05
   2.4008003e-09  -1.8341515e-04   6.0613972e-01   5.9755005e-01  -4.8930483e+05
   2.4034678e-09  -1.8211453e-04   6.0610967e-01   5.9758090e-01  -4.8583527e+05
   2.4061354e-09  -1.8082314e-04   6.0607983e-01   5.9761153e-01  -4.8239032e+05
   2.4088029e-09  -1.7954091e-04   6.0605020e-01   5.9764195e-01  -4.7896979e+05
   2.4114705e-09  -1.7826776e-04   6.0602079e-01   5.9767216e-01  -4.7557351e+05
   2.4141380e-09  -1.7700365e-04   6.0599159e-01   5.9770215e-01  -4.7220132e+05
   2.4168056e-09  -1.7574849e-04   6.0596259e-01   5.9773193e-01  -4.6885303e+05
   2.4194732e-09  -1.7450224e-04   6.0593381e-01   5.9776150e-01  -4.6552848e+05
   2.4221407e-09  -1.7326483e-04   6.0590522e-01   5.9779086e-01  -4.6222751e+05
   2.4248083e-09  -1.7203619e-04   6.0587685e-01   5.9782001e-01  -4.5894994e+05
   2.4274758e-09  -1.7081626e-04   6.0584867e-01   5.9784896e-01  -4.5569561e+05
   2.4301434e-09  -1.6960498e-04   6.0582069e-01   5.9787770e-01  -4.5246435e+05
   2.4328109e-09  -1.6840229e-04   6.0579292e-01   5.9790625e-01  -4.4925600e+05
   2.4354785e-09  -1.6720813e-04   6.0576534e-01   5.9793459e-01  -4.4607040e+05
   2.4381460e-09  -1.6602243e-04   6.0573796e-01   5.9796273e-01  -4.4290739e+05
   2.4408136e-09  -1.6484515e-04   6.0571077e-01   5.9799067e-01  -4.3976680e+05
   2.4434812e-09  -1.6367621e-04   6.0568378e-01   5.9801841e-01  -4.3664848e+05
   2.4461487e-09  -1.6251556e-04   6.0565698e-01   5.9804596e-01  -4.3355227e+05
   2.4488163e-09  -1.6136314e-04   6.0563037e-01   5.9807332e-01  -4.3047801e+05
   2.4514838e-09  -1.6021889e-04   6.0560395e-01   5.9810048e-01  -4.2742555e+05
   2.4541514e-09  -1.5908275e-04   6.0557772e-01   5.9812745e-01  -4.2439474e+05
   2.4568189e-09  -1.5795468e-04   6.0555167e-01   5.9815423e-01  -4.2138541e+05
   2.4594865e-09  -1.5683460e-04   6.0552581e-01   5.9818082e-01  -4.1839742e+05
   2.4621541e-09  -1.5572246e-04   6.0550014e-01   5.9820723e-01  -4.1543062e+05
   2.4648216e-09  -1.5461821e-04   6.0547465e-01   5.9823345e-01  -4.1248485e+05
   2.4674892e-09  -1.5352179e-04   6.0544934e-01   5.9825948e-01  -4.0955996e+05
   2.4701567e-09  -1.5243314e-04   6.0542421e-01   5.9828533e-01  -4.0665582e+05
   2.4728243e-09  -1.5135221e-04   6.0539926e-01   5.9831100e-01  -4.0377227e+05
   2.4754918e-09  -1.5027895e-04   6.0537448e-01   5.9833648e-01  -4.0090916e+05
   2.4781594e-09  -1.4921330e-04   6.0534989e-01   5.9836179e-01  -3.9806635e+05
   2.4808269e-09  -1.4815521e-04   6.0532547e-01   5.9838691e-01  -3.9524370e+05
   2.4834945e-09  -1.4710461e-04   6.0530122e-01   5.9841186e-01  -3.9244107e+05
   2.4861621e-09  -1.4606147e-04   6.0527714e-01   5.9843664e-01  -3.8965830e+05
   2.4888296e-09  -1.4502572e-04   6.0525324e-01   5.9846124e-01  -3.8689527e+05
   2.4914972e-09  -1.4399732e-04   6.0522951e-01   5.9848566e-01  -3.8415182e+05
   2.4941647e-09  -1.4297621e-04   6.0520595e-01   5.9850992e-01  -3.8142783e+05
   2.4968323e-09  -1.4196234e-04   6.0518255e-01   5.9853400e-01  -3.7872316e+05
   2.4994998e-09  -1.4095566e-04   6.0515932e-01   5.9855791e-01  -3.7603766e+05
   2.5021674e-09  -1.3995612e-04   6.0513626e-01   5.9858165e-01  -3.7337120e+05
   2.5048349e-09  -1.3896367e-04   6.0511336e-01   5.9860523e-01  -3.7072365e+05
   2.5075025e-09  -1.3797825e-04   6.0509062e-01   5.9862864e-01  -3.6809487e+05
   2.5101701e-09  -1.3699983e-04   6.0506805e-01   5.9865188e-01  -3.6548472e+05
   2.5128376e-09  -1.3602834e-04   6.0504563e-01   5.9867496e-01  -3.6289309e+05
   2.5155052e-09  -1.3506373e-04   6.0502338e-01   5.9869788e-01  -3.6031983e+05
   2.5181727e-09  -1.3410597e-04   6.0500128e-01   5.9872064e-01  -3.5776482e+05
   2.5208403e-09  -1.3315500e-04   6.0497934e-01   5.9874323e-01  -3.5522793e+05
   2.5235078e-09  -1.3221077e-04   6.0495756e-01   5.9876567e-01  -3.5270902e+05
   2.5261754e-09  -1.3127324e-04   6.0493593e-01   5.9878794e-01  -3.5020797e+05
   2.5288429e-09  -1.3034236e-04   6.0491446e-01   5.9881006e-01  -3.4772465e+05
   2.5315105e-09  -1.2941808e-04   6.0489314e-01   5.9883203e-01  -3.4525895e+05
   2.5341781e-09  -1.2850035e-04   6.0487197e-01   5.9885383e-01  -3.4281073e+05
   2.5368456e-09  -1.2758913e-04   6.0485096e-01   5.9887549e-01  -3.4037986e+05
   2.5395132e-09  -1.2668437e-04   6.0483009e-01   5.9889699e-01  -3.3796623e+05
   2.5421807e-09  -1.2578602e-04   6.0480937e-01   5.9891834e-01  -3.3556972e+05
   2.5448483e-09  -1.2489405e-04   6.0478880e-01   5.9893954e-01  -3.3319020e+05
   2.5475158e-09  -1.2400840e-04   6.0476837e-01   5.9896059e-01  -3.3082755e+05
   2.5501834e-09  -1.2312903e-04   6.0474809e-01   5.9898149e-01  -3.2848165e+05
   2.5528510e-09  -1.2225590e-04   6.0472795e-01   5.9900224e-01  -3.2615239e+05
   2.5555185e-09  -1.2138896e-04   6.0470796e-01   5.9902285e-01  -3.2383964e+05
   2.5581861e-09  -1.2052816e-04   6.0468811e-01   5.9904331e-01  -3.2154329e+05
   2.5608536e-09  -1.1967347e-04   6.0466840e-01   5.9906362e-01  -3.1926322e+05
   2.5635212e-09  -1.1882484e-04   6.0464883e-01   5.9908380e-01  -3.1699932e+05
   2.5661887e-09  -1.1798223e-04   6.0462941e-01   5.9910383e-01  -3.1475148e+05
   2.5688563e-09  -1.1714559e-04   6.0461011e-01   5.9912371e-01  -3.1251957e+05
   2.5715238e-09  -1.1631489e-04   6.0459096e-01   5.9914346e-01  -3.1030348e+05
   2.5741914e-09  -1.1549007e-04   6.0457194e-01   5.9916307e-01  -3.0810311e+05
   2.5768590e-09  -1.1467111e-04   6.0455306e-01   5.9918254e-01  -3.0591835e+05
   2.5795265e-09  -1.1385795e-04   6.0453431e-01   5.9920187e-01  -3.0374907e+05
   2.5821941e-09  -1.1305056e-04   6.0451570e-01   5.9922107e-01  -3.0159517e+05
   2.5848616e-09  -1.1224889e-04   6.0449722e-01   5.9924013e-01  -2.9945655e+05
   2.5875292e-09  -1.1145291e-04   6.0447887e-01   5.9925906e-01  -2.9733309e+05
   2.5901967e-09  -1.1066257e-04   6.0446065e-01   5.9927785e-01  -2.9522469e+05
   2.5928643e-09  -1.0987784e-04   6.0444256e-01   5.9929651e-01  -2.9313124e+05
   2.5955318e-09  -1.0909867e-04   6.0442460e-01   5.9931504e-01  -2.9105263e+05
   2.5981994e-09  -1.0832503e-04   6.0440676e-01   5.9933343e-01  -2.8898876e+05
   2.6008670e-09  -1.0755687e-04   6.0438906e-01   5.9935170e-01  -2.8693952e+05
   2.6035345e-09  -1.0679416e-04   6.0437148e-01   5.9936984e-01  -2.8490482e+05
   2.6062021e-09  -1.0603686e-04   6.0435402e-01   5.9938785e-01  -2.8288454e+05
   2.6088696e-09  -1.0528492e-04   6.0433669e-01   5.9940573e-01  -2.8087859e+05
   2.6115372e-09  -1.0453832e-04   6.0431948e-01   5.9942349e-01  -2.7888686e+05
   2.6142047e-09  -1.0379702e-04   6.0430239e-01   5.9944112e-01  -2.7690925e+05
   2.6168723e-09  -1.0306097e-04   6.0428543e-01   5.9945862e-01  -2.7494567e+05
   2.6195398e-09  -1.0233014e-04   6.0426859e-01   5.9947600e-01  -2.7299601e+05
   2.6222074e-09  -1.0160449e-04   6.0425186e-01   5.9949326e-01  -2.7106017e+05
   2.6248750e-09  -1.0088399e-04   6.0423526e-01   5.9951040e-01  -2.6913806e+05
   2.6275425e-09  -1.0016860e-04   6.0421877e-01   5.9952742e-01  -2.6722958e+05
   2.6302101e-09  -9.9458278e-05   6.0420240e-01   5.9954431e-01  -2.6533464e+05
   2.6328776e-09  -9.8752995e-05   6.0418615e-01   5.9956109e-01  -2.6345312e+05
   2.6355452e-09  -9.8052713e-05   6.0417001e-01   5.9957775e-01  -2.6158495e+05
   2.6382127e-09  -9.7357397e-05   6.0415399e-01   5.9959429e-01  -2.5973003e+05
   2.6408803e-09  -9.6667011e-05   6.0413808e-01   5.9961071e-01  -2.5788826e+05
   2.6435478e-09  -9.5981522e-05   6.0412229e-01   5.9962702e-01  -2.5605955e+05
   2.6462154e-09  -9.5300893e-05   6.0410660e-01   5.9964321e-01  -2.5424380e+05
   2.6488830e-09  -9.4625090e-05   6.0409103e-01   5.9965929e-01  -2.5244094e+05
   2.6515505e-09  -9.3954080e-05   6.0407557e-01   5.9967525e-01  -2.5065085e+05
   2.6542181e-09  -9.3287827e-05   6.0406022e-01   5.9969110e-01  -2.4887346e+05
   2.6568856e-09  -9.2626300e-05   6.0404498e-01   5.9970684e-01  -2.4710867e+05
   2.6595532e-09  -9.1969463e-05   6.0402985e-01   5.9972247e-01  -2.4535639e+05
   2.6622207e-09  -9.1317284e-05   6.0401482e-01   5.9973799e-01  -2.4361654e+05
   2.6648883e-09  -9.0669730e-05   6.0399990e-01   5.9975339e-01  -2.4188903e+05
   2.6675559e-09  -9.0026767e-05   6.0398509e-01   5.9976869e-01  -2.4017376e+05
   2.6702234e-09  -8.9388364e-05   6.0397038e-01   5.9978388e-01  -2.3847066e+05
   2.6728910e-09  -8.8754488e-05   6.0395578e-01   5.9979896e-01  -2.3677963e+05
   2.6755585e-09  -8.8125106e-05   6.0394128e-01   5.9981394e-01  -2.3510060e+05
   2.6782261e-09  -8.7500188e-05   6.0392688e-01   5.9982881e-01  -2.3343347e+05
   2.6808936e-09  -8.6879701e-05   6.0391259e-01   5.9984358e-01  -2.3177816e+05
   2.6835612e-09  -8.6263614e-05   6.0389840e-01   5.9985824e-01  -2.3013459e+05
   2.6862287e-09  -8.5651896e-05   6.0388431e-01   5.9987279e-01  -2.2850268e+05
   2.6888963e-09  -8.5044516e-05   6.0387032e-01   5.9988725e-01  -2.2688233e+05
   2.6915639e-09  -8.4441442e-05   6.0385643e-01   5.9990160e-01  -2.2527348e+05
   2.6942314e-09  -8.3842645e-05   6.0384263e-01   5.9991585e-01  -2.2367603e+05
   2.6968990e-09  -8.3248095e-05   6.0382894e-01   5.9993000e-01  -2.2208991e+05
   2.6995665e-09  -8.2657760e-05   6.0381534e-01   5.9994405e-01  -2.2051504e+05
   2.7022341e-09  -8.2071611e-05   6.0380184e-01   5.9995800e-01  -2.1895133e+05
   2.7049016e-09  -8.1489619e-05   6.0378844e-01   5.9997185e-01  -2.1739871e+05
   2.7075692e-09  -8.0911754e-05   6.0377513e-01   5.9998561e-01  -2.1585711e+05
   2.7102367e-09  -8.0337987e-05   6.0376191e-01   5.9999926e-01  -2.1432643e+05
   2.7129043e-09  -7.9768288e-05   6.0374879e-01   6.0001282e-01  -2.1280661e+05
   2.7155719e-09  -7.9202629e-05   6.0373577e-01   6.0002629e-01  -2.1129756e+05
   2.7182394e-09  -7.8640981e-05   6.0372283e-01   6.0003966e-01  -2.0979921e+05
   2.7209070e-09  -7.8083316e-05   6.0370999e-01   6.0005293e-01  -2.0831149e+05
   2.7235745e-09  -7.7529606e-05   6.0369724e-01   6.0006611e-01  -2.0683432e+05
   2.7262421e-09  -7.6979822e-05   6.0368458e-01   6.0007920e-01  -2.0536762e+05
   2.7289096e-09  -7.6433936e-05   6.0367201e-01   6.0009219e-01  -2.0391133e+05
   2.7315772e-09  -7.5891922e-05   6.0365952e-01   6.0010510e-01  -2.0246535e+05
   2.7342447e-09  -7.5353751e-05   6.0364713e-01   6.0011791e-01  -2.0102964e+05
   2.7369123e-09  -7.4819396e-05   6.0363483e-01   6.0013063e-01  -1.9960410e+05
   2.7395799e-09  -7.4288831e-05   6.0362261e-01   6.0014326e-01  -1.9818867e+05
   2.7422474e-09  -7.3762027e-05   6.0361048e-01   6.0015580e-01  -1.9678328e+05
   2.7449150e-09  -7.3238960e-05   6.0359844e-01   6.0016825e-01  -1.9538785e+05
   2.7475825e-09  -7.2719602e-05   6.0358648e-01   6.0018062e-01  -1.9400232e+05
   2.7502501e-09  -7.2203926e-05   6.0357460e-01   6.0019289e-01  -1.9262661e+05
   2.7529176e-09  -7.1691907e-05   6.0356282e-01   6.0020508e-01  -1.9126066e+05
   2.7555852e-09  -7.1183520e-05   6.0355111e-01   6.0021719e-01  -1.8990439e+05
   2.7582528e-09  -7.0678737e-05   6.0353949e-01   6.0022921e-01  -1.8855775e+05
   2.7609203e-09  -7.0177533e-05   6.0352795e-01   6.0024114e-01  -1.8722065e+05
   2.7635879e-09  -6.9679884e-05   6.0351649e-01   6.0025299e-01  -1.8589303e+05
   2.7662554e-09  -6.9185764e-05   6.0350511e-01   6.0026476e-01  -1.8457482e+05
   2.7689230e-09  -6.8695147e-05   6.0349382e-01   6.0027644e-01  -1.8326597e+05
   2.7715905e-09  -6.8208010e-05   6.0348260e-01   6.0028804e-01  -1.8196639e+05
   2.7742581e-09  -6.7724327e-05   6.0347147e-01   6.0029955e-01  -1.8067603e+05
   2.7769256e-09  -6.7244074e-05   6.0346041e-01   6.0031099e-01  -1.7939482e+05
   2.7795932e-09  -6.6767227e-05   6.0344944e-01   6.0032234e-01  -1.7812269e+05
   2.7822608e-09  -6.6293761e-05   6.0343854e-01   6.0033362e-01  -1.7685958e+05
   2.7849283e-09  -6.5823652e-05   6.0342771e-01   6.0034481e-01  -1.7560544e+05
   2.7875959e-09  -6.5356877e-05   6.0341697e-01   6.0035593e-01  -1.7436018e+05
   2.7902634e-09  -6.4893412e-05   6.0340630e-01   6.0036697e-01  -1.7312375e+05
   2.7929310e-09  -6.4433234e-05   6.0339571e-01   6.0037792e-01  -1.7189610e+05
   2.7955985e-09  -6.3976319e-05   6.0338519e-01   6.0038881e-01  -1.7067714e+05
   2.7982661e-09  -6.3522643e-05   6.0337475e-01   6.0039961e-01  -1.6946683e+05
   2.8009336e-09  -6.3072185e-05   6.0336438e-01   6.0041034e-01  -1.6826511e+05
   2.8036012e-09  -6.2624922e-05   6.0335408e-01   6.0042099e-01  -1.6707190e+05
   2.8062688e-09  -6.2180830e-05   6.0334386e-01   6.0043157e-01  -1.6588716e+05
   2.8089363e-09  -6.1739887e-05   6.0333371e-01   6.0044207e-01  -1.6471081e+05
   2.8116039e-09  -6.1302071e-05   6.0332363e-01   6.0045249e-01  -1.6354281e+05
   2.8142714e-09  -6.0867359e-05   6.0331363e-01   6.0046285e-01  -1.6238309e+05
   2.8169390e-09  -6.0435730e-05   6.0330369e-01   6.0047313e-01  -1.6123159e+05
   2.8196065e-09  -6.0007162e-05   6.0329383e-01   6.0048334e-01  -1.6008826e+05
   2.8222741e-09  -5.9581633e-05   6.0328403e-01   6.0049347e-01  -1.5895304e+05
   2.8249416e-09  -5.9159122e-05   6.0327431e-01   6.0050353e-01  -1.5782587e+05
   2.8276092e-09  -5.8739607e-05   6.0326465e-01   6.0051353e-01  -1.5670668e+05
   2.8302768e-09  -5.8323066e-05   6.0325507e-01   6.0052345e-01  -1.5559544e+05
   2.8329443e-09  -5.7909479e-05   6.0324555e-01   6.0053330e-01  -1.5449208e+05
   2.8356119e-09  -5.7498826e-05   6.0323610e-01   6.0054308e-01  -1.5339653e+05
   2.8382794e-09  -5.7091084e-05   6.0322671e-01   6.0055279e-01  -1.5230876e+05
   2.8409470e-09  -5.6686233e-05   6.0321740e-01   6.0056244e-01  -1.5122870e+05
   2.8436145e-09  -5.6284254e-05   6.0320815e-01   6.0057201e-01  -1.5015630e+05
   2.8462821e-09  -5.5885125e-05   6.0319896e-01   6.0058152e-01  -1.4909151e+05
   2.8489496e-09  -5.5488826e-05   6.0318984e-01   6.0059096e-01  -1.4803426e+05
   2.8516172e-09  -5.5095338e-05   6.0318079e-01   6.0060033e-01  -1.4698451e+05
   2.8542848e-09  -5.4704640e-05   6.0317180e-01   6.0060964e-01  -1.4594221e+05
   2.8569523e-09  -5.4316712e-05   6.0316287e-01   6.0061888e-01  -1.4490730e+05
   2.8596199e-09  -5.3931536e-05   6.0315400e-01   6.0062806e-01  -1.4387972e+05
   2.8622874e-09  -5.3549091e-05   6.0314520e-01   6.0063717e-01  -1.4285943e+05
   2.8649550e-09  -5.3169357e-05   6.0313647e-01   6.0064622e-01  -1.4184638e+05
   2.8676225e-09  -5.2792317e-05   6.0312779e-01   6.0065520e-01  -1.4084051e+05
   2.8702901e-09  -5.2417950e-05   6.0311918e-01   6.0066412e-01  -1.3984177e+05
   2.8729577e-09  -5.2046238e-05   6.0311062e-01   6.0067297e-01  -1.3885012e+05
   2.8756252e-09  -5.1677162e-05   6.0310213e-01   6.0068177e-01  -1.3786549e+05
   2.8782928e-09  -5.1310703e-05   6.0309370e-01   6.0069050e-01  -1.3688785e+05
   2.8809603e-09  -5.0946843e-05   6.0308532e-01   6.0069917e-01  -1.3591715e+05
   2.8836279e-09  -5.0585563e-05   6.0307701e-01   6.0070777e-01  -1.3495332e+05
   2.8862954e-09  -5.0226845e-05   6.0306876e-01   6.0071632e-01  -1.3399633e+05
   2.8889630e-09  -4.9870670e-05   6.0306056e-01   6.0072481e-01  -1.3304613e+05
   2.8916305e-09  -4.9517022e-05   6.0305243e-01   6.0073323e-01  -1.3210266e+05
   2.8942981e-09  -4.9165881e-05   6.0304435e-01   6.0074160e-01  -1.3116588e+05
   2.8969657e-09  -4.8817230e-05   6.0303632e-01   6.0074991e-01  -1.3023575e+05
   2.8996332e-09  -4.8471052e-05   6.0302836e-01   6.0075815e-01  -1.2931221e+05
   2.9023008e-09  -4.8127328e-05   6.0302045e-01   6.0076634e-01  -1.2839522e+05
   2.9049683e-09  -4.7786042e-05   6.0301260e-01   6.0077448e-01  -1.2748474e+05
   2.9076359e-09  -4.7447176e-05   6.0300480e-01   6.0078255e-01  -1.2658071e+05
   2.9103034e-09  -4.7110713e-05   6.0299706e-01   6.0079057e-01  -1.2568309e+05
   2.9129710e-09  -4.6776636e-05   6.0298938e-01   6.0079853e-01  -1.2479183e+05
   2.9156385e-09  -4.6444929e-05   6.0298175e-01   6.0080643e-01  -1.2390690e+05
   2.9183061e-09  -4.6115573e-05   6.0297417e-01   6.0081428e-01  -1.2302824e+05
   2.9209737e-09  -4.5788553e-05   6.0296664e-01   6.0082207e-01  -1.2215581e+05
   2.9236412e-09  -4.5463851e-05   6.0295917e-01   6.0082981e-01  -1.2128957e+05
   2.9263088e-09  -4.5141453e-05   6.0295176e-01   6.0083749e-01  -1.2042947e+05
   2.9289763e-09  -4.4821340e-05   6.0294439e-01   6.0084512e-01  -1.1957547e+05
   2.9316439e-09  -4.4503498e-05   6.0293708e-01   6.0085269e-01  -1.1872753e+05
   2.9343114e-09  -4.4187909e-05   6.0292982e-01   6.0086021e-01  -1.1788560e+05
   2.9369790e-09  -4.3874559e-05   6.0292261e-01   6.0086768e-01  -1.1704963e+05
   2.9396465e-09  -4.3563430e-05   6.0291546e-01   6.0087510e-01  -1.1621960e+05
   2.9423141e-09  -4.3254508e-05   6.0290835e-01   6.0088246e-01  -1.1539545e+05
   2.9449817e-09  -4.2947777e-05   6.0290129e-01   6.0088977e-01  -1.1457715e+05
   2.9476492e-09  -4.2643220e-05   6.0289429e-01   6.0089703e-01  -1.1376465e+05
   2.9503168e-09  -4.2340823e-05   6.0288733e-01   6.0090423e-01  -1.1295791e+05
   2.9529843e-09  -4.2040571e-05   6.0288042e-01   6.0091139e-01  -1.1215689e+05
   2.9556519e-09  -4.1742448e-05   6.0287357e-01   6.0091849e-01  -1.1136155e+05
   2.9583194e-09  -4.1446439e-05   6.0286676e-01   6.0092555e-01  -1.1057186e+05
   2.9609870e-09  -4.1152529e-05   6.0286000e-01   6.0093255e-01  -1.0978776e+05
   2.9636546e-09  -4.0860703e-05   6.0285328e-01   6.0093951e-01  -1.0900922e+05
   2.9663221e-09  -4.0570947e-05   6.0284662e-01   6.0094641e-01  -1.0823620e+05
   2.9689897e-09  -4.0283245e-05   6.0284000e-01   6.0095327e-01  -1.0746867e+05
   2.9716572e-09  -3.9997583e-05   6.0283343e-01   6.0096008e-01  -1.0670657e+05
   2.9743248e-09  -3.9713948e-05   6.0282691e-01   6.0096684e-01  -1.0594988e+05
   2.9769923e-09  -3.9432323e-05   6.0282043e-01   6.0097355e-01  -1.0519856e+05
   2.9796599e-09  -3.9152696e-05   6.0281400e-01   6.0098022e-01  -1.0445257e+05
   2.9823274e-09  -3.8875052e-05   6.0280761e-01   6.0098683e-01  -1.0371186e+05
   2.9849950e-09  -3.8599376e-05   6.0280127e-01   6.0099340e-01  -1.0297641e+05
   2.9876626e-09  -3.8325655e-05   6.0279497e-01   6.0099993e-01  -1.0224617e+05
   2.9903301e-09  -3.8053876e-05   6.0278872e-01   6.0100641e-01  -1.0152111e+05
   2.9929977e-09  -3.7784024e-05   6.0278252e-01   6.0101284e-01  -1.0080119e+05
   2.9956652e-09  -3.7516085e-05   6.0277635e-01   6.0101922e-01  -1.0008638e+05
   2.9983328e-09  -3.7250046e-05   6.0277024e-01   6.0102557e-01  -9.9376635e+04
   3.0010003e-09  -3.6985894e-05   6.0276416e-01   6.0103186e-01  -9.8671924e+04
   3.0036679e-09  -3.6723615e-05   6.0275813e-01   6.0103811e-01  -9.7972211e+04
   3.0063354e-09  -3.6463196e-05   6.0275214e-01   6.0104432e-01  -9.7277459e+04
   3.0090030e-09  -3.6204624e-05   6.0274619e-01   6.0105048e-01  -9.6587633e+04
   3.0116706e-09  -3.5947885e-05   6.0274029e-01   6.0105660e-01  -9.5902700e+04
   3.0143381e-09  -3.5692967e-05   6.0273442e-01   6.0106268e-01  -9.5222623e+04
   3.0170057e-09  -3.5439856e-05   6.0272860e-01   6.0106871e-01  -9.4547369e+04
   3.0196732e-09  -3.5188541e-05   6.0272282e-01   6.0107470e-01  -9.3876903e+04
   3.0223408e-09  -3.4939008e-05   6.0271708e-01   6.0108065e-01  -9.3211192e+04
   3.0250083e-09  -3.4691244e-05   6.0271139e-01   6.0108656e-01  -9.2550201e+04
   3.0276759e-09  -3.4445237e-05   6.0270573e-01   6.0109242e-01  -9.1893898e+04
   3.0303434e-09  -3.4200975e-05   6.0270011e-01   6.0109825e-01  -9.1242249e+04
   3.0330110e-09  -3.3958444e-05   6.0269453e-01   6.0110403e-01  -9.0595220e+04
   3.0356786e-09  -3.3717634e-05   6.0268900e-01   6.0110977e-01  -8.9952780e+04
   3.0383461e-09  -3.3478531e-05   6.0268350e-01   6.0111547e-01  -8.9314896e+04
   3.0410137e-09  -3.3241124e-05   6.0267804e-01   6.0112113e-01  -8.8681534e+04
   3.0436812e-09  -3.3005401e-05   6.0267262e-01   6.0112675e-01  -8.8052665e+04
   3.0463488e-09  -3.2771349e-05   6.0266723e-01   6.0113233e-01  -8.7428254e+04
   3.0490163e-09  -3.2538956e-05   6.0266189e-01   6.0113787e-01  -8.6808272e+04
   3.0516839e-09  -3.2308212e-05   6.0265658e-01   6.0114337e-01  -8.6192686e+04
   3.0543515e-09  -3.2079104e-05   6.0265132e-01   6.0114883e-01  -8.5581465e+04
   3.0570190e-09  -3.1851621e-05   6.0264608e-01   6.0115425e-01  -8.4974578e+04
   3.0596866e-09  -3.1625751e-05   6.0264089e-01   6.0115964e-01  -8.4371996e+04
   3.0623541e-09  -3.1401482e-05   6.0263573e-01   6.0116498e-01  -8.3773686e+04
   3.0650217e-09  -3.1178804e-05   6.0263061e-01   6.0117029e-01  -8.3179619e+04
   3.0676892e-09  -3.0957705e-05   6.0262553e-01   6.0117556e-01  -8.2589764e+04
   3.0703568e-09  -3.0738174e-05   6.0262048e-01   6.0118080e-01  -8.2004093e+04
   3.0730243e-09  -3.0520200e-05   6.0261547e-01   6.0118599e-01  -8.1422574e+04
   3.0756919e-09  -3.0303771e-05   6.0261049e-01   6.0119115e-01  -8.0845179e+04
   3.0783595e-09  -3.0088877e-05   6.0260555e-01   6.0119628e-01  -8.0271879e+04
   3.0810270e-09  -2.9875507e-05   6.0260064e-01   6.0120137e-01  -7.9702644e+04
   3.0836946e-09  -2.9663650e-05   6.0259577e-01   6.0120642e-01  -7.9137446e+04
   3.0863621e-09  -2.9453296e-05   6.0259094e-01   6.0121143e-01  -7.8576256e+04
   3.0890297e-09  -2.9244433e-05   6.0258613e-01   6.0121641e-01  -7.8019045e+04
   3.0916972e-09  -2.9037051e-05   6.0258136e-01   6.0122136e-01  -7.7465785e+04
   3.0943648e-09  -2.8831140e-05   6.0257663e-01   6.0122626e-01  -7.6916449e+04
   3.0970323e-09  -2.8626689e-05   6.0257193e-01   6.0123114e-01  -7.6371008e+04
   3.0996999e-09  -2.8423688e-05   6.0256726e-01   6.0123598e-01  -7.5829436e+04
   3.1023675e-09  -2.8222126e-05   6.0256263e-01   6.0124079e-01  -7.5291703e+04
   3.1050350e-09  -2.8021994e-05   6.0255802e-01   6.0124556e-01  -7.4757784e+04
   3.1077026e-09  -2.7823281e-05   6.0255346e-01   6.0125030e-01  -7.4227651e+04
   3.1103701e-09  -2.7625977e-05   6.0254892e-01   6.0125500e-01  -7.3701277e+04
   3.1130377e-09  -2.7430072e-05   6.0254441e-01   6.0125967e-01  -7.3178636e+04
   3.1157052e-09  -2.7235557e-05   6.0253994e-01   6.0126431e-01  -7.2659701e+04
   3.1183728e-09  -2.7042421e-05   6.0253550e-01   6.0126891e-01  -7.2144446e+04
   3.1210403e-09  -2.6850654e-05   6.0253109e-01   6.0127349e-01  -7.1632845e+04
   3.1237079e-09  -2.6660247e-05   6.0252671e-01   6.0127803e-01  -7.1124872e+04
   3.1263755e-09  -2.6471191e-05   6.0252237e-01   6.0128253e-01  -7.0620501e+04
   3.1290430e-09  -2.6283475e-05   6.0251805e-01   6.0128701e-01  -7.0119707e+04
   3.1317106e-09  -2.6097091e-05   6.0251377e-01   6.0129145e-01  -6.9622464e+04
   3.1343781e-09  -2.5912028e-05   6.0250951e-01   6.0129587e-01  -6.9128747e+04
   3.1370457e-09  -2.5728277e-05   6.0250529e-01   6.0130025e-01  -6.8638531e+04
   3.1397132e-09  -2.5545830e-05   6.0250109e-01   6.0130460e-01  -6.8151791e+04
   3.1423808e-09  -2.5364676e-05   6.0249693e-01   6.0130892e-01  -6.7668503e+04
   3.1450483e-09  -2.5184807e-05   6.0249279e-01   6.0131321e-01  -6.7188642e+04
   3.1477159e-09  -2.5006213e-05   6.0248869e-01   6.0131747e-01  -6.6712184e+04
   3.1503835e-09  -2.4828886e-05   6.0248461e-01   6.0132169e-01  -6.6239104e+04
   3.1530510e-09  -2.4652817e-05   6.0248056e-01   6.0132589e-01  -6.5769380e+04
   3.1557186e-09  -2.4477996e-05   6.0247654e-01   6.0133006e-01  -6.5302986e+04
   3.1583861e-09  -2.4304414e-05   6.0247255e-01   6.0133420e-01  -6.4839900e+04
   3.1610537e-09  -2.4132064e-05   6.0246859e-01   6.0133831e-01  -6.4380097e+04
   3.1637212e-09  -2.3960936e-05   6.0246465e-01   6.0134239e-01  -6.3923555e+04
   3.1663888e-09  -2.3791021e-05   6.0246075e-01   6.0134644e-01  -6.3470251e+04
   3.1690564e-09  -2.3622311e-05   6.0245687e-01   6.0135047e-01  -6.3020161e+04
   3.1717239e-09  -2.3454798e-05   6.0245302e-01   6.0135446e-01  -6.2573263e+04
   3.1743915e-09  -2.3288472e-05   6.0244920e-01   6.0135843e-01  -6.2129534e+04
   3.1770590e-09  -2.3123326e-05   6.0244540e-01   6.0136237e-01  -6.1688951e+04
   3.1797266e-09  -2.2959352e-05   6.0244163e-01   6.0136628e-01  -6.1251493e+04
   3.1823941e-09  -2.2796540e-05   6.0243789e-01   6.0137016e-01  -6.0817137e+04
   3.1850617e-09  -2.2634882e-05   6.0243417e-01   6.0137401e-01  -6.0385861e+04
   3.1877292e-09  -2.2474371e-05   6.0243048e-01   6.0137784e-01  -5.9957644e+04
   3.1903968e-09  -2.2314998e-05   6.0242682e-01   6.0138164e-01  -5.9532463e+04
   3.1930644e-09  -2.2156755e-05   6.0242318e-01   6.0138542e-01  -5.9110297e+04
   3.1957319e-09  -2.1999635e-05   6.0241957e-01   6.0138916e-01  -5.8691125e+04
   3.1983995e-09  -2.1843628e-05   6.0241598e-01   6.0139288e-01  -5.8274925e+04
   3.2010670e-09  -2.1688728e-05   6.0241242e-01   6.0139658e-01  -5.7861677e+04
   3.2037346e-09  -2.1534926e-05   6.0240888e-01   6.0140025e-01  -5.7451359e+04
   3.2064021e-09  -2.1382215e-05   6.0240537e-01   6.0140389e-01  -5.7043951e+04
   3.2090697e-09  -2.1230587e-05   6.0240189e-01   6.0140750e-01  -5.6639432e+04
   3.2117372e-09  -2.1080035e-05   6.0239843e-01   6.0141109e-01  -5.6237782e+04
   3.2144048e-09  -2.0930549e-05   6.0239499e-01   6.0141466e-01  -5.5838980e+04
   3.2170724e-09  -2.0782124e-05   6.0239158e-01   6.0141820e-01  -5.5443006e+04
   3.2197399e-09  -2.0634752e-05   6.0238819e-01   6.0142171e-01  -5.5049839e+04
   3.2224075e-09  -2.0488424e-05   6.0238483e-01   6.0142520e-01  -5.4659461e+04
   3.2250750e-09  -2.0343134e-05   6.0238149e-01   6.0142867e-01  -5.4271852e+04
   3.2277426e-09  -2.0198875e-05   6.0237817e-01   6.0143211e-01  -5.3886990e+04
   3.2304101e-09  -2.0055638e-05   6.0237488e-01   6.0143553e-01  -5.3504858e+04
   3.2330777e-09  -1.9913417e-05   6.0237161e-01   6.0143892e-01  -5.3125436e+04
   3.2357452e-09  -1.9772205e-05   6.0236836e-01   6.0144228e-01  -5.2748705e+04
   3.2384128e-09  -1.9631994e-05   6.0236514e-01   6.0144563e-01  -5.2374645e+04
   3.2410804e-09  -1.9492777e-05   6.0236194e-01   6.0144895e-01  -5.2003237e+04
   3.2437479e-09  -1.9354548e-05   6.0235876e-01   6.0145225e-01  -5.1634464e+04
   3.2464155e-09  -1.9217299e-05   6.0235561e-01   6.0145552e-01  -5.1268305e+04
   3.2490830e-09  -1.9081023e-05   6.0235247e-01   6.0145877e-01  -5.0904743e+04
   3.2517506e-09  -1.8945713e-05   6.0234936e-01   6.0146200e-01  -5.0543759e+04
   3.2544181e-09  -1.8811363e-05   6.0234628e-01   6.0146520e-01  -5.0185335e+04
   3.2570857e-09  -1.8677966e-05   6.0234321e-01   6.0146838e-01  -4.9829453e+04
   3.2597533e-09  -1.8545515e-05   6.0234016e-01   6.0147154e-01  -4.9476095e+04
   3.2624208e-09  -1.8414003e-05   6.0233714e-01   6.0147468e-01  -4.9125242e+04
   3.2650884e-09  -1.8283424e-05   6.0233414e-01   6.0147779e-01  -4.8776877e+04
   3.2677559e-09  -1.8153770e-05   6.0233116e-01   6.0148089e-01  -4.8430983e+04
   3.2704235e-09  -1.8025036e-05   6.0232820e-01   6.0148396e-01  -4.8087541e+04
   3.2730910e-09  -1.7897215e-05   6.0232526e-01   6.0148700e-01  -4.7746535e+04
   3.2757586e-09  -1.7770300e-05   6.0232235e-01   6.0149003e-01  -4.7407947e+04
   3.2784261e-09  -1.7644286e-05   6.0231945e-01   6.0149304e-01  -4.7071760e+04
   3.2810937e-09  -1.7519165e-05   6.0231657e-01   6.0149602e-01  -4.6737957e+04
   3.2837613e-09  -1.7394931e-05   6.0231372e-01   6.0149898e-01  -4.6406522e+04
   3.2864288e-09  -1.7271578e-05   6.0231088e-01   6.0150193e-01  -4.6077436e+04
   3.2890964e-09  -1.7149100e-05   6.0230807e-01   6.0150485e-01  -4.5750684e+04
   3.2917639e-09  -1.7027490e-05   6.0230527e-01   6.0150775e-01  -4.5426250e+04
   3.2944315e-09  -1.6906743e-05   6.0230250e-01   6.0151063e-01  -4.5104116e+04
   3.2970990e-09  -1.6786852e-05   6.0229974e-01   6.0151349e-01  -4.4784266e+04
   3.2997666e-09  -1.6667812e-05   6.0229700e-01   6.0151633e-01  -4.4466685e+04
   3.3024341e-09  -1.6549615e-05   6.0229429e-01   6.0151915e-01  -4.4151355e+04
   3.3051017e-09  -1.6432257e-05   6.0229159e-01   6.0152195e-01  -4.3838262e+04
   3.3077693e-09  -1.6315731e-05   6.0228891e-01   6.0152473e-01  -4.3527389e+04
   3.3104368e-09  -1.6200031e-05   6.0228625e-01   6.0152749e-01  -4.3218721e+04
   3.3131044e-09  -1.6085151e-05   6.0228361e-01   6.0153023e-01  -4.2912241e+04
   3.3157719e-09  -1.5971087e-05   6.0228099e-01   6.0153295e-01  -4.2607935e+04
   3.3184395e-09  -1.5857831e-05   6.0227839e-01   6.0153565e-01  -4.2305787e+04
   3.3211070e-09  -1.5745378e-05   6.0227580e-01   6.0153833e-01  -4.2005781e+04
   3.3237746e-09  -1.5633723e-05   6.0227324e-01   6.0154099e-01  -4.1707903e+04
   3.3264421e-09  -1.5522859e-05   6.0227069e-01   6.0154364e-01  -4.1412137e+04
   3.3291097e-09  -1.5412782e-05   6.0226816e-01   6.0154626e-01  -4.1118469e+04
   3.3317773e-09  -1.5303486e-05   6.0226565e-01   6.0154887e-01  -4.0826883e+04
   3.3344448e-09  -1.5194964e-05   6.0226315e-01   6.0155146e-01  -4.0537364e+04
   3.3371124e-09  -1.5087212e-05   6.0226068e-01   6.0155403e-01  -4.0249899e+04
   3.3397799e-09  -1.4980224e-05   6.0225822e-01   6.0155658e-01  -3.9964473e+04
   3.3424475e-09  -1.4873995e-05   6.0225578e-01   6.0155912e-01  -3.9681070e+04
   3.3451150e-09  -1.4768519e-05   6.0225335e-01   6.0156163e-01  -3.9399677e+04
   3.3477826e-09  -1.4663791e-05   6.0225094e-01   6.0156413e-01  -3.9120280e+04
   3.3504502e-09  -1.4559805e-05   6.0224855e-01   6.0156661e-01  -3.8842864e+04
   3.3531177e-09  -1.4456558e-05   6.0224618e-01   6.0156907e-01  -3.8567415e+04
   3.3557853e-09  -1.4354042e-05   6.0224383e-01   6.0157152e-01  -3.8293920e+04
   3.3584528e-09  -1.4252253e-05   6.0224149e-01   6.0157395e-01  -3.8022364e+04
   3.3611204e-09  -1.4151186e-05   6.0223916e-01   6.0157636e-01  -3.7752733e+04
   3.3637879e-09  -1.4050836e-05   6.0223686e-01   6.0157875e-01  -3.7485015e+04
   3.3664555e-09  -1.3951197e-05   6.0223457e-01   6.0158113e-01  -3.7219195e+04
   3.3691230e-09  -1.3852265e-05   6.0223229e-01   6.0158349e-01  -3.6955261e+04
   3.3717906e-09  -1.3754035e-05   6.0223004e-01   6.0158583e-01  -3.6693198e+04
   3.3744582e-09  -1.3656501e-05   6.0222779e-01   6.0158816e-01  -3.6432993e+04
   3.3771257e-09  -1.3559658e-05   6.0222557e-01   6.0159047e-01  -3.6174633e+04
   3.3797933e-09  -1.3463503e-05   6.0222336e-01   6.0159276e-01  -3.5918106e+04
   3.3824608e-09  -1.3368029e-05   6.0222116e-01   6.0159504e-01  -3.5663398e+04
   3.3851284e-09  -1.3273233e-05   6.0221899e-01   6.0159730e-01  -3.5410496e+04
   3.3877959e-09  -1.3179108e-05   6.0221682e-01   6.0159955e-01  -3.5159387e+04
   3.3904635e-09  -1.3085651e-05   6.0221467e-01   6.0160177e-01  -3.4910059e+04
   3.3931310e-09  -1.2992857e-05   6.0221254e-01   6.0160399e-01  -3.4662499e+04
   3.3957986e-09  -1.2900721e-05   6.0221042e-01   6.0160619e-01  -3.4416695e+04
   3.3984662e-09  -1.2809238e-05   6.0220832e-01   6.0160837e-01  -3.4172634e+04
   3.4011337e-09  -1.2718404e-05   6.0220623e-01   6.0161054e-01  -3.3930304e+04
   3.4038013e-09  -1.2628215e-05   6.0220416e-01   6.0161269e-01  -3.3689692e+04
   3.4064688e-09  -1.2538664e-05   6.0220210e-01   6.0161482e-01  -3.3450786e+04
   3.4091364e-09  -1.2449749e-05   6.0220006e-01   6.0161694e-01  -3.3213574e+04
   3.4118039e-09  -1.2361464e-05   6.0219803e-01   6.0161905e-01  -3.2978045e+04
   3.4144715e-09  -1.2273806e-05   6.0219602e-01   6.0162114e-01  -3.2744186e+04
   3.4171390e-09  -1.2186768e-05   6.0219402e-01   6.0162322e-01  -3.2511985e+04
   3.4198066e-09  -1.2100349e-05   6.0219203e-01   6.0162528e-01  -3.2281431e+04
   3.4224742e-09  -1.2014542e-05   6.0219006e-01   6.0162733e-01  -3.2052512e+04
   3.4251417e-09  -1.1929343e-05   6.0218810e-01   6.0162936e-01  -3.1825216e+04
   3.4278093e-09  -1.1844749e-05   6.0218616e-01   6.0163138e-01  -3.1599532e+04
   3.4304768e-09  -1.1760754e-05   6.0218423e-01   6.0163338e-01  -3.1375448e+04
   3.4331444e-09  -1.1677355e-05   6.0218231e-01   6.0163537e-01  -3.1152954e+04
   3.4358119e-09  -1.1594548e-05   6.0218041e-01   6.0163735e-01  -3.0932037e+04
   3.4384795e-09  -1.1512328e-05   6.0217852e-01   6.0163931e-01  -3.0712687e+04
   3.4411470e-09  -1.1430691e-05   6.0217664e-01   6.0164125e-01  -3.0494892e+04
   3.4438146e-09  -1.1349632e-05   6.0217478e-01   6.0164319e-01  -3.0278642e+04
   3.4464822e-09  -1.1269149e-05   6.0217293e-01   6.0164511e-01  -3.0063926e+04
   3.4491497e-09  -1.1189236e-05   6.0217109e-01   6.0164701e-01  -2.9850732e+04
   3.4518173e-09  -1.1109890e-05   6.0216927e-01   6.0164891e-01  -2.9639049e+04
   3.4544848e-09  -1.1031107e-05   6.0216746e-01   6.0165079e-01  -2.9428868e+04
   3.4571524e-09  -1.0952882e-05   6.0216566e-01   6.0165265e-01  -2.9220178e+04
   3.4598199e-09  -1.0875212e-05   6.0216388e-01   6.0165451e-01  -2.9012967e+04
   3.4624875e-09  -1.0798093e-05   6.0216210e-01   6.0165635e-01  -2.8807226e+04
   3.4651551e-09  -1.0721521e-05   6.0216034e-01   6.0165817e-01  -2.8602944e+04
   3.4678226e-09  -1.0645492e-05   6.0215860e-01   6.0165999e-01  -2.8400110e+04
   3.4704902e-09  -1.0570002e-05   6.0215686e-01   6.0166179e-01  -2.8198715e+04
   3.4731577e-09  -1.0495047e-05   6.0215514e-01   6.0166358e-01  -2.7998748e+04
   3.4758253e-09  -1.0420624e-05   6.0215343e-01   6.0166535e-01  -2.7800199e+04
   3.4784928e-09  -1.0346728e-05   6.0215173e-01   6.0166711e-01  -2.7603058e+04
   3.4811604e-09  -1.0273357e-05   6.0215004e-01   6.0166886e-01  -2.7407315e+04
   3.4838279e-09  -1.0200505e-05   6.0214837e-01   6.0167060e-01  -2.7212960e+04
   3.4864955e-09  -1.0128171e-05   6.0214671e-01   6.0167233e-01  -2.7019983e+04
   3.4891631e-09  -1.0056349e-05   6.0214506e-01   6.0167404e-01  -2.6828375e+04
   3.4918306e-09  -9.9850369e-06   6.0214342e-01   6.0167574e-01  -2.6638126e+04
   3.4944982e-09  -9.9142303e-06   6.0214179e-01   6.0167743e-01  -2.6449225e+04
   3.4971657e-09  -9.8439259e-06   6.0214018e-01   6.0167911e-01  -2.6261664e+04
   3.4998333e-09  -9.7741199e-06   6.0213857e-01   6.0168078e-01  -2.6075434e+04
   3.5025008e-09  -9.7048090e-06   6.0213698e-01   6.0168243e-01  -2.5890524e+04
   3.5051684e-09  -9.6359896e-06   6.0213540e-01   6.0168407e-01  -2.5706925e+04
   3.5078359e-09  -9.5676583e-06   6.0213383e-01   6.0168570e-01  -2.5524628e+04
   3.5105035e-09  -9.4998114e-06   6.0213227e-01   6.0168732e-01  -2.5343624e+04
   3.5131711e-09  -9.4324458e-06   6.0213072e-01   6.0168893e-01  -2.5163904e+04
   3.5158386e-09  -9.3655578e-06   6.0212918e-01   6.0169052e-01  -2.4985458e+04
   3.5185062e-09  -9.2991441e-06   6.0212766e-01   6.0169211e-01  -2.4808277e+04
   3.5211737e-09  -9.2332014e-06   6.0212614e-01   6.0169368e-01  -2.4632353e+04
   3.5238413e-09  -9.1677264e-06   6.0212464e-01   6.0169524e-01  -2.4457676e+04
   3.5265088e-09  -9.1027156e-06   6.0212314e-01   6.0169679e-01  -2.4284238e+04
   3.5291764e-09  -9.0381659e-06   6.0212166e-01   6.0169833e-01  -2.4112031e+04
   3.5318439e-09  -8.9740739e-06   6.0212019e-01   6.0169986e-01  -2.3941044e+04
   3.5345115e-09  -8.9104364e-06   6.0211873e-01   6.0170138e-01  -2.3771270e+04
   3.5371791e-09  -8.8472502e-06   6.0211727e-01   6.0170289e-01  -2.3602699e+04
   3.5398466e-09  -8.7845120e-06   6.0211583e-01   6.0170439e-01  -2.3435324e+04
   3.5425142e-09  -8.7222188e-06   6.0211440e-01   6.0170587e-01  -2.3269136e+04
   3.5451817e-09  -8.6603673e-06   6.0211298e-01   6.0170735e-01  -2.3104127e+04
   3.5478493e-09  -8.5989544e-06   6.0211157e-01   6.0170881e-01  -2.2940288e+04
   3.5505168e-09  -8.5379770e-06   6.0211017e-01   6.0171027e-01  -2.2777610e+04
   3.5531844e-09  -8.4774320e-06   6.0210878e-01   6.0171171e-01  -2.2616086e+04
   3.5558520e-09  -8.4173164e-06   6.0210739e-01   6.0171315e-01  -2.2455708e+04
   3.5585195e-09  -8.3576270e-06   6.0210602e-01   6.0171457e-01  -2.2296467e+04
   3.5611871e-09  -8.2983610e-06   6.0210466e-01   6.0171598e-01  -2.2138355e+04
   3.5638546e-09  -8.2395152e-06   6.0210331e-01   6.0171739e-01  -2.1981364e+04
   3.5665222e-09  -8.1810867e-06   6.0210197e-01   6.0171878e-01  -2.1825487e+04
   3.5691897e-09  -8.1230725e-06   6.0210063e-01   6.0172017e-01  -2.1670715e+04
   3.5718573e-09  -8.0654698e-06   6.0209931e-01   6.0172154e-01  -2.1517040e+04
   3.5745248e-09  -8.0082755e-06   6.0209799e-01   6.0172291e-01  -2.1364456e+04
   3.5771924e-09  -7.9514868e-06   6.0209669e-01   6.0172426e-01  -2.1212953e+04
   3.5798600e-09  -7.8951009e-06   6.0209539e-01   6.0172561e-01  -2.1062525e+04
   3.5825275e-09  -7.8391147e-06   6.0209411e-01   6.0172694e-01  -2.0913163e+04
   3.5851951e-09  -7.7835256e-06   6.0209283e-01   6.0172827e-01  -2.0764861e+04
   3.5878626e-09  -7.7283307e-06   6.0209156e-01   6.0172958e-01  -2.0617611e+04
   3.5905302e-09  -7.6735272e-06   6.0209030e-01   6.0173089e-01  -2.0471404e+04
   3.5931977e-09  -7.6191123e-06   6.0208905e-01   6.0173219e-01  -2.0326234e+04
   3.5958653e-09  -7.5650833e-06   6.0208781e-01   6.0173348e-01  -2.0182094e+04
   3.5985328e-09  -7.5114375e-06   6.0208658e-01   6.0173476e-01  -2.0038976e+04
   3.6012004e-09  -7.4581720e-06   6.0208535e-01   6.0173603e-01  -1.9896873e+04
   3.6038680e-09  -7.4052843e-06   6.0208414e-01   6.0173729e-01  -1.9755778e+04
   3.6065355e-09  -7.3527717e-06   6.0208293e-01   6.0173855e-01  -1.9615683e+04
   3.6092031e-09  -7.3006314e-06   6.0208173e-01   6.0173979e-01  -1.9476582e+04
   3.6118706e-09  -7.2488608e-06   6.0208054e-01   6.0174102e-01  -1.9338467e+04
   3.6145382e-09  -7.1974574e-06   6.0207936e-01   6.0174225e-01  -1.9201331e+04
   3.6172057e-09  -7.1464185e-06   6.0207819e-01   6.0174347e-01  -1.9065168e+04
   3.6198733e-09  -7.0957416e-06   6.0207703e-01   6.0174468e-01  -1.8929971e+04
   3.6225408e-09  -7.0454240e-06   6.0207587e-01   6.0174588e-01  -1.8795732e+04
   3.6252084e-09  -6.9954632e-06   6.0207472e-01   6.0174707e-01  -1.8662445e+04
   3.6278760e-09  -6.9458567e-06   6.0207358e-01   6.0174825e-01  -1.8530104e+04
   3.6305435e-09  -6.8966020e-06   6.0207245e-01   6.0174943e-01  -1.8398701e+04
   3.6332111e-09  -6.8476965e-06   6.0207133e-01   6.0175060e-01  -1.8268229e+04
   3.6358786e-09  -6.7991379e-06   6.0207021e-01   6.0175175e-01  -1.8138683e+04
   3.6385462e-09  -6.7509236e-06   6.0206910e-01   6.0175291e-01  -1.8010056e+04
   3.6412137e-09  -6.7030513e-06   6.0206800e-01   6.0175405e-01  -1.7882341e+04
   3.6438813e-09  -6.6555184e-06   6.0206691e-01   6.0175518e-01  -1.7755531e+04
   3.6465488e-09  -6.6083225e-06   6.0206583e-01   6.0175631e-01  -1.7629621e+04
   3.6492164e-09  -6.5614614e-06   6.0206475e-01   6.0175743e-01  -1.7504604e+04
   3.6518840e-09  -6.5149325e-06   6.0206368e-01   6.0175854e-01  -1.7380473e+04
   3.6545515e-09  -6.4687337e-06   6.0206262e-01   6.0175964e-01  -1.7257222e+04
   3.6572191e-09  -6.4228624e-06   6.0206157e-01   6.0176073e-01  -1.7134846e+04
   3.6598866e-09  -6.3773164e-06   6.0206052e-01   6.0176182e-01  -1.7013337e+04
   3.6625542e-09  -6.3320934e-06   6.0205948e-01   6.0176290e-01  -1.6892690e+04
   3.6652217e-09  -6.2871911e-06   6.0205845e-01   6.0176397e-01  -1.6772898e+04
   3.6678893e-09  -6.2426072e-06   6.0205742e-01   6.0176503e-01  -1.6653956e+04
   3.6705569e-09  -6.1983394e-06   6.0205641e-01   6.0176609e-01  -1.6535858e+04
   3.6732244e-09  -6.1543856e-06   6.0205540e-01   6.0176714e-01  -1.6418597e+04
   3.6758920e-09  -6.1107435e-06   6.0205439e-01   6.0176818e-01  -1.6302167e+04
   3.6785595e-09  -6.0674108e-06   6.0205340e-01   6.0176921e-01  -1.6186563e+04
   3.6812271e-09  -6.0243855e-06   6.0205241e-01   6.0177024e-01  -1.6071779e+04
   3.6838946e-09  -5.9816652e-06   6.0205143e-01   6.0177126e-01  -1.5957809e+04
   3.6865622e-09  -5.9392479e-06   6.0205045e-01   6.0177227e-01  -1.5844647e+04
   3.6892297e-09  -5.8971314e-06   6.0204949e-01   6.0177328e-01  -1.5732288e+04
   3.6918973e-09  -5.8553135e-06   6.0204852e-01   6.0177427e-01  -1.5620725e+04
   3.6945649e-09  -5.8137922e-06   6.0204757e-01   6.0177527e-01  -1.5509954e+04
   3.6972324e-09  -5.7725654e-06   6.0204662e-01   6.0177625e-01  -1.5399968e+04
   3.6999000e-09  -5.7316308e-06   6.0204568e-01   6.0177723e-01  -1.5290762e+04
   3.7025675e-09  -5.6909866e-06   6.0204475e-01   6.0177820e-01  -1.5182330e+04
   3.7052351e-09  -5.6506306e-06   6.0204382e-01   6.0177916e-01  -1.5074667e+04
   3.7079026e-09  -5.6105608e-06   6.0204290e-01   6.0178011e-01  -1.4967768e+04
   3.7105702e-09  -5.5707751e-06   6.0204199e-01   6.0178106e-01  -1.4861627e+04
   3.7132377e-09  -5.5312715e-06   6.0204108e-01   6.0178201e-01  -1.4756239e+04
   3.7159053e-09  -5.4920481e-06   6.0204018e-01   6.0178294e-01  -1.4651597e+04
   3.7185729e-09  -5.4531028e-06   6.0203928e-01   6.0178387e-01  -1.4547698e+04
   3.7212404e-09  -5.4144337e-06   6.0203839e-01   6.0178479e-01  -1.4444536e+04
   3.7239080e-09  -5.3760388e-06   6.0203751e-01   6.0178571e-01  -1.4342106e+04
   3.7265755e-09  -5.3379162e-06   6.0203664e-01   6.0178662e-01  -1.4240401e+04
   3.7292431e-09  -5.3000639e-06   6.0203577e-01   6.0178752e-01  -1.4139418e+04
   3.7319106e-09  -5.2624800e-06   6.0203490e-01   6.0178842e-01  -1.4039151e+04
   3.7345782e-09  -5.2251627e-06   6.0203405e-01   6.0178931e-01  -1.3939595e+04
   3.7372457e-09  -5.1881100e-06   6.0203319e-01   6.0179019e-01  -1.3840745e+04
   3.7399133e-09  -5.1513200e-06   6.0203235e-01   6.0179107e-01  -1.3742596e+04
   3.7425809e-09  -5.1147910e-06   6.0203151e-01   6.0179194e-01  -1.3645143e+04
   3.7452484e-09  -5.0785209e-06   6.0203068e-01   6.0179281e-01  -1.3548382e+04
   3.7479160e-09  -5.0425081e-06   6.0202985e-01   6.0179367e-01  -1.3452306e+04
   3.7505835e-09  -5.0067507e-06   6.0202903e-01   6.0179452e-01  -1.3356912e+04
   3.7532511e-09  -4.9712468e-06   6.0202821e-01   6.0179537e-01  -1.3262194e+04
   3.7559186e-09  -4.9359947e-06   6.0202740e-01   6.0179621e-01  -1.3168147e+04
   3.7585862e-09  -4.9009925e-06   6.0202660e-01   6.0179705e-01  -1.3074768e+04
   3.7612538e-09  -4.8662386e-06   6.0202580e-01   6.0179788e-01  -1.2982051e+04
   3.7639213e-09  -4.8317311e-06   6.0202501e-01   6.0179870e-01  -1.2889991e+04
   3.7665889e-09  -4.7974684e-06   6.0202422e-01   6.0179952e-01  -1.2798585e+04
   3.7692564e-09  -4.7634486e-06   6.0202344e-01   6.0180033e-01  -1.2707826e+04
   3.7719240e-09  -4.7296700e-06   6.0202266e-01   6.0180113e-01  -1.2617711e+04
   3.7745915e-09  -4.6961310e-06   6.0202189e-01   6.0180193e-01  -1.2528235e+04
   3.7772591e-09  -4.6628298e-06   6.0202113e-01   6.0180273e-01  -1.2439394e+04
   3.7799266e-09  -4.6297648e-06   6.0202037e-01   6.0180352e-01  -1.2351182e+04
   3.7825942e-09  -4.5969342e-06   6.0201961e-01   6.0180430e-01  -1.2263596e+04
   3.7852618e-09  -4.5643365e-06   6.0201886e-01   6.0180508e-01  -1.2176632e+04
   3.7879293e-09  -4.5319699e-06   6.0201812e-01   6.0180585e-01  -1.2090284e+04
   3.7905969e-09  -4.4998328e-06   6.0201738e-01   6.0180662e-01  -1.2004548e+04
   3.7932644e-09  -4.4679237e-06   6.0201665e-01   6.0180738e-01  -1.1919420e+04
   3.7959320e-09  -4.4362408e-06   6.0201592e-01   6.0180814e-01  -1.1834896e+04
   3.7985995e-09  -4.4047826e-06   6.0201520e-01   6.0180889e-01  -1.1750971e+04
   3.8012671e-09  -4.3735474e-06   6.0201448e-01   6.0180963e-01  -1.1667642e+04
   3.8039346e-09  -4.3425338e-06   6.0201377e-01   6.0181037e-01  -1.1584903e+04
   3.8066022e-09  -4.3117401e-06   6.0201306e-01   6.0181111e-01  -1.1502751e+04
   3.8092698e-09  -4.2811647e-06   6.0201236e-01   6.0181184e-01  -1.1421182e+04
   3.8119373e-09  -4.2508062e-06   6.0201166e-01   6.0181256e-01  -1.1340191e+04
   3.8146049e-09  -4.2206629e-06   6.0201097e-01   6.0181328e-01  -1.1259775e+04
   3.8172724e-09  -4.1907334e-06   6.0201028e-01   6.0181399e-01  -1.1179928e+04
   3.8199400e-09  -4.1610162e-06   6.0200960e-01   6.0181470e-01  -1.1100648e+04
   3.8226075e-09  -4.1315097e-06   6.0200892e-01   6.0181541e-01  -1.1021931e+04
   3.8252751e-09  -4.1022124e-06   6.0200824e-01   6.0181611e-01  -1.0943771e+04
   3.8279426e-09  -4.0731228e-06   6.0200758e-01   6.0181680e-01  -1.0866166e+04
   3.8306102e-09  -4.0442396e-06   6.0200691e-01   6.0181749e-01  -1.0789111e+04
   3.8332778e-09  -4.0155612e-06   6.0200625e-01   6.0181817e-01  -1.0712602e+04
   3.8359453e-09  -3.9870861e-06   6.0200560e-01   6.0181885e-01  -1.0636636e+04
   3.8386129e-09  -3.9588130e-06   6.0200495e-01   6.0181953e-01  -1.0561209e+04
   3.8412804e-09  -3.9307403e-06   6.0200431e-01   6.0182020e-01  -1.0486316e+04
   3.8439480e-09  -3.9028668e-06   6.0200366e-01   6.0182086e-01  -1.0411955e+04
   3.8466155e-09  -3.8751909e-06   6.0200303e-01   6.0182152e-01  -1.0338121e+04
   3.8492831e-09  -3.8477112e-06   6.0200240e-01   6.0182218e-01  -1.0264810e+04
   3.8519507e-09  -3.8204264e-06   6.0200177e-01   6.0182283e-01  -1.0192020e+04
   3.8546182e-09  -3.7933351e-06   6.0200115e-01   6.0182348e-01  -1.0119745e+04
   3.8572858e-09  -3.7664359e-06   6.0200053e-01   6.0182412e-01  -1.0047983e+04
   3.8599533e-09  -3.7397275e-06   6.0199992e-01   6.0182476e-01  -9.9767303e+03
   3.8626209e-09  -3.7132085e-06   6.0199931e-01   6.0182539e-01  -9.9059826e+03
   3.8652884e-09  -3.6868775e-06   6.0199870e-01   6.0182602e-01  -9.8357366e+03
   3.8679560e-09  -3.6607332e-06   6.0199810e-01   6.0182664e-01  -9.7659887e+03
   3.8706235e-09  -3.6347743e-06   6.0199751e-01   6.0182726e-01  -9.6967355e+03
   3.8732911e-09  -3.6089995e-06   6.0199691e-01   6.0182788e-01  -9.6279733e+03
   3.8759587e-09  -3.5834075e-06   6.0199633e-01   6.0182849e-01  -9.5596988e+03
   3.8786262e-09  -3.5579970e-06   6.0199574e-01   6.0182909e-01  -9.4919084e+03
   3.8812938e-09  -3.5327667e-06   6.0199516e-01   6.0182969e-01  -9.4245988e+03
   3.8839613e-09  -3.5077152e-06   6.0199459e-01   6.0183029e-01  -9.3577665e+03
   3.8866289e-09  -3.4828415e-06   6.0199401e-01   6.0183089e-01  -9.2914081e+03
   3.8892964e-09  -3.4581441e-06   6.0199345e-01   6.0183148e-01  -9.2255202e+03
   3.8919640e-09  -3.4336218e-06   6.0199288e-01   6.0183206e-01  -9.1600997e+03
   3.8946315e-09  -3.4092735e-06   6.0199232e-01   6.0183264e-01  -9.0951430e+03
   3.8972991e-09  -3.3850978e-06   6.0199177e-01   6.0183322e-01  -9.0306470e+03
   3.8999667e-09  -3.3610935e-06   6.0199122e-01   6.0183379e-01  -8.9666083e+03
