   0.0000000e+00  -1.5562250e-01   6.2259794e+00   3.4276405e-05  -5.1794318e+08
   2.6675559e-12  -1.5424607e-01   6.2170052e+00   3.8096483e-05  -5.1414033e+08
   5.3351117e-12  -1.5287979e-01   6.2076364e+00   4.2306100e-05  -5.1033531e+08
   8.0026676e-12  -1.5152366e-01   6.1978616e+00   4.6940581e-05  -5.0652824e+08
   1.0670223e-11  -1.5017769e-01   6.1876690e+00   5.2037949e-05  -5.0271924e+08
   1.3337779e-11  -1.4884189e-01   6.1770473e+00   5.7639072e-05  -4.9890845e+08
   1.6005335e-11  -1.4751626e-01   6.1659850e+00   6.3787825e-05  -4.9509603e+08
   1.8672891e-11  -1.4620080e-01   6.1544709e+00   7.0531235e-05  -4.9128214e+08
   2.1340447e-11  -1.4489552e-01   6.1424938e+00   7.7919648e-05  -4.8746697e+08
   2.4008003e-11  -1.4360043e-01   6.1300428e+00   8.6006880e-05  -4.8365073e+08
   2.6675559e-11  -1.4231551e-01   6.1171072e+00   9.4850380e-05  -4.7983363e+08
   2.9343114e-11  -1.4104078e-01   6.1036767e+00   1.0451138e-04  -4.7601591e+08
   3.2010670e-11  -1.3977624e-01   6.0897410e+00   1.1505506e-04  -4.7219782e+08
   3.4678226e-11  -1.3852188e-01   6.0752905e+00   1.2655070e-04  -4.6837965e+08
   3.7345782e-11  -1.3727771e-01   6.0603157e+00   1.3907180e-04  -4.6456167e+08
   4.0013338e-11  -1.3604373e-01   6.0448077e+00   1.5269626e-04  -4.6074421e+08
   4.2680894e-11  -1.3481993e-01   6.0287579e+00   1.6750651e-04  -4.5692759e+08
   4.5348449e-11  -1.3360631e-01   6.0121583e+00   1.8358963e-04  -4.5311216e+08
   4.8016005e-11  -1.3240287e-01   5.9950016e+00   2.0103745e-04  -4.4929829e+08
   5.0683561e-11  -1.3120960e-01   5.9772806e+00   2.1994671e-04  -4.4548637e+08
   5.3351117e-11  -1.3002649e-01   5.9589891e+00   2.4041912e-04  -4.4167681e+08
   5.6018673e-11  -1.2885355e-01   5.9401215e+00   2.6256146e-04  -4.3787003e+08
   5.8686229e-11  -1.2769076e-01   5.9206728e+00   2.8648565e-04  -4.3406649e+08
   6.1353785e-11  -1.2653811e-01   5.9006387e+00   3.1230882e-04  -4.3026665e+08
   6.4021340e-11  -1.2539559e-01   5.8800155e+00   3.4015333e-04  -4.2647100e+08
   6.6688896e-11  -1.2426319e-01   5.8588007e+00   3.7014681e-04  -4.2268004e+08
   6.9356452e-11  -1.2314090e-01   5.8369922e+00   4.0242216e-04  -4.1889430e+08
   7.2024008e-11  -1.2202870e-01   5.8145888e+00   4.3711754e-04  -4.1511431e+08
   7.4691564e-11  -1.2092658e-01   5.7915902e+00   4.7437633e-04  -4.1134064e+08
   7.7359120e-11  -1.1983451e-01   5.7679971e+00   5.1434708e-04  -4.0757385e+08
   8.0026676e-11  -1.1875248e-01   5.7438108e+00   5.5718343e-04  -4.0381455e+08
   8.2694231e-11  -1.1768047e-01   5.7190337e+00   6.0304400e-04  -4.0006333e+08
   8.5361787e-11  -1.1661845e-01   5.6936691e+00   6.5209229e-04  -3.9632082e+08
   8.8029343e-11  -1.1556641e-01   5.6677210e+00   7.0449651e-04  -3.9258764e+08
   9.0696899e-11  -1.1452431e-01   5.6411946e+00   7.6042942e-04  -3.8886445e+08
   9.3364455e-11  -1.1349212e-01   5.6140958e+00   8.2006816e-04  -3.8515190e+08
   9.6032011e-11  -1.1246983e-01   5.5864316e+00   8.8359399e-04  -3.8145065e+08
   9.8699567e-11  -1.1145739e-01   5.5582097e+00   9.5119208e-04  -3.7776139e+08
   1.0136712e-10  -1.1045477e-01   5.5294388e+00   1.0230513e-03  -3.7408478e+08
   1.0403468e-10  -1.0946195e-01   5.5001285e+00   1.0993637e-03  -3.7042153e+08
   1.0670223e-10  -1.0847888e-01   5.4702893e+00   1.1803247e-03  -3.6677232e+08
   1.0936979e-10  -1.0750552e-01   5.4399323e+00   1.2661322e-03  -3.6313784e+08
   1.1203735e-10  -1.0654183e-01   5.4090697e+00   1.3569867e-03  -3.5951881e+08
   1.1470490e-10  -1.0558778e-01   5.3777143e+00   1.4530906e-03  -3.5591591e+08
   1.1737246e-10  -1.0464331e-01   5.3458798e+00   1.5546482e-03  -3.5232984e+08
   1.2004001e-10  -1.0370838e-01   5.3135804e+00   1.6618648e-03  -3.4876129e+08
   1.2270757e-10  -1.0278295e-01   5.2808313e+00   1.7749471e-03  -3.4521097e+08
   1.2537513e-10  -1.0186696e-01   5.2476481e+00   1.8941019e-03  -3.4167954e+08
   1.2804268e-10  -1.0096037e-01   5.2140469e+00   2.0195364e-03  -3.3816769e+08
   1.3071024e-10  -1.0006311e-01   5.1800447e+00   2.1514574e-03  -3.3467609e+08
   1.3337779e-10  -9.9175141e-02   5.1456588e+00   2.2900709e-03  -3.3120539e+08
   1.3604535e-10  -9.8296397e-02   5.1109070e+00   2.4355822e-03  -3.2775624e+08
   1.3871290e-10  -9.7426822e-02   5.0758075e+00   2.5881947e-03  -3.2432927e+08
   1.4138046e-10  -9.6566357e-02   5.0403788e+00   2.7481101e-03  -3.2092512e+08
   1.4404802e-10  -9.5714939e-02   5.0046398e+00   2.9155277e-03  -3.1754436e+08
   1.4671557e-10  -9.4872506e-02   4.9686098e+00   3.0906441e-03  -3.1418761e+08
   1.4938313e-10  -9.4038992e-02   4.9323081e+00   3.2736530e-03  -3.1085542e+08
   1.5205068e-10  -9.3214331e-02   4.8957542e+00   3.4647444e-03  -3.0754835e+08
   1.5471824e-10  -9.2398456e-02   4.8589679e+00   3.6641046e-03  -3.0426692e+08
   1.5738580e-10  -9.1591297e-02   4.8219688e+00   3.8719159e-03  -3.0101165e+08
   1.6005335e-10  -9.0792783e-02   4.7847768e+00   4.0883560e-03  -2.9778302e+08
   1.6272091e-10  -9.0002844e-02   4.7474115e+00   4.3135977e-03  -2.9458149e+08
   1.6538846e-10  -8.9221406e-02   4.7098926e+00   4.5478090e-03  -2.9140752e+08
   1.6805602e-10  -8.8448395e-02   4.6722397e+00   4.7911525e-03  -2.8826151e+08
   1.7072357e-10  -8.7683736e-02   4.6344722e+00   5.0437851e-03  -2.8514386e+08
   1.7339113e-10  -8.6927353e-02   4.5966093e+00   5.3058579e-03  -2.8205494e+08
   1.7605869e-10  -8.6179168e-02   4.5586700e+00   5.5775162e-03  -2.7899509e+08
   1.7872624e-10  -8.5439104e-02   4.5206730e+00   5.8588989e-03  -2.7596463e+08
   1.8139380e-10  -8.4707082e-02   4.4826367e+00   6.1501386e-03  -2.7296384e+08
   1.8406135e-10  -8.3983022e-02   4.4445791e+00   6.4513615e-03  -2.6999300e+08
   1.8672891e-10  -8.3266844e-02   4.4065180e+00   6.7626869e-03  -2.6705235e+08
   1.8939647e-10  -8.2558468e-02   4.3684707e+00   7.0842277e-03  -2.6414209e+08
   1.9206402e-10  -8.1857811e-02   4.3304541e+00   7.4160899e-03  -2.6126242e+08
   1.9473158e-10  -8.1164793e-02   4.2924847e+00   7.7583725e-03  -2.5841351e+08
   1.9739913e-10  -8.0479331e-02   4.2545785e+00   8.1111679e-03  -2.5559548e+08
   2.0006669e-10  -7.9801342e-02   4.2167511e+00   8.4745613e-03  -2.5280845e+08
   2.0273424e-10  -7.9130744e-02   4.1790175e+00   8.8486312e-03  -2.5005251e+08
   2.0540180e-10  -7.8467453e-02   4.1413923e+00   9.2334492e-03  -2.4732773e+08
   2.0806936e-10  -7.7811387e-02   4.1038895e+00   9.6290800e-03  -2.4463414e+08
   2.1073691e-10  -7.7162463e-02   4.0665227e+00   1.0035581e-02  -2.4197177e+08
   2.1340447e-10  -7.6520596e-02   4.0293049e+00   1.0453005e-02  -2.3934061e+08
   2.1607202e-10  -7.5885704e-02   3.9922485e+00   1.0881394e-02  -2.3674064e+08
   2.1873958e-10  -7.5257704e-02   3.9553656e+00   1.1320788e-02  -2.3417180e+08
   2.2140714e-10  -7.4636513e-02   3.9186675e+00   1.1771218e-02  -2.3163405e+08
   2.2407469e-10  -7.4022047e-02   3.8821651e+00   1.2232710e-02  -2.2912728e+08
   2.2674225e-10  -7.3414226e-02   3.8458687e+00   1.2705281e-02  -2.2665139e+08
   2.2940980e-10  -7.2812965e-02   3.8097883e+00   1.3188945e-02  -2.2420626e+08
   2.3207736e-10  -7.2218184e-02   3.7739331e+00   1.3683709e-02  -2.2179176e+08
   2.3474491e-10  -7.1629801e-02   3.7383118e+00   1.4189575e-02  -2.1940772e+08
   2.3741247e-10  -7.1047735e-02   3.7029328e+00   1.4706537e-02  -2.1705398e+08
   2.4008003e-10  -7.0471906e-02   3.6678039e+00   1.5234586e-02  -2.1473035e+08
   2.4274758e-10  -6.9902233e-02   3.6329323e+00   1.5773707e-02  -2.1243662e+08
   2.4541514e-10  -6.9338638e-02   3.5983248e+00   1.6323879e-02  -2.1017259e+08
   2.4808269e-10  -6.8781040e-02   3.5639879e+00   1.6885077e-02  -2.0793803e+08
   2.5075025e-10  -6.8229362e-02   3.5299273e+00   1.7457271e-02  -2.0573270e+08
   2.5341781e-10  -6.7683527e-02   3.4961485e+00   1.8040426e-02  -2.0355635e+08
   2.5608536e-10  -6.7143457e-02   3.4626565e+00   1.8634503e-02  -2.0140873e+08
   2.5875292e-10  -6.6609076e-02   3.4294558e+00   1.9239459e-02  -1.9928957e+08
   2.6142047e-10  -6.6080309e-02   3.3965507e+00   1.9855245e-02  -1.9719859e+08
   2.6408803e-10  -6.5557081e-02   3.3639449e+00   2.0481811e-02  -1.9513551e+08
   2.6675559e-10  -6.5039318e-02   3.3316418e+00   2.1119101e-02  -1.9310004e+08
   2.6942314e-10  -6.4526946e-02   3.2996444e+00   2.1767057e-02  -1.9109189e+08
   2.7209070e-10  -6.4019893e-02   3.2679553e+00   2.2425615e-02  -1.8911074e+08
   2.7475825e-10  -6.3518089e-02   3.2365770e+00   2.3094710e-02  -1.8715629e+08
   2.7742581e-10  -6.3021461e-02   3.2055113e+00   2.3774274e-02  -1.8522823e+08
   2.8009336e-10  -6.2529940e-02   3.1747599e+00   2.4464235e-02  -1.8332623e+08
   2.8276092e-10  -6.2043457e-02   3.1443243e+00   2.5164519e-02  -1.8144999e+08
   2.8542848e-10  -6.1561943e-02   3.1142056e+00   2.5875048e-02  -1.7959917e+08
   2.8809603e-10  -6.1085332e-02   3.0844044e+00   2.6595742e-02  -1.7777346e+08
   2.9076359e-10  -6.0613557e-02   3.0549214e+00   2.7326520e-02  -1.7597252e+08
   2.9343114e-10  -6.0146552e-02   3.0257569e+00   2.8067298e-02  -1.7419602e+08
   2.9609870e-10  -5.9684252e-02   2.9969109e+00   2.8817989e-02  -1.7244364e+08
   2.9876626e-10  -5.9226594e-02   2.9683833e+00   2.9578505e-02  -1.7071504e+08
   3.0143381e-10  -5.8773515e-02   2.9401736e+00   3.0348756e-02  -1.6900989e+08
   3.0410137e-10  -5.8324952e-02   2.9122813e+00   3.1128649e-02  -1.6732786e+08
   3.0676892e-10  -5.7880845e-02   2.8847057e+00   3.1918093e-02  -1.6566862e+08
   3.0943648e-10  -5.7441133e-02   2.8574457e+00   3.2716990e-02  -1.6403185e+08
   3.1210403e-10  -5.7005756e-02   2.8305003e+00   3.3525246e-02  -1.6241720e+08
   3.1477159e-10  -5.6574657e-02   2.8038681e+00   3.4342762e-02  -1.6082436e+08
   3.1743915e-10  -5.6147776e-02   2.7775478e+00   3.5169440e-02  -1.5925300e+08
   3.2010670e-10  -5.5725058e-02   2.7515376e+00   3.6005180e-02  -1.5770280e+08
   3.2277426e-10  -5.5306447e-02   2.7258360e+00   3.6849881e-02  -1.5617343e+08
   3.2544181e-10  -5.4891887e-02   2.7004410e+00   3.7703441e-02  -1.5466458e+08
   3.2810937e-10  -5.4481324e-02   2.6753508e+00   3.8565758e-02  -1.5317593e+08
   3.3077693e-10  -5.4074705e-02   2.6505633e+00   3.9436728e-02  -1.5170716e+08
   3.3344448e-10  -5.3671977e-02   2.6260763e+00   4.0316247e-02  -1.5025797e+08
   3.3611204e-10  -5.3273088e-02   2.6018876e+00   4.1204211e-02  -1.4882805e+08
   3.3877959e-10  -5.2877988e-02   2.5779948e+00   4.2100515e-02  -1.4741709e+08
   3.4144715e-10  -5.2486626e-02   2.5543956e+00   4.3005052e-02  -1.4602479e+08
   3.4411470e-10  -5.2098952e-02   2.5310874e+00   4.3917718e-02  -1.4465085e+08
   3.4678226e-10  -5.1714919e-02   2.5080677e+00   4.4838405e-02  -1.4329498e+08
   3.4944982e-10  -5.1334478e-02   2.4853339e+00   4.5767008e-02  -1.4195689e+08
   3.5211737e-10  -5.0957583e-02   2.4628833e+00   4.6703420e-02  -1.4063629e+08
   3.5478493e-10  -5.0584187e-02   2.4407133e+00   4.7647533e-02  -1.3933290e+08
   3.5745248e-10  -5.0214244e-02   2.4188211e+00   4.8599240e-02  -1.3804643e+08
   3.6012004e-10  -4.9847710e-02   2.3972038e+00   4.9558435e-02  -1.3677662e+08
   3.6278760e-10  -4.9484542e-02   2.3758588e+00   5.0525011e-02  -1.3552318e+08
   3.6545515e-10  -4.9124694e-02   2.3547830e+00   5.1498860e-02  -1.3428586e+08
   3.6812271e-10  -4.8768126e-02   2.3339737e+00   5.2479875e-02  -1.3306439e+08
   3.7079026e-10  -4.8414795e-02   2.3134280e+00   5.3467950e-02  -1.3185851e+08
   3.7345782e-10  -4.8064659e-02   2.2931429e+00   5.4462978e-02  -1.3066796e+08
   3.7612538e-10  -4.7717679e-02   2.2731155e+00   5.5464852e-02  -1.2949249e+08
   3.7879293e-10  -4.7373814e-02   2.2533429e+00   5.6473465e-02  -1.2833185e+08
   3.8146049e-10  -4.7033025e-02   2.2338220e+00   5.7488713e-02  -1.2718579e+08
   3.8412804e-10  -4.6695274e-02   2.2145501e+00   5.8510488e-02  -1.2605409e+08
   3.8679560e-10  -4.6360522e-02   2.1955241e+00   5.9538685e-02  -1.2493650e+08
   3.8946315e-10  -4.6028733e-02   2.1767410e+00   6.0573199e-02  -1.2383278e+08
   3.9213071e-10  -4.5699869e-02   2.1581980e+00   6.1613925e-02  -1.2274272e+08
   3.9479827e-10  -4.5373895e-02   2.1398920e+00   6.2660758e-02  -1.2166608e+08
   3.9746582e-10  -4.5050775e-02   2.1218202e+00   6.3713595e-02  -1.2060265e+08
   4.0013338e-10  -4.4730474e-02   2.1039796e+00   6.4772331e-02  -1.1955221e+08
   4.0280093e-10  -4.4412957e-02   2.0863673e+00   6.5836863e-02  -1.1851454e+08
   4.0546849e-10  -4.4098191e-02   2.0689803e+00   6.6907089e-02  -1.1748944e+08
   4.0813605e-10  -4.3786144e-02   2.0518159e+00   6.7982905e-02  -1.1647670e+08
   4.1080360e-10  -4.3476781e-02   2.0348711e+00   6.9064210e-02  -1.1547611e+08
   4.1347116e-10  -4.3170071e-02   2.0181431e+00   7.0150903e-02  -1.1448749e+08
   4.1613871e-10  -4.2865982e-02   2.0016290e+00   7.1242882e-02  -1.1351063e+08
   4.1880627e-10  -4.2564483e-02   1.9853260e+00   7.2340047e-02  -1.1254535e+08
   4.2147382e-10  -4.2265544e-02   1.9692314e+00   7.3442298e-02  -1.1159145e+08
   4.2414138e-10  -4.1969134e-02   1.9533423e+00   7.4549536e-02  -1.1064875e+08
   4.2680894e-10  -4.1675224e-02   1.9376560e+00   7.5661661e-02  -1.0971707e+08
   4.2947649e-10  -4.1383784e-02   1.9221698e+00   7.6778576e-02  -1.0879624e+08
   4.3214405e-10  -4.1094786e-02   1.9068810e+00   7.7900183e-02  -1.0788608e+08
   4.3481160e-10  -4.0808202e-02   1.8917869e+00   7.9026385e-02  -1.0698641e+08
   4.3747916e-10  -4.0524004e-02   1.8768848e+00   8.0157085e-02  -1.0609707e+08
   4.4014672e-10  -4.0242165e-02   1.8621722e+00   8.1292187e-02  -1.0521790e+08
   4.4281427e-10  -3.9962657e-02   1.8476464e+00   8.2431596e-02  -1.0434873e+08
   4.4548183e-10  -3.9685454e-02   1.8333049e+00   8.3575218e-02  -1.0348940e+08
   4.4814938e-10  -3.9410530e-02   1.8191450e+00   8.4722957e-02  -1.0263976e+08
   4.5081694e-10  -3.9137860e-02   1.8051644e+00   8.5874721e-02  -1.0179966e+08
   4.5348449e-10  -3.8867419e-02   1.7913605e+00   8.7030417e-02  -1.0096894e+08
   4.5615205e-10  -3.8599180e-02   1.7777309e+00   8.8189952e-02  -1.0014747e+08
   4.5881961e-10  -3.8333121e-02   1.7642731e+00   8.9353235e-02  -9.9335085e+07
   4.6148716e-10  -3.8069217e-02   1.7509847e+00   9.0520174e-02  -9.8531656e+07
   4.6415472e-10  -3.7807444e-02   1.7378634e+00   9.1690680e-02  -9.7737040e+07
   4.6682227e-10  -3.7547779e-02   1.7249067e+00   9.2864663e-02  -9.6951103e+07
   4.6948983e-10  -3.7290199e-02   1.7121125e+00   9.4042034e-02  -9.6173710e+07
   4.7215739e-10  -3.7034681e-02   1.6994785e+00   9.5222704e-02  -9.5404730e+07
   4.7482494e-10  -3.6781203e-02   1.6870022e+00   9.6406585e-02  -9.4644034e+07
   4.7749250e-10  -3.6529744e-02   1.6746817e+00   9.7593591e-02  -9.3891497e+07
   4.8016005e-10  -3.6280281e-02   1.6625145e+00   9.8783635e-02  -9.3146994e+07
   4.8282761e-10  -3.6032793e-02   1.6504987e+00   9.9976631e-02  -9.2410403e+07
   4.8549517e-10  -3.5787260e-02   1.6386320e+00   1.0117249e-01  -9.1681607e+07
   4.8816272e-10  -3.5543661e-02   1.6269123e+00   1.0237114e-01  -9.0960487e+07
   4.9083028e-10  -3.5301974e-02   1.6153375e+00   1.0357248e-01  -9.0246929e+07
   4.9349783e-10  -3.5062182e-02   1.6039057e+00   1.0477644e-01  -8.9540820e+07
   4.9616539e-10  -3.4824263e-02   1.5926147e+00   1.0598293e-01  -8.8842051e+07
   4.9883294e-10  -3.4588198e-02   1.5814626e+00   1.0719188e-01  -8.8150512e+07
   5.0150050e-10  -3.4353968e-02   1.5704474e+00   1.0840319e-01  -8.7466097e+07
   5.0416806e-10  -3.4121555e-02   1.5595672e+00   1.0961679e-01  -8.6788702e+07
   5.0683561e-10  -3.3890939e-02   1.5488200e+00   1.1083261e-01  -8.6118225e+07
   5.0950317e-10  -3.3662103e-02   1.5382040e+00   1.1205055e-01  -8.5454565e+07
   5.1217072e-10  -3.3435028e-02   1.5277174e+00   1.1327054e-01  -8.4797624e+07
   5.1483828e-10  -3.3209696e-02   1.5173581e+00   1.1449251e-01  -8.4147304e+07
   5.1750584e-10  -3.2986090e-02   1.5071246e+00   1.1571637e-01  -8.3503511e+07
   5.2017339e-10  -3.2764193e-02   1.4970150e+00   1.1694206e-01  -8.2866152e+07
   5.2284095e-10  -3.2543988e-02   1.4870274e+00   1.1816949e-01  -8.2235134e+07
   5.2550850e-10  -3.2325458e-02   1.4771604e+00   1.1939858e-01  -8.1610370e+07
   5.2817606e-10  -3.2108585e-02   1.4674120e+00   1.2062928e-01  -8.0991769e+07
   5.3084361e-10  -3.1893355e-02   1.4577806e+00   1.2186149e-01  -8.0379247e+07
   5.3351117e-10  -3.1679751e-02   1.4482647e+00   1.2309514e-01  -7.9772717e+07
   5.3617873e-10  -3.1467757e-02   1.4388625e+00   1.2433018e-01  -7.9172098e+07
   5.3884628e-10  -3.1257357e-02   1.4295724e+00   1.2556651e-01  -7.8577306e+07
   5.4151384e-10  -3.1048535e-02   1.4203930e+00   1.2680408e-01  -7.7988261e+07
   5.4418139e-10  -3.0841278e-02   1.4113225e+00   1.2804280e-01  -7.7404885e+07
   5.4684895e-10  -3.0635569e-02   1.4023595e+00   1.2928262e-01  -7.6827101e+07
   5.4951651e-10  -3.0431394e-02   1.3935026e+00   1.3052346e-01  -7.6254831e+07
   5.5218406e-10  -3.0228739e-02   1.3847501e+00   1.3176524e-01  -7.5688003e+07
   5.5485162e-10  -3.0027588e-02   1.3761006e+00   1.3300792e-01  -7.5126541e+07
   5.5751917e-10  -2.9827928e-02   1.3675527e+00   1.3425141e-01  -7.4570375e+07
   5.6018673e-10  -2.9629744e-02   1.3591050e+00   1.3549564e-01  -7.4019434e+07
   5.6285428e-10  -2.9433023e-02   1.3507561e+00   1.3674057e-01  -7.3473648e+07
   5.6552184e-10  -2.9237751e-02   1.3425046e+00   1.3798611e-01  -7.2932949e+07
   5.6818940e-10  -2.9043915e-02   1.3343491e+00   1.3923220e-01  -7.2397270e+07
   5.7085695e-10  -2.8851501e-02   1.3262883e+00   1.4047878e-01  -7.1866545e+07
   5.7352451e-10  -2.8660496e-02   1.3183209e+00   1.4172579e-01  -7.1340710e+07
   5.7619206e-10  -2.8470888e-02   1.3104456e+00   1.4297315e-01  -7.0819701e+07
   5.7885962e-10  -2.8282663e-02   1.3026612e+00   1.4422082e-01  -7.0303456e+07
   5.8152718e-10  -2.8095808e-02   1.2949663e+00   1.4546873e-01  -6.9791914e+07
   5.8419473e-10  -2.7910312e-02   1.2873597e+00   1.4671681e-01  -6.9285013e+07
   5.8686229e-10  -2.7726162e-02   1.2798403e+00   1.4796501e-01  -6.8782696e+07
   5.8952984e-10  -2.7543346e-02   1.2724067e+00   1.4921326e-01  -6.8284904e+07
   5.9219740e-10  -2.7361852e-02   1.2650580e+00   1.5046151e-01  -6.7791579e+07
   5.9486495e-10  -2.7181668e-02   1.2577927e+00   1.5170970e-01  -6.7302667e+07
   5.9753251e-10  -2.7002782e-02   1.2506100e+00   1.5295777e-01  -6.6818110e+07
   6.0020007e-10  -2.6825183e-02   1.2435085e+00   1.5420566e-01  -6.6337856e+07
   6.0286762e-10  -2.6648859e-02   1.2364873e+00   1.5545332e-01  -6.5861851e+07
   6.0553518e-10  -2.6473800e-02   1.2295451e+00   1.5670069e-01  -6.5390042e+07
   6.0820273e-10  -2.6299993e-02   1.2226810e+00   1.5794771e-01  -6.4922378e+07
   6.1087029e-10  -2.6127429e-02   1.2158939e+00   1.5919433e-01  -6.4458809e+07
   6.1353785e-10  -2.5956096e-02   1.2091827e+00   1.6044049e-01  -6.3999283e+07
   6.1620540e-10  -2.5785983e-02   1.2025464e+00   1.6168615e-01  -6.3543754e+07
   6.1887296e-10  -2.5617080e-02   1.1959840e+00   1.6293124e-01  -6.3092171e+07
   6.2154051e-10  -2.5449377e-02   1.1894945e+00   1.6417572e-01  -6.2644488e+07
   6.2420807e-10  -2.5282862e-02   1.1830769e+00   1.6541953e-01  -6.2200659e+07
   6.2687563e-10  -2.5117526e-02   1.1767303e+00   1.6666262e-01  -6.1760637e+07
   6.2954318e-10  -2.4953359e-02   1.1704537e+00   1.6790494e-01  -6.1324378e+07
   6.3221074e-10  -2.4790351e-02   1.1642462e+00   1.6914644e-01  -6.0891836e+07
   6.3487829e-10  -2.4628492e-02   1.1581069e+00   1.7038708e-01  -6.0462969e+07
   6.3754585e-10  -2.4467772e-02   1.1520347e+00   1.7162679e-01  -6.0037734e+07
   6.4021340e-10  -2.4308181e-02   1.1460290e+00   1.7286553e-01  -5.9616088e+07
   6.4288096e-10  -2.4149711e-02   1.1400887e+00   1.7410327e-01  -5.9197990e+07
   6.4554852e-10  -2.3992351e-02   1.1342130e+00   1.7533993e-01  -5.8783399e+07
   6.4821607e-10  -2.3836092e-02   1.1284011e+00   1.7657549e-01  -5.8372274e+07
   6.5088363e-10  -2.3680926e-02   1.1226521e+00   1.7780989e-01  -5.7964577e+07
   6.5355118e-10  -2.3526842e-02   1.1169652e+00   1.7904309e-01  -5.7560269e+07
   6.5621874e-10  -2.3373833e-02   1.1113396e+00   1.8027505e-01  -5.7159310e+07
   6.5888630e-10  -2.3221888e-02   1.1057745e+00   1.8150571e-01  -5.6761663e+07
   6.6155385e-10  -2.3071000e-02   1.1002690e+00   1.8273504e-01  -5.6367292e+07
   6.6422141e-10  -2.2921160e-02   1.0948224e+00   1.8396298e-01  -5.5976159e+07
   6.6688896e-10  -2.2772359e-02   1.0894340e+00   1.8518951e-01  -5.5588229e+07
   6.6955652e-10  -2.2624588e-02   1.0841030e+00   1.8641457e-01  -5.5203465e+07
   6.7222407e-10  -2.2477840e-02   1.0788286e+00   1.8763813e-01  -5.4821835e+07
   6.7489163e-10  -2.2332105e-02   1.0736102e+00   1.8886013e-01  -5.4443302e+07
   6.7755919e-10  -2.2187376e-02   1.0684469e+00   1.9008055e-01  -5.4067833e+07
   6.8022674e-10  -2.2043645e-02   1.0633381e+00   1.9129934e-01  -5.3695396e+07
   6.8289430e-10  -2.1900903e-02   1.0582831e+00   1.9251646e-01  -5.3325956e+07
   6.8556185e-10  -2.1759142e-02   1.0532811e+00   1.9373187e-01  -5.2959482e+07
   6.8822941e-10  -2.1618356e-02   1.0483316e+00   1.9494554e-01  -5.2595942e+07
   6.9089697e-10  -2.1478535e-02   1.0434339e+00   1.9615742e-01  -5.2235305e+07
   6.9356452e-10  -2.1339672e-02   1.0385872e+00   1.9736748e-01  -5.1877539e+07
   6.9623208e-10  -2.1201760e-02   1.0337910e+00   1.9857568e-01  -5.1522615e+07
   6.9889963e-10  -2.1064791e-02   1.0290445e+00   1.9978199e-01  -5.1170503e+07
   7.0156719e-10  -2.0928757e-02   1.0243473e+00   2.0098636e-01  -5.0821172e+07
   7.0423474e-10  -2.0793652e-02   1.0196986e+00   2.0218877e-01  -5.0474594e+07
   7.0690230e-10  -2.0659467e-02   1.0150978e+00   2.0338917e-01  -5.0130741e+07
   7.0956986e-10  -2.0526196e-02   1.0105444e+00   2.0458753e-01  -4.9789583e+07
   7.1223741e-10  -2.0393832e-02   1.0060377e+00   2.0578383e-01  -4.9451093e+07
   7.1490497e-10  -2.0262367e-02   1.0015772e+00   2.0697801e-01  -4.9115245e+07
   7.1757252e-10  -2.0131795e-02   9.9716221e-01   2.0817006e-01  -4.8782010e+07
   7.2024008e-10  -2.0002107e-02   9.9279229e-01   2.0935994e-01  -4.8451362e+07
   7.2290764e-10  -1.9873299e-02   9.8846682e-01   2.1054762e-01  -4.8123274e+07
   7.2557519e-10  -1.9745362e-02   9.8418526e-01   2.1173306e-01  -4.7797722e+07
   7.2824275e-10  -1.9618291e-02   9.7994707e-01   2.1291624e-01  -4.7474679e+07
   7.3091030e-10  -1.9492077e-02   9.7575171e-01   2.1409712e-01  -4.7154120e+07
   7.3357786e-10  -1.9366716e-02   9.7159865e-01   2.1527567e-01  -4.6836021e+07
   7.3624542e-10  -1.9242200e-02   9.6748737e-01   2.1645187e-01  -4.6520357e+07
   7.3891297e-10  -1.9118523e-02   9.6341737e-01   2.1762568e-01  -4.6207103e+07
   7.4158053e-10  -1.8995678e-02   9.5938813e-01   2.1879707e-01  -4.5896237e+07
   7.4424808e-10  -1.8873659e-02   9.5539917e-01   2.1996603e-01  -4.5587734e+07
   7.4691564e-10  -1.8752460e-02   9.5144998e-01   2.2113251e-01  -4.5281572e+07
   7.4958319e-10  -1.8632075e-02   9.4754010e-01   2.2229649e-01  -4.4977727e+07
   7.5225075e-10  -1.8512497e-02   9.4366903e-01   2.2345795e-01  -4.4676178e+07
   7.5491831e-10  -1.8393720e-02   9.3983633e-01   2.2461686e-01  -4.4376901e+07
   7.5758586e-10  -1.8275739e-02   9.3604151e-01   2.2577319e-01  -4.4079876e+07
   7.6025342e-10  -1.8158547e-02   9.3228412e-01   2.2692691e-01  -4.3785080e+07
   7.6292097e-10  -1.8042139e-02   9.2856373e-01   2.2807801e-01  -4.3492492e+07
   7.6558853e-10  -1.7926508e-02   9.2487987e-01   2.2922646e-01  -4.3202091e+07
   7.6825609e-10  -1.7811649e-02   9.2123213e-01   2.3037222e-01  -4.2913856e+07
   7.7092364e-10  -1.7697556e-02   9.1762006e-01   2.3151529e-01  -4.2627767e+07
   7.7359120e-10  -1.7584223e-02   9.1404324e-01   2.3265563e-01  -4.2343804e+07
   7.7625875e-10  -1.7471645e-02   9.1050126e-01   2.3379322e-01  -4.2061947e+07
   7.7892631e-10  -1.7359816e-02   9.0699370e-01   2.3492804e-01  -4.1782176e+07
   7.8159386e-10  -1.7248731e-02   9.0352015e-01   2.3606006e-01  -4.1504471e+07
   7.8426142e-10  -1.7138383e-02   9.0008022e-01   2.3718928e-01  -4.1228813e+07
   7.8692898e-10  -1.7028769e-02   8.9667351e-01   2.3831565e-01  -4.0955184e+07
   7.8959653e-10  -1.6919881e-02   8.9329963e-01   2.3943917e-01  -4.0683565e+07
   7.9226409e-10  -1.6811716e-02   8.8995819e-01   2.4055981e-01  -4.0413937e+07
   7.9493164e-10  -1.6704267e-02   8.8664883e-01   2.4167755e-01  -4.0146283e+07
   7.9759920e-10  -1.6597529e-02   8.8337115e-01   2.4279238e-01  -3.9880583e+07
   8.0026676e-10  -1.6491498e-02   8.8012480e-01   2.4390426e-01  -3.9616821e+07
   8.0293431e-10  -1.6386167e-02   8.7690942e-01   2.4501320e-01  -3.9354978e+07
   8.0560187e-10  -1.6281533e-02   8.7372463e-01   2.4611915e-01  -3.9095039e+07
   8.0826942e-10  -1.6177589e-02   8.7057010e-01   2.4722212e-01  -3.8836984e+07
   8.1093698e-10  -1.6074331e-02   8.6744547e-01   2.4832207e-01  -3.8580798e+07
   8.1360453e-10  -1.5971755e-02   8.6435040e-01   2.4941899e-01  -3.8326464e+07
   8.1627209e-10  -1.5869854e-02   8.6128454e-01   2.5051287e-01  -3.8073966e+07
   8.1893965e-10  -1.5768624e-02   8.5824758e-01   2.5160368e-01  -3.7823286e+07
   8.2160720e-10  -1.5668061e-02   8.5523916e-01   2.5269142e-01  -3.7574409e+07
   8.2427476e-10  -1.5568159e-02   8.5225898e-01   2.5377606e-01  -3.7327320e+07
   8.2694231e-10  -1.5468914e-02   8.4930671e-01   2.5485760e-01  -3.7082002e+07
   8.2960987e-10  -1.5370321e-02   8.4638204e-01   2.5593600e-01  -3.6838440e+07
   8.3227743e-10  -1.5272375e-02   8.4348464e-01   2.5701127e-01  -3.6596619e+07
   8.3494498e-10  -1.5175072e-02   8.4061422e-01   2.5808338e-01  -3.6356523e+07
   8.3761254e-10  -1.5078407e-02   8.3777047e-01   2.5915233e-01  -3.6118138e+07
   8.4028009e-10  -1.4982376e-02   8.3495309e-01   2.6021809e-01  -3.5881449e+07
   8.4294765e-10  -1.4886974e-02   8.3216178e-01   2.6128065e-01  -3.5646441e+07
   8.4561521e-10  -1.4792197e-02   8.2939626e-01   2.6234000e-01  -3.5413099e+07
   8.4828276e-10  -1.4698040e-02   8.2665623e-01   2.6339614e-01  -3.5181410e+07
   8.5095032e-10  -1.4604499e-02   8.2394141e-01   2.6444903e-01  -3.4951360e+07
   8.5361787e-10  -1.4511569e-02   8.2125153e-01   2.6549868e-01  -3.4722934e+07
   8.5628543e-10  -1.4419247e-02   8.1858630e-01   2.6654507e-01  -3.4496119e+07
   8.5895298e-10  -1.4327527e-02   8.1594545e-01   2.6758819e-01  -3.4270901e+07
   8.6162054e-10  -1.4236406e-02   8.1332872e-01   2.6862803e-01  -3.4047266e+07
   8.6428810e-10  -1.4145880e-02   8.1073583e-01   2.6966458e-01  -3.3825202e+07
   8.6695565e-10  -1.4055944e-02   8.0816653e-01   2.7069782e-01  -3.3604695e+07
   8.6962321e-10  -1.3966594e-02   8.0562056e-01   2.7172775e-01  -3.3385733e+07
   8.7229076e-10  -1.3877826e-02   8.0309766e-01   2.7275436e-01  -3.3168301e+07
   8.7495832e-10  -1.3789636e-02   8.0059758e-01   2.7377763e-01  -3.2952389e+07
   8.7762588e-10  -1.3702020e-02   7.9812008e-01   2.7479757e-01  -3.2737982e+07
   8.8029343e-10  -1.3614973e-02   7.9566490e-01   2.7581415e-01  -3.2525069e+07
   8.8296099e-10  -1.3528493e-02   7.9323180e-01   2.7682737e-01  -3.2313637e+07
   8.8562854e-10  -1.3442575e-02   7.9082055e-01   2.7783722e-01  -3.2103675e+07
   8.8829610e-10  -1.3357215e-02   7.8843091e-01   2.7884370e-01  -3.1895169e+07
   8.9096365e-10  -1.3272410e-02   7.8606265e-01   2.7984679e-01  -3.1688109e+07
   8.9363121e-10  -1.3188155e-02   7.8371553e-01   2.8084649e-01  -3.1482483e+07
   8.9629877e-10  -1.3104446e-02   7.8138934e-01   2.8184279e-01  -3.1278278e+07
   8.9896632e-10  -1.3021280e-02   7.7908384e-01   2.8283569e-01  -3.1075484e+07
   9.0163388e-10  -1.2938654e-02   7.7679882e-01   2.8382517e-01  -3.0874088e+07
   9.0430143e-10  -1.2856562e-02   7.7453406e-01   2.8481124e-01  -3.0674080e+07
   9.0696899e-10  -1.2775003e-02   7.7228934e-01   2.8579388e-01  -3.0475449e+07
   9.0963655e-10  -1.2693971e-02   7.7006444e-01   2.8677309e-01  -3.0278183e+07
   9.1230410e-10  -1.2613464e-02   7.6785917e-01   2.8774886e-01  -3.0082272e+07
   9.1497166e-10  -1.2533478e-02   7.6567331e-01   2.8872119e-01  -2.9887705e+07
   9.1763921e-10  -1.2454009e-02   7.6350666e-01   2.8969007e-01  -2.9694471e+07
   9.2030677e-10  -1.2375053e-02   7.6135902e-01   2.9065550e-01  -2.9502560e+07
   9.2297432e-10  -1.2296608e-02   7.5923018e-01   2.9161747e-01  -2.9311960e+07
   9.2564188e-10  -1.2218670e-02   7.5711995e-01   2.9257598e-01  -2.9122662e+07
   9.2830944e-10  -1.2141234e-02   7.5502814e-01   2.9353103e-01  -2.8934656e+07
   9.3097699e-10  -1.2064299e-02   7.5295455e-01   2.9448261e-01  -2.8747932e+07
   9.3364455e-10  -1.1987860e-02   7.5089899e-01   2.9543072e-01  -2.8562478e+07
   9.3631210e-10  -1.1911914e-02   7.4886128e-01   2.9637535e-01  -2.8378286e+07
   9.3897966e-10  -1.1836457e-02   7.4684123e-01   2.9731650e-01  -2.8195346e+07
   9.4164722e-10  -1.1761487e-02   7.4483865e-01   2.9825417e-01  -2.8013647e+07
   9.4431477e-10  -1.1687000e-02   7.4285338e-01   2.9918835e-01  -2.7833181e+07
   9.4698233e-10  -1.1612993e-02   7.4088523e-01   3.0011905e-01  -2.7653937e+07
   9.4964988e-10  -1.1539462e-02   7.3893402e-01   3.0104626e-01  -2.7475906e+07
   9.5231744e-10  -1.1466405e-02   7.3699958e-01   3.0196997e-01  -2.7299080e+07
   9.5498499e-10  -1.1393818e-02   7.3508174e-01   3.0289020e-01  -2.7123448e+07
   9.5765255e-10  -1.1321697e-02   7.3318032e-01   3.0380693e-01  -2.6949001e+07
   9.6032011e-10  -1.1250041e-02   7.3129518e-01   3.0472016e-01  -2.6775731e+07
   9.6298766e-10  -1.1178845e-02   7.2942612e-01   3.0562990e-01  -2.6603628e+07
   9.6565522e-10  -1.1108106e-02   7.2757300e-01   3.0653614e-01  -2.6432684e+07
   9.6832277e-10  -1.1037823e-02   7.2573565e-01   3.0743888e-01  -2.6262890e+07
   9.7099033e-10  -1.0967990e-02   7.2391392e-01   3.0833812e-01  -2.6094236e+07
   9.7365789e-10  -1.0898606e-02   7.2210763e-01   3.0923386e-01  -2.5926715e+07
   9.7632544e-10  -1.0829667e-02   7.2031665e-01   3.1012611e-01  -2.5760318e+07
   9.7899300e-10  -1.0761171e-02   7.1854081e-01   3.1101485e-01  -2.5595036e+07
   9.8166055e-10  -1.0693114e-02   7.1677997e-01   3.1190010e-01  -2.5430861e+07
   9.8432811e-10  -1.0625493e-02   7.1503397e-01   3.1278184e-01  -2.5267784e+07
   9.8699567e-10  -1.0558306e-02   7.1330266e-01   3.1366009e-01  -2.5105798e+07
   9.8966322e-10  -1.0491550e-02   7.1158591e-01   3.1453485e-01  -2.4944894e+07
   9.9233078e-10  -1.0425222e-02   7.0988355e-01   3.1540610e-01  -2.4785065e+07
   9.9499833e-10  -1.0359318e-02   7.0819546e-01   3.1627387e-01  -2.4626301e+07
   9.9766589e-10  -1.0293837e-02   7.0652149e-01   3.1713813e-01  -2.4468596e+07
   1.0003334e-09  -1.0228775e-02   7.0486150e-01   3.1799891e-01  -2.4311941e+07
   1.0030010e-09  -1.0164129e-02   7.0321535e-01   3.1885620e-01  -2.4156329e+07
   1.0056686e-09  -1.0099897e-02   7.0158291e-01   3.1971000e-01  -2.4001751e+07
   1.0083361e-09  -1.0036076e-02   6.9996404e-01   3.2056032e-01  -2.3848201e+07
   1.0110037e-09  -9.9726633e-03   6.9835861e-01   3.2140715e-01  -2.3695671e+07
   1.0136712e-09  -9.9096562e-03   6.9676648e-01   3.2225050e-01  -2.3544153e+07
   1.0163388e-09  -9.8470518e-03   6.9518753e-01   3.2309037e-01  -2.3393639e+07
   1.0190063e-09  -9.7848476e-03   6.9362163e-01   3.2392677e-01  -2.3244123e+07
   1.0216739e-09  -9.7230410e-03   6.9206865e-01   3.2475970e-01  -2.3095597e+07
   1.0243414e-09  -9.6616292e-03   6.9052847e-01   3.2558915e-01  -2.2948054e+07
   1.0270090e-09  -9.6006097e-03   6.8900096e-01   3.2641514e-01  -2.2801487e+07
   1.0296766e-09  -9.5399799e-03   6.8748599e-01   3.2723767e-01  -2.2655888e+07
   1.0323441e-09  -9.4797372e-03   6.8598346e-01   3.2805674e-01  -2.2511251e+07
   1.0350117e-09  -9.4198791e-03   6.8449323e-01   3.2887235e-01  -2.2367569e+07
   1.0376792e-09  -9.3604030e-03   6.8301519e-01   3.2968452e-01  -2.2224834e+07
   1.0403468e-09  -9.3013063e-03   6.8154923e-01   3.3049323e-01  -2.2083040e+07
   1.0430143e-09  -9.2425867e-03   6.8009522e-01   3.3129850e-01  -2.1942181e+07
   1.0456819e-09  -9.1842416e-03   6.7865306e-01   3.3210034e-01  -2.1802248e+07
   1.0483494e-09  -9.1262685e-03   6.7722262e-01   3.3289873e-01  -2.1663237e+07
   1.0510170e-09  -9.0686650e-03   6.7580380e-01   3.3369370e-01  -2.1525139e+07
   1.0536846e-09  -9.0114287e-03   6.7439649e-01   3.3448524e-01  -2.1387949e+07
   1.0563521e-09  -8.9545572e-03   6.7300058e-01   3.3527337e-01  -2.1251660e+07
   1.0590197e-09  -8.8980480e-03   6.7161596e-01   3.3605807e-01  -2.1116266e+07
   1.0616872e-09  -8.8418988e-03   6.7024252e-01   3.3683937e-01  -2.0981760e+07
   1.0643548e-09  -8.7861072e-03   6.6888016e-01   3.3761726e-01  -2.0848136e+07
   1.0670223e-09  -8.7306709e-03   6.6752877e-01   3.3839175e-01  -2.0715387e+07
   1.0696899e-09  -8.6755876e-03   6.6618826e-01   3.3916285e-01  -2.0583508e+07
   1.0723575e-09  -8.6208549e-03   6.6485851e-01   3.3993056e-01  -2.0452492e+07
   1.0750250e-09  -8.5664705e-03   6.6353943e-01   3.4069488e-01  -2.0322333e+07
   1.0776926e-09  -8.5124323e-03   6.6223091e-01   3.4145583e-01  -2.0193026e+07
   1.0803601e-09  -8.4587378e-03   6.6093287e-01   3.4221341e-01  -2.0064563e+07
   1.0830277e-09  -8.4053849e-03   6.5964519e-01   3.4296762e-01  -1.9936939e+07
   1.0856952e-09  -8.3523713e-03   6.5836779e-01   3.4371847e-01  -1.9810149e+07
   1.0883628e-09  -8.2996948e-03   6.5710057e-01   3.4446597e-01  -1.9684186e+07
   1.0910303e-09  -8.2473533e-03   6.5584343e-01   3.4521012e-01  -1.9559045e+07
   1.0936979e-09  -8.1953445e-03   6.5459629e-01   3.4595093e-01  -1.9434719e+07
   1.0963655e-09  -8.1436662e-03   6.5335905e-01   3.4668841e-01  -1.9311204e+07
   1.0990330e-09  -8.0923164e-03   6.5213161e-01   3.4742256e-01  -1.9188492e+07
   1.1017006e-09  -8.0412928e-03   6.5091389e-01   3.4815339e-01  -1.9066580e+07
   1.1043681e-09  -7.9905934e-03   6.4970580e-01   3.4888091e-01  -1.8945461e+07
   1.1070357e-09  -7.9402160e-03   6.4850725e-01   3.4960512e-01  -1.8825129e+07
   1.1097032e-09  -7.8901586e-03   6.4731816e-01   3.5032603e-01  -1.8705580e+07
   1.1123708e-09  -7.8404190e-03   6.4613843e-01   3.5104365e-01  -1.8586807e+07
   1.1150383e-09  -7.7909953e-03   6.4496798e-01   3.5175799e-01  -1.8468806e+07
   1.1177059e-09  -7.7418853e-03   6.4380673e-01   3.5246904e-01  -1.8351571e+07
   1.1203735e-09  -7.6930870e-03   6.4265459e-01   3.5317683e-01  -1.8235096e+07
   1.1230410e-09  -7.6445984e-03   6.4151148e-01   3.5388136e-01  -1.8119377e+07
   1.1257086e-09  -7.5964175e-03   6.4037732e-01   3.5458262e-01  -1.8004409e+07
   1.1283761e-09  -7.5485422e-03   6.3925202e-01   3.5528065e-01  -1.7890185e+07
   1.1310437e-09  -7.5009707e-03   6.3813552e-01   3.5597543e-01  -1.7776701e+07
   1.1337112e-09  -7.4537010e-03   6.3702772e-01   3.5666698e-01  -1.7663952e+07
   1.1363788e-09  -7.4067310e-03   6.3592856e-01   3.5735530e-01  -1.7551933e+07
   1.1390463e-09  -7.3600588e-03   6.3483794e-01   3.5804041e-01  -1.7440639e+07
   1.1417139e-09  -7.3136826e-03   6.3375580e-01   3.5872231e-01  -1.7330064e+07
   1.1443815e-09  -7.2676004e-03   6.3268207e-01   3.5940102e-01  -1.7220204e+07
   1.1470490e-09  -7.2218103e-03   6.3161665e-01   3.6007653e-01  -1.7111055e+07
   1.1497166e-09  -7.1763105e-03   6.3055949e-01   3.6074885e-01  -1.7002610e+07
   1.1523841e-09  -7.1310990e-03   6.2951050e-01   3.6141800e-01  -1.6894866e+07
   1.1550517e-09  -7.0861739e-03   6.2846962e-01   3.6208399e-01  -1.6787817e+07
   1.1577192e-09  -7.0415335e-03   6.2743678e-01   3.6274681e-01  -1.6681459e+07
   1.1603868e-09  -6.9971759e-03   6.2641189e-01   3.6340649e-01  -1.6575787e+07
   1.1630544e-09  -6.9530993e-03   6.2539489e-01   3.6406302e-01  -1.6470797e+07
   1.1657219e-09  -6.9093018e-03   6.2438572e-01   3.6471642e-01  -1.6366483e+07
   1.1683895e-09  -6.8657817e-03   6.2338429e-01   3.6536670e-01  -1.6262841e+07
   1.1710570e-09  -6.8225372e-03   6.2239056e-01   3.6601387e-01  -1.6159867e+07
   1.1737246e-09  -6.7795665e-03   6.2140443e-01   3.6665792e-01  -1.6057557e+07
   1.1763921e-09  -6.7368678e-03   6.2042586e-01   3.6729888e-01  -1.5955904e+07
   1.1790597e-09  -6.6944395e-03   6.1945477e-01   3.6793675e-01  -1.5854906e+07
   1.1817272e-09  -6.6522796e-03   6.1849110e-01   3.6857154e-01  -1.5754558e+07
   1.1843948e-09  -6.6103866e-03   6.1753478e-01   3.6920326e-01  -1.5654855e+07
   1.1870624e-09  -6.5687587e-03   6.1658575e-01   3.6983192e-01  -1.5555793e+07
   1.1897299e-09  -6.5273942e-03   6.1564395e-01   3.7045753e-01  -1.5457368e+07
   1.1923975e-09  -6.4862914e-03   6.1470931e-01   3.7108009e-01  -1.5359575e+07
   1.1950650e-09  -6.4454487e-03   6.1378177e-01   3.7169962e-01  -1.5262410e+07
   1.1977326e-09  -6.4048643e-03   6.1286127e-01   3.7231612e-01  -1.5165869e+07
   1.2004001e-09  -6.3645366e-03   6.1194775e-01   3.7292961e-01  -1.5069948e+07
   1.2030677e-09  -6.3244639e-03   6.1104115e-01   3.7354010e-01  -1.4974643e+07
   1.2057352e-09  -6.2846447e-03   6.1014140e-01   3.7414758e-01  -1.4879948e+07
   1.2084028e-09  -6.2450773e-03   6.0924845e-01   3.7475208e-01  -1.4785862e+07
   1.2110704e-09  -6.2057600e-03   6.0836225e-01   3.7535360e-01  -1.4692378e+07
   1.2137379e-09  -6.1666913e-03   6.0748273e-01   3.7595216e-01  -1.4599494e+07
   1.2164055e-09  -6.1278696e-03   6.0660983e-01   3.7654775e-01  -1.4507205e+07
   1.2190730e-09  -6.0892933e-03   6.0574350e-01   3.7714040e-01  -1.4415507e+07
   1.2217406e-09  -6.0509608e-03   6.0488369e-01   3.7773010e-01  -1.4324397e+07
   1.2244081e-09  -6.0128706e-03   6.0403033e-01   3.7831688e-01  -1.4233870e+07
   1.2270757e-09  -5.9750211e-03   6.0318338e-01   3.7890073e-01  -1.4143922e+07
   1.2297432e-09  -5.9374107e-03   6.0234277e-01   3.7948168e-01  -1.4054550e+07
   1.2324108e-09  -5.9000380e-03   6.0150846e-01   3.8005972e-01  -1.3965750e+07
   1.2350784e-09  -5.8629014e-03   6.0068038e-01   3.8063488e-01  -1.3877518e+07
   1.2377459e-09  -5.8259995e-03   5.9985850e-01   3.8120715e-01  -1.3789851e+07
   1.2404135e-09  -5.7893306e-03   5.9904275e-01   3.8177655e-01  -1.3702743e+07
   1.2430810e-09  -5.7528934e-03   5.9823309e-01   3.8234309e-01  -1.3616193e+07
   1.2457486e-09  -5.7166863e-03   5.9742945e-01   3.8290678e-01  -1.3530196e+07
   1.2484161e-09  -5.6807078e-03   5.9663180e-01   3.8346762e-01  -1.3444748e+07
   1.2510837e-09  -5.6449566e-03   5.9584008e-01   3.8402564e-01  -1.3359846e+07
   1.2537513e-09  -5.6094312e-03   5.9505424e-01   3.8458083e-01  -1.3275486e+07
   1.2564188e-09  -5.5741300e-03   5.9427424e-01   3.8513321e-01  -1.3191665e+07
   1.2590864e-09  -5.5390517e-03   5.9350001e-01   3.8568279e-01  -1.3108378e+07
   1.2617539e-09  -5.5041949e-03   5.9273153e-01   3.8622957e-01  -1.3025624e+07
   1.2644215e-09  -5.4695582e-03   5.9196873e-01   3.8677358e-01  -1.2943397e+07
   1.2670890e-09  -5.4351401e-03   5.9121157e-01   3.8731481e-01  -1.2861695e+07
   1.2697566e-09  -5.4009392e-03   5.9046000e-01   3.8785328e-01  -1.2780514e+07
   1.2724241e-09  -5.3669542e-03   5.8971398e-01   3.8838900e-01  -1.2699850e+07
   1.2750917e-09  -5.3331837e-03   5.8897346e-01   3.8892198e-01  -1.2619701e+07
   1.2777593e-09  -5.2996263e-03   5.8823839e-01   3.8945223e-01  -1.2540063e+07
   1.2804268e-09  -5.2662807e-03   5.8750873e-01   3.8997976e-01  -1.2460932e+07
   1.2830944e-09  -5.2331454e-03   5.8678444e-01   3.9050457e-01  -1.2382305e+07
   1.2857619e-09  -5.2002193e-03   5.8606547e-01   3.9102668e-01  -1.2304180e+07
   1.2884295e-09  -5.1675009e-03   5.8535178e-01   3.9154611e-01  -1.2226551e+07
   1.2910970e-09  -5.1349889e-03   5.8464332e-01   3.9206285e-01  -1.2149418e+07
   1.2937646e-09  -5.1026820e-03   5.8394005e-01   3.9257692e-01  -1.2072775e+07
   1.2964321e-09  -5.0705789e-03   5.8324193e-01   3.9308833e-01  -1.1996620e+07
   1.2990997e-09  -5.0386784e-03   5.8254891e-01   3.9359709e-01  -1.1920949e+07
   1.3017673e-09  -5.0069790e-03   5.8186096e-01   3.9410321e-01  -1.1845761e+07
   1.3044348e-09  -4.9754795e-03   5.8117803e-01   3.9460670e-01  -1.1771050e+07
   1.3071024e-09  -4.9441788e-03   5.8050008e-01   3.9510757e-01  -1.1696815e+07
   1.3097699e-09  -4.9130754e-03   5.7982708e-01   3.9560583e-01  -1.1623052e+07
   1.3124375e-09  -4.8821681e-03   5.7915897e-01   3.9610150e-01  -1.1549757e+07
   1.3151050e-09  -4.8514558e-03   5.7849573e-01   3.9659457e-01  -1.1476929e+07
   1.3177726e-09  -4.8209371e-03   5.7783730e-01   3.9708506e-01  -1.1404564e+07
   1.3204401e-09  -4.7906108e-03   5.7718366e-01   3.9757299e-01  -1.1332659e+07
   1.3231077e-09  -4.7604758e-03   5.7653476e-01   3.9805836e-01  -1.1261210e+07
   1.3257753e-09  -4.7305307e-03   5.7589057e-01   3.9854118e-01  -1.1190216e+07
   1.3284428e-09  -4.7007744e-03   5.7525104e-01   3.9902146e-01  -1.1119672e+07
   1.3311104e-09  -4.6712057e-03   5.7461615e-01   3.9949922e-01  -1.1049577e+07
   1.3337779e-09  -4.6418233e-03   5.7398585e-01   3.9997445e-01  -1.0979926e+07
   1.3364455e-09  -4.6126262e-03   5.7336010e-01   4.0044718e-01  -1.0910718e+07
   1.3391130e-09  -4.5836131e-03   5.7273887e-01   4.0091742e-01  -1.0841950e+07
   1.3417806e-09  -4.5547829e-03   5.7212212e-01   4.0138516e-01  -1.0773617e+07
   1.3444481e-09  -4.5261343e-03   5.7150982e-01   4.0185043e-01  -1.0705719e+07
   1.3471157e-09  -4.4976664e-03   5.7090193e-01   4.0231324e-01  -1.0638251e+07
   1.3497833e-09  -4.4693778e-03   5.7029842e-01   4.0277358e-01  -1.0571211e+07
   1.3524508e-09  -4.4412675e-03   5.6969925e-01   4.0323149e-01  -1.0504597e+07
   1.3551184e-09  -4.4133343e-03   5.6910438e-01   4.0368695e-01  -1.0438405e+07
   1.3577859e-09  -4.3855771e-03   5.6851379e-01   4.0413999e-01  -1.0372633e+07
   1.3604535e-09  -4.3579948e-03   5.6792743e-01   4.0459062e-01  -1.0307279e+07
   1.3631210e-09  -4.3305863e-03   5.6734528e-01   4.0503884e-01  -1.0242338e+07
   1.3657886e-09  -4.3033505e-03   5.6676730e-01   4.0548466e-01  -1.0177809e+07
   1.3684562e-09  -4.2762863e-03   5.6619345e-01   4.0592810e-01  -1.0113689e+07
   1.3711237e-09  -4.2493925e-03   5.6562371e-01   4.0636917e-01  -1.0049976e+07
   1.3737913e-09  -4.2226682e-03   5.6505805e-01   4.0680787e-01  -9.9866665e+06
   1.3764588e-09  -4.1961123e-03   5.6449642e-01   4.0724422e-01  -9.9237580e+06
   1.3791264e-09  -4.1697236e-03   5.6393880e-01   4.0767822e-01  -9.8612482e+06
   1.3817939e-09  -4.1435011e-03   5.6338516e-01   4.0810989e-01  -9.7991343e+06
   1.3844615e-09  -4.1174438e-03   5.6283547e-01   4.0853923e-01  -9.7374139e+06
   1.3871290e-09  -4.0915507e-03   5.6228969e-01   4.0896626e-01  -9.6760844e+06
   1.3897966e-09  -4.0658206e-03   5.6174780e-01   4.0939099e-01  -9.6151432e+06
   1.3924642e-09  -4.0402525e-03   5.6120975e-01   4.0981342e-01  -9.5545880e+06
   1.3951317e-09  -4.0148455e-03   5.6067554e-01   4.1023356e-01  -9.4944161e+06
   1.3977993e-09  -3.9895985e-03   5.6014511e-01   4.1065144e-01  -9.4346252e+06
   1.4004668e-09  -3.9645105e-03   5.5961845e-01   4.1106705e-01  -9.3752128e+06
   1.4031344e-09  -3.9395804e-03   5.5909552e-01   4.1148040e-01  -9.3161763e+06
   1.4058019e-09  -3.9148074e-03   5.5857630e-01   4.1189152e-01  -9.2575135e+06
   1.4084695e-09  -3.8901903e-03   5.5806076e-01   4.1230039e-01  -9.1992220e+06
   1.4111370e-09  -3.8657283e-03   5.5754886e-01   4.1270705e-01  -9.1412992e+06
   1.4138046e-09  -3.8414202e-03   5.5704058e-01   4.1311149e-01  -9.0837429e+06
   1.4164722e-09  -3.8172652e-03   5.5653590e-01   4.1351372e-01  -9.0265507e+06
   1.4191397e-09  -3.7932623e-03   5.5603477e-01   4.1391377e-01  -8.9697202e+06
   1.4218073e-09  -3.7694105e-03   5.5553719e-01   4.1431162e-01  -8.9132492e+06
   1.4244748e-09  -3.7457089e-03   5.5504311e-01   4.1470730e-01  -8.8571354e+06
   1.4271424e-09  -3.7221565e-03   5.5455251e-01   4.1510082e-01  -8.8013763e+06
   1.4298099e-09  -3.6987523e-03   5.5406537e-01   4.1549219e-01  -8.7459699e+06
   1.4324775e-09  -3.6754955e-03   5.5358166e-01   4.1588140e-01  -8.6909137e+06
   1.4351450e-09  -3.6523851e-03   5.5310135e-01   4.1626849e-01  -8.6362056e+06
   1.4378126e-09  -3.6294202e-03   5.5262441e-01   4.1665344e-01  -8.5818433e+06
   1.4404802e-09  -3.6065998e-03   5.5215082e-01   4.1703628e-01  -8.5278246e+06
   1.4431477e-09  -3.5839230e-03   5.5168056e-01   4.1741702e-01  -8.4741473e+06
   1.4458153e-09  -3.5613890e-03   5.5121360e-01   4.1779566e-01  -8.4208092e+06
   1.4484828e-09  -3.5389969e-03   5.5074991e-01   4.1817221e-01  -8.3678082e+06
   1.4511504e-09  -3.5167456e-03   5.5028946e-01   4.1854669e-01  -8.3151421e+06
   1.4538179e-09  -3.4946344e-03   5.4983224e-01   4.1891909e-01  -8.2628087e+06
   1.4564855e-09  -3.4726624e-03   5.4937822e-01   4.1928944e-01  -8.2108059e+06
   1.4591531e-09  -3.4508286e-03   5.4892738e-01   4.1965775e-01  -8.1591316e+06
   1.4618206e-09  -3.4291323e-03   5.4847968e-01   4.2002401e-01  -8.1077837e+06
   1.4644882e-09  -3.4075725e-03   5.4803511e-01   4.2038824e-01  -8.0567602e+06
   1.4671557e-09  -3.3861484e-03   5.4759364e-01   4.2075046e-01  -8.0060588e+06
   1.4698233e-09  -3.3648591e-03   5.4715525e-01   4.2111066e-01  -7.9556777e+06
   1.4724908e-09  -3.3437038e-03   5.4671992e-01   4.2146887e-01  -7.9056147e+06
   1.4751584e-09  -3.3226815e-03   5.4628762e-01   4.2182508e-01  -7.8558677e+06
   1.4778259e-09  -3.3017916e-03   5.4585833e-01   4.2217931e-01  -7.8064349e+06
   1.4804935e-09  -3.2810331e-03   5.4543202e-01   4.2253157e-01  -7.7573141e+06
   1.4831611e-09  -3.2604053e-03   5.4500868e-01   4.2288187e-01  -7.7085035e+06
   1.4858286e-09  -3.2399072e-03   5.4458828e-01   4.2323021e-01  -7.6600009e+06
   1.4884962e-09  -3.2195381e-03   5.4417080e-01   4.2357661e-01  -7.6118045e+06
   1.4911637e-09  -3.1992972e-03   5.4375621e-01   4.2392108e-01  -7.5639122e+06
   1.4938313e-09  -3.1791836e-03   5.4334451e-01   4.2426362e-01  -7.5163222e+06
   1.4964988e-09  -3.1591966e-03   5.4293565e-01   4.2460424e-01  -7.4690325e+06
   1.4991664e-09  -3.1393353e-03   5.4252963e-01   4.2494296e-01  -7.4220413e+06
   1.5018339e-09  -3.1195990e-03   5.4212642e-01   4.2527977e-01  -7.3753465e+06
   1.5045015e-09  -3.0999868e-03   5.4172601e-01   4.2561470e-01  -7.3289463e+06
   1.5071691e-09  -3.0804981e-03   5.4132836e-01   4.2594775e-01  -7.2828389e+06
   1.5098366e-09  -3.0611319e-03   5.4093345e-01   4.2627893e-01  -7.2370224e+06
   1.5125042e-09  -3.0418876e-03   5.4054128e-01   4.2660825e-01  -7.1914948e+06
   1.5151717e-09  -3.0227643e-03   5.4015182e-01   4.2693572e-01  -7.1462545e+06
   1.5178393e-09  -3.0037613e-03   5.3976504e-01   4.2726134e-01  -7.1012995e+06
   1.5205068e-09  -2.9848779e-03   5.3938093e-01   4.2758513e-01  -7.0566280e+06
   1.5231744e-09  -2.9661133e-03   5.3899947e-01   4.2790710e-01  -7.0122383e+06
   1.5258419e-09  -2.9474667e-03   5.3862063e-01   4.2822725e-01  -6.9681285e+06
   1.5285095e-09  -2.9289373e-03   5.3824441e-01   4.2854559e-01  -6.9242968e+06
   1.5311771e-09  -2.9105246e-03   5.3787077e-01   4.2886213e-01  -6.8807416e+06
   1.5338446e-09  -2.8922277e-03   5.3749970e-01   4.2917688e-01  -6.8374610e+06
   1.5365122e-09  -2.8740458e-03   5.3713118e-01   4.2948986e-01  -6.7944532e+06
   1.5391797e-09  -2.8559783e-03   5.3676520e-01   4.2980106e-01  -6.7517166e+06
   1.5418473e-09  -2.8380245e-03   5.3640173e-01   4.3011050e-01  -6.7092494e+06
   1.5445148e-09  -2.8201836e-03   5.3604075e-01   4.3041818e-01  -6.6670500e+06
   1.5471824e-09  -2.8024549e-03   5.3568225e-01   4.3072412e-01  -6.6251165e+06
   1.5498499e-09  -2.7848377e-03   5.3532621e-01   4.3102832e-01  -6.5834474e+06
   1.5525175e-09  -2.7673313e-03   5.3497260e-01   4.3133080e-01  -6.5420409e+06
   1.5551851e-09  -2.7499350e-03   5.3462142e-01   4.3163155e-01  -6.5008954e+06
   1.5578526e-09  -2.7326482e-03   5.3427264e-01   4.3193060e-01  -6.4600093e+06
   1.5605202e-09  -2.7154700e-03   5.3392625e-01   4.3222794e-01  -6.4193807e+06
   1.5631877e-09  -2.6983999e-03   5.3358223e-01   4.3252359e-01  -6.3790083e+06
   1.5658553e-09  -2.6814371e-03   5.3324056e-01   4.3281756e-01  -6.3388902e+06
   1.5685228e-09  -2.6645811e-03   5.3290122e-01   4.3310984e-01  -6.2990249e+06
   1.5711904e-09  -2.6478310e-03   5.3256420e-01   4.3340047e-01  -6.2594109e+06
   1.5738580e-09  -2.6311863e-03   5.3222948e-01   4.3368943e-01  -6.2200464e+06
   1.5765255e-09  -2.6146462e-03   5.3189705e-01   4.3397674e-01  -6.1809299e+06
   1.5791931e-09  -2.5982102e-03   5.3156688e-01   4.3426240e-01  -6.1420599e+06
   1.5818606e-09  -2.5818775e-03   5.3123896e-01   4.3454644e-01  -6.1034348e+06
   1.5845282e-09  -2.5656475e-03   5.3091327e-01   4.3482884e-01  -6.0650529e+06
   1.5871957e-09  -2.5495196e-03   5.3058980e-01   4.3510963e-01  -6.0269129e+06
   1.5898633e-09  -2.5334932e-03   5.3026853e-01   4.3538881e-01  -5.9890131e+06
   1.5925308e-09  -2.5175674e-03   5.2994945e-01   4.3566639e-01  -5.9513521e+06
   1.5951984e-09  -2.5017419e-03   5.2963254e-01   4.3594238e-01  -5.9139283e+06
   1.5978660e-09  -2.4860159e-03   5.2931778e-01   4.3621678e-01  -5.8767401e+06
   1.6005335e-09  -2.4703887e-03   5.2900515e-01   4.3648961e-01  -5.8397862e+06
   1.6032011e-09  -2.4548598e-03   5.2869465e-01   4.3676087e-01  -5.8030651e+06
   1.6058686e-09  -2.4394286e-03   5.2838626e-01   4.3703056e-01  -5.7665752e+06
   1.6085362e-09  -2.4240944e-03   5.2807996e-01   4.3729871e-01  -5.7303151e+06
   1.6112037e-09  -2.4088566e-03   5.2777573e-01   4.3756531e-01  -5.6942833e+06
   1.6138713e-09  -2.3937146e-03   5.2747357e-01   4.3783037e-01  -5.6584785e+06
   1.6165388e-09  -2.3786679e-03   5.2717345e-01   4.3809391e-01  -5.6228991e+06
   1.6192064e-09  -2.3637157e-03   5.2687537e-01   4.3835593e-01  -5.5875437e+06
   1.6218740e-09  -2.3488576e-03   5.2657930e-01   4.3861643e-01  -5.5524109e+06
   1.6245415e-09  -2.3340929e-03   5.2628523e-01   4.3887543e-01  -5.5174994e+06
   1.6272091e-09  -2.3194210e-03   5.2599316e-01   4.3913293e-01  -5.4828076e+06
   1.6298766e-09  -2.3048414e-03   5.2570305e-01   4.3938895e-01  -5.4483343e+06
   1.6325442e-09  -2.2903534e-03   5.2541491e-01   4.3964348e-01  -5.4140780e+06
   1.6352117e-09  -2.2759565e-03   5.2512871e-01   4.3989654e-01  -5.3800374e+06
   1.6378793e-09  -2.2616502e-03   5.2484445e-01   4.4014813e-01  -5.3462110e+06
   1.6405468e-09  -2.2474338e-03   5.2456210e-01   4.4039827e-01  -5.3125976e+06
   1.6432144e-09  -2.2333068e-03   5.2428165e-01   4.4064696e-01  -5.2791958e+06
   1.6458820e-09  -2.2192686e-03   5.2400310e-01   4.4089420e-01  -5.2460042e+06
   1.6485495e-09  -2.2053187e-03   5.2372642e-01   4.4114001e-01  -5.2130216e+06
   1.6512171e-09  -2.1914564e-03   5.2345161e-01   4.4138439e-01  -5.1802466e+06
   1.6538846e-09  -2.1776814e-03   5.2317864e-01   4.4162735e-01  -5.1476779e+06
   1.6565522e-09  -2.1639929e-03   5.2290752e-01   4.4186890e-01  -5.1153141e+06
   1.6592197e-09  -2.1503905e-03   5.2263821e-01   4.4210905e-01  -5.0831541e+06
   1.6618873e-09  -2.1368736e-03   5.2237072e-01   4.4234780e-01  -5.0511964e+06
   1.6645549e-09  -2.1234417e-03   5.2210503e-01   4.4258516e-01  -5.0194399e+06
   1.6672224e-09  -2.1100942e-03   5.2184112e-01   4.4282113e-01  -4.9878832e+06
   1.6698900e-09  -2.0968307e-03   5.2157898e-01   4.4305573e-01  -4.9565252e+06
   1.6725575e-09  -2.0836505e-03   5.2131860e-01   4.4328897e-01  -4.9253644e+06
   1.6752251e-09  -2.0705532e-03   5.2105997e-01   4.4352084e-01  -4.8943998e+06
   1.6778926e-09  -2.0575383e-03   5.2080308e-01   4.4375136e-01  -4.8636300e+06
   1.6805602e-09  -2.0446051e-03   5.2054791e-01   4.4398054e-01  -4.8330539e+06
   1.6832277e-09  -2.0317533e-03   5.2029444e-01   4.4420837e-01  -4.8026701e+06
   1.6858953e-09  -2.0189822e-03   5.2004268e-01   4.4443487e-01  -4.7724775e+06
   1.6885629e-09  -2.0062915e-03   5.1979260e-01   4.4466005e-01  -4.7424749e+06
   1.6912304e-09  -1.9936805e-03   5.1954420e-01   4.4488392e-01  -4.7126611e+06
   1.6938980e-09  -1.9811488e-03   5.1929746e-01   4.4510647e-01  -4.6830348e+06
   1.6965655e-09  -1.9686959e-03   5.1905237e-01   4.4532772e-01  -4.6535950e+06
   1.6992331e-09  -1.9563213e-03   5.1880891e-01   4.4554767e-01  -4.6243404e+06
   1.7019006e-09  -1.9440245e-03   5.1856709e-01   4.4576634e-01  -4.5952698e+06
   1.7045682e-09  -1.9318049e-03   5.1832688e-01   4.4598372e-01  -4.5663822e+06
   1.7072357e-09  -1.9196622e-03   5.1808828e-01   4.4619982e-01  -4.5376762e+06
   1.7099033e-09  -1.9075959e-03   5.1785126e-01   4.4641466e-01  -4.5091509e+06
   1.7125709e-09  -1.8956053e-03   5.1761583e-01   4.4662824e-01  -4.4808050e+06
   1.7152384e-09  -1.8836902e-03   5.1738198e-01   4.4684056e-01  -4.4526374e+06
   1.7179060e-09  -1.8718499e-03   5.1714968e-01   4.4705164e-01  -4.4246471e+06
   1.7205735e-09  -1.8600841e-03   5.1691893e-01   4.4726147e-01  -4.3968328e+06
   1.7232411e-09  -1.8483923e-03   5.1668972e-01   4.4747007e-01  -4.3691935e+06
   1.7259086e-09  -1.8367739e-03   5.1646203e-01   4.4767745e-01  -4.3417280e+06
   1.7285762e-09  -1.8252286e-03   5.1623586e-01   4.4788360e-01  -4.3144353e+06
   1.7312437e-09  -1.8137558e-03   5.1601120e-01   4.4808854e-01  -4.2873143e+06
   1.7339113e-09  -1.8023552e-03   5.1578803e-01   4.4829227e-01  -4.2603639e+06
   1.7365789e-09  -1.7910263e-03   5.1556635e-01   4.4849480e-01  -4.2335829e+06
   1.7392464e-09  -1.7797685e-03   5.1534614e-01   4.4869613e-01  -4.2069705e+06
   1.7419140e-09  -1.7685815e-03   5.1512740e-01   4.4889628e-01  -4.1805254e+06
   1.7445815e-09  -1.7574649e-03   5.1491011e-01   4.4909525e-01  -4.1542467e+06
   1.7472491e-09  -1.7464181e-03   5.1469426e-01   4.4929304e-01  -4.1281332e+06
   1.7499166e-09  -1.7354407e-03   5.1447985e-01   4.4948966e-01  -4.1021840e+06
   1.7525842e-09  -1.7245324e-03   5.1426686e-01   4.4968512e-01  -4.0763980e+06
   1.7552518e-09  -1.7136926e-03   5.1405529e-01   4.4987943e-01  -4.0507741e+06
   1.7579193e-09  -1.7029210e-03   5.1384511e-01   4.5007259e-01  -4.0253114e+06
   1.7605869e-09  -1.6922171e-03   5.1363634e-01   4.5026460e-01  -4.0000089e+06
   1.7632544e-09  -1.6815805e-03   5.1342894e-01   4.5045548e-01  -3.9748654e+06
   1.7659220e-09  -1.6710107e-03   5.1322293e-01   4.5064523e-01  -3.9498801e+06
   1.7685895e-09  -1.6605073e-03   5.1301827e-01   4.5083385e-01  -3.9250520e+06
   1.7712571e-09  -1.6500700e-03   5.1281498e-01   4.5102136e-01  -3.9003799e+06
   1.7739246e-09  -1.6396983e-03   5.1261302e-01   4.5120776e-01  -3.8758630e+06
   1.7765922e-09  -1.6293918e-03   5.1241241e-01   4.5139305e-01  -3.8515003e+06
   1.7792598e-09  -1.6191501e-03   5.1221312e-01   4.5157724e-01  -3.8272908e+06
   1.7819273e-09  -1.6089727e-03   5.1201516e-01   4.5176034e-01  -3.8032336e+06
   1.7845949e-09  -1.5988593e-03   5.1181850e-01   4.5194235e-01  -3.7793276e+06
   1.7872624e-09  -1.5888095e-03   5.1162314e-01   4.5212328e-01  -3.7555719e+06
   1.7899300e-09  -1.5788229e-03   5.1142907e-01   4.5230314e-01  -3.7319656e+06
   1.7925975e-09  -1.5688990e-03   5.1123629e-01   4.5248192e-01  -3.7085078e+06
   1.7952651e-09  -1.5590375e-03   5.1104478e-01   4.5265965e-01  -3.6851975e+06
   1.7979326e-09  -1.5492380e-03   5.1085453e-01   4.5283632e-01  -3.6620337e+06
   1.8006002e-09  -1.5395001e-03   5.1066554e-01   4.5301193e-01  -3.6390156e+06
   1.8032678e-09  -1.5298234e-03   5.1047780e-01   4.5318650e-01  -3.6161422e+06
   1.8059353e-09  -1.5202075e-03   5.1029129e-01   4.5336003e-01  -3.5934126e+06
   1.8086029e-09  -1.5106521e-03   5.1010602e-01   4.5353253e-01  -3.5708260e+06
   1.8112704e-09  -1.5011567e-03   5.0992197e-01   4.5370400e-01  -3.5483814e+06
   1.8139380e-09  -1.4917210e-03   5.0973913e-01   4.5387445e-01  -3.5260779e+06
   1.8166055e-09  -1.4823447e-03   5.0955749e-01   4.5404388e-01  -3.5039146e+06
   1.8192731e-09  -1.4730272e-03   5.0937706e-01   4.5421231e-01  -3.4818907e+06
   1.8219406e-09  -1.4637683e-03   5.0919781e-01   4.5437972e-01  -3.4600052e+06
   1.8246082e-09  -1.4545677e-03   5.0901974e-01   4.5454614e-01  -3.4382574e+06
   1.8272758e-09  -1.4454248e-03   5.0884284e-01   4.5471157e-01  -3.4166463e+06
   1.8299433e-09  -1.4363394e-03   5.0866711e-01   4.5487600e-01  -3.3951710e+06
   1.8326109e-09  -1.4273111e-03   5.0849253e-01   4.5503946e-01  -3.3738308e+06
   1.8352784e-09  -1.4183396e-03   5.0831911e-01   4.5520194e-01  -3.3526248e+06
   1.8379460e-09  -1.4094245e-03   5.0814682e-01   4.5536344e-01  -3.3315520e+06
   1.8406135e-09  -1.4005654e-03   5.0797566e-01   4.5552398e-01  -3.3106118e+06
   1.8432811e-09  -1.3917619e-03   5.0780563e-01   4.5568356e-01  -3.2898032e+06
   1.8459486e-09  -1.3830139e-03   5.0763672e-01   4.5584219e-01  -3.2691254e+06
   1.8486162e-09  -1.3743208e-03   5.0746891e-01   4.5599987e-01  -3.2485776e+06
   1.8512838e-09  -1.3656823e-03   5.0730221e-01   4.5615660e-01  -3.2281590e+06
   1.8539513e-09  -1.3570981e-03   5.0713660e-01   4.5631239e-01  -3.2078688e+06
   1.8566189e-09  -1.3485679e-03   5.0697208e-01   4.5646725e-01  -3.1877061e+06
   1.8592864e-09  -1.3400913e-03   5.0680864e-01   4.5662118e-01  -3.1676701e+06
   1.8619540e-09  -1.3316680e-03   5.0664627e-01   4.5677419e-01  -3.1477602e+06
   1.8646215e-09  -1.3232976e-03   5.0648497e-01   4.5692629e-01  -3.1279754e+06
   1.8672891e-09  -1.3149799e-03   5.0632472e-01   4.5707747e-01  -3.1083149e+06
   1.8699567e-09  -1.3067144e-03   5.0616552e-01   4.5722774e-01  -3.0887781e+06
   1.8726242e-09  -1.2985008e-03   5.0600737e-01   4.5737711e-01  -3.0693641e+06
   1.8752918e-09  -1.2903389e-03   5.0585025e-01   4.5752558e-01  -3.0500721e+06
   1.8779593e-09  -1.2822283e-03   5.0569416e-01   4.5767316e-01  -3.0309014e+06
   1.8806269e-09  -1.2741687e-03   5.0553910e-01   4.5781986e-01  -3.0118512e+06
   1.8832944e-09  -1.2661597e-03   5.0538505e-01   4.5796567e-01  -2.9929208e+06
   1.8859620e-09  -1.2582011e-03   5.0523200e-01   4.5811061e-01  -2.9741093e+06
   1.8886295e-09  -1.2502925e-03   5.0507996e-01   4.5825468e-01  -2.9554161e+06
   1.8912971e-09  -1.2424336e-03   5.0492891e-01   4.5839788e-01  -2.9368405e+06
   1.8939647e-09  -1.2346241e-03   5.0477885e-01   4.5854021e-01  -2.9183815e+06
   1.8966322e-09  -1.2268637e-03   5.0462978e-01   4.5868170e-01  -2.9000387e+06
   1.8992998e-09  -1.2191520e-03   5.0448167e-01   4.5882233e-01  -2.8818111e+06
   1.9019673e-09  -1.2114888e-03   5.0433454e-01   4.5896211e-01  -2.8636981e+06
   1.9046349e-09  -1.2038738e-03   5.0418836e-01   4.5910105e-01  -2.8456990e+06
   1.9073024e-09  -1.1963067e-03   5.0404314e-01   4.5923915e-01  -2.8278130e+06
   1.9099700e-09  -1.1887871e-03   5.0389887e-01   4.5937643e-01  -2.8100394e+06
   1.9126375e-09  -1.1813148e-03   5.0375554e-01   4.5951287e-01  -2.7923775e+06
   1.9153051e-09  -1.1738894e-03   5.0361314e-01   4.5964849e-01  -2.7748267e+06
   1.9179727e-09  -1.1665107e-03   5.0347168e-01   4.5978330e-01  -2.7573862e+06
   1.9206402e-09  -1.1591784e-03   5.0333114e-01   4.5991729e-01  -2.7400553e+06
   1.9233078e-09  -1.1518922e-03   5.0319151e-01   4.6005047e-01  -2.7228334e+06
   1.9259753e-09  -1.1446518e-03   5.0305280e-01   4.6018285e-01  -2.7057197e+06
   1.9286429e-09  -1.1374569e-03   5.0291499e-01   4.6031443e-01  -2.6887135e+06
   1.9313104e-09  -1.1303072e-03   5.0277807e-01   4.6044521e-01  -2.6718143e+06
   1.9339780e-09  -1.1232024e-03   5.0264205e-01   4.6057521e-01  -2.6550213e+06
   1.9366455e-09  -1.1161423e-03   5.0250692e-01   4.6070442e-01  -2.6383338e+06
   1.9393131e-09  -1.1091266e-03   5.0237266e-01   4.6083284e-01  -2.6217513e+06
   1.9419807e-09  -1.1021550e-03   5.0223929e-01   4.6096050e-01  -2.6052729e+06
   1.9446482e-09  -1.0952271e-03   5.0210677e-01   4.6108738e-01  -2.5888982e+06
   1.9473158e-09  -1.0883429e-03   5.0197513e-01   4.6121349e-01  -2.5726263e+06
   1.9499833e-09  -1.0815019e-03   5.0184433e-01   4.6133884e-01  -2.5564567e+06
   1.9526509e-09  -1.0747039e-03   5.0171439e-01   4.6146343e-01  -2.5403888e+06
   1.9553184e-09  -1.0679486e-03   5.0158530e-01   4.6158727e-01  -2.5244219e+06
   1.9579860e-09  -1.0612358e-03   5.0145704e-01   4.6171035e-01  -2.5085553e+06
   1.9606536e-09  -1.0545651e-03   5.0132962e-01   4.6183270e-01  -2.4927884e+06
   1.9633211e-09  -1.0479364e-03   5.0120303e-01   4.6195430e-01  -2.4771207e+06
   1.9659887e-09  -1.0413494e-03   5.0107726e-01   4.6207516e-01  -2.4615514e+06
   1.9686562e-09  -1.0348038e-03   5.0095231e-01   4.6219529e-01  -2.4460800e+06
   1.9713238e-09  -1.0282993e-03   5.0082816e-01   4.6231470e-01  -2.4307058e+06
   1.9739913e-09  -1.0218356e-03   5.0070483e-01   4.6243338e-01  -2.4154282e+06
   1.9766589e-09  -1.0154127e-03   5.0058230e-01   4.6255134e-01  -2.4002467e+06
   1.9793264e-09  -1.0090300e-03   5.0046056e-01   4.6266858e-01  -2.3851606e+06
   1.9819940e-09  -1.0026875e-03   5.0033961e-01   4.6278512e-01  -2.3701693e+06
   1.9846616e-09  -9.9638490e-04   5.0021945e-01   4.6290094e-01  -2.3552723e+06
   1.9873291e-09  -9.9012187e-04   5.0010006e-01   4.6301607e-01  -2.3404688e+06
   1.9899967e-09  -9.8389822e-04   4.9998146e-01   4.6313049e-01  -2.3257584e+06
   1.9926642e-09  -9.7771367e-04   4.9986362e-01   4.6324422e-01  -2.3111405e+06
   1.9953318e-09  -9.7156800e-04   4.9974654e-01   4.6335726e-01  -2.2966144e+06
   1.9979993e-09  -9.6546096e-04   4.9963023e-01   4.6346961e-01  -2.2821797e+06
   2.0006669e-09  -9.5939230e-04   4.9951467e-01   4.6358128e-01  -2.2678356e+06
   2.0033344e-09  -9.5336178e-04   4.9939985e-01   4.6369227e-01  -2.2535818e+06
   2.0060020e-09  -9.4736917e-04   4.9928579e-01   4.6380259e-01  -2.2394175e+06
   2.0086696e-09  -9.4141422e-04   4.9917246e-01   4.6391223e-01  -2.2253422e+06
   2.0113371e-09  -9.3549670e-04   4.9905986e-01   4.6402121e-01  -2.2113554e+06
   2.0140047e-09  -9.2961638e-04   4.9894800e-01   4.6412953e-01  -2.1974565e+06
   2.0166722e-09  -9.2377301e-04   4.9883686e-01   4.6423718e-01  -2.1836449e+06
   2.0193398e-09  -9.1796637e-04   4.9872643e-01   4.6434418e-01  -2.1699202e+06
   2.0220073e-09  -9.1219622e-04   4.9861673e-01   4.6445053e-01  -2.1562817e+06
   2.0246749e-09  -9.0646235e-04   4.9850773e-01   4.6455624e-01  -2.1427289e+06
   2.0273424e-09  -9.0076451e-04   4.9839944e-01   4.6466129e-01  -2.1292613e+06
   2.0300100e-09  -8.9510248e-04   4.9829185e-01   4.6476571e-01  -2.1158784e+06
   2.0326776e-09  -8.8947605e-04   4.9818496e-01   4.6486950e-01  -2.1025795e+06
   2.0353451e-09  -8.8388497e-04   4.9807875e-01   4.6497265e-01  -2.0893643e+06
   2.0380127e-09  -8.7832904e-04   4.9797324e-01   4.6507517e-01  -2.0762321e+06
   2.0406802e-09  -8.7280803e-04   4.9786840e-01   4.6517707e-01  -2.0631824e+06
   2.0433478e-09  -8.6732171e-04   4.9776424e-01   4.6527834e-01  -2.0502148e+06
   2.0460153e-09  -8.6186989e-04   4.9766076e-01   4.6537900e-01  -2.0373286e+06
   2.0486829e-09  -8.5645232e-04   4.9755795e-01   4.6547905e-01  -2.0245235e+06
   2.0513505e-09  -8.5106881e-04   4.9745580e-01   4.6557848e-01  -2.0117988e+06
   2.0540180e-09  -8.4571914e-04   4.9735431e-01   4.6567731e-01  -1.9991541e+06
   2.0566856e-09  -8.4040309e-04   4.9725347e-01   4.6577553e-01  -1.9865888e+06
   2.0593531e-09  -8.3512045e-04   4.9715329e-01   4.6587316e-01  -1.9741026e+06
   2.0620207e-09  -8.2987101e-04   4.9705375e-01   4.6597019e-01  -1.9616948e+06
   2.0646882e-09  -8.2465457e-04   4.9695486e-01   4.6606662e-01  -1.9493650e+06
   2.0673558e-09  -8.1947092e-04   4.9685660e-01   4.6616247e-01  -1.9371127e+06
   2.0700233e-09  -8.1431985e-04   4.9675898e-01   4.6625773e-01  -1.9249373e+06
   2.0726909e-09  -8.0920115e-04   4.9666199e-01   4.6635241e-01  -1.9128385e+06
   2.0753585e-09  -8.0411463e-04   4.9656562e-01   4.6644651e-01  -1.9008158e+06
   2.0780260e-09  -7.9906008e-04   4.9646988e-01   4.6654004e-01  -1.8888686e+06
   2.0806936e-09  -7.9403729e-04   4.9637475e-01   4.6663300e-01  -1.8769965e+06
   2.0833611e-09  -7.8904608e-04   4.9628024e-01   4.6672538e-01  -1.8651990e+06
   2.0860287e-09  -7.8408623e-04   4.9618633e-01   4.6681720e-01  -1.8534756e+06
   2.0886962e-09  -7.7915757e-04   4.9609303e-01   4.6690846e-01  -1.8418259e+06
   2.0913638e-09  -7.7425988e-04   4.9600033e-01   4.6699917e-01  -1.8302495e+06
   2.0940313e-09  -7.6939297e-04   4.9590823e-01   4.6708931e-01  -1.8187458e+06
   2.0966989e-09  -7.6455665e-04   4.9581673e-01   4.6717891e-01  -1.8073144e+06
   2.0993665e-09  -7.5975073e-04   4.9572581e-01   4.6726796e-01  -1.7959548e+06
   2.1020340e-09  -7.5497502e-04   4.9563548e-01   4.6735646e-01  -1.7846666e+06
   2.1047016e-09  -7.5022933e-04   4.9554573e-01   4.6744442e-01  -1.7734494e+06
   2.1073691e-09  -7.4551346e-04   4.9545656e-01   4.6753184e-01  -1.7623027e+06
   2.1100367e-09  -7.4082723e-04   4.9536796e-01   4.6761873e-01  -1.7512260e+06
   2.1127042e-09  -7.3617046e-04   4.9527993e-01   4.6770508e-01  -1.7402190e+06
   2.1153718e-09  -7.3154296e-04   4.9519247e-01   4.6779090e-01  -1.7292811e+06
   2.1180393e-09  -7.2694455e-04   4.9510557e-01   4.6787620e-01  -1.7184119e+06
   2.1207069e-09  -7.2237503e-04   4.9501923e-01   4.6796098e-01  -1.7076111e+06
   2.1233745e-09  -7.1783424e-04   4.9493345e-01   4.6804524e-01  -1.6968782e+06
   2.1260420e-09  -7.1332199e-04   4.9484822e-01   4.6812898e-01  -1.6862127e+06
   2.1287096e-09  -7.0883810e-04   4.9476354e-01   4.6821220e-01  -1.6756142e+06
   2.1313771e-09  -7.0438239e-04   4.9467940e-01   4.6829492e-01  -1.6650823e+06
   2.1340447e-09  -6.9995469e-04   4.9459580e-01   4.6837713e-01  -1.6546167e+06
   2.1367122e-09  -6.9555482e-04   4.9451274e-01   4.6845883e-01  -1.6442168e+06
   2.1393798e-09  -6.9118260e-04   4.9443021e-01   4.6854004e-01  -1.6338822e+06
   2.1420473e-09  -6.8683786e-04   4.9434822e-01   4.6862074e-01  -1.6236127e+06
   2.1447149e-09  -6.8252044e-04   4.9426675e-01   4.6870095e-01  -1.6134076e+06
   2.1473825e-09  -6.7823014e-04   4.9418580e-01   4.6878067e-01  -1.6032667e+06
   2.1500500e-09  -6.7396682e-04   4.9410538e-01   4.6885990e-01  -1.5931895e+06
   2.1527176e-09  -6.6973029e-04   4.9402547e-01   4.6893864e-01  -1.5831757e+06
   2.1553851e-09  -6.6552039e-04   4.9394607e-01   4.6901690e-01  -1.5732248e+06
   2.1580527e-09  -6.6133695e-04   4.9386719e-01   4.6909467e-01  -1.5633364e+06
   2.1607202e-09  -6.5717981e-04   4.9378881e-01   4.6917197e-01  -1.5535102e+06
   2.1633878e-09  -6.5304880e-04   4.9371093e-01   4.6924880e-01  -1.5437457e+06
   2.1660554e-09  -6.4894375e-04   4.9363356e-01   4.6932515e-01  -1.5340426e+06
   2.1687229e-09  -6.4486450e-04   4.9355668e-01   4.6940104e-01  -1.5244005e+06
   2.1713905e-09  -6.4081089e-04   4.9348029e-01   4.6947645e-01  -1.5148190e+06
   2.1740580e-09  -6.3678276e-04   4.9340440e-01   4.6955141e-01  -1.5052977e+06
   2.1767256e-09  -6.3277995e-04   4.9332899e-01   4.6962590e-01  -1.4958362e+06
   2.1793931e-09  -6.2880230e-04   4.9325406e-01   4.6969993e-01  -1.4864342e+06
   2.1820607e-09  -6.2484965e-04   4.9317962e-01   4.6977351e-01  -1.4770913e+06
   2.1847282e-09  -6.2092185e-04   4.9310565e-01   4.6984664e-01  -1.4678071e+06
   2.1873958e-09  -6.1701873e-04   4.9303216e-01   4.6991932e-01  -1.4585813e+06
   2.1900634e-09  -6.1314015e-04   4.9295914e-01   4.6999155e-01  -1.4494134e+06
   2.1927309e-09  -6.0928594e-04   4.9288659e-01   4.7006333e-01  -1.4403032e+06
   2.1953985e-09  -6.0545596e-04   4.9281450e-01   4.7013468e-01  -1.4312502e+06
   2.1980660e-09  -6.0165006e-04   4.9274287e-01   4.7020558e-01  -1.4222541e+06
   2.2007336e-09  -5.9786807e-04   4.9267171e-01   4.7027605e-01  -1.4133145e+06
   2.2034011e-09  -5.9410986e-04   4.9260100e-01   4.7034609e-01  -1.4044312e+06
   2.2060687e-09  -5.9037527e-04   4.9253074e-01   4.7041569e-01  -1.3956036e+06
   2.2087362e-09  -5.8666415e-04   4.9246093e-01   4.7048486e-01  -1.3868316e+06
   2.2114038e-09  -5.8297636e-04   4.9239157e-01   4.7055361e-01  -1.3781146e+06
   2.2140714e-09  -5.7931175e-04   4.9232266e-01   4.7062194e-01  -1.3694525e+06
   2.2167389e-09  -5.7567018e-04   4.9225418e-01   4.7068984e-01  -1.3608448e+06
   2.2194065e-09  -5.7205149e-04   4.9218614e-01   4.7075733e-01  -1.3522912e+06
   2.2220740e-09  -5.6845555e-04   4.9211854e-01   4.7082440e-01  -1.3437913e+06
   2.2247416e-09  -5.6488221e-04   4.9205138e-01   4.7089105e-01  -1.3353449e+06
   2.2274091e-09  -5.6133133e-04   4.9198464e-01   4.7095730e-01  -1.3269515e+06
   2.2300767e-09  -5.5780277e-04   4.9191833e-01   4.7102314e-01  -1.3186110e+06
   2.2327442e-09  -5.5429639e-04   4.9185244e-01   4.7108857e-01  -1.3103228e+06
   2.2354118e-09  -5.5081204e-04   4.9178698e-01   4.7115360e-01  -1.3020867e+06
   2.2380794e-09  -5.4734960e-04   4.9172193e-01   4.7121822e-01  -1.2939024e+06
   2.2407469e-09  -5.4390893e-04   4.9165730e-01   4.7128245e-01  -1.2857695e+06
   2.2434145e-09  -5.4048987e-04   4.9159309e-01   4.7134628e-01  -1.2776877e+06
   2.2460820e-09  -5.3709231e-04   4.9152928e-01   4.7140972e-01  -1.2696567e+06
   2.2487496e-09  -5.3371611e-04   4.9146589e-01   4.7147277e-01  -1.2616762e+06
   2.2514171e-09  -5.3036113e-04   4.9140290e-01   4.7153543e-01  -1.2537458e+06
   2.2540847e-09  -5.2702723e-04   4.9134031e-01   4.7159770e-01  -1.2458653e+06
   2.2567523e-09  -5.2371429e-04   4.9127812e-01   4.7165959e-01  -1.2380343e+06
   2.2594198e-09  -5.2042218e-04   4.9121633e-01   4.7172109e-01  -1.2302526e+06
   2.2620874e-09  -5.1715075e-04   4.9115493e-01   4.7178222e-01  -1.2225197e+06
   2.2647549e-09  -5.1389989e-04   4.9109393e-01   4.7184296e-01  -1.2148355e+06
   2.2674225e-09  -5.1066947e-04   4.9103332e-01   4.7190334e-01  -1.2071995e+06
   2.2700900e-09  -5.0745934e-04   4.9097309e-01   4.7196334e-01  -1.1996115e+06
   2.2727576e-09  -5.0426940e-04   4.9091325e-01   4.7202297e-01  -1.1920712e+06
   2.2754251e-09  -5.0109951e-04   4.9085379e-01   4.7208223e-01  -1.1845783e+06
   2.2780927e-09  -4.9794954e-04   4.9079471e-01   4.7214112e-01  -1.1771325e+06
   2.2807603e-09  -4.9481937e-04   4.9073601e-01   4.7219965e-01  -1.1697335e+06
   2.2834278e-09  -4.9170888e-04   4.9067768e-01   4.7225782e-01  -1.1623810e+06
   2.2860954e-09  -4.8861793e-04   4.9061973e-01   4.7231563e-01  -1.1550747e+06
   2.2887629e-09  -4.8554642e-04   4.9056214e-01   4.7237309e-01  -1.1478143e+06
   2.2914305e-09  -4.8249421e-04   4.9050493e-01   4.7243018e-01  -1.1405996e+06
   2.2940980e-09  -4.7946119e-04   4.9044808e-01   4.7248693e-01  -1.1334302e+06
   2.2967656e-09  -4.7644723e-04   4.9039159e-01   4.7254332e-01  -1.1263058e+06
   2.2994331e-09  -4.7345222e-04   4.9033546e-01   4.7259937e-01  -1.1192263e+06
   2.3021007e-09  -4.7047603e-04   4.9027969e-01   4.7265507e-01  -1.1121912e+06
   2.3047683e-09  -4.6751855e-04   4.9022428e-01   4.7271042e-01  -1.1052003e+06
   2.3074358e-09  -4.6457966e-04   4.9016922e-01   4.7276543e-01  -1.0982534e+06
   2.3101034e-09  -4.6165924e-04   4.9011451e-01   4.7282011e-01  -1.0913501e+06
   2.3127709e-09  -4.5875718e-04   4.9006015e-01   4.7287444e-01  -1.0844903e+06
   2.3154385e-09  -4.5587336e-04   4.9000614e-01   4.7292844e-01  -1.0776735e+06
   2.3181060e-09  -4.5300767e-04   4.8995247e-01   4.7298210e-01  -1.0708996e+06
   2.3207736e-09  -4.5015999e-04   4.8989915e-01   4.7303543e-01  -1.0641682e+06
   2.3234411e-09  -4.4733021e-04   4.8984616e-01   4.7308843e-01  -1.0574792e+06
   2.3261087e-09  -4.4451822e-04   4.8979351e-01   4.7314110e-01  -1.0508322e+06
   2.3287763e-09  -4.4172390e-04   4.8974120e-01   4.7319345e-01  -1.0442270e+06
   2.3314438e-09  -4.3894715e-04   4.8968922e-01   4.7324547e-01  -1.0376633e+06
   2.3341114e-09  -4.3618785e-04   4.8963758e-01   4.7329718e-01  -1.0311408e+06
   2.3367789e-09  -4.3344590e-04   4.8958626e-01   4.7334856e-01  -1.0246594e+06
   2.3394465e-09  -4.3072118e-04   4.8953527e-01   4.7339962e-01  -1.0182186e+06
   2.3421140e-09  -4.2801358e-04   4.8948461e-01   4.7345037e-01  -1.0118184e+06
   2.3447816e-09  -4.2532301e-04   4.8943426e-01   4.7350080e-01  -1.0054584e+06
   2.3474491e-09  -4.2264935e-04   4.8938424e-01   4.7355092e-01  -9.9913833e+05
   2.3501167e-09  -4.1999249e-04   4.8933454e-01   4.7360073e-01  -9.9285800e+05
   2.3527843e-09  -4.1735234e-04   4.8928515e-01   4.7365023e-01  -9.8661715e+05
   2.3554518e-09  -4.1472878e-04   4.8923608e-01   4.7369942e-01  -9.8041552e+05
   2.3581194e-09  -4.1212171e-04   4.8918732e-01   4.7374831e-01  -9.7425287e+05
   2.3607869e-09  -4.0953103e-04   4.8913888e-01   4.7379690e-01  -9.6812895e+05
   2.3634545e-09  -4.0695663e-04   4.8909074e-01   4.7384518e-01  -9.6204352e+05
   2.3661220e-09  -4.0439842e-04   4.8904290e-01   4.7389317e-01  -9.5599634e+05
   2.3687896e-09  -4.0185628e-04   4.8899538e-01   4.7394086e-01  -9.4998716e+05
   2.3714572e-09  -3.9933013e-04   4.8894815e-01   4.7398825e-01  -9.4401575e+05
   2.3741247e-09  -3.9681985e-04   4.8890123e-01   4.7403535e-01  -9.3808187e+05
   2.3767923e-09  -3.9432535e-04   4.8885460e-01   4.7408215e-01  -9.3218529e+05
   2.3794598e-09  -3.9184653e-04   4.8880827e-01   4.7412867e-01  -9.2632577e+05
   2.3821274e-09  -3.8938330e-04   4.8876224e-01   4.7417490e-01  -9.2050308e+05
   2.3847949e-09  -3.8693555e-04   4.8871650e-01   4.7422084e-01  -9.1471698e+05
   2.3874625e-09  -3.8450318e-04   4.8867105e-01   4.7426650e-01  -9.0896724e+05
   2.3901300e-09  -3.8208610e-04   4.8862589e-01   4.7431187e-01  -9.0325365e+05
   2.3927976e-09  -3.7968422e-04   4.8858101e-01   4.7435696e-01  -8.9757597e+05
   2.3954652e-09  -3.7729743e-04   4.8853643e-01   4.7440177e-01  -8.9193397e+05
   2.3981327e-09  -3.7492565e-04   4.8849212e-01   4.7444631e-01  -8.8632743e+05
   2.4008003e-09  -3.7256877e-04   4.8844810e-01   4.7449057e-01  -8.8075613e+05
   2.4034678e-09  -3.7022671e-04   4.8840436e-01   4.7453455e-01  -8.7521985e+05
   2.4061354e-09  -3.6789938e-04   4.8836089e-01   4.7457826e-01  -8.6971836e+05
   2.4088029e-09  -3.6558667e-04   4.8831771e-01   4.7462170e-01  -8.6425145e+05
   2.4114705e-09  -3.6328850e-04   4.8827480e-01   4.7466487e-01  -8.5881890e+05
   2.4141380e-09  -3.6100477e-04   4.8823216e-01   4.7470777e-01  -8.5342049e+05
   2.4168056e-09  -3.5873540e-04   4.8818979e-01   4.7475040e-01  -8.4805602e+05
   2.4194732e-09  -3.5648030e-04   4.8814769e-01   4.7479277e-01  -8.4272526e+05
   2.4221407e-09  -3.5423937e-04   4.8810586e-01   4.7483488e-01  -8.3742800e+05
   2.4248083e-09  -3.5201252e-04   4.8806429e-01   4.7487673e-01  -8.3216404e+05
   2.4274758e-09  -3.4979968e-04   4.8802299e-01   4.7491831e-01  -8.2693317e+05
   2.4301434e-09  -3.4760074e-04   4.8798196e-01   4.7495964e-01  -8.2173517e+05
   2.4328109e-09  -3.4541563e-04   4.8794118e-01   4.7500071e-01  -8.1656985e+05
   2.4354785e-09  -3.4324425e-04   4.8790066e-01   4.7504153e-01  -8.1143698e+05
   2.4381460e-09  -3.4108652e-04   4.8786040e-01   4.7508209e-01  -8.0633638e+05
   2.4408136e-09  -3.3894235e-04   4.8782040e-01   4.7512240e-01  -8.0126784e+05
   2.4434812e-09  -3.3681166e-04   4.8778065e-01   4.7516246e-01  -7.9623115e+05
   2.4461487e-09  -3.3469437e-04   4.8774115e-01   4.7520227e-01  -7.9122613e+05
   2.4488163e-09  -3.3259038e-04   4.8770190e-01   4.7524183e-01  -7.8625255e+05
   2.4514838e-09  -3.3049962e-04   4.8766290e-01   4.7528115e-01  -7.8131024e+05
   2.4541514e-09  -3.2842200e-04   4.8762415e-01   4.7532022e-01  -7.7639900e+05
   2.4568189e-09  -3.2635744e-04   4.8758565e-01   4.7535906e-01  -7.7151862e+05
   2.4594865e-09  -3.2430586e-04   4.8754739e-01   4.7539764e-01  -7.6666891e+05
   2.4621541e-09  -3.2226718e-04   4.8750938e-01   4.7543599e-01  -7.6184969e+05
   2.4648216e-09  -3.2024131e-04   4.8747160e-01   4.7547410e-01  -7.5706076e+05
   2.4674892e-09  -3.1822817e-04   4.8743407e-01   4.7551198e-01  -7.5230193e+05
   2.4701567e-09  -3.1622769e-04   4.8739677e-01   4.7554962e-01  -7.4757300e+05
   2.4728243e-09  -3.1423979e-04   4.8735971e-01   4.7558702e-01  -7.4287380e+05
   2.4754918e-09  -3.1226438e-04   4.8732289e-01   4.7562419e-01  -7.3820414e+05
   2.4781594e-09  -3.1030138e-04   4.8728630e-01   4.7566113e-01  -7.3356383e+05
   2.4808269e-09  -3.0835073e-04   4.8724994e-01   4.7569784e-01  -7.2895268e+05
   2.4834945e-09  -3.0641234e-04   4.8721382e-01   4.7573433e-01  -7.2437052e+05
   2.4861621e-09  -3.0448613e-04   4.8717792e-01   4.7577058e-01  -7.1981715e+05
   2.4888296e-09  -3.0257203e-04   4.8714225e-01   4.7580661e-01  -7.1529241e+05
   2.4914972e-09  -3.0066996e-04   4.8710681e-01   4.7584242e-01  -7.1079610e+05
   2.4941647e-09  -2.9877985e-04   4.8707159e-01   4.7587800e-01  -7.0632806e+05
   2.4968323e-09  -2.9690162e-04   4.8703660e-01   4.7591336e-01  -7.0188809e+05
   2.4994998e-09  -2.9503520e-04   4.8700182e-01   4.7594851e-01  -6.9747604e+05
   2.5021674e-09  -2.9318051e-04   4.8696727e-01   4.7598343e-01  -6.9309172e+05
   2.5048349e-09  -2.9133748e-04   4.8693294e-01   4.7601814e-01  -6.8873495e+05
   2.5075025e-09  -2.8950603e-04   4.8689883e-01   4.7605263e-01  -6.8440557e+05
   2.5101701e-09  -2.8768610e-04   4.8686493e-01   4.7608690e-01  -6.8010340e+05
   2.5128376e-09  -2.8587760e-04   4.8683125e-01   4.7612096e-01  -6.7582827e+05
   2.5155052e-09  -2.8408048e-04   4.8679778e-01   4.7615481e-01  -6.7158001e+05
   2.5181727e-09  -2.8229465e-04   4.8676452e-01   4.7618845e-01  -6.6735845e+05
   2.5208403e-09  -2.8052004e-04   4.8673148e-01   4.7622188e-01  -6.6316343e+05
   2.5235078e-09  -2.7875659e-04   4.8669864e-01   4.7625510e-01  -6.5899477e+05
   2.5261754e-09  -2.7700423e-04   4.8666601e-01   4.7628812e-01  -6.5485232e+05
   2.5288429e-09  -2.7526288e-04   4.8663359e-01   4.7632093e-01  -6.5073590e+05
   2.5315105e-09  -2.7353248e-04   4.8660138e-01   4.7635353e-01  -6.4664536e+05
   2.5341781e-09  -2.7181296e-04   4.8656936e-01   4.7638593e-01  -6.4258053e+05
   2.5368456e-09  -2.7010424e-04   4.8653756e-01   4.7641813e-01  -6.3854124e+05
   2.5395132e-09  -2.6840627e-04   4.8650595e-01   4.7645013e-01  -6.3452735e+05
   2.5421807e-09  -2.6671896e-04   4.8647455e-01   4.7648193e-01  -6.3053868e+05
   2.5448483e-09  -2.6504227e-04   4.8644334e-01   4.7651354e-01  -6.2657509e+05
   2.5475158e-09  -2.6337611e-04   4.8641233e-01   4.7654494e-01  -6.2263641e+05
   2.5501834e-09  -2.6172043e-04   4.8638152e-01   4.7657615e-01  -6.1872248e+05
   2.5528510e-09  -2.6007516e-04   4.8635090e-01   4.7660717e-01  -6.1483316e+05
   2.5555185e-09  -2.5844023e-04   4.8632048e-01   4.7663799e-01  -6.1096828e+05
   2.5581861e-09  -2.5681557e-04   4.8629025e-01   4.7666862e-01  -6.0712770e+05
   2.5608536e-09  -2.5520113e-04   4.8626021e-01   4.7669906e-01  -6.0331125e+05
   2.5635212e-09  -2.5359684e-04   4.8623036e-01   4.7672931e-01  -5.9951879e+05
   2.5661887e-09  -2.5200263e-04   4.8620071e-01   4.7675937e-01  -5.9575017e+05
   2.5688563e-09  -2.5041845e-04   4.8617123e-01   4.7678924e-01  -5.9200524e+05
   2.5715238e-09  -2.4884422e-04   4.8614195e-01   4.7681893e-01  -5.8828385e+05
   2.5741914e-09  -2.4727988e-04   4.8611285e-01   4.7684843e-01  -5.8458585e+05
   2.5768590e-09  -2.4572538e-04   4.8608394e-01   4.7687775e-01  -5.8091109e+05
   2.5795265e-09  -2.4418066e-04   4.8605521e-01   4.7690689e-01  -5.7725943e+05
   2.5821941e-09  -2.4264564e-04   4.8602666e-01   4.7693584e-01  -5.7363072e+05
   2.5848616e-09  -2.4112027e-04   4.8599829e-01   4.7696462e-01  -5.7002482e+05
   2.5875292e-09  -2.3960449e-04   4.8597010e-01   4.7699321e-01  -5.6644159e+05
   2.5901967e-09  -2.3809824e-04   4.8594210e-01   4.7702163e-01  -5.6288087e+05
   2.5928643e-09  -2.3660146e-04   4.8591426e-01   4.7704987e-01  -5.5934254e+05
   2.5955318e-09  -2.3511409e-04   4.8588661e-01   4.7707793e-01  -5.5582645e+05
   2.5981994e-09  -2.3363606e-04   4.8585913e-01   4.7710582e-01  -5.5233246e+05
   2.6008670e-09  -2.3216733e-04   4.8583182e-01   4.7713353e-01  -5.4886044e+05
   2.6035345e-09  -2.3070783e-04   4.8580469e-01   4.7716107e-01  -5.4541023e+05
   2.6062021e-09  -2.2925750e-04   4.8577773e-01   4.7718844e-01  -5.4198171e+05
   2.6088696e-09  -2.2781629e-04   4.8575094e-01   4.7721564e-01  -5.3857475e+05
   2.6115372e-09  -2.2638414e-04   4.8572432e-01   4.7724267e-01  -5.3518919e+05
   2.6142047e-09  -2.2496100e-04   4.8569786e-01   4.7726953e-01  -5.3182492e+05
   2.6168723e-09  -2.2354680e-04   4.8567158e-01   4.7729622e-01  -5.2848180e+05
   2.6195398e-09  -2.2214149e-04   4.8564546e-01   4.7732275e-01  -5.2515968e+05
   2.6222074e-09  -2.2074501e-04   4.8561951e-01   4.7734911e-01  -5.2185845e+05
   2.6248750e-09  -2.1935731e-04   4.8559372e-01   4.7737531e-01  -5.1857797e+05
   2.6275425e-09  -2.1797834e-04   4.8556809e-01   4.7740134e-01  -5.1531811e+05
   2.6302101e-09  -2.1660803e-04   4.8554263e-01   4.7742721e-01  -5.1207874e+05
   2.6328776e-09  -2.1524634e-04   4.8551733e-01   4.7745292e-01  -5.0885973e+05
   2.6355452e-09  -2.1389321e-04   4.8549218e-01   4.7747847e-01  -5.0566096e+05
   2.6382127e-09  -2.1254858e-04   4.8546720e-01   4.7750386e-01  -5.0248229e+05
   2.6408803e-09  -2.1121241e-04   4.8544238e-01   4.7752909e-01  -4.9932360e+05
   2.6435478e-09  -2.0988463e-04   4.8541771e-01   4.7755416e-01  -4.9618477e+05
   2.6462154e-09  -2.0856520e-04   4.8539320e-01   4.7757908e-01  -4.9306566e+05
   2.6488830e-09  -2.0725407e-04   4.8536884e-01   4.7760384e-01  -4.8996616e+05
   2.6515505e-09  -2.0595118e-04   4.8534464e-01   4.7762845e-01  -4.8688615e+05
   2.6542181e-09  -2.0465648e-04   4.8532059e-01   4.7765290e-01  -4.8382549e+05
   2.6568856e-09  -2.0336991e-04   4.8529670e-01   4.7767720e-01  -4.8078407e+05
   2.6595532e-09  -2.0209144e-04   4.8527295e-01   4.7770135e-01  -4.7776177e+05
   2.6622207e-09  -2.0082100e-04   4.8524935e-01   4.7772535e-01  -4.7475847e+05
   2.6648883e-09  -1.9955855e-04   4.8522591e-01   4.7774920e-01  -4.7177404e+05
   2.6675559e-09  -1.9830403e-04   4.8520261e-01   4.7777290e-01  -4.6880838e+05
   2.6702234e-09  -1.9705740e-04   4.8517946e-01   4.7779645e-01  -4.6586135e+05
   2.6728910e-09  -1.9581861e-04   4.8515646e-01   4.7781985e-01  -4.6293285e+05
   2.6755585e-09  -1.9458760e-04   4.8513360e-01   4.7784311e-01  -4.6002276e+05
   2.6782261e-09  -1.9336433e-04   4.8511089e-01   4.7786622e-01  -4.5713096e+05
   2.6808936e-09  -1.9214876e-04   4.8508832e-01   4.7788919e-01  -4.5425734e+05
   2.6835612e-09  -1.9094082e-04   4.8506589e-01   4.7791202e-01  -4.5140177e+05
   2.6862287e-09  -1.8974048e-04   4.8504360e-01   4.7793470e-01  -4.4856416e+05
   2.6888963e-09  -1.8854768e-04   4.8502146e-01   4.7795724e-01  -4.4574439e+05
   2.6915639e-09  -1.8736238e-04   4.8499946e-01   4.7797964e-01  -4.4294234e+05
   2.6942314e-09  -1.8618453e-04   4.8497759e-01   4.7800190e-01  -4.4015790e+05
   2.6968990e-09  -1.8501408e-04   4.8495586e-01   4.7802402e-01  -4.3739097e+05
   2.6995665e-09  -1.8385100e-04   4.8493427e-01   4.7804601e-01  -4.3464142e+05
   2.7022341e-09  -1.8269522e-04   4.8491282e-01   4.7806785e-01  -4.3190916e+05
   2.7049016e-09  -1.8154671e-04   4.8489150e-01   4.7808956e-01  -4.2919408e+05
   2.7075692e-09  -1.8040542e-04   4.8487032e-01   4.7811114e-01  -4.2649606e+05
   2.7102367e-09  -1.7927131e-04   4.8484927e-01   4.7813258e-01  -4.2381500e+05
   2.7129043e-09  -1.7814432e-04   4.8482836e-01   4.7815388e-01  -4.2115079e+05
   2.7155719e-09  -1.7702442e-04   4.8480758e-01   4.7817505e-01  -4.1850333e+05
   2.7182394e-09  -1.7591156e-04   4.8478692e-01   4.7819609e-01  -4.1587251e+05
   2.7209070e-09  -1.7480569e-04   4.8476640e-01   4.7821700e-01  -4.1325823e+05
   2.7235745e-09  -1.7370678e-04   4.8474601e-01   4.7823778e-01  -4.1066038e+05
   2.7262421e-09  -1.7261477e-04   4.8472575e-01   4.7825843e-01  -4.0807886e+05
   2.7289096e-09  -1.7152963e-04   4.8470562e-01   4.7827894e-01  -4.0551357e+05
   2.7315772e-09  -1.7045131e-04   4.8468561e-01   4.7829934e-01  -4.0296440e+05
   2.7342447e-09  -1.6937977e-04   4.8466573e-01   4.7831960e-01  -4.0043125e+05
   2.7369123e-09  -1.6831496e-04   4.8464597e-01   4.7833973e-01  -3.9791403e+05
   2.7395799e-09  -1.6725685e-04   4.8462634e-01   4.7835975e-01  -3.9541264e+05
   2.7422474e-09  -1.6620539e-04   4.8460684e-01   4.7837963e-01  -3.9292696e+05
   2.7449150e-09  -1.6516054e-04   4.8458745e-01   4.7839939e-01  -3.9045691e+05
   2.7475825e-09  -1.6412226e-04   4.8456819e-01   4.7841903e-01  -3.8800239e+05
   2.7502501e-09  -1.6309050e-04   4.8454906e-01   4.7843854e-01  -3.8556329e+05
   2.7529176e-09  -1.6206523e-04   4.8453004e-01   4.7845794e-01  -3.8313953e+05
   2.7555852e-09  -1.6104641e-04   4.8451114e-01   4.7847721e-01  -3.8073100e+05
   2.7582528e-09  -1.6003399e-04   4.8449236e-01   4.7849636e-01  -3.7833761e+05
   2.7609203e-09  -1.5902793e-04   4.8447370e-01   4.7851539e-01  -3.7595927e+05
   2.7635879e-09  -1.5802820e-04   4.8445516e-01   4.7853430e-01  -3.7359587e+05
   2.7662554e-09  -1.5703476e-04   4.8443674e-01   4.7855310e-01  -3.7124734e+05
   2.7689230e-09  -1.5604755e-04   4.8441843e-01   4.7857178e-01  -3.6891356e+05
   2.7715905e-09  -1.5506656e-04   4.8440024e-01   4.7859034e-01  -3.6659446e+05
   2.7742581e-09  -1.5409173e-04   4.8438216e-01   4.7860878e-01  -3.6428993e+05
   2.7769256e-09  -1.5312303e-04   4.8436420e-01   4.7862711e-01  -3.6199989e+05
   2.7795932e-09  -1.5216042e-04   4.8434635e-01   4.7864532e-01  -3.5972424e+05
   2.7822608e-09  -1.5120386e-04   4.8432861e-01   4.7866342e-01  -3.5746290e+05
   2.7849283e-09  -1.5025331e-04   4.8431099e-01   4.7868141e-01  -3.5521577e+05
   2.7875959e-09  -1.4930874e-04   4.8429348e-01   4.7869928e-01  -3.5298277e+05
   2.7902634e-09  -1.4837011e-04   4.8427607e-01   4.7871705e-01  -3.5076381e+05
   2.7929310e-09  -1.4743738e-04   4.8425878e-01   4.7873470e-01  -3.4855879e+05
   2.7955985e-09  -1.4651051e-04   4.8424160e-01   4.7875224e-01  -3.4636763e+05
   2.7982661e-09  -1.4558946e-04   4.8422452e-01   4.7876967e-01  -3.4419025e+05
   2.8009336e-09  -1.4467421e-04   4.8420756e-01   4.7878699e-01  -3.4202655e+05
   2.8036012e-09  -1.4376471e-04   4.8419070e-01   4.7880421e-01  -3.3987646e+05
   2.8062688e-09  -1.4286093e-04   4.8417394e-01   4.7882131e-01  -3.3773988e+05
   2.8089363e-09  -1.4196283e-04   4.8415729e-01   4.7883831e-01  -3.3561673e+05
   2.8116039e-09  -1.4107038e-04   4.8414075e-01   4.7885521e-01  -3.3350693e+05
   2.8142714e-09  -1.4018353e-04   4.8412431e-01   4.7887199e-01  -3.3141039e+05
   2.8169390e-09  -1.3930226e-04   4.8410798e-01   4.7888867e-01  -3.2932702e+05
   2.8196065e-09  -1.3842653e-04   4.8409175e-01   4.7890525e-01  -3.2725676e+05
   2.8222741e-09  -1.3755631e-04   4.8407562e-01   4.7892173e-01  -3.2519950e+05
   2.8249416e-09  -1.3669156e-04   4.8405959e-01   4.7893810e-01  -3.2315518e+05
   2.8276092e-09  -1.3583224e-04   4.8404367e-01   4.7895437e-01  -3.2112371e+05
   2.8302768e-09  -1.3497832e-04   4.8402784e-01   4.7897053e-01  -3.1910501e+05
   2.8329443e-09  -1.3412978e-04   4.8401212e-01   4.7898660e-01  -3.1709900e+05
   2.8356119e-09  -1.3328656e-04   4.8399649e-01   4.7900256e-01  -3.1510560e+05
   2.8382794e-09  -1.3244865e-04   4.8398097e-01   4.7901843e-01  -3.1312473e+05
   2.8409470e-09  -1.3161601e-04   4.8396554e-01   4.7903420e-01  -3.1115631e+05
   2.8436145e-09  -1.3078860e-04   4.8395021e-01   4.7904986e-01  -3.0920027e+05
   2.8462821e-09  -1.2996639e-04   4.8393497e-01   4.7906543e-01  -3.0725652e+05
   2.8489496e-09  -1.2914935e-04   4.8391983e-01   4.7908090e-01  -3.0532499e+05
   2.8516172e-09  -1.2833744e-04   4.8390479e-01   4.7909628e-01  -3.0340560e+05
   2.8542848e-09  -1.2753064e-04   4.8388984e-01   4.7911156e-01  -3.0149827e+05
   2.8569523e-09  -1.2672891e-04   4.8387499e-01   4.7912674e-01  -2.9960294e+05
   2.8596199e-09  -1.2593223e-04   4.8386023e-01   4.7914183e-01  -2.9771952e+05
   2.8622874e-09  -1.2514054e-04   4.8384556e-01   4.7915682e-01  -2.9584794e+05
   2.8649550e-09  -1.2435384e-04   4.8383099e-01   4.7917172e-01  -2.9398812e+05
   2.8676225e-09  -1.2357208e-04   4.8381650e-01   4.7918653e-01  -2.9213999e+05
   2.8702901e-09  -1.2279524e-04   4.8380211e-01   4.7920124e-01  -2.9030349e+05
   2.8729577e-09  -1.2202328e-04   4.8378781e-01   4.7921586e-01  -2.8847852e+05
   2.8756252e-09  -1.2125617e-04   4.8377360e-01   4.7923040e-01  -2.8666503e+05
   2.8782928e-09  -1.2049389e-04   4.8375948e-01   4.7924483e-01  -2.8486294e+05
   2.8809603e-09  -1.1973640e-04   4.8374545e-01   4.7925918e-01  -2.8307217e+05
   2.8836279e-09  -1.1898366e-04   4.8373151e-01   4.7927344e-01  -2.8129267e+05
   2.8862954e-09  -1.1823567e-04   4.8371766e-01   4.7928761e-01  -2.7952435e+05
   2.8889630e-09  -1.1749237e-04   4.8370389e-01   4.7930169e-01  -2.7776714e+05
   2.8916305e-09  -1.1675375e-04   4.8369021e-01   4.7931569e-01  -2.7602098e+05
   2.8942981e-09  -1.1601976e-04   4.8367662e-01   4.7932959e-01  -2.7428580e+05
   2.8969657e-09  -1.1529040e-04   4.8366311e-01   4.7934341e-01  -2.7256152e+05
   2.8996332e-09  -1.1456562e-04   4.8364969e-01   4.7935714e-01  -2.7084809e+05
   2.9023008e-09  -1.1384539e-04   4.8363635e-01   4.7937079e-01  -2.6914542e+05
   2.9049683e-09  -1.1312969e-04   4.8362309e-01   4.7938435e-01  -2.6745346e+05
   2.9076359e-09  -1.1241850e-04   4.8360992e-01   4.7939782e-01  -2.6577213e+05
   2.9103034e-09  -1.1171177e-04   4.8359684e-01   4.7941121e-01  -2.6410138e+05
   2.9129710e-09  -1.1100948e-04   4.8358383e-01   4.7942452e-01  -2.6244112e+05
   2.9156385e-09  -1.1031161e-04   4.8357091e-01   4.7943774e-01  -2.6079130e+05
   2.9183061e-09  -1.0961813e-04   4.8355807e-01   4.7945089e-01  -2.5915186e+05
   2.9209737e-09  -1.0892901e-04   4.8354531e-01   4.7946394e-01  -2.5752271e+05
   2.9236412e-09  -1.0824422e-04   4.8353263e-01   4.7947692e-01  -2.5590381e+05
   2.9263088e-09  -1.0756373e-04   4.8352003e-01   4.7948982e-01  -2.5429509e+05
   2.9289763e-09  -1.0688752e-04   4.8350751e-01   4.7950263e-01  -2.5269648e+05
   2.9316439e-09  -1.0621556e-04   4.8349507e-01   4.7951537e-01  -2.5110792e+05
   2.9343114e-09  -1.0554783e-04   4.8348271e-01   4.7952802e-01  -2.4952934e+05
   2.9369790e-09  -1.0488430e-04   4.8347042e-01   4.7954060e-01  -2.4796069e+05
   2.9396465e-09  -1.0422493e-04   4.8345822e-01   4.7955309e-01  -2.4640189e+05
   2.9423141e-09  -1.0356971e-04   4.8344609e-01   4.7956551e-01  -2.4485290e+05
   2.9449817e-09  -1.0291861e-04   4.8343403e-01   4.7957785e-01  -2.4331364e+05
   2.9476492e-09  -1.0227160e-04   4.8342205e-01   4.7959012e-01  -2.4178406e+05
   2.9503168e-09  -1.0162866e-04   4.8341015e-01   4.7960230e-01  -2.4026410e+05
   2.9529843e-09  -1.0098977e-04   4.8339833e-01   4.7961441e-01  -2.3875369e+05
   2.9556519e-09  -1.0035488e-04   4.8338657e-01   4.7962645e-01  -2.3725277e+05
   2.9583194e-09  -9.9723994e-05   4.8337489e-01   4.7963841e-01  -2.3576129e+05
   2.9609870e-09  -9.9097070e-05   4.8336329e-01   4.7965029e-01  -2.3427919e+05
   2.9636546e-09  -9.8474087e-05   4.8335176e-01   4.7966210e-01  -2.3280640e+05
   2.9663221e-09  -9.7855020e-05   4.8334030e-01   4.7967383e-01  -2.3134287e+05
   2.9689897e-09  -9.7239845e-05   4.8332891e-01   4.7968550e-01  -2.2988854e+05
   2.9716572e-09  -9.6628537e-05   4.8331760e-01   4.7969709e-01  -2.2844335e+05
   2.9743248e-09  -9.6021072e-05   4.8330636e-01   4.7970860e-01  -2.2700725e+05
   2.9769923e-09  -9.5417426e-05   4.8329518e-01   4.7972005e-01  -2.2558017e+05
   2.9796599e-09  -9.4817575e-05   4.8328408e-01   4.7973142e-01  -2.2416207e+05
   2.9823274e-09  -9.4221494e-05   4.8327305e-01   4.7974272e-01  -2.2275288e+05
   2.9849950e-09  -9.3629161e-05   4.8326209e-01   4.7975395e-01  -2.2135255e+05
   2.9876626e-09  -9.3040552e-05   4.8325120e-01   4.7976511e-01  -2.1996102e+05
   2.9903301e-09  -9.2455642e-05   4.8324037e-01   4.7977620e-01  -2.1857824e+05
   2.9929977e-09  -9.1874410e-05   4.8322962e-01   4.7978722e-01  -2.1720415e+05
   2.9956652e-09  -9.1296832e-05   4.8321893e-01   4.7979817e-01  -2.1583870e+05
   2.9983328e-09  -9.0722885e-05   4.8320831e-01   4.7980906e-01  -2.1448183e+05
   3.0010003e-09  -9.0152545e-05   4.8319775e-01   4.7981987e-01  -2.1313349e+05
   3.0036679e-09  -8.9585792e-05   4.8318726e-01   4.7983062e-01  -2.1179363e+05
   3.0063354e-09  -8.9022601e-05   4.8317684e-01   4.7984130e-01  -2.1046219e+05
   3.0090030e-09  -8.8462950e-05   4.8316649e-01   4.7985191e-01  -2.0913912e+05
   3.0116706e-09  -8.7906818e-05   4.8315620e-01   4.7986246e-01  -2.0782437e+05
   3.0143381e-09  -8.7354182e-05   4.8314597e-01   4.7987294e-01  -2.0651788e+05
   3.0170057e-09  -8.6805020e-05   4.8313581e-01   4.7988335e-01  -2.0521960e+05
   3.0196732e-09  -8.6259311e-05   4.8312571e-01   4.7989370e-01  -2.0392949e+05
   3.0223408e-09  -8.5717032e-05   4.8311568e-01   4.7990398e-01  -2.0264749e+05
   3.0250083e-09  -8.5178162e-05   4.8310571e-01   4.7991420e-01  -2.0137354e+05
   3.0276759e-09  -8.4642679e-05   4.8309580e-01   4.7992436e-01  -2.0010761e+05
   3.0303434e-09  -8.4110563e-05   4.8308596e-01   4.7993445e-01  -1.9884963e+05
   3.0330110e-09  -8.3581792e-05   4.8307618e-01   4.7994448e-01  -1.9759956e+05
   3.0356786e-09  -8.3056345e-05   4.8306646e-01   4.7995445e-01  -1.9635735e+05
   3.0383461e-09  -8.2534202e-05   4.8305680e-01   4.7996435e-01  -1.9512294e+05
   3.0410137e-09  -8.2015341e-05   4.8304720e-01   4.7997419e-01  -1.9389630e+05
   3.0436812e-09  -8.1499741e-05   4.8303766e-01   4.7998397e-01  -1.9267737e+05
   3.0463488e-09  -8.0987383e-05   4.8302818e-01   4.7999369e-01  -1.9146610e+05
   3.0490163e-09  -8.0478246e-05   4.8301876e-01   4.8000335e-01  -1.9026244e+05
   3.0516839e-09  -7.9972310e-05   4.8300940e-01   4.8001294e-01  -1.8906635e+05
   3.0543515e-09  -7.9469554e-05   4.8300010e-01   4.8002248e-01  -1.8787778e+05
   3.0570190e-09  -7.8969959e-05   4.8299086e-01   4.8003196e-01  -1.8669669e+05
   3.0596866e-09  -7.8473504e-05   4.8298168e-01   4.8004137e-01  -1.8552301e+05
   3.0623541e-09  -7.7980171e-05   4.8297255e-01   4.8005073e-01  -1.8435672e+05
   3.0650217e-09  -7.7489938e-05   4.8296349e-01   4.8006003e-01  -1.8319775e+05
   3.0676892e-09  -7.7002788e-05   4.8295448e-01   4.8006927e-01  -1.8204608e+05
   3.0703568e-09  -7.6518700e-05   4.8294552e-01   4.8007846e-01  -1.8090164e+05
   3.0730243e-09  -7.6037656e-05   4.8293662e-01   4.8008758e-01  -1.7976439e+05
   3.0756919e-09  -7.5559635e-05   4.8292778e-01   4.8009665e-01  -1.7863430e+05
   3.0783595e-09  -7.5084620e-05   4.8291900e-01   4.8010566e-01  -1.7751131e+05
   3.0810270e-09  -7.4612590e-05   4.8291027e-01   4.8011462e-01  -1.7639538e+05
   3.0836946e-09  -7.4143528e-05   4.8290159e-01   4.8012352e-01  -1.7528646e+05
   3.0863621e-09  -7.3677415e-05   4.8289297e-01   4.8013236e-01  -1.7418451e+05
   3.0890297e-09  -7.3214233e-05   4.8288440e-01   4.8014115e-01  -1.7308950e+05
   3.0916972e-09  -7.2753962e-05   4.8287589e-01   4.8014988e-01  -1.7200136e+05
   3.0943648e-09  -7.2296584e-05   4.8286743e-01   4.8015856e-01  -1.7092007e+05
   3.0970323e-09  -7.1842082e-05   4.8285903e-01   4.8016718e-01  -1.6984557e+05
   3.0996999e-09  -7.1390437e-05   4.8285068e-01   4.8017575e-01  -1.6877783e+05
   3.1023675e-09  -7.0941631e-05   4.8284238e-01   4.8018427e-01  -1.6771680e+05
   3.1050350e-09  -7.0495647e-05   4.8283413e-01   4.8019273e-01  -1.6666244e+05
   3.1077026e-09  -7.0052466e-05   4.8282593e-01   4.8020114e-01  -1.6561471e+05
   3.1103701e-09  -6.9612072e-05   4.8281779e-01   4.8020950e-01  -1.6457356e+05
   3.1130377e-09  -6.9174446e-05   4.8280970e-01   4.8021780e-01  -1.6353896e+05
   3.1157052e-09  -6.8739571e-05   4.8280166e-01   4.8022605e-01  -1.6251086e+05
   3.1183728e-09  -6.8307430e-05   4.8279366e-01   4.8023425e-01  -1.6148923e+05
   3.1210403e-09  -6.7878006e-05   4.8278572e-01   4.8024240e-01  -1.6047402e+05
   3.1237079e-09  -6.7451281e-05   4.8277783e-01   4.8025050e-01  -1.5946519e+05
   3.1263755e-09  -6.7027239e-05   4.8276999e-01   4.8025855e-01  -1.5846270e+05
   3.1290430e-09  -6.6605863e-05   4.8276220e-01   4.8026655e-01  -1.5746652e+05
   3.1317106e-09  -6.6187136e-05   4.8275446e-01   4.8027449e-01  -1.5647659e+05
   3.1343781e-09  -6.5771041e-05   4.8274677e-01   4.8028239e-01  -1.5549289e+05
   3.1370457e-09  -6.5357562e-05   4.8273912e-01   4.8029024e-01  -1.5451538e+05
   3.1397132e-09  -6.4946682e-05   4.8273152e-01   4.8029803e-01  -1.5354400e+05
   3.1423808e-09  -6.4538385e-05   4.8272397e-01   4.8030578e-01  -1.5257874e+05
   3.1450483e-09  -6.4132655e-05   4.8271647e-01   4.8031348e-01  -1.5161954e+05
   3.1477159e-09  -6.3729476e-05   4.8270902e-01   4.8032113e-01  -1.5066638e+05
   3.1503835e-09  -6.3328831e-05   4.8270161e-01   4.8032874e-01  -1.4971920e+05
   3.1530510e-09  -6.2930705e-05   4.8269425e-01   4.8033629e-01  -1.4877798e+05
   3.1557186e-09  -6.2535082e-05   4.8268694e-01   4.8034380e-01  -1.4784268e+05
   3.1583861e-09  -6.2141946e-05   4.8267967e-01   4.8035127e-01  -1.4691325e+05
   3.1610537e-09  -6.1751281e-05   4.8267245e-01   4.8035868e-01  -1.4598967e+05
   3.1637212e-09  -6.1363073e-05   4.8266527e-01   4.8036605e-01  -1.4507190e+05
   3.1663888e-09  -6.0977305e-05   4.8265814e-01   4.8037337e-01  -1.4415989e+05
   3.1690564e-09  -6.0593962e-05   4.8265105e-01   4.8038065e-01  -1.4325362e+05
   3.1717239e-09  -6.0213029e-05   4.8264401e-01   4.8038788e-01  -1.4235304e+05
   3.1743915e-09  -5.9834490e-05   4.8263701e-01   4.8039506e-01  -1.4145813e+05
   3.1770590e-09  -5.9458332e-05   4.8263006e-01   4.8040220e-01  -1.4056884e+05
   3.1797266e-09  -5.9084538e-05   4.8262315e-01   4.8040930e-01  -1.3968514e+05
   3.1823941e-09  -5.8713094e-05   4.8261628e-01   4.8041635e-01  -1.3880700e+05
   3.1850617e-09  -5.8343985e-05   4.8260946e-01   4.8042336e-01  -1.3793438e+05
   3.1877292e-09  -5.7977196e-05   4.8260268e-01   4.8043032e-01  -1.3706724e+05
   3.1903968e-09  -5.7612714e-05   4.8259594e-01   4.8043724e-01  -1.3620555e+05
   3.1930644e-09  -5.7250522e-05   4.8258925e-01   4.8044411e-01  -1.3534928e+05
   3.1957319e-09  -5.6890608e-05   4.8258259e-01   4.8045095e-01  -1.3449840e+05
   3.1983995e-09  -5.6532956e-05   4.8257598e-01   4.8045774e-01  -1.3365286e+05
   3.2010670e-09  -5.6177553e-05   4.8256941e-01   4.8046448e-01  -1.3281264e+05
   3.2037346e-09  -5.5824384e-05   4.8256289e-01   4.8047119e-01  -1.3197770e+05
   3.2064021e-09  -5.5473435e-05   4.8255640e-01   4.8047785e-01  -1.3114801e+05
   3.2090697e-09  -5.5124693e-05   4.8254995e-01   4.8048447e-01  -1.3032354e+05
   3.2117372e-09  -5.4778143e-05   4.8254355e-01   4.8049105e-01  -1.2950424e+05
   3.2144048e-09  -5.4433771e-05   4.8253718e-01   4.8049759e-01  -1.2869010e+05
   3.2170724e-09  -5.4091564e-05   4.8253086e-01   4.8050409e-01  -1.2788108e+05
   3.2197399e-09  -5.3751509e-05   4.8252457e-01   4.8051054e-01  -1.2707714e+05
   3.2224075e-09  -5.3413592e-05   4.8251833e-01   4.8051696e-01  -1.2627826e+05
   3.2250750e-09  -5.3077799e-05   4.8251212e-01   4.8052333e-01  -1.2548440e+05
   3.2277426e-09  -5.2744116e-05   4.8250595e-01   4.8052967e-01  -1.2469553e+05
   3.2304101e-09  -5.2412532e-05   4.8249983e-01   4.8053596e-01  -1.2391161e+05
   3.2330777e-09  -5.2083032e-05   4.8249374e-01   4.8054222e-01  -1.2313263e+05
   3.2357452e-09  -5.1755604e-05   4.8248769e-01   4.8054844e-01  -1.2235854e+05
   3.2384128e-09  -5.1430234e-05   4.8248167e-01   4.8055461e-01  -1.2158932e+05
   3.2410804e-09  -5.1106909e-05   4.8247570e-01   4.8056075e-01  -1.2082494e+05
   3.2437479e-09  -5.0785617e-05   4.8246976e-01   4.8056685e-01  -1.2006536e+05
   3.2464155e-09  -5.0466345e-05   4.8246386e-01   4.8057292e-01  -1.1931056e+05
   3.2490830e-09  -5.0149080e-05   4.8245800e-01   4.8057894e-01  -1.1856050e+05
   3.2517506e-09  -4.9833809e-05   4.8245217e-01   4.8058493e-01  -1.1781515e+05
   3.2544181e-09  -4.9520521e-05   4.8244638e-01   4.8059088e-01  -1.1707449e+05
   3.2570857e-09  -4.9209202e-05   4.8244063e-01   4.8059679e-01  -1.1633849e+05
   3.2597533e-09  -4.8899840e-05   4.8243491e-01   4.8060266e-01  -1.1560712e+05
   3.2624208e-09  -4.8592423e-05   4.8242923e-01   4.8060850e-01  -1.1488034e+05
   3.2650884e-09  -4.8286939e-05   4.8242358e-01   4.8061430e-01  -1.1415813e+05
   3.2677559e-09  -4.7983375e-05   4.8241797e-01   4.8062007e-01  -1.1344046e+05
   3.2704235e-09  -4.7681719e-05   4.8241240e-01   4.8062579e-01  -1.1272730e+05
   3.2730910e-09  -4.7381960e-05   4.8240686e-01   4.8063149e-01  -1.1201863e+05
   3.2757586e-09  -4.7084085e-05   4.8240136e-01   4.8063714e-01  -1.1131441e+05
   3.2784261e-09  -4.6788083e-05   4.8239589e-01   4.8064276e-01  -1.1061462e+05
   3.2810937e-09  -4.6493942e-05   4.8239045e-01   4.8064835e-01  -1.0991923e+05
   3.2837613e-09  -4.6201650e-05   4.8238505e-01   4.8065390e-01  -1.0922820e+05
   3.2864288e-09  -4.5911195e-05   4.8237968e-01   4.8065942e-01  -1.0854153e+05
   3.2890964e-09  -4.5622567e-05   4.8237435e-01   4.8066490e-01  -1.0785917e+05
   3.2917639e-09  -4.5335753e-05   4.8236905e-01   4.8067034e-01  -1.0718110e+05
   3.2944315e-09  -4.5050742e-05   4.8236379e-01   4.8067576e-01  -1.0650729e+05
   3.2970990e-09  -4.4767522e-05   4.8235855e-01   4.8068114e-01  -1.0583772e+05
   3.2997666e-09  -4.4486084e-05   4.8235335e-01   4.8068648e-01  -1.0517235e+05
   3.3024341e-09  -4.4206414e-05   4.8234819e-01   4.8069179e-01  -1.0451117e+05
   3.3051017e-09  -4.3928503e-05   4.8234305e-01   4.8069707e-01  -1.0385415e+05
   3.3077693e-09  -4.3652339e-05   4.8233795e-01   4.8070232e-01  -1.0320126e+05
   3.3104368e-09  -4.3377911e-05   4.8233288e-01   4.8070753e-01  -1.0255247e+05
   3.3131044e-09  -4.3105208e-05   4.8232784e-01   4.8071271e-01  -1.0190776e+05
   3.3157719e-09  -4.2834219e-05   4.8232283e-01   4.8071785e-01  -1.0126710e+05
   3.3184395e-09  -4.2564935e-05   4.8231786e-01   4.8072297e-01  -1.0063047e+05
   3.3211070e-09  -4.2297343e-05   4.8231291e-01   4.8072805e-01  -9.9997845e+04
   3.3237746e-09  -4.2031433e-05   4.8230800e-01   4.8073310e-01  -9.9369195e+04
   3.3264421e-09  -4.1767195e-05   4.8230312e-01   4.8073812e-01  -9.8744496e+04
   3.3291097e-09  -4.1504618e-05   4.8229827e-01   4.8074311e-01  -9.8123725e+04
   3.3317773e-09  -4.1243692e-05   4.8229345e-01   4.8074806e-01  -9.7506856e+04
   3.3344448e-09  -4.0984406e-05   4.8228866e-01   4.8075299e-01  -9.6893866e+04
   3.3371124e-09  -4.0726751e-05   4.8228390e-01   4.8075788e-01  -9.6284728e+04
   3.3397799e-09  -4.0470715e-05   4.8227917e-01   4.8076275e-01  -9.5679421e+04
   3.3424475e-09  -4.0216288e-05   4.8227447e-01   4.8076758e-01  -9.5077918e+04
   3.3451150e-09  -3.9963461e-05   4.8226980e-01   4.8077238e-01  -9.4480197e+04
   3.3477826e-09  -3.9712224e-05   4.8226515e-01   4.8077715e-01  -9.3886233e+04
   3.3504502e-09  -3.9462566e-05   4.8226054e-01   4.8078190e-01  -9.3296004e+04
   3.3531177e-09  -3.9214477e-05   4.8225596e-01   4.8078661e-01  -9.2709484e+04
   3.3557853e-09  -3.8967949e-05   4.8225140e-01   4.8079129e-01  -9.2126652e+04
   3.3584528e-09  -3.8722970e-05   4.8224688e-01   4.8079594e-01  -9.1547484e+04
   3.3611204e-09  -3.8479531e-05   4.8224238e-01   4.8080057e-01  -9.0971957e+04
   3.3637879e-09  -3.8237622e-05   4.8223791e-01   4.8080516e-01  -9.0400048e+04
   3.3664555e-09  -3.7997234e-05   4.8223347e-01   4.8080973e-01  -8.9831735e+04
   3.3691230e-09  -3.7758358e-05   4.8222906e-01   4.8081427e-01  -8.9266994e+04
   3.3717906e-09  -3.7520983e-05   4.8222468e-01   4.8081878e-01  -8.8705803e+04
   3.3744582e-09  -3.7285101e-05   4.8222032e-01   4.8082326e-01  -8.8148140e+04
   3.3771257e-09  -3.7050701e-05   4.8221599e-01   4.8082771e-01  -8.7593983e+04
   3.3797933e-09  -3.6817775e-05   4.8221169e-01   4.8083214e-01  -8.7043310e+04
   3.3824608e-09  -3.6586314e-05   4.8220741e-01   4.8083653e-01  -8.6496099e+04
   3.3851284e-09  -3.6356307e-05   4.8220316e-01   4.8084090e-01  -8.5952328e+04
   3.3877959e-09  -3.6127746e-05   4.8219894e-01   4.8084524e-01  -8.5411975e+04
   3.3904635e-09  -3.5900623e-05   4.8219474e-01   4.8084956e-01  -8.4875019e+04
   3.3931310e-09  -3.5674927e-05   4.8219058e-01   4.8085385e-01  -8.4341438e+04
   3.3957986e-09  -3.5450650e-05   4.8218643e-01   4.8085811e-01  -8.3811212e+04
   3.3984662e-09  -3.5227783e-05   4.8218232e-01   4.8086234e-01  -8.3284320e+04
   3.4011337e-09  -3.5006317e-05   4.8217823e-01   4.8086655e-01  -8.2760739e+04
   3.4038013e-09  -3.4786243e-05   4.8217416e-01   4.8087073e-01  -8.2240451e+04
   3.4064688e-09  -3.4567553e-05   4.8217012e-01   4.8087488e-01  -8.1723433e+04
   3.4091364e-09  -3.4350238e-05   4.8216611e-01   4.8087901e-01  -8.1209665e+04
   3.4118039e-09  -3.4134289e-05   4.8216212e-01   4.8088312e-01  -8.0699127e+04
   3.4144715e-09  -3.3919697e-05   4.8215815e-01   4.8088719e-01  -8.0191799e+04
   3.4171390e-09  -3.3706455e-05   4.8215422e-01   4.8089124e-01  -7.9687660e+04
   3.4198066e-09  -3.3494553e-05   4.8215030e-01   4.8089527e-01  -7.9186690e+04
   3.4224742e-09  -3.3283983e-05   4.8214641e-01   4.8089927e-01  -7.8688870e+04
   3.4251417e-09  -3.3074737e-05   4.8214255e-01   4.8090325e-01  -7.8194179e+04
   3.4278093e-09  -3.2866807e-05   4.8213871e-01   4.8090720e-01  -7.7702598e+04
   3.4304768e-09  -3.2660183e-05   4.8213489e-01   4.8091112e-01  -7.7214107e+04
   3.4331444e-09  -3.2454859e-05   4.8213110e-01   4.8091502e-01  -7.6728688e+04
   3.4358119e-09  -3.2250825e-05   4.8212733e-01   4.8091890e-01  -7.6246320e+04
   3.4384795e-09  -3.2048075e-05   4.8212359e-01   4.8092275e-01  -7.5766984e+04
   3.4411470e-09  -3.1846598e-05   4.8211987e-01   4.8092658e-01  -7.5290662e+04
   3.4438146e-09  -3.1646389e-05   4.8211617e-01   4.8093038e-01  -7.4817335e+04
   3.4464822e-09  -3.1447438e-05   4.8211249e-01   4.8093416e-01  -7.4346982e+04
   3.4491497e-09  -3.1249738e-05   4.8210884e-01   4.8093792e-01  -7.3879587e+04
   3.4518173e-09  -3.1053280e-05   4.8210521e-01   4.8094165e-01  -7.3415130e+04
   3.4544848e-09  -3.0858058e-05   4.8210161e-01   4.8094536e-01  -7.2953593e+04
   3.4571524e-09  -3.0664063e-05   4.8209803e-01   4.8094905e-01  -7.2494958e+04
   3.4598199e-09  -3.0471287e-05   4.8209447e-01   4.8095271e-01  -7.2039206e+04
   3.4624875e-09  -3.0279724e-05   4.8209093e-01   4.8095635e-01  -7.1586318e+04
   3.4651551e-09  -3.0089365e-05   4.8208741e-01   4.8095997e-01  -7.1136278e+04
   3.4678226e-09  -2.9900202e-05   4.8208392e-01   4.8096356e-01  -7.0689068e+04
   3.4704902e-09  -2.9712229e-05   4.8208045e-01   4.8096714e-01  -7.0244668e+04
   3.4731577e-09  -2.9525437e-05   4.8207700e-01   4.8097068e-01  -6.9803062e+04
   3.4758253e-09  -2.9339820e-05   4.8207357e-01   4.8097421e-01  -6.9364233e+04
   3.4784928e-09  -2.9155370e-05   4.8207016e-01   4.8097772e-01  -6.8928162e+04
   3.4811604e-09  -2.8972079e-05   4.8206678e-01   4.8098120e-01  -6.8494833e+04
   3.4838279e-09  -2.8789941e-05   4.8206341e-01   4.8098466e-01  -6.8064228e+04
   3.4864955e-09  -2.8608947e-05   4.8206007e-01   4.8098810e-01  -6.7636330e+04
   3.4891631e-09  -2.8429092e-05   4.8205675e-01   4.8099152e-01  -6.7211122e+04
   3.4918306e-09  -2.8250367e-05   4.8205345e-01   4.8099491e-01  -6.6788587e+04
   3.4944982e-09  -2.8072765e-05   4.8205017e-01   4.8099829e-01  -6.6368708e+04
   3.4971657e-09  -2.7896281e-05   4.8204691e-01   4.8100164e-01  -6.5951469e+04
   3.4998333e-09  -2.7720905e-05   4.8204367e-01   4.8100497e-01  -6.5536853e+04
   3.5025008e-09  -2.7546632e-05   4.8204046e-01   4.8100829e-01  -6.5124843e+04
   3.5051684e-09  -2.7373455e-05   4.8203726e-01   4.8101158e-01  -6.4715424e+04
   3.5078359e-09  -2.7201367e-05   4.8203408e-01   4.8101485e-01  -6.4308578e+04
   3.5105035e-09  -2.7030360e-05   4.8203092e-01   4.8101810e-01  -6.3904291e+04
   3.5131711e-09  -2.6860429e-05   4.8202778e-01   4.8102133e-01  -6.3502544e+04
   3.5158386e-09  -2.6691565e-05   4.8202467e-01   4.8102454e-01  -6.3103324e+04
   3.5185062e-09  -2.6523764e-05   4.8202157e-01   4.8102772e-01  -6.2706613e+04
   3.5211737e-09  -2.6357017e-05   4.8201849e-01   4.8103089e-01  -6.2312396e+04
   3.5238413e-09  -2.6191319e-05   4.8201543e-01   4.8103404e-01  -6.1920657e+04
   3.5265088e-09  -2.6026662e-05   4.8201239e-01   4.8103717e-01  -6.1531381e+04
   3.5291764e-09  -2.5863040e-05   4.8200937e-01   4.8104028e-01  -6.1144553e+04
   3.5318439e-09  -2.5700447e-05   4.8200636e-01   4.8104337e-01  -6.0760156e+04
   3.5345115e-09  -2.5538876e-05   4.8200338e-01   4.8104644e-01  -6.0378176e+04
   3.5371791e-09  -2.5378321e-05   4.8200042e-01   4.8104949e-01  -5.9998597e+04
   3.5398466e-09  -2.5218776e-05   4.8199747e-01   4.8105252e-01  -5.9621404e+04
   3.5425142e-09  -2.5060233e-05   4.8199454e-01   4.8105554e-01  -5.9246583e+04
   3.5451817e-09  -2.4902687e-05   4.8199163e-01   4.8105853e-01  -5.8874118e+04
   3.5478493e-09  -2.4746131e-05   4.8198874e-01   4.8106151e-01  -5.8503994e+04
   3.5505168e-09  -2.4590560e-05   4.8198587e-01   4.8106446e-01  -5.8136197e+04
   3.5531844e-09  -2.4435967e-05   4.8198302e-01   4.8106740e-01  -5.7770713e+04
   3.5558520e-09  -2.4282345e-05   4.8198018e-01   4.8107032e-01  -5.7407526e+04
   3.5585195e-09  -2.4129690e-05   4.8197736e-01   4.8107322e-01  -5.7046623e+04
   3.5611871e-09  -2.3977994e-05   4.8197456e-01   4.8107611e-01  -5.6687988e+04
   3.5638546e-09  -2.3827251e-05   4.8197178e-01   4.8107897e-01  -5.6331608e+04
   3.5665222e-09  -2.3677457e-05   4.8196901e-01   4.8108182e-01  -5.5977468e+04
   3.5691897e-09  -2.3528604e-05   4.8196626e-01   4.8108465e-01  -5.5625555e+04
   3.5718573e-09  -2.3380687e-05   4.8196353e-01   4.8108746e-01  -5.5275854e+04
   3.5745248e-09  -2.3233699e-05   4.8196082e-01   4.8109025e-01  -5.4928351e+04
   3.5771924e-09  -2.3087636e-05   4.8195812e-01   4.8109303e-01  -5.4583033e+04
   3.5798600e-09  -2.2942491e-05   4.8195544e-01   4.8109579e-01  -5.4239886e+04
   3.5825275e-09  -2.2798259e-05   4.8195278e-01   4.8109853e-01  -5.3898897e+04
   3.5851951e-09  -2.2654933e-05   4.8195013e-01   4.8110125e-01  -5.3560050e+04
   3.5878626e-09  -2.2512509e-05   4.8194750e-01   4.8110396e-01  -5.3223335e+04
   3.5905302e-09  -2.2370979e-05   4.8194489e-01   4.8110665e-01  -5.2888735e+04
   3.5931977e-09  -2.2230340e-05   4.8194229e-01   4.8110932e-01  -5.2556240e+04
   3.5958653e-09  -2.2090584e-05   4.8193971e-01   4.8111198e-01  -5.2225835e+04
   3.5985328e-09  -2.1951708e-05   4.8193715e-01   4.8111462e-01  -5.1897506e+04
   3.6012004e-09  -2.1813704e-05   4.8193460e-01   4.8111724e-01  -5.1571242e+04
   3.6038680e-09  -2.1676568e-05   4.8193207e-01   4.8111985e-01  -5.1247029e+04
   3.6065355e-09  -2.1540294e-05   4.8192955e-01   4.8112244e-01  -5.0924854e+04
   3.6092031e-09  -2.1404877e-05   4.8192705e-01   4.8112501e-01  -5.0604705e+04
   3.6118706e-09  -2.1270311e-05   4.8192457e-01   4.8112757e-01  -5.0286568e+04
   3.6145382e-09  -2.1136591e-05   4.8192210e-01   4.8113011e-01  -4.9970432e+04
   3.6172057e-09  -2.1003711e-05   4.8191964e-01   4.8113263e-01  -4.9656282e+04
   3.6198733e-09  -2.0871667e-05   4.8191721e-01   4.8113514e-01  -4.9344108e+04
   3.6225408e-09  -2.0740454e-05   4.8191478e-01   4.8113764e-01  -4.9033896e+04
   3.6252084e-09  -2.0610065e-05   4.8191238e-01   4.8114012e-01  -4.8725635e+04
   3.6278760e-09  -2.0480496e-05   4.8190998e-01   4.8114258e-01  -4.8419311e+04
   3.6305435e-09  -2.0351741e-05   4.8190761e-01   4.8114503e-01  -4.8114913e+04
   3.6332111e-09  -2.0223796e-05   4.8190525e-01   4.8114746e-01  -4.7812429e+04
   3.6358786e-09  -2.0096655e-05   4.8190290e-01   4.8114988e-01  -4.7511846e+04
   3.6385462e-09  -1.9970313e-05   4.8190057e-01   4.8115228e-01  -4.7213153e+04
   3.6412137e-09  -1.9844766e-05   4.8189825e-01   4.8115466e-01  -4.6916338e+04
   3.6438813e-09  -1.9720008e-05   4.8189594e-01   4.8115704e-01  -4.6621389e+04
   3.6465488e-09  -1.9596034e-05   4.8189366e-01   4.8115939e-01  -4.6328294e+04
   3.6492164e-09  -1.9472840e-05   4.8189138e-01   4.8116173e-01  -4.6037041e+04
   3.6518840e-09  -1.9350420e-05   4.8188912e-01   4.8116406e-01  -4.5747620e+04
   3.6545515e-09  -1.9228770e-05   4.8188688e-01   4.8116637e-01  -4.5460018e+04
   3.6572191e-09  -1.9107885e-05   4.8188464e-01   4.8116867e-01  -4.5174224e+04
   3.6598866e-09  -1.8987759e-05   4.8188243e-01   4.8117095e-01  -4.4890227e+04
   3.6625542e-09  -1.8868389e-05   4.8188022e-01   4.8117322e-01  -4.4608015e+04
   3.6652217e-09  -1.8749769e-05   4.8187803e-01   4.8117548e-01  -4.4327578e+04
   3.6678893e-09  -1.8631895e-05   4.8187586e-01   4.8117772e-01  -4.4048903e+04
   3.6705569e-09  -1.8514762e-05   4.8187369e-01   4.8117994e-01  -4.3771981e+04
   3.6732244e-09  -1.8398365e-05   4.8187155e-01   4.8118216e-01  -4.3496799e+04
   3.6758920e-09  -1.8282700e-05   4.8186941e-01   4.8118436e-01  -4.3223347e+04
   3.6785595e-09  -1.8167763e-05   4.8186729e-01   4.8118654e-01  -4.2951614e+04
   3.6812271e-09  -1.8053547e-05   4.8186518e-01   4.8118871e-01  -4.2681590e+04
   3.6838946e-09  -1.7940050e-05   4.8186308e-01   4.8119087e-01  -4.2413263e+04
   3.6865622e-09  -1.7827267e-05   4.8186100e-01   4.8119301e-01  -4.2146623e+04
   3.6892297e-09  -1.7715192e-05   4.8185893e-01   4.8119514e-01  -4.1881660e+04
   3.6918973e-09  -1.7603822e-05   4.8185688e-01   4.8119726e-01  -4.1618362e+04
   3.6945649e-09  -1.7493152e-05   4.8185483e-01   4.8119936e-01  -4.1356719e+04
   3.6972324e-09  -1.7383178e-05   4.8185280e-01   4.8120146e-01  -4.1096721e+04
   3.6999000e-09  -1.7273895e-05   4.8185079e-01   4.8120353e-01  -4.0838358e+04
   3.7025675e-09  -1.7165300e-05   4.8184878e-01   4.8120560e-01  -4.0581619e+04
   3.7052351e-09  -1.7057387e-05   4.8184679e-01   4.8120765e-01  -4.0326494e+04
   3.7079026e-09  -1.6950152e-05   4.8184481e-01   4.8120969e-01  -4.0072973e+04
   3.7105702e-09  -1.6843592e-05   4.8184284e-01   4.8121171e-01  -3.9821046e+04
   3.7132377e-09  -1.6737701e-05   4.8184089e-01   4.8121373e-01  -3.9570702e+04
   3.7159053e-09  -1.6632476e-05   4.8183895e-01   4.8121573e-01  -3.9321933e+04
   3.7185729e-09  -1.6527913e-05   4.8183702e-01   4.8121771e-01  -3.9074727e+04
   3.7212404e-09  -1.6424007e-05   4.8183510e-01   4.8121969e-01  -3.8829075e+04
   3.7239080e-09  -1.6320754e-05   4.8183319e-01   4.8122165e-01  -3.8584968e+04
   3.7265755e-09  -1.6218151e-05   4.8183130e-01   4.8122360e-01  -3.8342396e+04
   3.7292431e-09  -1.6116192e-05   4.8182942e-01   4.8122554e-01  -3.8101348e+04
   3.7319106e-09  -1.6014874e-05   4.8182755e-01   4.8122747e-01  -3.7861816e+04
   3.7345782e-09  -1.5914194e-05   4.8182569e-01   4.8122938e-01  -3.7623789e+04
   3.7372457e-09  -1.5814146e-05   4.8182384e-01   4.8123128e-01  -3.7387259e+04
   3.7399133e-09  -1.5714727e-05   4.8182201e-01   4.8123317e-01  -3.7152216e+04
   3.7425809e-09  -1.5615934e-05   4.8182018e-01   4.8123505e-01  -3.6918651e+04
   3.7452484e-09  -1.5517761e-05   4.8181837e-01   4.8123692e-01  -3.6686554e+04
   3.7479160e-09  -1.5420206e-05   4.8181657e-01   4.8123877e-01  -3.6455916e+04
   3.7505835e-09  -1.5323264e-05   4.8181478e-01   4.8124061e-01  -3.6226728e+04
   3.7532511e-09  -1.5226931e-05   4.8181300e-01   4.8124245e-01  -3.5998981e+04
   3.7559186e-09  -1.5131204e-05   4.8181123e-01   4.8124427e-01  -3.5772665e+04
   3.7585862e-09  -1.5036079e-05   4.8180948e-01   4.8124607e-01  -3.5547773e+04
   3.7612538e-09  -1.4941551e-05   4.8180773e-01   4.8124787e-01  -3.5324294e+04
   3.7639213e-09  -1.4847618e-05   4.8180600e-01   4.8124966e-01  -3.5102220e+04
   3.7665889e-09  -1.4754276e-05   4.8180428e-01   4.8125143e-01  -3.4881542e+04
   3.7692564e-09  -1.4661520e-05   4.8180256e-01   4.8125320e-01  -3.4662252e+04
   3.7719240e-09  -1.4569348e-05   4.8180086e-01   4.8125495e-01  -3.4444340e+04
   3.7745915e-09  -1.4477755e-05   4.8179917e-01   4.8125669e-01  -3.4227798e+04
   3.7772591e-09  -1.4386738e-05   4.8179749e-01   4.8125842e-01  -3.4012618e+04
   3.7799266e-09  -1.4296293e-05   4.8179582e-01   4.8126014e-01  -3.3798790e+04
   3.7825942e-09  -1.4206416e-05   4.8179416e-01   4.8126185e-01  -3.3586307e+04
   3.7852618e-09  -1.4117105e-05   4.8179252e-01   4.8126355e-01  -3.3375159e+04
   3.7879293e-09  -1.4028355e-05   4.8179088e-01   4.8126523e-01  -3.3165339e+04
   3.7905969e-09  -1.3940163e-05   4.8178925e-01   4.8126691e-01  -3.2956838e+04
   3.7932644e-09  -1.3852525e-05   4.8178763e-01   4.8126858e-01  -3.2749647e+04
   3.7959320e-09  -1.3765439e-05   4.8178602e-01   4.8127023e-01  -3.2543760e+04
   3.7985995e-09  -1.3678900e-05   4.8178443e-01   4.8127188e-01  -3.2339166e+04
   3.8012671e-09  -1.3592905e-05   4.8178284e-01   4.8127351e-01  -3.2135859e+04
   3.8039346e-09  -1.3507450e-05   4.8178126e-01   4.8127514e-01  -3.1933830e+04
   3.8066022e-09  -1.3422533e-05   4.8177970e-01   4.8127675e-01  -3.1733071e+04
   3.8092698e-09  -1.3338150e-05   4.8177814e-01   4.8127835e-01  -3.1533574e+04
   3.8119373e-09  -1.3254297e-05   4.8177659e-01   4.8127995e-01  -3.1335331e+04
   3.8146049e-09  -1.3170971e-05   4.8177505e-01   4.8128153e-01  -3.1138335e+04
   3.8172724e-09  -1.3088169e-05   4.8177352e-01   4.8128311e-01  -3.0942577e+04
   3.8199400e-09  -1.3005888e-05   4.8177200e-01   4.8128467e-01  -3.0748050e+04
   3.8226075e-09  -1.2924124e-05   4.8177050e-01   4.8128623e-01  -3.0554745e+04
   3.8252751e-09  -1.2842874e-05   4.8176900e-01   4.8128777e-01  -3.0362656e+04
   3.8279426e-09  -1.2762135e-05   4.8176751e-01   4.8128931e-01  -3.0171775e+04
   3.8306102e-09  -1.2681903e-05   4.8176602e-01   4.8129083e-01  -2.9982093e+04
   3.8332778e-09  -1.2602176e-05   4.8176455e-01   4.8129235e-01  -2.9793604e+04
   3.8359453e-09  -1.2522950e-05   4.8176309e-01   4.8129385e-01  -2.9606300e+04
   3.8386129e-09  -1.2444222e-05   4.8176164e-01   4.8129535e-01  -2.9420174e+04
   3.8412804e-09  -1.2365989e-05   4.8176019e-01   4.8129684e-01  -2.9235217e+04
   3.8439480e-09  -1.2288248e-05   4.8175876e-01   4.8129832e-01  -2.9051424e+04
   3.8466155e-09  -1.2210995e-05   4.8175733e-01   4.8129978e-01  -2.8868786e+04
   3.8492831e-09  -1.2134229e-05   4.8175592e-01   4.8130124e-01  -2.8687296e+04
   3.8519507e-09  -1.2057944e-05   4.8175451e-01   4.8130269e-01  -2.8506947e+04
   3.8546182e-09  -1.1982140e-05   4.8175311e-01   4.8130414e-01  -2.8327731e+04
   3.8572858e-09  -1.1906812e-05   4.8175172e-01   4.8130557e-01  -2.8149643e+04
   3.8599533e-09  -1.1831957e-05   4.8175034e-01   4.8130699e-01  -2.7972674e+04
   3.8626209e-09  -1.1757574e-05   4.8174896e-01   4.8130841e-01  -2.7796818e+04
   3.8652884e-09  -1.1683657e-05   4.8174760e-01   4.8130981e-01  -2.7622067e+04
   3.8679560e-09  -1.1610206e-05   4.8174624e-01   4.8131121e-01  -2.7448415e+04
   3.8706235e-09  -1.1537216e-05   4.8174490e-01   4.8131260e-01  -2.7275854e+04
   3.8732911e-09  -1.1464685e-05   4.8174356e-01   4.8131397e-01  -2.7104378e+04
   3.8759587e-09  -1.1392610e-05   4.8174223e-01   4.8131534e-01  -2.6933981e+04
   3.8786262e-09  -1.1320988e-05   4.8174091e-01   4.8131671e-01  -2.6764654e+04
   3.8812938e-09  -1.1249817e-05   4.8173959e-01   4.8131806e-01  -2.6596393e+04
   3.8839613e-09  -1.1179093e-05   4.8173829e-01   4.8131940e-01  -2.6429188e+04
   3.8866289e-09  -1.1108813e-05   4.8173699e-01   4.8132074e-01  -2.6263036e+04
   3.8892964e-09  -1.1038976e-05   4.8173570e-01   4.8132207e-01  -2.6097927e+04
   3.8919640e-09  -1.0969577e-05   4.8173442e-01   4.8132339e-01  -2.5933857e+04
   3.8946315e-09  -1.0900615e-05   4.8173315e-01   4.8132470e-01  -2.5770818e+04
   3.8972991e-09  -1.0832086e-05   4.8173188e-01   4.8132600e-01  -2.5608804e+04
   3.8999667e-09  -1.0763988e-05   4.8173063e-01   4.8132730e-01  -2.5447809e+04
