   0.0000000e+00  -1.5990712e-01   6.2190950e+00   2.4531119e-05  -5.1775522e+08
   2.6675559e-12  -1.5853121e-01   6.2097674e+00   2.7262384e-05  -5.1394808e+08
   5.3351117e-12  -1.5716547e-01   6.2000314e+00   3.0271734e-05  -5.1013872e+08
   8.0026676e-12  -1.5580989e-01   6.1898750e+00   3.3584323e-05  -5.0632724e+08
   1.0670223e-11  -1.5446449e-01   6.1792864e+00   3.7227216e-05  -5.0251377e+08
   1.3337779e-11  -1.5312926e-01   6.1682539e+00   4.1229498e-05  -4.9869848e+08
   1.6005335e-11  -1.5180422e-01   6.1567658e+00   4.5622376e-05  -4.9488151e+08
   1.8672891e-11  -1.5048936e-01   6.1448108e+00   5.0439292e-05  -4.9106305e+08
   2.1340447e-11  -1.4918469e-01   6.1323776e+00   5.5716031e-05  -4.8724330e+08
   2.4008003e-11  -1.4789022e-01   6.1194550e+00   6.1490833e-05  -4.8342245e+08
   2.6675559e-11  -1.4660594e-01   6.1060323e+00   6.7804497e-05  -4.7960075e+08
   2.9343114e-11  -1.4533186e-01   6.0920991e+00   7.4700498e-05  -4.7577844e+08
   3.2010670e-11  -1.4406798e-01   6.0776451e+00   8.2225086e-05  -4.7195579e+08
   3.4678226e-11  -1.4281429e-01   6.0626605e+00   9.0427397e-05  -4.6813308e+08
   3.7345782e-11  -1.4157081e-01   6.0471360e+00   9.9359551e-05  -4.6431062e+08
   4.0013338e-11  -1.4033753e-01   6.0310627e+00   1.0907675e-04  -4.6048874e+08
   4.2680894e-11  -1.3911444e-01   6.0144321e+00   1.1963737e-04  -4.5666777e+08
   4.5348449e-11  -1.3790154e-01   5.9972363e+00   1.3110307e-04  -4.5284809e+08
   4.8016005e-11  -1.3669883e-01   5.9794681e+00   1.4353881e-04  -4.4903007e+08
   5.0683561e-11  -1.3550631e-01   5.9611207e+00   1.5701302e-04  -4.4521412e+08
   5.3351117e-11  -1.3432396e-01   5.9421880e+00   1.7159757e-04  -4.4140066e+08
   5.6018673e-11  -1.3315179e-01   5.9226647e+00   1.8736791e-04  -4.3759015e+08
   5.8686229e-11  -1.3198977e-01   5.9025461e+00   2.0440304e-04  -4.3378304e+08
   6.1353785e-11  -1.3083791e-01   5.8818283e+00   2.2278560e-04  -4.2997983e+08
   6.4021340e-11  -1.2969619e-01   5.8605082e+00   2.4260189e-04  -4.2618100e+08
   6.6688896e-11  -1.2856460e-01   5.8385835e+00   2.6394185e-04  -4.2238710e+08
   6.9356452e-11  -1.2744312e-01   5.8160526e+00   2.8689906e-04  -4.1859865e+08
   7.2024008e-11  -1.2633173e-01   5.7929150e+00   3.1157079e-04  -4.1481622e+08
   7.4691564e-11  -1.2523044e-01   5.7691710e+00   3.3805786e-04  -4.1104039e+08
   7.7359120e-11  -1.2413920e-01   5.7448217e+00   3.6646471e-04  -4.0727175e+08
   8.0026676e-11  -1.2305801e-01   5.7198692e+00   3.9689925e-04  -4.0351090e+08
   8.2694231e-11  -1.2198683e-01   5.6943165e+00   4.2947282e-04  -3.9975848e+08
   8.5361787e-11  -1.2092566e-01   5.6681676e+00   4.6430012e-04  -3.9601512e+08
   8.8029343e-11  -1.1987446e-01   5.6414275e+00   5.0149907e-04  -3.9228148e+08
   9.0696899e-11  -1.1883320e-01   5.6141019e+00   5.4119067e-04  -3.8855821e+08
   9.3364455e-11  -1.1780187e-01   5.5861977e+00   5.8349892e-04  -3.8484599e+08
   9.6032011e-11  -1.1678041e-01   5.5577225e+00   6.2855060e-04  -3.8114551e+08
   9.8699567e-11  -1.1576882e-01   5.5286851e+00   6.7647516e-04  -3.7745746e+08
   1.0136712e-10  -1.1476704e-01   5.4990949e+00   7.2740447e-04  -3.7378253e+08
   1.0403468e-10  -1.1377505e-01   5.4689625e+00   7.8147268e-04  -3.7012143e+08
   1.0670223e-10  -1.1279280e-01   5.4382992e+00   8.3881597e-04  -3.6647487e+08
   1.0936979e-10  -1.1182026e-01   5.4071171e+00   8.9957234e-04  -3.6284356e+08
   1.1203735e-10  -1.1085738e-01   5.3754292e+00   9.6388137e-04  -3.5922821e+08
   1.1470490e-10  -1.0990412e-01   5.3432493e+00   1.0318840e-03  -3.5562953e+08
   1.1737246e-10  -1.0896044e-01   5.3105920e+00   1.1037222e-03  -3.5204823e+08
   1.2004001e-10  -1.0802629e-01   5.2774724e+00   1.1795388e-03  -3.4848502e+08
   1.2270757e-10  -1.0710161e-01   5.2439065e+00   1.2594771e-03  -3.4494059e+08
   1.2537513e-10  -1.0618637e-01   5.2099108e+00   1.3436808e-03  -3.4141565e+08
   1.2804268e-10  -1.0528049e-01   5.1755025e+00   1.4322936e-03  -3.3791087e+08
   1.3071024e-10  -1.0438394e-01   5.1406992e+00   1.5254587e-03  -3.3442693e+08
   1.3337779e-10  -1.0349665e-01   5.1055191e+00   1.6233189e-03  -3.3096450e+08
   1.3604535e-10  -1.0261856e-01   5.0699807e+00   1.7260163e-03  -3.2752422e+08
   1.3871290e-10  -1.0174962e-01   5.0341032e+00   1.8336915e-03  -3.2410674e+08
   1.4138046e-10  -1.0088976e-01   4.9979057e+00   1.9464840e-03  -3.2071267e+08
   1.4404802e-10  -1.0003893e-01   4.9614079e+00   2.0645316e-03  -3.1734262e+08
   1.4671557e-10  -9.9197042e-02   4.9246298e+00   2.1879701e-03  -3.1399719e+08
   1.4938313e-10  -9.8364047e-02   4.8875911e+00   2.3169330e-03  -3.1067692e+08
   1.5205068e-10  -9.7539871e-02   4.8503123e+00   2.4515517e-03  -3.0738239e+08
   1.5471824e-10  -9.6724447e-02   4.8128135e+00   2.5919546e-03  -3.0411410e+08
   1.5738580e-10  -9.5917702e-02   4.7751149e+00   2.7382674e-03  -3.0087256e+08
   1.6005335e-10  -9.5119566e-02   4.7372369e+00   2.8906126e-03  -2.9765827e+08
   1.6272091e-10  -9.4329964e-02   4.6991996e+00   3.0491095e-03  -2.9447167e+08
   1.6538846e-10  -9.3548823e-02   4.6610232e+00   3.2138737e-03  -2.9131319e+08
   1.6805602e-10  -9.2776066e-02   4.6227275e+00   3.3850174e-03  -2.8818325e+08
   1.7072357e-10  -9.2011618e-02   4.5843323e+00   3.5626487e-03  -2.8508223e+08
   1.7339113e-10  -9.1255399e-02   4.5458571e+00   3.7468719e-03  -2.8201049e+08
   1.7605869e-10  -9.0507333e-02   4.5073212e+00   3.9377872e-03  -2.7896835e+08
   1.7872624e-10  -8.9767338e-02   4.4687434e+00   4.1354905e-03  -2.7595613e+08
   1.8139380e-10  -8.9035336e-02   4.4301423e+00   4.3400733e-03  -2.7297409e+08
   1.8406135e-10  -8.8311246e-02   4.3915362e+00   4.5516228e-03  -2.7002250e+08
   1.8672891e-10  -8.7594985e-02   4.3529429e+00   4.7702218e-03  -2.6710157e+08
   1.8939647e-10  -8.6886471e-02   4.3143797e+00   4.9959485e-03  -2.6421151e+08
   1.9206402e-10  -8.6185623e-02   4.2758636e+00   5.2288763e-03  -2.6135249e+08
   1.9473158e-10  -8.5492357e-02   4.2374111e+00   5.4690743e-03  -2.5852465e+08
   1.9739913e-10  -8.4806590e-02   4.1990381e+00   5.7166068e-03  -2.5572812e+08
   2.0006669e-10  -8.4128238e-02   4.1607602e+00   5.9715336e-03  -2.5296299e+08
   2.0273424e-10  -8.3457218e-02   4.1225923e+00   6.2339097e-03  -2.5022934e+08
   2.0540180e-10  -8.2793444e-02   4.0845489e+00   6.5037856e-03  -2.4752721e+08
   2.0806936e-10  -8.2136834e-02   4.0466438e+00   6.7812073e-03  -2.4485663e+08
   2.1073691e-10  -8.1487303e-02   4.0088905e+00   7.0662162e-03  -2.4221759e+08
   2.1340447e-10  -8.0844767e-02   3.9713017e+00   7.3588493e-03  -2.3961008e+08
   2.1607202e-10  -8.0209143e-02   3.9338897e+00   7.6591390e-03  -2.3703405e+08
   2.1873958e-10  -7.9580345e-02   3.8966663e+00   7.9671135e-03  -2.3448944e+08
   2.2140714e-10  -7.8958290e-02   3.8596425e+00   8.2827967e-03  -2.3197616e+08
   2.2407469e-10  -7.8342896e-02   3.8228291e+00   8.6062085e-03  -2.2949412e+08
   2.2674225e-10  -7.7734079e-02   3.7862362e+00   8.9373643e-03  -2.2704318e+08
   2.2940980e-10  -7.7131755e-02   3.7498731e+00   9.2762759e-03  -2.2462322e+08
   2.3207736e-10  -7.6535844e-02   3.7137490e+00   9.6229510e-03  -2.2223407e+08
   2.3474491e-10  -7.5946262e-02   3.6778724e+00   9.9773934e-03  -2.1987556e+08
   2.3741247e-10  -7.5362929e-02   3.6422511e+00   1.0339604e-02  -2.1754750e+08
   2.4008003e-10  -7.4785763e-02   3.6068927e+00   1.0709578e-02  -2.1524969e+08
   2.4274758e-10  -7.4214684e-02   3.5718040e+00   1.1087310e-02  -2.1298192e+08
   2.4541514e-10  -7.3649613e-02   3.5369917e+00   1.1472789e-02  -2.1074396e+08
   2.4808269e-10  -7.3090470e-02   3.5024617e+00   1.1866002e-02  -2.0853556e+08
   2.5075025e-10  -7.2537177e-02   3.4682194e+00   1.2266932e-02  -2.0635648e+08
   2.5341781e-10  -7.1989655e-02   3.4342701e+00   1.2675560e-02  -2.0420645e+08
   2.5608536e-10  -7.1447828e-02   3.4006184e+00   1.3091863e-02  -2.0208520e+08
   2.5875292e-10  -7.0911620e-02   3.3672684e+00   1.3515817e-02  -1.9999245e+08
   2.6142047e-10  -7.0380955e-02   3.3342241e+00   1.3947392e-02  -1.9792791e+08
   2.6408803e-10  -6.9855757e-02   3.3014888e+00   1.4386559e-02  -1.9589129e+08
   2.6675559e-10  -6.9335954e-02   3.2690657e+00   1.4833285e-02  -1.9388228e+08
   2.6942314e-10  -6.8821471e-02   3.2369574e+00   1.5287534e-02  -1.9190057e+08
   2.7209070e-10  -6.8312237e-02   3.2051661e+00   1.5749269e-02  -1.8994585e+08
   2.7475825e-10  -6.7808180e-02   3.1736941e+00   1.6218451e-02  -1.8801780e+08
   2.7742581e-10  -6.7309229e-02   3.1425428e+00   1.6695037e-02  -1.8611611e+08
   2.8009336e-10  -6.6815315e-02   3.1117137e+00   1.7178985e-02  -1.8424043e+08
   2.8276092e-10  -6.6326368e-02   3.0812078e+00   1.7670249e-02  -1.8239044e+08
   2.8542848e-10  -6.5842320e-02   3.0510259e+00   1.8168782e-02  -1.8056581e+08
   2.8809603e-10  -6.5363105e-02   3.0211685e+00   1.8674535e-02  -1.7876621e+08
   2.9076359e-10  -6.4888656e-02   2.9916360e+00   1.9187458e-02  -1.7699130e+08
   2.9343114e-10  -6.4418907e-02   2.9624282e+00   1.9707500e-02  -1.7524074e+08
   2.9609870e-10  -6.3953795e-02   2.9335450e+00   2.0234608e-02  -1.7351419e+08
   2.9876626e-10  -6.3493255e-02   2.9049860e+00   2.0768726e-02  -1.7181132e+08
   3.0143381e-10  -6.3037225e-02   2.8767505e+00   2.1309801e-02  -1.7013179e+08
   3.0410137e-10  -6.2585644e-02   2.8488376e+00   2.1857775e-02  -1.6847526e+08
   3.0676892e-10  -6.2138450e-02   2.8212464e+00   2.2412591e-02  -1.6684140e+08
   3.0943648e-10  -6.1695583e-02   2.7939757e+00   2.2974190e-02  -1.6522987e+08
   3.1210403e-10  -6.1256984e-02   2.7670240e+00   2.3542513e-02  -1.6364033e+08
   3.1477159e-10  -6.0822595e-02   2.7403899e+00   2.4117499e-02  -1.6207247e+08
   3.1743915e-10  -6.0392360e-02   2.7140717e+00   2.4699088e-02  -1.6052593e+08
   3.2010670e-10  -5.9966220e-02   2.6880676e+00   2.5287217e-02  -1.5900041e+08
   3.2277426e-10  -5.9544121e-02   2.6623758e+00   2.5881825e-02  -1.5749556e+08
   3.2544181e-10  -5.9126008e-02   2.6369941e+00   2.6482848e-02  -1.5601108e+08
   3.2810937e-10  -5.8711827e-02   2.6119204e+00   2.7090223e-02  -1.5454663e+08
   3.3077693e-10  -5.8301526e-02   2.5871525e+00   2.7703885e-02  -1.5310191e+08
   3.3344448e-10  -5.7895051e-02   2.5626881e+00   2.8323771e-02  -1.5167660e+08
   3.3611204e-10  -5.7492352e-02   2.5385247e+00   2.8949816e-02  -1.5027038e+08
   3.3877959e-10  -5.7093378e-02   2.5146598e+00   2.9581953e-02  -1.4888296e+08
   3.4144715e-10  -5.6698080e-02   2.4910909e+00   3.0220118e-02  -1.4751402e+08
   3.4411470e-10  -5.6306408e-02   2.4678153e+00   3.0864245e-02  -1.4616327e+08
   3.4678226e-10  -5.5918315e-02   2.4448304e+00   3.1514268e-02  -1.4483041e+08
   3.4944982e-10  -5.5533753e-02   2.4221333e+00   3.2170121e-02  -1.4351515e+08
   3.5211737e-10  -5.5152675e-02   2.3997213e+00   3.2831736e-02  -1.4221720e+08
   3.5478493e-10  -5.4775037e-02   2.3775916e+00   3.3499049e-02  -1.4093628e+08
   3.5745248e-10  -5.4400792e-02   2.3557412e+00   3.4171991e-02  -1.3967209e+08
   3.6012004e-10  -5.4029896e-02   2.3341673e+00   3.4850497e-02  -1.3842438e+08
   3.6278760e-10  -5.3662307e-02   2.3128670e+00   3.5534499e-02  -1.3719286e+08
   3.6545515e-10  -5.3297981e-02   2.2918371e+00   3.6223931e-02  -1.3597727e+08
   3.6812271e-10  -5.2936876e-02   2.2710749e+00   3.6918727e-02  -1.3477733e+08
   3.7079026e-10  -5.2578951e-02   2.2505773e+00   3.7618818e-02  -1.3359280e+08
   3.7345782e-10  -5.2224165e-02   2.2303412e+00   3.8324140e-02  -1.3242341e+08
   3.7612538e-10  -5.1872478e-02   2.2103637e+00   3.9034624e-02  -1.3126892e+08
   3.7879293e-10  -5.1523850e-02   2.1906417e+00   3.9750205e-02  -1.3012906e+08
   3.8146049e-10  -5.1178243e-02   2.1711722e+00   4.0470816e-02  -1.2900361e+08
   3.8412804e-10  -5.0835619e-02   2.1519521e+00   4.1196391e-02  -1.2789231e+08
   3.8679560e-10  -5.0495940e-02   2.1329785e+00   4.1926864e-02  -1.2679493e+08
   3.8946315e-10  -5.0159170e-02   2.1142482e+00   4.2662169e-02  -1.2571125e+08
   3.9213071e-10  -4.9825272e-02   2.0957584e+00   4.3402239e-02  -1.2464102e+08
   3.9479827e-10  -4.9494211e-02   2.0775059e+00   4.4147010e-02  -1.2358404e+08
   3.9746582e-10  -4.9165951e-02   2.0594878e+00   4.4896416e-02  -1.2254007e+08
   4.0013338e-10  -4.8840459e-02   2.0417010e+00   4.5650391e-02  -1.2150890e+08
   4.0280093e-10  -4.8517701e-02   2.0241427e+00   4.6408871e-02  -1.2049031e+08
   4.0546849e-10  -4.8197642e-02   2.0068098e+00   4.7171791e-02  -1.1948411e+08
   4.0813605e-10  -4.7880251e-02   1.9896994e+00   4.7939086e-02  -1.1849008e+08
   4.1080360e-10  -4.7565495e-02   1.9728086e+00   4.8710692e-02  -1.1750802e+08
   4.1347116e-10  -4.7253343e-02   1.9561345e+00   4.9486545e-02  -1.1653773e+08
   4.1613871e-10  -4.6943764e-02   1.9396741e+00   5.0266582e-02  -1.1557903e+08
   4.1880627e-10  -4.6636726e-02   1.9234248e+00   5.1050738e-02  -1.1463171e+08
   4.2147382e-10  -4.6332200e-02   1.9073835e+00   5.1838951e-02  -1.1369559e+08
   4.2414138e-10  -4.6030156e-02   1.8915475e+00   5.2631157e-02  -1.1277049e+08
   4.2680894e-10  -4.5730565e-02   1.8759140e+00   5.3427295e-02  -1.1185623e+08
   4.2947649e-10  -4.5433398e-02   1.8604803e+00   5.4227301e-02  -1.1095264e+08
   4.3214405e-10  -4.5138627e-02   1.8452436e+00   5.5031113e-02  -1.1005952e+08
   4.3481160e-10  -4.4846225e-02   1.8302012e+00   5.5838671e-02  -1.0917673e+08
   4.3747916e-10  -4.4556164e-02   1.8153505e+00   5.6649912e-02  -1.0830408e+08
   4.4014672e-10  -4.4268417e-02   1.8006887e+00   5.7464775e-02  -1.0744143e+08
   4.4281427e-10  -4.3982957e-02   1.7862133e+00   5.8283200e-02  -1.0658859e+08
   4.4548183e-10  -4.3699760e-02   1.7719216e+00   5.9105126e-02  -1.0574542e+08
   4.4814938e-10  -4.3418799e-02   1.7578112e+00   5.9930493e-02  -1.0491177e+08
   4.5081694e-10  -4.3140049e-02   1.7438794e+00   6.0759241e-02  -1.0408747e+08
   4.5348449e-10  -4.2863485e-02   1.7301238e+00   6.1591311e-02  -1.0327239e+08
   4.5615205e-10  -4.2589083e-02   1.7165418e+00   6.2426643e-02  -1.0246637e+08
   4.5881961e-10  -4.2316820e-02   1.7031311e+00   6.3265179e-02  -1.0166927e+08
   4.6148716e-10  -4.2046670e-02   1.6898892e+00   6.4106861e-02  -1.0088096e+08
   4.6415472e-10  -4.1778612e-02   1.6768138e+00   6.4951629e-02  -1.0010129e+08
   4.6682227e-10  -4.1512622e-02   1.6639024e+00   6.5799427e-02  -9.9330121e+07
   4.6948983e-10  -4.1248678e-02   1.6511527e+00   6.6650196e-02  -9.8567331e+07
   4.7215739e-10  -4.0986757e-02   1.6385626e+00   6.7503881e-02  -9.7812786e+07
   4.7482494e-10  -4.0726838e-02   1.6261296e+00   6.8360423e-02  -9.7066357e+07
   4.7749250e-10  -4.0468899e-02   1.6138516e+00   6.9219767e-02  -9.6327920e+07
   4.8016005e-10  -4.0212920e-02   1.6017263e+00   7.0081856e-02  -9.5597352e+07
   4.8282761e-10  -3.9958879e-02   1.5897517e+00   7.0946635e-02  -9.4874532e+07
   4.8549517e-10  -3.9706755e-02   1.5779254e+00   7.1814048e-02  -9.4159342e+07
   4.8816272e-10  -3.9456530e-02   1.5662455e+00   7.2684041e-02  -9.3451666e+07
   4.9083028e-10  -3.9208182e-02   1.5547098e+00   7.3556559e-02  -9.2751390e+07
   4.9349783e-10  -3.8961692e-02   1.5433162e+00   7.4431546e-02  -9.2058402e+07
   4.9616539e-10  -3.8717041e-02   1.5320628e+00   7.5308951e-02  -9.1372593e+07
   4.9883294e-10  -3.8474210e-02   1.5209476e+00   7.6188718e-02  -9.0693855e+07
   5.0150050e-10  -3.8233180e-02   1.5099685e+00   7.7070794e-02  -9.0022083e+07
   5.0416806e-10  -3.7993933e-02   1.4991236e+00   7.7955127e-02  -8.9357174e+07
   5.0683561e-10  -3.7756450e-02   1.4884111e+00   7.8841664e-02  -8.8699026e+07
   5.0950317e-10  -3.7520714e-02   1.4778290e+00   7.9730353e-02  -8.8047539e+07
   5.1217072e-10  -3.7286707e-02   1.4673754e+00   8.0621142e-02  -8.7402617e+07
   5.1483828e-10  -3.7054412e-02   1.4570486e+00   8.1513979e-02  -8.6764162e+07
   5.1750584e-10  -3.6823811e-02   1.4468467e+00   8.2408813e-02  -8.6132081e+07
   5.2017339e-10  -3.6594887e-02   1.4367680e+00   8.3305594e-02  -8.5506281e+07
   5.2284095e-10  -3.6367625e-02   1.4268106e+00   8.4204270e-02  -8.4886673e+07
   5.2550850e-10  -3.6142007e-02   1.4169729e+00   8.5104793e-02  -8.4273167e+07
   5.2817606e-10  -3.5918018e-02   1.4072532e+00   8.6007111e-02  -8.3665675e+07
   5.3084361e-10  -3.5695641e-02   1.3976498e+00   8.6911176e-02  -8.3064113e+07
   5.3351117e-10  -3.5474861e-02   1.3881610e+00   8.7816939e-02  -8.2468396e+07
   5.3617873e-10  -3.5255663e-02   1.3787853e+00   8.8724350e-02  -8.1878442e+07
   5.3884628e-10  -3.5038030e-02   1.3695209e+00   8.9633362e-02  -8.1294170e+07
   5.4151384e-10  -3.4821948e-02   1.3603664e+00   9.0543927e-02  -8.0715500e+07
   5.4418139e-10  -3.4607403e-02   1.3513202e+00   9.1455996e-02  -8.0142355e+07
   5.4684895e-10  -3.4394379e-02   1.3423807e+00   9.2369522e-02  -7.9574657e+07
   5.4951651e-10  -3.4182863e-02   1.3335465e+00   9.3284459e-02  -7.9012332e+07
   5.5218406e-10  -3.3972839e-02   1.3248161e+00   9.4200760e-02  -7.8455306e+07
   5.5485162e-10  -3.3764294e-02   1.3161879e+00   9.5118378e-02  -7.7903506e+07
   5.5751917e-10  -3.3557214e-02   1.3076607e+00   9.6037268e-02  -7.7356862e+07
   5.6018673e-10  -3.3351585e-02   1.2992329e+00   9.6957384e-02  -7.6815303e+07
   5.6285428e-10  -3.3147394e-02   1.2909031e+00   9.7878680e-02  -7.6278760e+07
   5.6552184e-10  -3.2944628e-02   1.2826701e+00   9.8801112e-02  -7.5747167e+07
   5.6818940e-10  -3.2743274e-02   1.2745324e+00   9.9724635e-02  -7.5220456e+07
   5.7085695e-10  -3.2543317e-02   1.2664887e+00   1.0064921e-01  -7.4698565e+07
   5.7352451e-10  -3.2344747e-02   1.2585377e+00   1.0157478e-01  -7.4181427e+07
   5.7619206e-10  -3.2147550e-02   1.2506781e+00   1.0250131e-01  -7.3668981e+07
   5.7885962e-10  -3.1951713e-02   1.2429087e+00   1.0342876e-01  -7.3161165e+07
   5.8152718e-10  -3.1757225e-02   1.2352281e+00   1.0435708e-01  -7.2657918e+07
   5.8419473e-10  -3.1564074e-02   1.2276352e+00   1.0528624e-01  -7.2159182e+07
   5.8686229e-10  -3.1372247e-02   1.2201288e+00   1.0621618e-01  -7.1664897e+07
   5.8952984e-10  -3.1181732e-02   1.2127076e+00   1.0714687e-01  -7.1175007e+07
   5.9219740e-10  -3.0992519e-02   1.2053705e+00   1.0807826e-01  -7.0689454e+07
   5.9486495e-10  -3.0804594e-02   1.1981164e+00   1.0901032e-01  -7.0208184e+07
   5.9753251e-10  -3.0617948e-02   1.1909440e+00   1.0994300e-01  -6.9731142e+07
   6.0020007e-10  -3.0432569e-02   1.1838523e+00   1.1087627e-01  -6.9258275e+07
   6.0286762e-10  -3.0248446e-02   1.1768401e+00   1.1181007e-01  -6.8789530e+07
   6.0553518e-10  -3.0065568e-02   1.1699064e+00   1.1274438e-01  -6.8324855e+07
   6.0820273e-10  -2.9883924e-02   1.1630502e+00   1.1367915e-01  -6.7864199e+07
   6.1087029e-10  -2.9703503e-02   1.1562703e+00   1.1461435e-01  -6.7407513e+07
   6.1353785e-10  -2.9524296e-02   1.1495657e+00   1.1554993e-01  -6.6954748e+07
   6.1620540e-10  -2.9346290e-02   1.1429354e+00   1.1648586e-01  -6.6505855e+07
   6.1887296e-10  -2.9169478e-02   1.1363784e+00   1.1742210e-01  -6.6060786e+07
   6.2154051e-10  -2.8993847e-02   1.1298937e+00   1.1835860e-01  -6.5619496e+07
   6.2420807e-10  -2.8819389e-02   1.1234803e+00   1.1929534e-01  -6.5181938e+07
   6.2687563e-10  -2.8646092e-02   1.1171373e+00   1.2023228e-01  -6.4748068e+07
   6.2954318e-10  -2.8473949e-02   1.1108638e+00   1.2116937e-01  -6.4317840e+07
   6.3221074e-10  -2.8302948e-02   1.1046587e+00   1.2210659e-01  -6.3891211e+07
   6.3487829e-10  -2.8133080e-02   1.0985212e+00   1.2304389e-01  -6.3468139e+07
   6.3754585e-10  -2.7964336e-02   1.0924504e+00   1.2398124e-01  -6.3048581e+07
   6.4021340e-10  -2.7796707e-02   1.0864454e+00   1.2491860e-01  -6.2632496e+07
   6.4288096e-10  -2.7630183e-02   1.0805054e+00   1.2585595e-01  -6.2219842e+07
   6.4554852e-10  -2.7464755e-02   1.0746293e+00   1.2679324e-01  -6.1810580e+07
   6.4821607e-10  -2.7300415e-02   1.0688165e+00   1.2773044e-01  -6.1404670e+07
   6.5088363e-10  -2.7137153e-02   1.0630661e+00   1.2866751e-01  -6.1002074e+07
   6.5355118e-10  -2.6974960e-02   1.0573772e+00   1.2960442e-01  -6.0602752e+07
   6.5621874e-10  -2.6813829e-02   1.0517491e+00   1.3054115e-01  -6.0206668e+07
   6.5888630e-10  -2.6653749e-02   1.0461810e+00   1.3147764e-01  -5.9813785e+07
   6.6155385e-10  -2.6494714e-02   1.0406720e+00   1.3241388e-01  -5.9424065e+07
   6.6422141e-10  -2.6336713e-02   1.0352214e+00   1.3334982e-01  -5.9037473e+07
   6.6688896e-10  -2.6179740e-02   1.0298284e+00   1.3428544e-01  -5.8653974e+07
   6.6955652e-10  -2.6023786e-02   1.0244923e+00   1.3522071e-01  -5.8273533e+07
   6.7222407e-10  -2.5868843e-02   1.0192124e+00   1.3615558e-01  -5.7896116e+07
   6.7489163e-10  -2.5714902e-02   1.0139879e+00   1.3709004e-01  -5.7521690e+07
   6.7755919e-10  -2.5561956e-02   1.0088181e+00   1.3802404e-01  -5.7150220e+07
   6.8022674e-10  -2.5409997e-02   1.0037023e+00   1.3895757e-01  -5.6781675e+07
   6.8289430e-10  -2.5259018e-02   9.9863977e-01   1.3989058e-01  -5.6416021e+07
   6.8556185e-10  -2.5109010e-02   9.9362990e-01   1.4082304e-01  -5.6053229e+07
   6.8822941e-10  -2.4959966e-02   9.8867198e-01   1.4175494e-01  -5.5693266e+07
   6.9089697e-10  -2.4811878e-02   9.8376534e-01   1.4268623e-01  -5.5336102e+07
   6.9356452e-10  -2.4664740e-02   9.7890934e-01   1.4361689e-01  -5.4981707e+07
   6.9623208e-10  -2.4518543e-02   9.7410333e-01   1.4454689e-01  -5.4630050e+07
   6.9889963e-10  -2.4373281e-02   9.6934668e-01   1.4547619e-01  -5.4281103e+07
   7.0156719e-10  -2.4228945e-02   9.6463875e-01   1.4640478e-01  -5.3934837e+07
   7.0423474e-10  -2.4085530e-02   9.5997894e-01   1.4733263e-01  -5.3591223e+07
   7.0690230e-10  -2.3943028e-02   9.5536665e-01   1.4825970e-01  -5.3250233e+07
   7.0956986e-10  -2.3801433e-02   9.5080126e-01   1.4918597e-01  -5.2911840e+07
   7.1223741e-10  -2.3660736e-02   9.4628220e-01   1.5011140e-01  -5.2576017e+07
   7.1490497e-10  -2.3520932e-02   9.4180888e-01   1.5103599e-01  -5.2242737e+07
   7.1757252e-10  -2.3382014e-02   9.3738074e-01   1.5195968e-01  -5.1911972e+07
   7.2024008e-10  -2.3243974e-02   9.3299721e-01   1.5288247e-01  -5.1583699e+07
   7.2290764e-10  -2.3106807e-02   9.2865774e-01   1.5380433e-01  -5.1257889e+07
   7.2557519e-10  -2.2970506e-02   9.2436178e-01   1.5472522e-01  -5.0934520e+07
   7.2824275e-10  -2.2835064e-02   9.2010879e-01   1.5564512e-01  -5.0613565e+07
   7.3091030e-10  -2.2700475e-02   9.1589825e-01   1.5656402e-01  -5.0295000e+07
   7.3357786e-10  -2.2566733e-02   9.1172962e-01   1.5748187e-01  -4.9978801e+07
   7.3624542e-10  -2.2433831e-02   9.0760241e-01   1.5839867e-01  -4.9664944e+07
   7.3891297e-10  -2.2301763e-02   9.0351609e-01   1.5931437e-01  -4.9353406e+07
   7.4158053e-10  -2.2170523e-02   8.9947017e-01   1.6022897e-01  -4.9044163e+07
   7.4424808e-10  -2.2040105e-02   8.9546415e-01   1.6114243e-01  -4.8737193e+07
   7.4691564e-10  -2.1910503e-02   8.9149756e-01   1.6205474e-01  -4.8432473e+07
   7.4958319e-10  -2.1781711e-02   8.8756990e-01   1.6296586e-01  -4.8129981e+07
   7.5225075e-10  -2.1653723e-02   8.8368072e-01   1.6387578e-01  -4.7829695e+07
   7.5491831e-10  -2.1526533e-02   8.7982955e-01   1.6478447e-01  -4.7531593e+07
   7.5758586e-10  -2.1400135e-02   8.7601592e-01   1.6569191e-01  -4.7235655e+07
   7.6025342e-10  -2.1274524e-02   8.7223938e-01   1.6659808e-01  -4.6941858e+07
   7.6292097e-10  -2.1149693e-02   8.6849950e-01   1.6750296e-01  -4.6650183e+07
   7.6558853e-10  -2.1025638e-02   8.6479583e-01   1.6840652e-01  -4.6360609e+07
   7.6825609e-10  -2.0902353e-02   8.6112794e-01   1.6930874e-01  -4.6073116e+07
   7.7092364e-10  -2.0779831e-02   8.5749540e-01   1.7020961e-01  -4.5787684e+07
   7.7359120e-10  -2.0658069e-02   8.5389780e-01   1.7110909e-01  -4.5504294e+07
   7.7625875e-10  -2.0537059e-02   8.5033472e-01   1.7200718e-01  -4.5222925e+07
   7.7892631e-10  -2.0416798e-02   8.4680574e-01   1.7290385e-01  -4.4943559e+07
   7.8159386e-10  -2.0297279e-02   8.4331048e-01   1.7379908e-01  -4.4666178e+07
   7.8426142e-10  -2.0178497e-02   8.3984852e-01   1.7469285e-01  -4.4390762e+07
   7.8692898e-10  -2.0060448e-02   8.3641949e-01   1.7558514e-01  -4.4117294e+07
   7.8959653e-10  -1.9943125e-02   8.3302298e-01   1.7647593e-01  -4.3845754e+07
   7.9226409e-10  -1.9826524e-02   8.2965864e-01   1.7736520e-01  -4.3576126e+07
   7.9493164e-10  -1.9710640e-02   8.2632607e-01   1.7825294e-01  -4.3308392e+07
   7.9759920e-10  -1.9595468e-02   8.2302491e-01   1.7913912e-01  -4.3042534e+07
   8.0026676e-10  -1.9481002e-02   8.1975479e-01   1.8002373e-01  -4.2778535e+07
   8.0293431e-10  -1.9367238e-02   8.1651536e-01   1.8090675e-01  -4.2516378e+07
   8.0560187e-10  -1.9254171e-02   8.1330625e-01   1.8178816e-01  -4.2256047e+07
   8.0826942e-10  -1.9141796e-02   8.1012713e-01   1.8266794e-01  -4.1997524e+07
   8.1093698e-10  -1.9030108e-02   8.0697764e-01   1.8354608e-01  -4.1740795e+07
   8.1360453e-10  -1.8919103e-02   8.0385745e-01   1.8442256e-01  -4.1485841e+07
   8.1627209e-10  -1.8808775e-02   8.0076621e-01   1.8529736e-01  -4.1232649e+07
   8.1893965e-10  -1.8699120e-02   7.9770361e-01   1.8617046e-01  -4.0981202e+07
   8.2160720e-10  -1.8590134e-02   7.9466930e-01   1.8704186e-01  -4.0731484e+07
   8.2427476e-10  -1.8481812e-02   7.9166298e-01   1.8791153e-01  -4.0483480e+07
   8.2694231e-10  -1.8374149e-02   7.8868432e-01   1.8877946e-01  -4.0237175e+07
   8.2960987e-10  -1.8267141e-02   7.8573301e-01   1.8964563e-01  -3.9992554e+07
   8.3227743e-10  -1.8160783e-02   7.8280874e-01   1.9051003e-01  -3.9749603e+07
   8.3494498e-10  -1.8055071e-02   7.7991121e-01   1.9137263e-01  -3.9508307e+07
   8.3761254e-10  -1.7950000e-02   7.7704012e-01   1.9223344e-01  -3.9268651e+07
   8.4028009e-10  -1.7845567e-02   7.7419516e-01   1.9309243e-01  -3.9030622e+07
   8.4294765e-10  -1.7741766e-02   7.7137605e-01   1.9394958e-01  -3.8794204e+07
   8.4561521e-10  -1.7638594e-02   7.6858250e-01   1.9480489e-01  -3.8559385e+07
   8.4828276e-10  -1.7536046e-02   7.6581422e-01   1.9565834e-01  -3.8326151e+07
   8.5095032e-10  -1.7434119e-02   7.6307094e-01   1.9650992e-01  -3.8094488e+07
   8.5361787e-10  -1.7332807e-02   7.6035237e-01   1.9735960e-01  -3.7864383e+07
   8.5628543e-10  -1.7232107e-02   7.5765825e-01   1.9820739e-01  -3.7635822e+07
   8.5895298e-10  -1.7132014e-02   7.5498830e-01   1.9905326e-01  -3.7408793e+07
   8.6162054e-10  -1.7032525e-02   7.5234225e-01   1.9989721e-01  -3.7183282e+07
   8.6428810e-10  -1.6933636e-02   7.4971985e-01   2.0073921e-01  -3.6959277e+07
   8.6695565e-10  -1.6835342e-02   7.4712083e-01   2.0157926e-01  -3.6736766e+07
   8.6962321e-10  -1.6737640e-02   7.4454495e-01   2.0241735e-01  -3.6515735e+07
   8.7229076e-10  -1.6640526e-02   7.4199194e-01   2.0325347e-01  -3.6296173e+07
   8.7495832e-10  -1.6543995e-02   7.3946156e-01   2.0408759e-01  -3.6078067e+07
   8.7762588e-10  -1.6448044e-02   7.3695356e-01   2.0491972e-01  -3.5861406e+07
   8.8029343e-10  -1.6352669e-02   7.3446770e-01   2.0574984e-01  -3.5646177e+07
   8.8296099e-10  -1.6257866e-02   7.3200374e-01   2.0657793e-01  -3.5432368e+07
   8.8562854e-10  -1.6163632e-02   7.2956144e-01   2.0740399e-01  -3.5219969e+07
   8.8829610e-10  -1.6069963e-02   7.2714058e-01   2.0822801e-01  -3.5008967e+07
   8.9096365e-10  -1.5976854e-02   7.2474092e-01   2.0904997e-01  -3.4799352e+07
   8.9363121e-10  -1.5884303e-02   7.2236223e-01   2.0986987e-01  -3.4591111e+07
   8.9629877e-10  -1.5792306e-02   7.2000429e-01   2.1068770e-01  -3.4384234e+07
   8.9896632e-10  -1.5700858e-02   7.1766688e-01   2.1150344e-01  -3.4178711e+07
   9.0163388e-10  -1.5609957e-02   7.1534978e-01   2.1231709e-01  -3.3974529e+07
   9.0430143e-10  -1.5519599e-02   7.1305277e-01   2.1312863e-01  -3.3771678e+07
   9.0696899e-10  -1.5429781e-02   7.1077564e-01   2.1393806e-01  -3.3570149e+07
   9.0963655e-10  -1.5340498e-02   7.0851819e-01   2.1474537e-01  -3.3369929e+07
   9.1230410e-10  -1.5251747e-02   7.0628019e-01   2.1555055e-01  -3.3171009e+07
   9.1497166e-10  -1.5163526e-02   7.0406146e-01   2.1635358e-01  -3.2973379e+07
   9.1763921e-10  -1.5075829e-02   7.0186178e-01   2.1715447e-01  -3.2777028e+07
   9.2030677e-10  -1.4988655e-02   6.9968096e-01   2.1795320e-01  -3.2581946e+07
   9.2297432e-10  -1.4902000e-02   6.9751880e-01   2.1874977e-01  -3.2388124e+07
   9.2564188e-10  -1.4815860e-02   6.9537511e-01   2.1954417e-01  -3.2195552e+07
   9.2830944e-10  -1.4730232e-02   6.9324969e-01   2.2033638e-01  -3.2004219e+07
   9.3097699e-10  -1.4645113e-02   6.9114235e-01   2.2112641e-01  -3.1814116e+07
   9.3364455e-10  -1.4560499e-02   6.8905290e-01   2.2191424e-01  -3.1625234e+07
   9.3631210e-10  -1.4476388e-02   6.8698117e-01   2.2269986e-01  -3.1437563e+07
   9.3897966e-10  -1.4392775e-02   6.8492696e-01   2.2348328e-01  -3.1251094e+07
   9.4164722e-10  -1.4309659e-02   6.8289011e-01   2.2426448e-01  -3.1065817e+07
   9.4431477e-10  -1.4227035e-02   6.8087042e-01   2.2504346e-01  -3.0881724e+07
   9.4698233e-10  -1.4144900e-02   6.7886772e-01   2.2582020e-01  -3.0698806e+07
   9.4964988e-10  -1.4063252e-02   6.7688185e-01   2.2659471e-01  -3.0517053e+07
   9.5231744e-10  -1.3982087e-02   6.7491262e-01   2.2736698e-01  -3.0336456e+07
   9.5498499e-10  -1.3901403e-02   6.7295987e-01   2.2813700e-01  -3.0157008e+07
   9.5765255e-10  -1.3821195e-02   6.7102343e-01   2.2890476e-01  -2.9978699e+07
   9.6032011e-10  -1.3741462e-02   6.6910313e-01   2.2967026e-01  -2.9801520e+07
   9.6298766e-10  -1.3662200e-02   6.6719882e-01   2.3043349e-01  -2.9625463e+07
   9.6565522e-10  -1.3583406e-02   6.6531033e-01   2.3119446e-01  -2.9450521e+07
   9.6832277e-10  -1.3505077e-02   6.6343750e-01   2.3195314e-01  -2.9276683e+07
   9.7099033e-10  -1.3427211e-02   6.6158017e-01   2.3270955e-01  -2.9103943e+07
   9.7365789e-10  -1.3349804e-02   6.5973820e-01   2.3346367e-01  -2.8932292e+07
   9.7632544e-10  -1.3272853e-02   6.5791141e-01   2.3421549e-01  -2.8761722e+07
   9.7899300e-10  -1.3196356e-02   6.5609967e-01   2.3496502e-01  -2.8592224e+07
   9.8166055e-10  -1.3120309e-02   6.5430283e-01   2.3571225e-01  -2.8423792e+07
   9.8432811e-10  -1.3044711e-02   6.5252072e-01   2.3645717e-01  -2.8256417e+07
   9.8699567e-10  -1.2969557e-02   6.5075322e-01   2.3719979e-01  -2.8090091e+07
   9.8966322e-10  -1.2894846e-02   6.4900017e-01   2.3794009e-01  -2.7924807e+07
   9.9233078e-10  -1.2820574e-02   6.4726143e-01   2.3867808e-01  -2.7760557e+07
   9.9499833e-10  -1.2746740e-02   6.4553686e-01   2.3941374e-01  -2.7597333e+07
   9.9766589e-10  -1.2673339e-02   6.4382632e-01   2.4014708e-01  -2.7435129e+07
   1.0003334e-09  -1.2600369e-02   6.4212967e-01   2.4087809e-01  -2.7273936e+07
   1.0030010e-09  -1.2527828e-02   6.4044678e-01   2.4160677e-01  -2.7113747e+07
   1.0056686e-09  -1.2455714e-02   6.3877751e-01   2.4233312e-01  -2.6954556e+07
   1.0083361e-09  -1.2384022e-02   6.3712173e-01   2.4305713e-01  -2.6796354e+07
   1.0110037e-09  -1.2312751e-02   6.3547931e-01   2.4377880e-01  -2.6639135e+07
   1.0136712e-09  -1.2241898e-02   6.3385011e-01   2.4449813e-01  -2.6482892e+07
   1.0163388e-09  -1.2171461e-02   6.3223401e-01   2.4521511e-01  -2.6327618e+07
   1.0190063e-09  -1.2101437e-02   6.3063089e-01   2.4592975e-01  -2.6173306e+07
   1.0216739e-09  -1.2031823e-02   6.2904061e-01   2.4664203e-01  -2.6019948e+07
   1.0243414e-09  -1.1962617e-02   6.2746306e-01   2.4735197e-01  -2.5867539e+07
   1.0270090e-09  -1.1893816e-02   6.2589810e-01   2.4805955e-01  -2.5716071e+07
   1.0296766e-09  -1.1825418e-02   6.2434563e-01   2.4876477e-01  -2.5565538e+07
   1.0323441e-09  -1.1757420e-02   6.2280551e-01   2.4946764e-01  -2.5415933e+07
   1.0350117e-09  -1.1689820e-02   6.2127764e-01   2.5016814e-01  -2.5267250e+07
   1.0376792e-09  -1.1622616e-02   6.1976189e-01   2.5086629e-01  -2.5119481e+07
   1.0403468e-09  -1.1555804e-02   6.1825816e-01   2.5156207e-01  -2.4972622e+07
   1.0430143e-09  -1.1489383e-02   6.1676631e-01   2.5225549e-01  -2.4826665e+07
   1.0456819e-09  -1.1423350e-02   6.1528625e-01   2.5294654e-01  -2.4681604e+07
   1.0483494e-09  -1.1357703e-02   6.1381786e-01   2.5363523e-01  -2.4537433e+07
   1.0510170e-09  -1.1292440e-02   6.1236104e-01   2.5432156e-01  -2.4394145e+07
   1.0536846e-09  -1.1227557e-02   6.1091566e-01   2.5500551e-01  -2.4251735e+07
   1.0563521e-09  -1.1163053e-02   6.0948163e-01   2.5568710e-01  -2.4110196e+07
   1.0590197e-09  -1.1098926e-02   6.0805883e-01   2.5636632e-01  -2.3969523e+07
   1.0616872e-09  -1.1035172e-02   6.0664717e-01   2.5704317e-01  -2.3829708e+07
   1.0643548e-09  -1.0971791e-02   6.0524653e-01   2.5771764e-01  -2.3690748e+07
   1.0670223e-09  -1.0908779e-02   6.0385682e-01   2.5838975e-01  -2.3552635e+07
   1.0696899e-09  -1.0846134e-02   6.0247793e-01   2.5905949e-01  -2.3415363e+07
   1.0723575e-09  -1.0783855e-02   6.0110976e-01   2.5972686e-01  -2.3278928e+07
   1.0750250e-09  -1.0721938e-02   5.9975222e-01   2.6039187e-01  -2.3143323e+07
   1.0776926e-09  -1.0660382e-02   5.9840520e-01   2.6105450e-01  -2.3008542e+07
   1.0803601e-09  -1.0599184e-02   5.9706861e-01   2.6171476e-01  -2.2874581e+07
   1.0830277e-09  -1.0538343e-02   5.9574235e-01   2.6237265e-01  -2.2741433e+07
   1.0856952e-09  -1.0477855e-02   5.9442632e-01   2.6302818e-01  -2.2609093e+07
   1.0883628e-09  -1.0417720e-02   5.9312044e-01   2.6368133e-01  -2.2477555e+07
   1.0910303e-09  -1.0357934e-02   5.9182460e-01   2.6433212e-01  -2.2346814e+07
   1.0936979e-09  -1.0298497e-02   5.9053872e-01   2.6498055e-01  -2.2216865e+07
   1.0963655e-09  -1.0239404e-02   5.8926271e-01   2.6562661e-01  -2.2087701e+07
   1.0990330e-09  -1.0180656e-02   5.8799647e-01   2.6627030e-01  -2.1959319e+07
   1.1017006e-09  -1.0122248e-02   5.8673992e-01   2.6691163e-01  -2.1831713e+07
   1.1043681e-09  -1.0064180e-02   5.8549297e-01   2.6755061e-01  -2.1704877e+07
   1.1070357e-09  -1.0006450e-02   5.8425553e-01   2.6818722e-01  -2.1578807e+07
   1.1097032e-09  -9.9490544e-03   5.8302751e-01   2.6882147e-01  -2.1453496e+07
   1.1123708e-09  -9.8919923e-03   5.8180883e-01   2.6945336e-01  -2.1328941e+07
   1.1150383e-09  -9.8352615e-03   5.8059941e-01   2.7008290e-01  -2.1205136e+07
   1.1177059e-09  -9.7788599e-03   5.7939916e-01   2.7071008e-01  -2.1082076e+07
   1.1203735e-09  -9.7227857e-03   5.7820800e-01   2.7133491e-01  -2.0959756e+07
   1.1230410e-09  -9.6670367e-03   5.7702585e-01   2.7195739e-01  -2.0838172e+07
   1.1257086e-09  -9.6116111e-03   5.7585263e-01   2.7257752e-01  -2.0717318e+07
   1.1283761e-09  -9.5565069e-03   5.7468825e-01   2.7319531e-01  -2.0597189e+07
   1.1310437e-09  -9.5017222e-03   5.7353265e-01   2.7381075e-01  -2.0477782e+07
   1.1337112e-09  -9.4472551e-03   5.7238573e-01   2.7442385e-01  -2.0359090e+07
   1.1363788e-09  -9.3931036e-03   5.7124743e-01   2.7503460e-01  -2.0241110e+07
   1.1390463e-09  -9.3392659e-03   5.7011767e-01   2.7564302e-01  -2.0123836e+07
   1.1417139e-09  -9.2857401e-03   5.6899636e-01   2.7624911e-01  -2.0007264e+07
   1.1443815e-09  -9.2325244e-03   5.6788345e-01   2.7685286e-01  -1.9891390e+07
   1.1470490e-09  -9.1796168e-03   5.6677884e-01   2.7745428e-01  -1.9776208e+07
   1.1497166e-09  -9.1270155e-03   5.6568248e-01   2.7805337e-01  -1.9661715e+07
   1.1523841e-09  -9.0747188e-03   5.6459429e-01   2.7865014e-01  -1.9547906e+07
   1.1550517e-09  -9.0227247e-03   5.6351419e-01   2.7924459e-01  -1.9434776e+07
   1.1577192e-09  -8.9710315e-03   5.6244211e-01   2.7983672e-01  -1.9322321e+07
   1.1603868e-09  -8.9196374e-03   5.6137799e-01   2.8042653e-01  -1.9210537e+07
   1.1630544e-09  -8.8685407e-03   5.6032175e-01   2.8101403e-01  -1.9099419e+07
   1.1657219e-09  -8.8177394e-03   5.5927333e-01   2.8159921e-01  -1.8988963e+07
   1.1683895e-09  -8.7672319e-03   5.5823266e-01   2.8218210e-01  -1.8879164e+07
   1.1710570e-09  -8.7170164e-03   5.5719967e-01   2.8276267e-01  -1.8770019e+07
   1.1737246e-09  -8.6670912e-03   5.5617429e-01   2.8334095e-01  -1.8661523e+07
   1.1763921e-09  -8.6174546e-03   5.5515647e-01   2.8391693e-01  -1.8553672e+07
   1.1790597e-09  -8.5681048e-03   5.5414612e-01   2.8449062e-01  -1.8446462e+07
   1.1817272e-09  -8.5190402e-03   5.5314320e-01   2.8506201e-01  -1.8339889e+07
   1.1843948e-09  -8.4702590e-03   5.5214763e-01   2.8563112e-01  -1.8233948e+07
   1.1870624e-09  -8.4217595e-03   5.5115935e-01   2.8619795e-01  -1.8128636e+07
   1.1897299e-09  -8.3735402e-03   5.5017830e-01   2.8676250e-01  -1.8023949e+07
   1.1923975e-09  -8.3255993e-03   5.4920442e-01   2.8732477e-01  -1.7919882e+07
   1.1950650e-09  -8.2779351e-03   5.4823764e-01   2.8788477e-01  -1.7816431e+07
   1.1977326e-09  -8.2305461e-03   5.4727791e-01   2.8844250e-01  -1.7713594e+07
   1.2004001e-09  -8.1834307e-03   5.4632517e-01   2.8899797e-01  -1.7611365e+07
   1.2030677e-09  -8.1365871e-03   5.4537935e-01   2.8955118e-01  -1.7509741e+07
   1.2057352e-09  -8.0900138e-03   5.4444040e-01   2.9010213e-01  -1.7408718e+07
   1.2084028e-09  -8.0437092e-03   5.4350826e-01   2.9065084e-01  -1.7308292e+07
   1.2110704e-09  -7.9976717e-03   5.4258286e-01   2.9119729e-01  -1.7208460e+07
   1.2137379e-09  -7.9518997e-03   5.4166417e-01   2.9174150e-01  -1.7109218e+07
   1.2164055e-09  -7.9063916e-03   5.4075211e-01   2.9228347e-01  -1.7010561e+07
   1.2190730e-09  -7.8611460e-03   5.3984663e-01   2.9282321e-01  -1.6912487e+07
   1.2217406e-09  -7.8161612e-03   5.3894768e-01   2.9336071e-01  -1.6814992e+07
   1.2244081e-09  -7.7714357e-03   5.3805521e-01   2.9389599e-01  -1.6718071e+07
   1.2270757e-09  -7.7269680e-03   5.3716915e-01   2.9442905e-01  -1.6621722e+07
   1.2297432e-09  -7.6827565e-03   5.3628945e-01   2.9495989e-01  -1.6525940e+07
   1.2324108e-09  -7.6387998e-03   5.3541607e-01   2.9548852e-01  -1.6430723e+07
   1.2350784e-09  -7.5950964e-03   5.3454894e-01   2.9601494e-01  -1.6336066e+07
   1.2377459e-09  -7.5516447e-03   5.3368802e-01   2.9653916e-01  -1.6241967e+07
   1.2404135e-09  -7.5084432e-03   5.3283326e-01   2.9706117e-01  -1.6148421e+07
   1.2430810e-09  -7.4654906e-03   5.3198460e-01   2.9758100e-01  -1.6055425e+07
   1.2457486e-09  -7.4227853e-03   5.3114199e-01   2.9809863e-01  -1.5962976e+07
   1.2484161e-09  -7.3803260e-03   5.3030538e-01   2.9861409e-01  -1.5871071e+07
   1.2510837e-09  -7.3381110e-03   5.2947473e-01   2.9912736e-01  -1.5779705e+07
   1.2537513e-09  -7.2961391e-03   5.2864999e-01   2.9963845e-01  -1.5688876e+07
   1.2564188e-09  -7.2544087e-03   5.2783110e-01   3.0014738e-01  -1.5598580e+07
   1.2590864e-09  -7.2129185e-03   5.2701801e-01   3.0065414e-01  -1.5508814e+07
   1.2617539e-09  -7.1716671e-03   5.2621069e-01   3.0115875e-01  -1.5419575e+07
   1.2644215e-09  -7.1306530e-03   5.2540908e-01   3.0166119e-01  -1.5330859e+07
   1.2670890e-09  -7.0898749e-03   5.2461314e-01   3.0216149e-01  -1.5242663e+07
   1.2697566e-09  -7.0493313e-03   5.2382282e-01   3.0265965e-01  -1.5154984e+07
   1.2724241e-09  -7.0090210e-03   5.2303807e-01   3.0315566e-01  -1.5067819e+07
   1.2750917e-09  -6.9689425e-03   5.2225885e-01   3.0364954e-01  -1.4981164e+07
   1.2777593e-09  -6.9290944e-03   5.2148511e-01   3.0414130e-01  -1.4895017e+07
   1.2804268e-09  -6.8894755e-03   5.2071682e-01   3.0463092e-01  -1.4809374e+07
   1.2830944e-09  -6.8500844e-03   5.1995392e-01   3.0511844e-01  -1.4724232e+07
   1.2857619e-09  -6.8109198e-03   5.1919637e-01   3.0560383e-01  -1.4639588e+07
   1.2884295e-09  -6.7719802e-03   5.1844413e-01   3.0608712e-01  -1.4555439e+07
   1.2910970e-09  -6.7332645e-03   5.1769715e-01   3.0656831e-01  -1.4471782e+07
   1.2937646e-09  -6.6947713e-03   5.1695540e-01   3.0704740e-01  -1.4388614e+07
   1.2964321e-09  -6.6564993e-03   5.1621883e-01   3.0752441e-01  -1.4305932e+07
   1.2990997e-09  -6.6184473e-03   5.1548741e-01   3.0799932e-01  -1.4223732e+07
   1.3017673e-09  -6.5806138e-03   5.1476108e-01   3.0847216e-01  -1.4142013e+07
   1.3044348e-09  -6.5429977e-03   5.1403980e-01   3.0894292e-01  -1.4060771e+07
   1.3071024e-09  -6.5055977e-03   5.1332355e-01   3.0941161e-01  -1.3980003e+07
   1.3097699e-09  -6.4684125e-03   5.1261227e-01   3.0987823e-01  -1.3899706e+07
   1.3124375e-09  -6.4314409e-03   5.1190593e-01   3.1034280e-01  -1.3819877e+07
   1.3151050e-09  -6.3946816e-03   5.1120449e-01   3.1080532e-01  -1.3740514e+07
   1.3177726e-09  -6.3581334e-03   5.1050791e-01   3.1126579e-01  -1.3661614e+07
   1.3204401e-09  -6.3217951e-03   5.0981615e-01   3.1172422e-01  -1.3583173e+07
   1.3231077e-09  -6.2856654e-03   5.0912917e-01   3.1218062e-01  -1.3505189e+07
   1.3257753e-09  -6.2497431e-03   5.0844694e-01   3.1263499e-01  -1.3427660e+07
   1.3284428e-09  -6.2140270e-03   5.0776942e-01   3.1308733e-01  -1.3350582e+07
   1.3311104e-09  -6.1785160e-03   5.0709656e-01   3.1353765e-01  -1.3273953e+07
   1.3337779e-09  -6.1432087e-03   5.0642835e-01   3.1398597e-01  -1.3197770e+07
   1.3364455e-09  -6.1081041e-03   5.0576472e-01   3.1443227e-01  -1.3122030e+07
   1.3391130e-09  -6.0732009e-03   5.0510566e-01   3.1487658e-01  -1.3046731e+07
   1.3417806e-09  -6.0384981e-03   5.0445113e-01   3.1531889e-01  -1.2971869e+07
   1.3444481e-09  -6.0039943e-03   5.0380108e-01   3.1575922e-01  -1.2897443e+07
   1.3471157e-09  -5.9696885e-03   5.0315549e-01   3.1619756e-01  -1.2823450e+07
   1.3497833e-09  -5.9355795e-03   5.0251432e-01   3.1663392e-01  -1.2749887e+07
   1.3524508e-09  -5.9016661e-03   5.0187754e-01   3.1706832e-01  -1.2676751e+07
   1.3551184e-09  -5.8679473e-03   5.0124511e-01   3.1750075e-01  -1.2604040e+07
   1.3577859e-09  -5.8344219e-03   5.0061700e-01   3.1793122e-01  -1.2531751e+07
   1.3604535e-09  -5.8010888e-03   4.9999317e-01   3.1835974e-01  -1.2459882e+07
   1.3631210e-09  -5.7679468e-03   4.9937359e-01   3.1878631e-01  -1.2388430e+07
   1.3657886e-09  -5.7349949e-03   4.9875823e-01   3.1921094e-01  -1.2317393e+07
   1.3684562e-09  -5.7022319e-03   4.9814706e-01   3.1963363e-01  -1.2246768e+07
   1.3711237e-09  -5.6696568e-03   4.9754003e-01   3.2005440e-01  -1.2176553e+07
   1.3737913e-09  -5.6372684e-03   4.9693714e-01   3.2047324e-01  -1.2106746e+07
   1.3764588e-09  -5.6050657e-03   4.9633833e-01   3.2089017e-01  -1.2037343e+07
   1.3791264e-09  -5.5730476e-03   4.9574358e-01   3.2130519e-01  -1.1968342e+07
   1.3817939e-09  -5.5412130e-03   4.9515285e-01   3.2171830e-01  -1.1899741e+07
   1.3844615e-09  -5.5095609e-03   4.9456613e-01   3.2212952e-01  -1.1831538e+07
   1.3871290e-09  -5.4780902e-03   4.9398336e-01   3.2253884e-01  -1.1763730e+07
   1.3897966e-09  -5.4467999e-03   4.9340454e-01   3.2294628e-01  -1.1696315e+07
   1.3924642e-09  -5.4156888e-03   4.9282962e-01   3.2335184e-01  -1.1629291e+07
   1.3951317e-09  -5.3847561e-03   4.9225857e-01   3.2375552e-01  -1.1562654e+07
   1.3977993e-09  -5.3540006e-03   4.9169137e-01   3.2415734e-01  -1.1496404e+07
   1.4004668e-09  -5.3234213e-03   4.9112799e-01   3.2455729e-01  -1.1430537e+07
   1.4031344e-09  -5.2930172e-03   4.9056840e-01   3.2495539e-01  -1.1365051e+07
   1.4058019e-09  -5.2627872e-03   4.9001256e-01   3.2535164e-01  -1.1299944e+07
   1.4084695e-09  -5.2327305e-03   4.8946046e-01   3.2574605e-01  -1.1235214e+07
   1.4111370e-09  -5.2028459e-03   4.8891205e-01   3.2613863e-01  -1.1170858e+07
   1.4138046e-09  -5.1731325e-03   4.8836733e-01   3.2652937e-01  -1.1106874e+07
   1.4164722e-09  -5.1435893e-03   4.8782625e-01   3.2691828e-01  -1.1043261e+07
   1.4191397e-09  -5.1142153e-03   4.8728878e-01   3.2730538e-01  -1.0980015e+07
   1.4218073e-09  -5.0850095e-03   4.8675491e-01   3.2769067e-01  -1.0917135e+07
   1.4244748e-09  -5.0559710e-03   4.8622461e-01   3.2807416e-01  -1.0854618e+07
   1.4271424e-09  -5.0270987e-03   4.8569784e-01   3.2845584e-01  -1.0792463e+07
   1.4298099e-09  -4.9983918e-03   4.8517459e-01   3.2883573e-01  -1.0730666e+07
   1.4324775e-09  -4.9698492e-03   4.8465482e-01   3.2921384e-01  -1.0669227e+07
   1.4351450e-09  -4.9414701e-03   4.8413851e-01   3.2959016e-01  -1.0608142e+07
   1.4378126e-09  -4.9132534e-03   4.8362564e-01   3.2996471e-01  -1.0547411e+07
   1.4404802e-09  -4.8851983e-03   4.8311617e-01   3.3033749e-01  -1.0487030e+07
   1.4431477e-09  -4.8573038e-03   4.8261009e-01   3.3070851e-01  -1.0426997e+07
   1.4458153e-09  -4.8295690e-03   4.8210736e-01   3.3107778e-01  -1.0367311e+07
   1.4484828e-09  -4.8019929e-03   4.8160797e-01   3.3144529e-01  -1.0307970e+07
   1.4511504e-09  -4.7745746e-03   4.8111188e-01   3.3181106e-01  -1.0248970e+07
   1.4538179e-09  -4.7473133e-03   4.8061908e-01   3.3217510e-01  -1.0190312e+07
   1.4564855e-09  -4.7202080e-03   4.8012953e-01   3.3253741e-01  -1.0131991e+07
   1.4591531e-09  -4.6932578e-03   4.7964322e-01   3.3289799e-01  -1.0074008e+07
   1.4618206e-09  -4.6664619e-03   4.7916013e-01   3.3325685e-01  -1.0016358e+07
   1.4644882e-09  -4.6398193e-03   4.7868021e-01   3.3361400e-01  -9.9590410e+06
   1.4671557e-09  -4.6133292e-03   4.7820347e-01   3.3396945e-01  -9.9020544e+06
   1.4698233e-09  -4.5869906e-03   4.7772986e-01   3.3432320e-01  -9.8453963e+06
   1.4724908e-09  -4.5608027e-03   4.7725937e-01   3.3467525e-01  -9.7890648e+06
   1.4751584e-09  -4.5347647e-03   4.7679198e-01   3.3502562e-01  -9.7330580e+06
   1.4778259e-09  -4.5088756e-03   4.7632766e-01   3.3537431e-01  -9.6773739e+06
   1.4804935e-09  -4.4831347e-03   4.7586639e-01   3.3572133e-01  -9.6220106e+06
   1.4831611e-09  -4.4575410e-03   4.7540814e-01   3.3606667e-01  -9.5669662e+06
   1.4858286e-09  -4.4320937e-03   4.7495290e-01   3.3641036e-01  -9.5122390e+06
   1.4884962e-09  -4.4067920e-03   4.7450065e-01   3.3675239e-01  -9.4578269e+06
   1.4911637e-09  -4.3816350e-03   4.7405135e-01   3.3709277e-01  -9.4037282e+06
   1.4938313e-09  -4.3566220e-03   4.7360500e-01   3.3743151e-01  -9.3499410e+06
   1.4964988e-09  -4.3317519e-03   4.7316156e-01   3.3776861e-01  -9.2964634e+06
   1.4991664e-09  -4.3070242e-03   4.7272102e-01   3.3810408e-01  -9.2432937e+06
   1.5018339e-09  -4.2824378e-03   4.7228336e-01   3.3843793e-01  -9.1904301e+06
   1.5045015e-09  -4.2579921e-03   4.7184855e-01   3.3877016e-01  -9.1378707e+06
   1.5071691e-09  -4.2336861e-03   4.7141658e-01   3.3910078e-01  -9.0856137e+06
   1.5098366e-09  -4.2095192e-03   4.7098742e-01   3.3942979e-01  -9.0336575e+06
   1.5125042e-09  -4.1854905e-03   4.7056105e-01   3.3975720e-01  -8.9820001e+06
   1.5151717e-09  -4.1615991e-03   4.7013746e-01   3.4008302e-01  -8.9306400e+06
   1.5178393e-09  -4.1378444e-03   4.6971663e-01   3.4040726e-01  -8.8795752e+06
   1.5205068e-09  -4.1142255e-03   4.6929852e-01   3.4072991e-01  -8.8288042e+06
   1.5231744e-09  -4.0907416e-03   4.6888314e-01   3.4105099e-01  -8.7783251e+06
   1.5258419e-09  -4.0673920e-03   4.6847044e-01   3.4137050e-01  -8.7281363e+06
   1.5285095e-09  -4.0441760e-03   4.6806043e-01   3.4168845e-01  -8.6782361e+06
   1.5311771e-09  -4.0210926e-03   4.6765307e-01   3.4200484e-01  -8.6286227e+06
   1.5338446e-09  -3.9981412e-03   4.6724834e-01   3.4231968e-01  -8.5792945e+06
   1.5365122e-09  -3.9753210e-03   4.6684624e-01   3.4263298e-01  -8.5302499e+06
   1.5391797e-09  -3.9526313e-03   4.6644673e-01   3.4294474e-01  -8.4814871e+06
   1.5418473e-09  -3.9300712e-03   4.6604981e-01   3.4325497e-01  -8.4330046e+06
   1.5445148e-09  -3.9076402e-03   4.6565545e-01   3.4356368e-01  -8.3848006e+06
   1.5471824e-09  -3.8853373e-03   4.6526363e-01   3.4387086e-01  -8.3368736e+06
   1.5498499e-09  -3.8631619e-03   4.6487434e-01   3.4417654e-01  -8.2892220e+06
   1.5525175e-09  -3.8411133e-03   4.6448756e-01   3.4448070e-01  -8.2418440e+06
   1.5551851e-09  -3.8191907e-03   4.6410327e-01   3.4478337e-01  -8.1947382e+06
   1.5578526e-09  -3.7973934e-03   4.6372145e-01   3.4508454e-01  -8.1479030e+06
   1.5605202e-09  -3.7757206e-03   4.6334209e-01   3.4538422e-01  -8.1013367e+06
   1.5631877e-09  -3.7541718e-03   4.6296517e-01   3.4568242e-01  -8.0550378e+06
   1.5658553e-09  -3.7327461e-03   4.6259067e-01   3.4597914e-01  -8.0090048e+06
   1.5685228e-09  -3.7114428e-03   4.6221857e-01   3.4627439e-01  -7.9632361e+06
   1.5711904e-09  -3.6902612e-03   4.6184886e-01   3.4656818e-01  -7.9177301e+06
   1.5738580e-09  -3.6692007e-03   4.6148152e-01   3.4686051e-01  -7.8724853e+06
   1.5765255e-09  -3.6482606e-03   4.6111653e-01   3.4715138e-01  -7.8275002e+06
   1.5791931e-09  -3.6274401e-03   4.6075388e-01   3.4744081e-01  -7.7827733e+06
   1.5818606e-09  -3.6067386e-03   4.6039355e-01   3.4772880e-01  -7.7383031e+06
   1.5845282e-09  -3.5861553e-03   4.6003553e-01   3.4801536e-01  -7.6940881e+06
   1.5871957e-09  -3.5656897e-03   4.5967979e-01   3.4830048e-01  -7.6501268e+06
   1.5898633e-09  -3.5453410e-03   4.5932633e-01   3.4858419e-01  -7.6064178e+06
   1.5925308e-09  -3.5251085e-03   4.5897512e-01   3.4886647e-01  -7.5629594e+06
   1.5951984e-09  -3.5049917e-03   4.5862615e-01   3.4914735e-01  -7.5197504e+06
   1.5978660e-09  -3.4849898e-03   4.5827941e-01   3.4942682e-01  -7.4767893e+06
   1.6005335e-09  -3.4651021e-03   4.5793488e-01   3.4970489e-01  -7.4340746e+06
   1.6032011e-09  -3.4453281e-03   4.5759254e-01   3.4998157e-01  -7.3916048e+06
   1.6058686e-09  -3.4256671e-03   4.5725238e-01   3.5025686e-01  -7.3493786e+06
   1.6085362e-09  -3.4061183e-03   4.5691438e-01   3.5053078e-01  -7.3073946e+06
   1.6112037e-09  -3.3866812e-03   4.5657853e-01   3.5080331e-01  -7.2656513e+06
   1.6138713e-09  -3.3673552e-03   4.5624482e-01   3.5107448e-01  -7.2241473e+06
   1.6165388e-09  -3.3481396e-03   4.5591322e-01   3.5134428e-01  -7.1828813e+06
   1.6192064e-09  -3.3290337e-03   4.5558373e-01   3.5161272e-01  -7.1418519e+06
   1.6218740e-09  -3.3100370e-03   4.5525633e-01   3.5187982e-01  -7.1010576e+06
   1.6245415e-09  -3.2911487e-03   4.5493100e-01   3.5214556e-01  -7.0604973e+06
   1.6272091e-09  -3.2723684e-03   4.5460774e-01   3.5240997e-01  -7.0201693e+06
   1.6298766e-09  -3.2536953e-03   4.5428652e-01   3.5267304e-01  -6.9800726e+06
   1.6325442e-09  -3.2351289e-03   4.5396733e-01   3.5293478e-01  -6.9402056e+06
   1.6352117e-09  -3.2166685e-03   4.5365017e-01   3.5319520e-01  -6.9005671e+06
   1.6378793e-09  -3.1983136e-03   4.5333500e-01   3.5345430e-01  -6.8611557e+06
   1.6405468e-09  -3.1800634e-03   4.5302183e-01   3.5371209e-01  -6.8219701e+06
   1.6432144e-09  -3.1619176e-03   4.5271063e-01   3.5396858e-01  -6.7830091e+06
   1.6458820e-09  -3.1438753e-03   4.5240140e-01   3.5422376e-01  -6.7442712e+06
   1.6485495e-09  -3.1259361e-03   4.5209412e-01   3.5447765e-01  -6.7057553e+06
   1.6512171e-09  -3.1080993e-03   4.5178878e-01   3.5473025e-01  -6.6674601e+06
   1.6538846e-09  -3.0903644e-03   4.5148536e-01   3.5498156e-01  -6.6293842e+06
   1.6565522e-09  -3.0727308e-03   4.5118385e-01   3.5523160e-01  -6.5915263e+06
   1.6592197e-09  -3.0551979e-03   4.5088423e-01   3.5548037e-01  -6.5538854e+06
   1.6618873e-09  -3.0377651e-03   4.5058651e-01   3.5572786e-01  -6.5164600e+06
   1.6645549e-09  -3.0204318e-03   4.5029065e-01   3.5597410e-01  -6.4792489e+06
   1.6672224e-09  -3.0031976e-03   4.4999665e-01   3.5621909e-01  -6.4422509e+06
   1.6698900e-09  -2.9860617e-03   4.4970450e-01   3.5646282e-01  -6.4054648e+06
   1.6725575e-09  -2.9690237e-03   4.4941418e-01   3.5670531e-01  -6.3688893e+06
   1.6752251e-09  -2.9520830e-03   4.4912568e-01   3.5694656e-01  -6.3325232e+06
   1.6778926e-09  -2.9352390e-03   4.4883900e-01   3.5718657e-01  -6.2963653e+06
   1.6805602e-09  -2.9184911e-03   4.4855410e-01   3.5742536e-01  -6.2604145e+06
   1.6832277e-09  -2.9018389e-03   4.4827100e-01   3.5766293e-01  -6.2246694e+06
   1.6858953e-09  -2.8852818e-03   4.4798966e-01   3.5789928e-01  -6.1891290e+06
   1.6885629e-09  -2.8688192e-03   4.4771009e-01   3.5813441e-01  -6.1537920e+06
   1.6912304e-09  -2.8524507e-03   4.4743226e-01   3.5836835e-01  -6.1186573e+06
   1.6938980e-09  -2.8361755e-03   4.4715617e-01   3.5860108e-01  -6.0837236e+06
   1.6965655e-09  -2.8199933e-03   4.4688181e-01   3.5883261e-01  -6.0489899e+06
   1.6992331e-09  -2.8039035e-03   4.4660916e-01   3.5906296e-01  -6.0144550e+06
   1.7019006e-09  -2.7879055e-03   4.4633821e-01   3.5929212e-01  -5.9801177e+06
   1.7045682e-09  -2.7719989e-03   4.4606895e-01   3.5952011e-01  -5.9459769e+06
   1.7072357e-09  -2.7561831e-03   4.4580137e-01   3.5974691e-01  -5.9120315e+06
   1.7099033e-09  -2.7404575e-03   4.4553546e-01   3.5997256e-01  -5.8782803e+06
   1.7125709e-09  -2.7248218e-03   4.4527120e-01   3.6019703e-01  -5.8447223e+06
   1.7152384e-09  -2.7092753e-03   4.4500859e-01   3.6042035e-01  -5.8113562e+06
   1.7179060e-09  -2.6938176e-03   4.4474762e-01   3.6064252e-01  -5.7781810e+06
   1.7205735e-09  -2.6784481e-03   4.4448826e-01   3.6086354e-01  -5.7451957e+06
   1.7232411e-09  -2.6631663e-03   4.4423052e-01   3.6108342e-01  -5.7123990e+06
   1.7259086e-09  -2.6479718e-03   4.4397439e-01   3.6130216e-01  -5.6797899e+06
   1.7285762e-09  -2.6328640e-03   4.4371984e-01   3.6151977e-01  -5.6473674e+06
   1.7312437e-09  -2.6178425e-03   4.4346687e-01   3.6173625e-01  -5.6151303e+06
   1.7339113e-09  -2.6029067e-03   4.4321548e-01   3.6195162e-01  -5.5830776e+06
   1.7365789e-09  -2.5880562e-03   4.4296564e-01   3.6216586e-01  -5.5512083e+06
   1.7392464e-09  -2.5732904e-03   4.4271735e-01   3.6237900e-01  -5.5195212e+06
   1.7419140e-09  -2.5586089e-03   4.4247060e-01   3.6259103e-01  -5.4880154e+06
   1.7445815e-09  -2.5440112e-03   4.4222538e-01   3.6280196e-01  -5.4566897e+06
   1.7472491e-09  -2.5294969e-03   4.4198168e-01   3.6301179e-01  -5.4255431e+06
   1.7499166e-09  -2.5150654e-03   4.4173948e-01   3.6322053e-01  -5.3945747e+06
   1.7525842e-09  -2.5007162e-03   4.4149879e-01   3.6342819e-01  -5.3637834e+06
   1.7552518e-09  -2.4864490e-03   4.4125958e-01   3.6363477e-01  -5.3331681e+06
   1.7579193e-09  -2.4722632e-03   4.4102185e-01   3.6384027e-01  -5.3027279e+06
   1.7605869e-09  -2.4581584e-03   4.4078559e-01   3.6404470e-01  -5.2724617e+06
   1.7632544e-09  -2.4441341e-03   4.4055079e-01   3.6424807e-01  -5.2423686e+06
   1.7659220e-09  -2.4301898e-03   4.4031744e-01   3.6445037e-01  -5.2124475e+06
   1.7685895e-09  -2.4163251e-03   4.4008552e-01   3.6465162e-01  -5.1826975e+06
   1.7712571e-09  -2.4025395e-03   4.3985504e-01   3.6485182e-01  -5.1531176e+06
   1.7739246e-09  -2.3888327e-03   4.3962598e-01   3.6505098e-01  -5.1237068e+06
   1.7765922e-09  -2.3752040e-03   4.3939833e-01   3.6524909e-01  -5.0944641e+06
   1.7792598e-09  -2.3616532e-03   4.3917208e-01   3.6544617e-01  -5.0653885e+06
   1.7819273e-09  -2.3481796e-03   4.3894723e-01   3.6564222e-01  -5.0364792e+06
   1.7845949e-09  -2.3347830e-03   4.3872376e-01   3.6583724e-01  -5.0077351e+06
   1.7872624e-09  -2.3214628e-03   4.3850166e-01   3.6603124e-01  -4.9791553e+06
   1.7899300e-09  -2.3082187e-03   4.3828093e-01   3.6622422e-01  -4.9507389e+06
   1.7925975e-09  -2.2950501e-03   4.3806156e-01   3.6641620e-01  -4.9224848e+06
   1.7952651e-09  -2.2819567e-03   4.3784353e-01   3.6660716e-01  -4.8943923e+06
   1.7979326e-09  -2.2689380e-03   4.3762685e-01   3.6679713e-01  -4.8664603e+06
   1.8006002e-09  -2.2559936e-03   4.3741149e-01   3.6698609e-01  -4.8386879e+06
   1.8032678e-09  -2.2431231e-03   4.3719746e-01   3.6717407e-01  -4.8110742e+06
   1.8059353e-09  -2.2303261e-03   4.3698474e-01   3.6736105e-01  -4.7836184e+06
   1.8086029e-09  -2.2176020e-03   4.3677332e-01   3.6754706e-01  -4.7563194e+06
   1.8112704e-09  -2.2049506e-03   4.3656320e-01   3.6773208e-01  -4.7291765e+06
   1.8139380e-09  -2.1923714e-03   4.3635436e-01   3.6791614e-01  -4.7021886e+06
   1.8166055e-09  -2.1798639e-03   4.3614681e-01   3.6809922e-01  -4.6753549e+06
   1.8192731e-09  -2.1674279e-03   4.3594052e-01   3.6828134e-01  -4.6486746e+06
   1.8219406e-09  -2.1550628e-03   4.3573550e-01   3.6846250e-01  -4.6221467e+06
   1.8246082e-09  -2.1427683e-03   4.3553174e-01   3.6864270e-01  -4.5957704e+06
   1.8272758e-09  -2.1305439e-03   4.3532921e-01   3.6882196e-01  -4.5695448e+06
   1.8299433e-09  -2.1183893e-03   4.3512793e-01   3.6900026e-01  -4.5434690e+06
   1.8326109e-09  -2.1063040e-03   4.3492788e-01   3.6917763e-01  -4.5175422e+06
   1.8352784e-09  -2.0942877e-03   4.3472905e-01   3.6935406e-01  -4.4917635e+06
   1.8379460e-09  -2.0823400e-03   4.3453143e-01   3.6952956e-01  -4.4661320e+06
   1.8406135e-09  -2.0704604e-03   4.3433502e-01   3.6970413e-01  -4.4406470e+06
   1.8432811e-09  -2.0586487e-03   4.3413980e-01   3.6987777e-01  -4.4153076e+06
   1.8459486e-09  -2.0469043e-03   4.3394578e-01   3.7005050e-01  -4.3901130e+06
   1.8486162e-09  -2.0352270e-03   4.3375294e-01   3.7022231e-01  -4.3650622e+06
   1.8512838e-09  -2.0236163e-03   4.3356128e-01   3.7039322e-01  -4.3401546e+06
   1.8539513e-09  -2.0120718e-03   4.3337078e-01   3.7056321e-01  -4.3153892e+06
   1.8566189e-09  -2.0005932e-03   4.3318144e-01   3.7073231e-01  -4.2907653e+06
   1.8592864e-09  -1.9891802e-03   4.3299326e-01   3.7090051e-01  -4.2662820e+06
   1.8619540e-09  -1.9778322e-03   4.3280622e-01   3.7106782e-01  -4.2419386e+06
   1.8646215e-09  -1.9665490e-03   4.3262032e-01   3.7123424e-01  -4.2177342e+06
   1.8672891e-09  -1.9553302e-03   4.3243555e-01   3.7139977e-01  -4.1936680e+06
   1.8699567e-09  -1.9441754e-03   4.3225190e-01   3.7156443e-01  -4.1697393e+06
   1.8726242e-09  -1.9330842e-03   4.3206937e-01   3.7172821e-01  -4.1459473e+06
   1.8752918e-09  -1.9220563e-03   4.3188795e-01   3.7189112e-01  -4.1222912e+06
   1.8779593e-09  -1.9110914e-03   4.3170763e-01   3.7205317e-01  -4.0987701e+06
   1.8806269e-09  -1.9001890e-03   4.3152841e-01   3.7221435e-01  -4.0753834e+06
   1.8832944e-09  -1.8893488e-03   4.3135027e-01   3.7237467e-01  -4.0521302e+06
   1.8859620e-09  -1.8785705e-03   4.3117321e-01   3.7253414e-01  -4.0290098e+06
   1.8886295e-09  -1.8678536e-03   4.3099723e-01   3.7269277e-01  -4.0060215e+06
   1.8912971e-09  -1.8571979e-03   4.3082231e-01   3.7285054e-01  -3.9831644e+06
   1.8939647e-09  -1.8466030e-03   4.3064845e-01   3.7300748e-01  -3.9604378e+06
   1.8966322e-09  -1.8360686e-03   4.3047565e-01   3.7316357e-01  -3.9378411e+06
   1.8992998e-09  -1.8255943e-03   4.3030389e-01   3.7331884e-01  -3.9153733e+06
   1.9019673e-09  -1.8151797e-03   4.3013318e-01   3.7347327e-01  -3.8930339e+06
   1.9046349e-09  -1.8048246e-03   4.2996349e-01   3.7362688e-01  -3.8708220e+06
   1.9073024e-09  -1.7945285e-03   4.2979484e-01   3.7377967e-01  -3.8487369e+06
   1.9099700e-09  -1.7842912e-03   4.2962720e-01   3.7393165e-01  -3.8267779e+06
   1.9126375e-09  -1.7741123e-03   4.2946058e-01   3.7408281e-01  -3.8049443e+06
   1.9153051e-09  -1.7639914e-03   4.2929496e-01   3.7423316e-01  -3.7832354e+06
   1.9179727e-09  -1.7539283e-03   4.2913035e-01   3.7438271e-01  -3.7616504e+06
   1.9206402e-09  -1.7439227e-03   4.2896673e-01   3.7453146e-01  -3.7401887e+06
   1.9233078e-09  -1.7339741e-03   4.2880409e-01   3.7467941e-01  -3.7188495e+06
   1.9259753e-09  -1.7240822e-03   4.2864244e-01   3.7482657e-01  -3.6976321e+06
   1.9286429e-09  -1.7142468e-03   4.2848177e-01   3.7497294e-01  -3.6765358e+06
   1.9313104e-09  -1.7044676e-03   4.2832206e-01   3.7511852e-01  -3.6555600e+06
   1.9339780e-09  -1.6947441e-03   4.2816332e-01   3.7526333e-01  -3.6347040e+06
   1.9366455e-09  -1.6850761e-03   4.2800553e-01   3.7540736e-01  -3.6139670e+06
   1.9393131e-09  -1.6754632e-03   4.2784870e-01   3.7555061e-01  -3.5933484e+06
   1.9419807e-09  -1.6659052e-03   4.2769281e-01   3.7569310e-01  -3.5728475e+06
   1.9446482e-09  -1.6564017e-03   4.2753786e-01   3.7583482e-01  -3.5524636e+06
   1.9473158e-09  -1.6469525e-03   4.2738384e-01   3.7597578e-01  -3.5321961e+06
   1.9499833e-09  -1.6375571e-03   4.2723075e-01   3.7611598e-01  -3.5120443e+06
   1.9526509e-09  -1.6282154e-03   4.2707858e-01   3.7625543e-01  -3.4920075e+06
   1.9553184e-09  -1.6189270e-03   4.2692733e-01   3.7639413e-01  -3.4720851e+06
   1.9579860e-09  -1.6096915e-03   4.2677699e-01   3.7653208e-01  -3.4522764e+06
   1.9606536e-09  -1.6005087e-03   4.2662755e-01   3.7666929e-01  -3.4325808e+06
   1.9633211e-09  -1.5913784e-03   4.2647901e-01   3.7680576e-01  -3.4129976e+06
   1.9659887e-09  -1.5823001e-03   4.2633136e-01   3.7694150e-01  -3.3935262e+06
   1.9686562e-09  -1.5732736e-03   4.2618460e-01   3.7707651e-01  -3.3741660e+06
   1.9713238e-09  -1.5642986e-03   4.2603872e-01   3.7721078e-01  -3.3549162e+06
   1.9739913e-09  -1.5553748e-03   4.2589371e-01   3.7734434e-01  -3.3357764e+06
   1.9766589e-09  -1.5465019e-03   4.2574958e-01   3.7747717e-01  -3.3167457e+06
   1.9793264e-09  -1.5376796e-03   4.2560631e-01   3.7760929e-01  -3.2978237e+06
   1.9819940e-09  -1.5289077e-03   4.2546390e-01   3.7774069e-01  -3.2790097e+06
   1.9846616e-09  -1.5201858e-03   4.2532235e-01   3.7787139e-01  -3.2603031e+06
   1.9873291e-09  -1.5115137e-03   4.2518164e-01   3.7800138e-01  -3.2417032e+06
   1.9899967e-09  -1.5028910e-03   4.2504178e-01   3.7813067e-01  -3.2232096e+06
   1.9926642e-09  -1.4943176e-03   4.2490275e-01   3.7825926e-01  -3.2048214e+06
   1.9953318e-09  -1.4857930e-03   4.2476456e-01   3.7838715e-01  -3.1865382e+06
   1.9979993e-09  -1.4773171e-03   4.2462720e-01   3.7851435e-01  -3.1683594e+06
   2.0006669e-09  -1.4688895e-03   4.2449066e-01   3.7864087e-01  -3.1502843e+06
   2.0033344e-09  -1.4605100e-03   4.2435493e-01   3.7876670e-01  -3.1323123e+06
   2.0060020e-09  -1.4521784e-03   4.2422002e-01   3.7889185e-01  -3.1144430e+06
   2.0086696e-09  -1.4438942e-03   4.2408592e-01   3.7901632e-01  -3.0966756e+06
   2.0113371e-09  -1.4356573e-03   4.2395261e-01   3.7914012e-01  -3.0790096e+06
   2.0140047e-09  -1.4274674e-03   4.2382011e-01   3.7926324e-01  -3.0614444e+06
   2.0166722e-09  -1.4193242e-03   4.2368840e-01   3.7938570e-01  -3.0439795e+06
   2.0193398e-09  -1.4112275e-03   4.2355747e-01   3.7950750e-01  -3.0266142e+06
   2.0220073e-09  -1.4031770e-03   4.2342733e-01   3.7962864e-01  -3.0093480e+06
   2.0246749e-09  -1.3951724e-03   4.2329796e-01   3.7974912e-01  -2.9921804e+06
   2.0273424e-09  -1.3872134e-03   4.2316937e-01   3.7986894e-01  -2.9751108e+06
   2.0300100e-09  -1.3792999e-03   4.2304154e-01   3.7998812e-01  -2.9581385e+06
   2.0326776e-09  -1.3714315e-03   4.2291448e-01   3.8010665e-01  -2.9412631e+06
   2.0353451e-09  -1.3636080e-03   4.2278817e-01   3.8022453e-01  -2.9244840e+06
   2.0380127e-09  -1.3558291e-03   4.2266262e-01   3.8034178e-01  -2.9078007e+06
   2.0406802e-09  -1.3480946e-03   4.2253782e-01   3.8045839e-01  -2.8912126e+06
   2.0433478e-09  -1.3404042e-03   4.2241376e-01   3.8057436e-01  -2.8747191e+06
   2.0460153e-09  -1.3327577e-03   4.2229044e-01   3.8068971e-01  -2.8583197e+06
   2.0486829e-09  -1.3251548e-03   4.2216786e-01   3.8080442e-01  -2.8420139e+06
   2.0513505e-09  -1.3175953e-03   4.2204601e-01   3.8091852e-01  -2.8258012e+06
   2.0540180e-09  -1.3100789e-03   4.2192488e-01   3.8103199e-01  -2.8096810e+06
   2.0566856e-09  -1.3026054e-03   4.2180447e-01   3.8114484e-01  -2.7936527e+06
   2.0593531e-09  -1.2951745e-03   4.2168478e-01   3.8125709e-01  -2.7777160e+06
   2.0620207e-09  -1.2877861e-03   4.2156581e-01   3.8136872e-01  -2.7618701e+06
   2.0646882e-09  -1.2804397e-03   4.2144754e-01   3.8147974e-01  -2.7461147e+06
   2.0673558e-09  -1.2731353e-03   4.2132998e-01   3.8159015e-01  -2.7304492e+06
   2.0700233e-09  -1.2658725e-03   4.2121311e-01   3.8169997e-01  -2.7148730e+06
   2.0726909e-09  -1.2586512e-03   4.2109694e-01   3.8180919e-01  -2.6993858e+06
   2.0753585e-09  -1.2514711e-03   4.2098146e-01   3.8191781e-01  -2.6839869e+06
   2.0780260e-09  -1.2443319e-03   4.2086667e-01   3.8202584e-01  -2.6686759e+06
   2.0806936e-09  -1.2372335e-03   4.2075256e-01   3.8213328e-01  -2.6534522e+06
   2.0833611e-09  -1.2301755e-03   4.2063913e-01   3.8224013e-01  -2.6383154e+06
   2.0860287e-09  -1.2231578e-03   4.2052637e-01   3.8234640e-01  -2.6232650e+06
   2.0886962e-09  -1.2161802e-03   4.2041428e-01   3.8245209e-01  -2.6083004e+06
   2.0913638e-09  -1.2092423e-03   4.2030285e-01   3.8255720e-01  -2.5934212e+06
   2.0940313e-09  -1.2023440e-03   4.2019209e-01   3.8266174e-01  -2.5786270e+06
   2.0966989e-09  -1.1954851e-03   4.2008199e-01   3.8276571e-01  -2.5639171e+06
   2.0993665e-09  -1.1886653e-03   4.1997254e-01   3.8286911e-01  -2.5492912e+06
   2.1020340e-09  -1.1818844e-03   4.1986373e-01   3.8297194e-01  -2.5347487e+06
   2.1047016e-09  -1.1751422e-03   4.1975558e-01   3.8307422e-01  -2.5202891e+06
   2.1073691e-09  -1.1684385e-03   4.1964806e-01   3.8317593e-01  -2.5059121e+06
   2.1100367e-09  -1.1617729e-03   4.1954119e-01   3.8327709e-01  -2.4916171e+06
   2.1127042e-09  -1.1551455e-03   4.1943494e-01   3.8337769e-01  -2.4774037e+06
   2.1153718e-09  -1.1485558e-03   4.1932933e-01   3.8347774e-01  -2.4632714e+06
   2.1180393e-09  -1.1420037e-03   4.1922434e-01   3.8357725e-01  -2.4492196e+06
   2.1207069e-09  -1.1354890e-03   4.1911997e-01   3.8367621e-01  -2.4352481e+06
   2.1233745e-09  -1.1290114e-03   4.1901622e-01   3.8377463e-01  -2.4213563e+06
   2.1260420e-09  -1.1225709e-03   4.1891309e-01   3.8387250e-01  -2.4075437e+06
   2.1287096e-09  -1.1161670e-03   4.1881056e-01   3.8396985e-01  -2.3938099e+06
   2.1313771e-09  -1.1097997e-03   4.1870865e-01   3.8406666e-01  -2.3801545e+06
   2.1340447e-09  -1.1034687e-03   4.1860733e-01   3.8416294e-01  -2.3665770e+06
   2.1367122e-09  -1.0971738e-03   4.1850662e-01   3.8425869e-01  -2.3530770e+06
   2.1393798e-09  -1.0909148e-03   4.1840650e-01   3.8435391e-01  -2.3396540e+06
   2.1420473e-09  -1.0846915e-03   4.1830697e-01   3.8444861e-01  -2.3263075e+06
   2.1447149e-09  -1.0785038e-03   4.1820803e-01   3.8454280e-01  -2.3130372e+06
   2.1473825e-09  -1.0723513e-03   4.1810968e-01   3.8463646e-01  -2.2998426e+06
   2.1500500e-09  -1.0662339e-03   4.1801191e-01   3.8472962e-01  -2.2867233e+06
   2.1527176e-09  -1.0601514e-03   4.1791471e-01   3.8482226e-01  -2.2736789e+06
   2.1553851e-09  -1.0541036e-03   4.1781809e-01   3.8491439e-01  -2.2607088e+06
   2.1580527e-09  -1.0480904e-03   4.1772204e-01   3.8500602e-01  -2.2478128e+06
   2.1607202e-09  -1.0421114e-03   4.1762656e-01   3.8509714e-01  -2.2349903e+06
   2.1633878e-09  -1.0361665e-03   4.1753164e-01   3.8518776e-01  -2.2222410e+06
   2.1660554e-09  -1.0302555e-03   4.1743728e-01   3.8527788e-01  -2.2095644e+06
   2.1687229e-09  -1.0243783e-03   4.1734348e-01   3.8536751e-01  -2.1969601e+06
   2.1713905e-09  -1.0185346e-03   4.1725023e-01   3.8545665e-01  -2.1844277e+06
   2.1740580e-09  -1.0127242e-03   4.1715754e-01   3.8554529e-01  -2.1719668e+06
   2.1767256e-09  -1.0069469e-03   4.1706539e-01   3.8563345e-01  -2.1595770e+06
   2.1793931e-09  -1.0012027e-03   4.1697378e-01   3.8572112e-01  -2.1472579e+06
   2.1820607e-09  -9.9549115e-04   4.1688271e-01   3.8580831e-01  -2.1350091e+06
   2.1847282e-09  -9.8981221e-04   4.1679218e-01   3.8589502e-01  -2.1228302e+06
   2.1873958e-09  -9.8416567e-04   4.1670219e-01   3.8598126e-01  -2.1107207e+06
   2.1900634e-09  -9.7855134e-04   4.1661272e-01   3.8606701e-01  -2.0986803e+06
   2.1927309e-09  -9.7296904e-04   4.1652378e-01   3.8615230e-01  -2.0867086e+06
   2.1953985e-09  -9.6741858e-04   4.1643537e-01   3.8623711e-01  -2.0748052e+06
   2.1980660e-09  -9.6189979e-04   4.1634747e-01   3.8632146e-01  -2.0629697e+06
   2.2007336e-09  -9.5641247e-04   4.1626009e-01   3.8640535e-01  -2.0512017e+06
   2.2034011e-09  -9.5095646e-04   4.1617323e-01   3.8648877e-01  -2.0395008e+06
   2.2060687e-09  -9.4553157e-04   4.1608688e-01   3.8657173e-01  -2.0278667e+06
   2.2087362e-09  -9.4013763e-04   4.1600104e-01   3.8665423e-01  -2.0162990e+06
   2.2114038e-09  -9.3477445e-04   4.1591570e-01   3.8673628e-01  -2.0047972e+06
   2.2140714e-09  -9.2944187e-04   4.1583087e-01   3.8681787e-01  -1.9933611e+06
   2.2167389e-09  -9.2413971e-04   4.1574653e-01   3.8689902e-01  -1.9819902e+06
   2.2194065e-09  -9.1886779e-04   4.1566269e-01   3.8697972e-01  -1.9706842e+06
   2.2220740e-09  -9.1362595e-04   4.1557934e-01   3.8705997e-01  -1.9594427e+06
   2.2247416e-09  -9.0841401e-04   4.1549649e-01   3.8713978e-01  -1.9482653e+06
   2.2274091e-09  -9.0323180e-04   4.1541412e-01   3.8721915e-01  -1.9371516e+06
   2.2300767e-09  -8.9807915e-04   4.1533223e-01   3.8729808e-01  -1.9261014e+06
   2.2327442e-09  -8.9295589e-04   4.1525083e-01   3.8737657e-01  -1.9151142e+06
   2.2354118e-09  -8.8786186e-04   4.1516990e-01   3.8745463e-01  -1.9041896e+06
   2.2380794e-09  -8.8279689e-04   4.1508945e-01   3.8753226e-01  -1.8933274e+06
   2.2407469e-09  -8.7776081e-04   4.1500947e-01   3.8760946e-01  -1.8825272e+06
   2.2434145e-09  -8.7275345e-04   4.1492996e-01   3.8768623e-01  -1.8717885e+06
   2.2460820e-09  -8.6777467e-04   4.1485092e-01   3.8776258e-01  -1.8611111e+06
   2.2487496e-09  -8.6282428e-04   4.1477235e-01   3.8783850e-01  -1.8504947e+06
   2.2514171e-09  -8.5790213e-04   4.1469423e-01   3.8791401e-01  -1.8399388e+06
   2.2540847e-09  -8.5300806e-04   4.1461657e-01   3.8798910e-01  -1.8294431e+06
   2.2567523e-09  -8.4814191e-04   4.1453937e-01   3.8806377e-01  -1.8190072e+06
   2.2594198e-09  -8.4330351e-04   4.1446262e-01   3.8813803e-01  -1.8086309e+06
   2.2620874e-09  -8.3849272e-04   4.1438632e-01   3.8821188e-01  -1.7983138e+06
   2.2647549e-09  -8.3370936e-04   4.1431047e-01   3.8828532e-01  -1.7880556e+06
   2.2674225e-09  -8.2895330e-04   4.1423507e-01   3.8835835e-01  -1.7778558e+06
   2.2700900e-09  -8.2422436e-04   4.1416010e-01   3.8843098e-01  -1.7677143e+06
   2.2727576e-09  -8.1952240e-04   4.1408558e-01   3.8850321e-01  -1.7576306e+06
   2.2754251e-09  -8.1484727e-04   4.1401149e-01   3.8857503e-01  -1.7476044e+06
   2.2780927e-09  -8.1019880e-04   4.1393784e-01   3.8864646e-01  -1.7376354e+06
   2.2807603e-09  -8.0557684e-04   4.1386461e-01   3.8871749e-01  -1.7277233e+06
   2.2834278e-09  -8.0098126e-04   4.1379182e-01   3.8878813e-01  -1.7178677e+06
   2.2860954e-09  -7.9641189e-04   4.1371946e-01   3.8885838e-01  -1.7080683e+06
   2.2887629e-09  -7.9186858e-04   4.1364751e-01   3.8892824e-01  -1.6983249e+06
   2.2914305e-09  -7.8735119e-04   4.1357599e-01   3.8899770e-01  -1.6886370e+06
   2.2940980e-09  -7.8285957e-04   4.1350489e-01   3.8906679e-01  -1.6790044e+06
   2.2967656e-09  -7.7839357e-04   4.1343420e-01   3.8913549e-01  -1.6694267e+06
   2.2994331e-09  -7.7395305e-04   4.1336393e-01   3.8920381e-01  -1.6599037e+06
   2.3021007e-09  -7.6953786e-04   4.1329407e-01   3.8927175e-01  -1.6504349e+06
   2.3047683e-09  -7.6514785e-04   4.1322462e-01   3.8933932e-01  -1.6410202e+06
   2.3074358e-09  -7.6078289e-04   4.1315557e-01   3.8940650e-01  -1.6316592e+06
   2.3101034e-09  -7.5644282e-04   4.1308693e-01   3.8947332e-01  -1.6223516e+06
   2.3127709e-09  -7.5212751e-04   4.1301869e-01   3.8953976e-01  -1.6130971e+06
   2.3154385e-09  -7.4783682e-04   4.1295085e-01   3.8960584e-01  -1.6038954e+06
   2.3181060e-09  -7.4357061e-04   4.1288341e-01   3.8967155e-01  -1.5947461e+06
   2.3207736e-09  -7.3932873e-04   4.1281636e-01   3.8973689e-01  -1.5856491e+06
   2.3234411e-09  -7.3511105e-04   4.1274970e-01   3.8980187e-01  -1.5766039e+06
   2.3261087e-09  -7.3091743e-04   4.1268343e-01   3.8986649e-01  -1.5676104e+06
   2.3287763e-09  -7.2674773e-04   4.1261755e-01   3.8993075e-01  -1.5586681e+06
   2.3314438e-09  -7.2260181e-04   4.1255205e-01   3.8999466e-01  -1.5497769e+06
   2.3341114e-09  -7.1847955e-04   4.1248694e-01   3.9005820e-01  -1.5409363e+06
   2.3367789e-09  -7.1438080e-04   4.1242221e-01   3.9012140e-01  -1.5321462e+06
   2.3394465e-09  -7.1030543e-04   4.1235785e-01   3.9018424e-01  -1.5234063e+06
   2.3421140e-09  -7.0625331e-04   4.1229387e-01   3.9024674e-01  -1.5147161e+06
   2.3447816e-09  -7.0222430e-04   4.1223027e-01   3.9030888e-01  -1.5060756e+06
   2.3474491e-09  -6.9821828e-04   4.1216704e-01   3.9037068e-01  -1.4974843e+06
   2.3501167e-09  -6.9423511e-04   4.1210417e-01   3.9043214e-01  -1.4889421e+06
   2.3527843e-09  -6.9027466e-04   4.1204167e-01   3.9049325e-01  -1.4804486e+06
   2.3554518e-09  -6.8633681e-04   4.1197954e-01   3.9055403e-01  -1.4720035e+06
   2.3581194e-09  -6.8242141e-04   4.1191777e-01   3.9061446e-01  -1.4636066e+06
   2.3607869e-09  -6.7852835e-04   4.1185636e-01   3.9067456e-01  -1.4552576e+06
   2.3634545e-09  -6.7465750e-04   4.1179531e-01   3.9073432e-01  -1.4469562e+06
   2.3661220e-09  -6.7080873e-04   4.1173462e-01   3.9079376e-01  -1.4387022e+06
   2.3687896e-09  -6.6698192e-04   4.1167428e-01   3.9085286e-01  -1.4304952e+06
   2.3714572e-09  -6.6317693e-04   4.1161429e-01   3.9091163e-01  -1.4223351e+06
   2.3741247e-09  -6.5939365e-04   4.1155465e-01   3.9097007e-01  -1.4142215e+06
   2.3767923e-09  -6.5563195e-04   4.1149536e-01   3.9102819e-01  -1.4061542e+06
   2.3794598e-09  -6.5189171e-04   4.1143641e-01   3.9108598e-01  -1.3981329e+06
   2.3821274e-09  -6.4817281e-04   4.1137781e-01   3.9114346e-01  -1.3901574e+06
   2.3847949e-09  -6.4447512e-04   4.1131955e-01   3.9120061e-01  -1.3822273e+06
   2.3874625e-09  -6.4079852e-04   4.1126163e-01   3.9125744e-01  -1.3743425e+06
   2.3901300e-09  -6.3714290e-04   4.1120405e-01   3.9131396e-01  -1.3665027e+06
   2.3927976e-09  -6.3350813e-04   4.1114680e-01   3.9137016e-01  -1.3587076e+06
   2.3954652e-09  -6.2989409e-04   4.1108988e-01   3.9142605e-01  -1.3509569e+06
   2.3981327e-09  -6.2630067e-04   4.1103330e-01   3.9148162e-01  -1.3432505e+06
   2.4008003e-09  -6.2272775e-04   4.1097705e-01   3.9153689e-01  -1.3355880e+06
   2.4034678e-09  -6.1917521e-04   4.1092112e-01   3.9159185e-01  -1.3279692e+06
   2.4061354e-09  -6.1564293e-04   4.1086552e-01   3.9164650e-01  -1.3203939e+06
   2.4088029e-09  -6.1213081e-04   4.1081025e-01   3.9170084e-01  -1.3128618e+06
   2.4114705e-09  -6.0863872e-04   4.1075529e-01   3.9175488e-01  -1.3053726e+06
   2.4141380e-09  -6.0516655e-04   4.1070066e-01   3.9180862e-01  -1.2979262e+06
   2.4168056e-09  -6.0171418e-04   4.1064634e-01   3.9186207e-01  -1.2905223e+06
   2.4194732e-09  -5.9828151e-04   4.1059234e-01   3.9191521e-01  -1.2831606e+06
   2.4221407e-09  -5.9486843e-04   4.1053866e-01   3.9196805e-01  -1.2758408e+06
   2.4248083e-09  -5.9147481e-04   4.1048529e-01   3.9202060e-01  -1.2685629e+06
   2.4274758e-09  -5.8810055e-04   4.1043222e-01   3.9207286e-01  -1.2613264e+06
   2.4301434e-09  -5.8474554e-04   4.1037947e-01   3.9212482e-01  -1.2541312e+06
   2.4328109e-09  -5.8140967e-04   4.1032702e-01   3.9217650e-01  -1.2469771e+06
   2.4354785e-09  -5.7809282e-04   4.1027488e-01   3.9222788e-01  -1.2398637e+06
   2.4381460e-09  -5.7479490e-04   4.1022304e-01   3.9227898e-01  -1.2327910e+06
   2.4408136e-09  -5.7151579e-04   4.1017150e-01   3.9232980e-01  -1.2257586e+06
   2.4434812e-09  -5.6825539e-04   4.1012027e-01   3.9238032e-01  -1.2187663e+06
   2.4461487e-09  -5.6501358e-04   4.1006933e-01   3.9243057e-01  -1.2118139e+06
   2.4488163e-09  -5.6179027e-04   4.1001868e-01   3.9248054e-01  -1.2049011e+06
   2.4514838e-09  -5.5858535e-04   4.0996833e-01   3.9253022e-01  -1.1980278e+06
   2.4541514e-09  -5.5539871e-04   4.0991828e-01   3.9257963e-01  -1.1911937e+06
   2.4568189e-09  -5.5223024e-04   4.0986851e-01   3.9262876e-01  -1.1843985e+06
   2.4594865e-09  -5.4907985e-04   4.0981903e-01   3.9267762e-01  -1.1776421e+06
   2.4621541e-09  -5.4594743e-04   4.0976985e-01   3.9272620e-01  -1.1709243e+06
   2.4648216e-09  -5.4283288e-04   4.0972094e-01   3.9277451e-01  -1.1642448e+06
   2.4674892e-09  -5.3973610e-04   4.0967232e-01   3.9282255e-01  -1.1576033e+06
   2.4701567e-09  -5.3665699e-04   4.0962399e-01   3.9287033e-01  -1.1509998e+06
   2.4728243e-09  -5.3359543e-04   4.0957593e-01   3.9291783e-01  -1.1444339e+06
   2.4754918e-09  -5.3055135e-04   4.0952815e-01   3.9296507e-01  -1.1379055e+06
   2.4781594e-09  -5.2752462e-04   4.0948065e-01   3.9301205e-01  -1.1314143e+06
   2.4808269e-09  -5.2451517e-04   4.0943343e-01   3.9305876e-01  -1.1249602e+06
   2.4834945e-09  -5.2152288e-04   4.0938648e-01   3.9310521e-01  -1.1185428e+06
   2.4861621e-09  -5.1854766e-04   4.0933980e-01   3.9315140e-01  -1.1121621e+06
   2.4888296e-09  -5.1558941e-04   4.0929340e-01   3.9319733e-01  -1.1058178e+06
   2.4914972e-09  -5.1264804e-04   4.0924726e-01   3.9324300e-01  -1.0995096e+06
   2.4941647e-09  -5.0972345e-04   4.0920139e-01   3.9328842e-01  -1.0932375e+06
   2.4968323e-09  -5.0681554e-04   4.0915579e-01   3.9333358e-01  -1.0870011e+06
   2.4994998e-09  -5.0392422e-04   4.0911045e-01   3.9337850e-01  -1.0808002e+06
   2.5021674e-09  -5.0104939e-04   4.0906537e-01   3.9342315e-01  -1.0746348e+06
   2.5048349e-09  -4.9819096e-04   4.0902056e-01   3.9346756e-01  -1.0685045e+06
   2.5075025e-09  -4.9534884e-04   4.0897601e-01   3.9351172e-01  -1.0624092e+06
   2.5101701e-09  -4.9252293e-04   4.0893171e-01   3.9355563e-01  -1.0563487e+06
   2.5128376e-09  -4.8971314e-04   4.0888767e-01   3.9359930e-01  -1.0503227e+06
   2.5155052e-09  -4.8691938e-04   4.0884389e-01   3.9364272e-01  -1.0443311e+06
   2.5181727e-09  -4.8414156e-04   4.0880036e-01   3.9368590e-01  -1.0383737e+06
   2.5208403e-09  -4.8137958e-04   4.0875708e-01   3.9372884e-01  -1.0324502e+06
   2.5235078e-09  -4.7863336e-04   4.0871406e-01   3.9377153e-01  -1.0265606e+06
   2.5261754e-09  -4.7590281e-04   4.0867128e-01   3.9381399e-01  -1.0207045e+06
   2.5288429e-09  -4.7318783e-04   4.0862875e-01   3.9385620e-01  -1.0148818e+06
   2.5315105e-09  -4.7048834e-04   4.0858647e-01   3.9389818e-01  -1.0090924e+06
   2.5341781e-09  -4.6780425e-04   4.0854443e-01   3.9393993e-01  -1.0033360e+06
   2.5368456e-09  -4.6513547e-04   4.0850264e-01   3.9398144e-01  -9.9761238e+05
   2.5395132e-09  -4.6248191e-04   4.0846109e-01   3.9402272e-01  -9.9192144e+05
   2.5421807e-09  -4.5984350e-04   4.0841978e-01   3.9406376e-01  -9.8626297e+05
   2.5448483e-09  -4.5722013e-04   4.0837870e-01   3.9410458e-01  -9.8063677e+05
   2.5475158e-09  -4.5461173e-04   4.0833787e-01   3.9414516e-01  -9.7504266e+05
   2.5501834e-09  -4.5201821e-04   4.0829727e-01   3.9418552e-01  -9.6948046e+05
   2.5528510e-09  -4.4943948e-04   4.0825691e-01   3.9422566e-01  -9.6394999e+05
   2.5555185e-09  -4.4687546e-04   4.0821678e-01   3.9426556e-01  -9.5845107e+05
   2.5581861e-09  -4.4432607e-04   4.0817689e-01   3.9430524e-01  -9.5298351e+05
   2.5608536e-09  -4.4179123e-04   4.0813722e-01   3.9434470e-01  -9.4754714e+05
   2.5635212e-09  -4.3927084e-04   4.0809779e-01   3.9438394e-01  -9.4214178e+05
   2.5661887e-09  -4.3676483e-04   4.0805858e-01   3.9442296e-01  -9.3676725e+05
   2.5688563e-09  -4.3427312e-04   4.0801960e-01   3.9446176e-01  -9.3142338e+05
   2.5715238e-09  -4.3179562e-04   4.0798085e-01   3.9450034e-01  -9.2610999e+05
   2.5741914e-09  -4.2933226e-04   4.0794232e-01   3.9453870e-01  -9.2082691e+05
   2.5768590e-09  -4.2688294e-04   4.0790401e-01   3.9457685e-01  -9.1557396e+05
   2.5795265e-09  -4.2444760e-04   4.0786593e-01   3.9461479e-01  -9.1035098e+05
   2.5821941e-09  -4.2202615e-04   4.0782806e-01   3.9465251e-01  -9.0515779e+05
   2.5848616e-09  -4.1961852e-04   4.0779042e-01   3.9469002e-01  -8.9999422e+05
   2.5875292e-09  -4.1722462e-04   4.0775299e-01   3.9472731e-01  -8.9486011e+05
   2.5901967e-09  -4.1484438e-04   4.0771578e-01   3.9476440e-01  -8.8975528e+05
   2.5928643e-09  -4.1247771e-04   4.0767878e-01   3.9480128e-01  -8.8467958e+05
   2.5955318e-09  -4.1012455e-04   4.0764200e-01   3.9483795e-01  -8.7963282e+05
   2.5981994e-09  -4.0778481e-04   4.0760543e-01   3.9487442e-01  -8.7461485e+05
   2.6008670e-09  -4.0545841e-04   4.0756907e-01   3.9491068e-01  -8.6962550e+05
   2.6035345e-09  -4.0314529e-04   4.0753292e-01   3.9494674e-01  -8.6466462e+05
   2.6062021e-09  -4.0084537e-04   4.0749698e-01   3.9498259e-01  -8.5973203e+05
   2.6088696e-09  -3.9855856e-04   4.0746125e-01   3.9501825e-01  -8.5482758e+05
   2.6115372e-09  -3.9628480e-04   4.0742573e-01   3.9505370e-01  -8.4995110e+05
   2.6142047e-09  -3.9402401e-04   4.0739041e-01   3.9508895e-01  -8.4510244e+05
   2.6168723e-09  -3.9177612e-04   4.0735530e-01   3.9512401e-01  -8.4028144e+05
   2.6195398e-09  -3.8954105e-04   4.0732038e-01   3.9515886e-01  -8.3548794e+05
   2.6222074e-09  -3.8731873e-04   4.0728567e-01   3.9519353e-01  -8.3072178e+05
   2.6248750e-09  -3.8510909e-04   4.0725116e-01   3.9522799e-01  -8.2598280e+05
   2.6275425e-09  -3.8291205e-04   4.0721685e-01   3.9526226e-01  -8.2127086e+05
   2.6302101e-09  -3.8072755e-04   4.0718274e-01   3.9529634e-01  -8.1658580e+05
   2.6328776e-09  -3.7855550e-04   4.0714883e-01   3.9533023e-01  -8.1192746e+05
   2.6355452e-09  -3.7639585e-04   4.0711511e-01   3.9536393e-01  -8.0729569e+05
   2.6382127e-09  -3.7424852e-04   4.0708158e-01   3.9539744e-01  -8.0269035e+05
   2.6408803e-09  -3.7211344e-04   4.0704825e-01   3.9543075e-01  -7.9811127e+05
   2.6435478e-09  -3.6999054e-04   4.0701512e-01   3.9546388e-01  -7.9355831e+05
   2.6462154e-09  -3.6787975e-04   4.0698217e-01   3.9549683e-01  -7.8903133e+05
   2.6488830e-09  -3.6578100e-04   4.0694941e-01   3.9552959e-01  -7.8453017e+05
   2.6515505e-09  -3.6369423e-04   4.0691685e-01   3.9556216e-01  -7.8005468e+05
   2.6542181e-09  -3.6161936e-04   4.0688447e-01   3.9559455e-01  -7.7560472e+05
   2.6568856e-09  -3.5955632e-04   4.0685228e-01   3.9562676e-01  -7.7118015e+05
   2.6595532e-09  -3.5750505e-04   4.0682027e-01   3.9565879e-01  -7.6678081e+05
   2.6622207e-09  -3.5546549e-04   4.0678845e-01   3.9569063e-01  -7.6240657e+05
   2.6648883e-09  -3.5343756e-04   4.0675681e-01   3.9572230e-01  -7.5805728e+05
   2.6675559e-09  -3.5142120e-04   4.0672536e-01   3.9575379e-01  -7.5373280e+05
   2.6702234e-09  -3.4941634e-04   4.0669408e-01   3.9578510e-01  -7.4943298e+05
   2.6728910e-09  -3.4742292e-04   4.0666299e-01   3.9581624e-01  -7.4515770e+05
   2.6755585e-09  -3.4544087e-04   4.0663208e-01   3.9584720e-01  -7.4090680e+05
   2.6782261e-09  -3.4347013e-04   4.0660134e-01   3.9587798e-01  -7.3668015e+05
   2.6808936e-09  -3.4151063e-04   4.0657079e-01   3.9590859e-01  -7.3247761e+05
   2.6835612e-09  -3.3956231e-04   4.0654041e-01   3.9593903e-01  -7.2829904e+05
   2.6862287e-09  -3.3762510e-04   4.0651020e-01   3.9596930e-01  -7.2414431e+05
   2.6888963e-09  -3.3569894e-04   4.0648017e-01   3.9599940e-01  -7.2001327e+05
   2.6915639e-09  -3.3378378e-04   4.0645031e-01   3.9602932e-01  -7.1590581e+05
   2.6942314e-09  -3.3187953e-04   4.0642062e-01   3.9605908e-01  -7.1182177e+05
   2.6968990e-09  -3.2998616e-04   4.0639111e-01   3.9608867e-01  -7.0776102e+05
   2.6995665e-09  -3.2810358e-04   4.0636176e-01   3.9611810e-01  -7.0372345e+05
   2.7022341e-09  -3.2623174e-04   4.0633259e-01   3.9614735e-01  -6.9970890e+05
   2.7049016e-09  -3.2437058e-04   4.0630358e-01   3.9617645e-01  -6.9571725e+05
   2.7075692e-09  -3.2252004e-04   4.0627474e-01   3.9620537e-01  -6.9174837e+05
   2.7102367e-09  -3.2068005e-04   4.0624607e-01   3.9623414e-01  -6.8780213e+05
   2.7129043e-09  -3.1885056e-04   4.0621756e-01   3.9626274e-01  -6.8387841e+05
   2.7155719e-09  -3.1703151e-04   4.0618922e-01   3.9629119e-01  -6.7997706e+05
   2.7182394e-09  -3.1522284e-04   4.0616104e-01   3.9631947e-01  -6.7609797e+05
   2.7209070e-09  -3.1342448e-04   4.0613302e-01   3.9634759e-01  -6.7224100e+05
   2.7235745e-09  -3.1163638e-04   4.0610516e-01   3.9637555e-01  -6.6840604e+05
   2.7262421e-09  -3.0985849e-04   4.0607747e-01   3.9640336e-01  -6.6459295e+05
   2.7289096e-09  -3.0809073e-04   4.0604993e-01   3.9643101e-01  -6.6080162e+05
   2.7315772e-09  -3.0633306e-04   4.0602255e-01   3.9645850e-01  -6.5703191e+05
   2.7342447e-09  -3.0458542e-04   4.0599533e-01   3.9648584e-01  -6.5328370e+05
   2.7369123e-09  -3.0284774e-04   4.0596827e-01   3.9651302e-01  -6.4955687e+05
   2.7395799e-09  -3.0111998e-04   4.0594137e-01   3.9654005e-01  -6.4585131e+05
   2.7422474e-09  -2.9940208e-04   4.0591461e-01   3.9656693e-01  -6.4216688e+05
   2.7449150e-09  -2.9769398e-04   4.0588802e-01   3.9659365e-01  -6.3850347e+05
   2.7475825e-09  -2.9599562e-04   4.0586157e-01   3.9662023e-01  -6.3486095e+05
   2.7502501e-09  -2.9430695e-04   4.0583528e-01   3.9664665e-01  -6.3123922e+05
   2.7529176e-09  -2.9262791e-04   4.0580914e-01   3.9667292e-01  -6.2763814e+05
   2.7555852e-09  -2.9095845e-04   4.0578315e-01   3.9669905e-01  -6.2405761e+05
   2.7582528e-09  -2.8929852e-04   4.0575731e-01   3.9672503e-01  -6.2049750e+05
   2.7609203e-09  -2.8764805e-04   4.0573162e-01   3.9675086e-01  -6.1695769e+05
   2.7635879e-09  -2.8600700e-04   4.0570608e-01   3.9677655e-01  -6.1343808e+05
   2.7662554e-09  -2.8437532e-04   4.0568068e-01   3.9680209e-01  -6.0993855e+05
   2.7689230e-09  -2.8275294e-04   4.0565543e-01   3.9682749e-01  -6.0645898e+05
   2.7715905e-09  -2.8113981e-04   4.0563033e-01   3.9685274e-01  -6.0299926e+05
   2.7742581e-09  -2.7953589e-04   4.0560537e-01   3.9687785e-01  -5.9955927e+05
   2.7769256e-09  -2.7794112e-04   4.0558055e-01   3.9690282e-01  -5.9613891e+05
   2.7795932e-09  -2.7635545e-04   4.0555588e-01   3.9692765e-01  -5.9273806e+05
   2.7822608e-09  -2.7477882e-04   4.0553135e-01   3.9695234e-01  -5.8935660e+05
   2.7849283e-09  -2.7321119e-04   4.0550696e-01   3.9697689e-01  -5.8599444e+05
   2.7875959e-09  -2.7165250e-04   4.0548271e-01   3.9700130e-01  -5.8265145e+05
   2.7902634e-09  -2.7010270e-04   4.0545860e-01   3.9702557e-01  -5.7932754e+05
   2.7929310e-09  -2.6856174e-04   4.0543463e-01   3.9704971e-01  -5.7602258e+05
   2.7955985e-09  -2.6702957e-04   4.0541079e-01   3.9707371e-01  -5.7273648e+05
   2.7982661e-09  -2.6550615e-04   4.0538710e-01   3.9709757e-01  -5.6946913e+05
   2.8009336e-09  -2.6399141e-04   4.0536354e-01   3.9712130e-01  -5.6622041e+05
   2.8036012e-09  -2.6248532e-04   4.0534011e-01   3.9714489e-01  -5.6299022e+05
   2.8062688e-09  -2.6098782e-04   4.0531683e-01   3.9716835e-01  -5.5977846e+05
   2.8089363e-09  -2.5949886e-04   4.0529367e-01   3.9719168e-01  -5.5658502e+05
   2.8116039e-09  -2.5801840e-04   4.0527065e-01   3.9721487e-01  -5.5340980e+05
   2.8142714e-09  -2.5654638e-04   4.0524776e-01   3.9723794e-01  -5.5025269e+05
   2.8169390e-09  -2.5508276e-04   4.0522500e-01   3.9726087e-01  -5.4711359e+05
   2.8196065e-09  -2.5362749e-04   4.0520238e-01   3.9728368e-01  -5.4399240e+05
   2.8222741e-09  -2.5218052e-04   4.0517988e-01   3.9730635e-01  -5.4088901e+05
   2.8249416e-09  -2.5074181e-04   4.0515751e-01   3.9732890e-01  -5.3780332e+05
   2.8276092e-09  -2.4931130e-04   4.0513527e-01   3.9735132e-01  -5.3473524e+05
   2.8302768e-09  -2.4788895e-04   4.0511316e-01   3.9737362e-01  -5.3168465e+05
   2.8329443e-09  -2.4647472e-04   4.0509118e-01   3.9739578e-01  -5.2865147e+05
   2.8356119e-09  -2.4506856e-04   4.0506932e-01   3.9741783e-01  -5.2563560e+05
   2.8382794e-09  -2.4367042e-04   4.0504759e-01   3.9743974e-01  -5.2263692e+05
   2.8409470e-09  -2.4228025e-04   4.0502599e-01   3.9746154e-01  -5.1965535e+05
   2.8436145e-09  -2.4089802e-04   4.0500451e-01   3.9748321e-01  -5.1669079e+05
   2.8462821e-09  -2.3952367e-04   4.0498315e-01   3.9750475e-01  -5.1374314e+05
   2.8489496e-09  -2.3815716e-04   4.0496191e-01   3.9752618e-01  -5.1081231e+05
   2.8516172e-09  -2.3679845e-04   4.0494080e-01   3.9754748e-01  -5.0789819e+05
   2.8542848e-09  -2.3544748e-04   4.0491981e-01   3.9756867e-01  -5.0500070e+05
   2.8569523e-09  -2.3410423e-04   4.0489894e-01   3.9758973e-01  -5.0211974e+05
   2.8596199e-09  -2.3276864e-04   4.0487819e-01   3.9761068e-01  -4.9925521e+05
   2.8622874e-09  -2.3144067e-04   4.0485755e-01   3.9763150e-01  -4.9640702e+05
   2.8649550e-09  -2.3012027e-04   4.0483704e-01   3.9765221e-01  -4.9357508e+05
   2.8676225e-09  -2.2880741e-04   4.0481665e-01   3.9767280e-01  -4.9075929e+05
   2.8702901e-09  -2.2750203e-04   4.0479637e-01   3.9769328e-01  -4.8795957e+05
   2.8729577e-09  -2.2620410e-04   4.0477621e-01   3.9771364e-01  -4.8517582e+05
   2.8756252e-09  -2.2491358e-04   4.0475616e-01   3.9773388e-01  -4.8240794e+05
   2.8782928e-09  -2.2363042e-04   4.0473623e-01   3.9775401e-01  -4.7965586e+05
   2.8809603e-09  -2.2235458e-04   4.0471642e-01   3.9777402e-01  -4.7691948e+05
   2.8836279e-09  -2.2108602e-04   4.0469671e-01   3.9779392e-01  -4.7419870e+05
   2.8862954e-09  -2.1982470e-04   4.0467712e-01   3.9781371e-01  -4.7149345e+05
   2.8889630e-09  -2.1857057e-04   4.0465765e-01   3.9783339e-01  -4.6880362e+05
   2.8916305e-09  -2.1732359e-04   4.0463828e-01   3.9785296e-01  -4.6612915e+05
   2.8942981e-09  -2.1608373e-04   4.0461903e-01   3.9787241e-01  -4.6346992e+05
   2.8969657e-09  -2.1485095e-04   4.0459989e-01   3.9789176e-01  -4.6082587e+05
   2.8996332e-09  -2.1362519e-04   4.0458086e-01   3.9791099e-01  -4.5819690e+05
   2.9023008e-09  -2.1240643e-04   4.0456194e-01   3.9793012e-01  -4.5558293e+05
   2.9049683e-09  -2.1119462e-04   4.0454312e-01   3.9794914e-01  -4.5298387e+05
   2.9076359e-09  -2.0998973e-04   4.0452442e-01   3.9796805e-01  -4.5039964e+05
   2.9103034e-09  -2.0879171e-04   4.0450582e-01   3.9798685e-01  -4.4783014e+05
   2.9129710e-09  -2.0760052e-04   4.0448733e-01   3.9800555e-01  -4.4527531e+05
   2.9156385e-09  -2.0641613e-04   4.0446894e-01   3.9802414e-01  -4.4273505e+05
   2.9183061e-09  -2.0523850e-04   4.0445066e-01   3.9804262e-01  -4.4020928e+05
   2.9209737e-09  -2.0406758e-04   4.0443249e-01   3.9806100e-01  -4.3769792e+05
   2.9236412e-09  -2.0290334e-04   4.0441442e-01   3.9807928e-01  -4.3520088e+05
   2.9263088e-09  -2.0174575e-04   4.0439645e-01   3.9809745e-01  -4.3271809e+05
   2.9289763e-09  -2.0059476e-04   4.0437859e-01   3.9811552e-01  -4.3024947e+05
   2.9316439e-09  -1.9945034e-04   4.0436082e-01   3.9813349e-01  -4.2779492e+05
   2.9343114e-09  -1.9831244e-04   4.0434317e-01   3.9815136e-01  -4.2535438e+05
   2.9369790e-09  -1.9718104e-04   4.0432561e-01   3.9816912e-01  -4.2292776e+05
   2.9396465e-09  -1.9605609e-04   4.0430815e-01   3.9818679e-01  -4.2051498e+05
   2.9423141e-09  -1.9493756e-04   4.0429080e-01   3.9820435e-01  -4.1811596e+05
   2.9449817e-09  -1.9382541e-04   4.0427354e-01   3.9822182e-01  -4.1573064e+05
   2.9476492e-09  -1.9271960e-04   4.0425638e-01   3.9823918e-01  -4.1335891e+05
   2.9503168e-09  -1.9162011e-04   4.0423932e-01   3.9825645e-01  -4.1100072e+05
   2.9529843e-09  -1.9052688e-04   4.0422236e-01   3.9827362e-01  -4.0865598e+05
   2.9556519e-09  -1.8943989e-04   4.0420550e-01   3.9829069e-01  -4.0632462e+05
   2.9583194e-09  -1.8835911e-04   4.0418873e-01   3.9830767e-01  -4.0400656e+05
   2.9609870e-09  -1.8728449e-04   4.0417206e-01   3.9832455e-01  -4.0170172e+05
   2.9636546e-09  -1.8621600e-04   4.0415549e-01   3.9834133e-01  -3.9941002e+05
   2.9663221e-09  -1.8515361e-04   4.0413901e-01   3.9835802e-01  -3.9713140e+05
   2.9689897e-09  -1.8409727e-04   4.0412262e-01   3.9837461e-01  -3.9486578e+05
   2.9716572e-09  -1.8304697e-04   4.0410633e-01   3.9839111e-01  -3.9261309e+05
   2.9743248e-09  -1.8200265e-04   4.0409013e-01   3.9840752e-01  -3.9037324e+05
   2.9769923e-09  -1.8096429e-04   4.0407403e-01   3.9842383e-01  -3.8814617e+05
   2.9796599e-09  -1.7993186e-04   4.0405802e-01   3.9844005e-01  -3.8593181e+05
   2.9823274e-09  -1.7890532e-04   4.0404210e-01   3.9845618e-01  -3.8373008e+05
   2.9849950e-09  -1.7788463e-04   4.0402627e-01   3.9847222e-01  -3.8154091e+05
   2.9876626e-09  -1.7686977e-04   4.0401053e-01   3.9848817e-01  -3.7936422e+05
   2.9903301e-09  -1.7586069e-04   4.0399488e-01   3.9850402e-01  -3.7719996e+05
   2.9929977e-09  -1.7485738e-04   4.0397932e-01   3.9851979e-01  -3.7504804e+05
   2.9956652e-09  -1.7385978e-04   4.0396386e-01   3.9853546e-01  -3.7290839e+05
   2.9983328e-09  -1.7286788e-04   4.0394848e-01   3.9855105e-01  -3.7078096e+05
   3.0010003e-09  -1.7188164e-04   4.0393318e-01   3.9856655e-01  -3.6866566e+05
   3.0036679e-09  -1.7090102e-04   4.0391798e-01   3.9858196e-01  -3.6656242e+05
   3.0063354e-09  -1.6992600e-04   4.0390286e-01   3.9859729e-01  -3.6447118e+05
   3.0090030e-09  -1.6895654e-04   4.0388783e-01   3.9861252e-01  -3.6239188e+05
   3.0116706e-09  -1.6799261e-04   4.0387289e-01   3.9862768e-01  -3.6032443e+05
   3.0143381e-09  -1.6703418e-04   4.0385803e-01   3.9864274e-01  -3.5826878e+05
   3.0170057e-09  -1.6608122e-04   4.0384326e-01   3.9865772e-01  -3.5622486e+05
   3.0196732e-09  -1.6513369e-04   4.0382857e-01   3.9867261e-01  -3.5419259e+05
   3.0223408e-09  -1.6419157e-04   4.0381397e-01   3.9868742e-01  -3.5217192e+05
   3.0250083e-09  -1.6325483e-04   4.0379945e-01   3.9870215e-01  -3.5016278e+05
   3.0276759e-09  -1.6232342e-04   4.0378501e-01   3.9871679e-01  -3.4816510e+05
   3.0303434e-09  -1.6139734e-04   4.0377066e-01   3.9873135e-01  -3.4617881e+05
   3.0330110e-09  -1.6047653e-04   4.0375639e-01   3.9874583e-01  -3.4420386e+05
   3.0356786e-09  -1.5956098e-04   4.0374220e-01   3.9876022e-01  -3.4224017e+05
   3.0383461e-09  -1.5865065e-04   4.0372809e-01   3.9877454e-01  -3.4028768e+05
   3.0410137e-09  -1.5774552e-04   4.0371406e-01   3.9878877e-01  -3.3834633e+05
   3.0436812e-09  -1.5684555e-04   4.0370012e-01   3.9880292e-01  -3.3641606e+05
   3.0463488e-09  -1.5595071e-04   4.0368625e-01   3.9881699e-01  -3.3449680e+05
   3.0490163e-09  -1.5506098e-04   4.0367246e-01   3.9883098e-01  -3.3258849e+05
   3.0516839e-09  -1.5417633e-04   4.0365875e-01   3.9884489e-01  -3.3069106e+05
   3.0543515e-09  -1.5329672e-04   4.0364513e-01   3.9885873e-01  -3.2880446e+05
   3.0570190e-09  -1.5242213e-04   4.0363157e-01   3.9887248e-01  -3.2692862e+05
   3.0596866e-09  -1.5155253e-04   4.0361810e-01   3.9888616e-01  -3.2506348e+05
   3.0623541e-09  -1.5068789e-04   4.0360470e-01   3.9889976e-01  -3.2320898e+05
   3.0650217e-09  -1.4982818e-04   4.0359138e-01   3.9891328e-01  -3.2136506e+05
   3.0676892e-09  -1.4897338e-04   4.0357814e-01   3.9892672e-01  -3.1953166e+05
   3.0703568e-09  -1.4812346e-04   4.0356497e-01   3.9894009e-01  -3.1770872e+05
   3.0730243e-09  -1.4727838e-04   4.0355188e-01   3.9895338e-01  -3.1589618e+05
   3.0756919e-09  -1.4643812e-04   4.0353887e-01   3.9896660e-01  -3.1409398e+05
   3.0783595e-09  -1.4560266e-04   4.0352592e-01   3.9897974e-01  -3.1230206e+05
   3.0810270e-09  -1.4477197e-04   4.0351306e-01   3.9899281e-01  -3.1052036e+05
   3.0836946e-09  -1.4394601e-04   4.0350026e-01   3.9900580e-01  -3.0874882e+05
   3.0863621e-09  -1.4312477e-04   4.0348754e-01   3.9901872e-01  -3.0698740e+05
   3.0890297e-09  -1.4230821e-04   4.0347489e-01   3.9903157e-01  -3.0523602e+05
   3.0916972e-09  -1.4149631e-04   4.0346232e-01   3.9904434e-01  -3.0349463e+05
   3.0943648e-09  -1.4068904e-04   4.0344981e-01   3.9905704e-01  -3.0176317e+05
   3.0970323e-09  -1.3988638e-04   4.0343738e-01   3.9906967e-01  -3.0004160e+05
   3.0996999e-09  -1.3908829e-04   4.0342502e-01   3.9908223e-01  -2.9832984e+05
   3.1023675e-09  -1.3829476e-04   4.0341273e-01   3.9909471e-01  -2.9662785e+05
   3.1050350e-09  -1.3750576e-04   4.0340051e-01   3.9910713e-01  -2.9493557e+05
   3.1077026e-09  -1.3672126e-04   4.0338836e-01   3.9911947e-01  -2.9325294e+05
   3.1103701e-09  -1.3594123e-04   4.0337629e-01   3.9913175e-01  -2.9157991e+05
   3.1130377e-09  -1.3516565e-04   4.0336428e-01   3.9914395e-01  -2.8991643e+05
   3.1157052e-09  -1.3439450e-04   4.0335233e-01   3.9915609e-01  -2.8826244e+05
   3.1183728e-09  -1.3362775e-04   4.0334046e-01   3.9916815e-01  -2.8661788e+05
   3.1210403e-09  -1.3286537e-04   4.0332866e-01   3.9918015e-01  -2.8498270e+05
   3.1237079e-09  -1.3210734e-04   4.0331692e-01   3.9919208e-01  -2.8335685e+05
   3.1263755e-09  -1.3135364e-04   4.0330525e-01   3.9920394e-01  -2.8174028e+05
   3.1290430e-09  -1.3060424e-04   4.0329365e-01   3.9921574e-01  -2.8013293e+05
   3.1317106e-09  -1.2985911e-04   4.0328211e-01   3.9922746e-01  -2.7853475e+05
   3.1343781e-09  -1.2911823e-04   4.0327064e-01   3.9923912e-01  -2.7694568e+05
   3.1370457e-09  -1.2838158e-04   4.0325923e-01   3.9925072e-01  -2.7536568e+05
   3.1397132e-09  -1.2764913e-04   4.0324789e-01   3.9926225e-01  -2.7379470e+05
   3.1423808e-09  -1.2692086e-04   4.0323662e-01   3.9927371e-01  -2.7223268e+05
   3.1450483e-09  -1.2619675e-04   4.0322541e-01   3.9928511e-01  -2.7067956e+05
   3.1477159e-09  -1.2547676e-04   4.0321427e-01   3.9929644e-01  -2.6913531e+05
   3.1503835e-09  -1.2476089e-04   4.0320318e-01   3.9930771e-01  -2.6759987e+05
   3.1530510e-09  -1.2404910e-04   4.0319217e-01   3.9931892e-01  -2.6607319e+05
   3.1557186e-09  -1.2334136e-04   4.0318121e-01   3.9933006e-01  -2.6455521e+05
   3.1583861e-09  -1.2263767e-04   4.0317032e-01   3.9934114e-01  -2.6304590e+05
   3.1610537e-09  -1.2193799e-04   4.0315949e-01   3.9935215e-01  -2.6154519e+05
   3.1637212e-09  -1.2124231e-04   4.0314872e-01   3.9936310e-01  -2.6005305e+05
   3.1663888e-09  -1.2055059e-04   4.0313801e-01   3.9937400e-01  -2.5856942e+05
   3.1690564e-09  -1.1986282e-04   4.0312737e-01   3.9938482e-01  -2.5709426e+05
   3.1717239e-09  -1.1917897e-04   4.0311678e-01   3.9939559e-01  -2.5562751e+05
   3.1743915e-09  -1.1849902e-04   4.0310626e-01   3.9940630e-01  -2.5416912e+05
   3.1770590e-09  -1.1782295e-04   4.0309580e-01   3.9941694e-01  -2.5271906e+05
   3.1797266e-09  -1.1715074e-04   4.0308540e-01   3.9942753e-01  -2.5127727e+05
   3.1823941e-09  -1.1648237e-04   4.0307505e-01   3.9943805e-01  -2.4984370e+05
   3.1850617e-09  -1.1581781e-04   4.0306477e-01   3.9944852e-01  -2.4841832e+05
   3.1877292e-09  -1.1515704e-04   4.0305454e-01   3.9945892e-01  -2.4700106e+05
   3.1903968e-09  -1.1450003e-04   4.0304438e-01   3.9946927e-01  -2.4559189e+05
   3.1930644e-09  -1.1384678e-04   4.0303427e-01   3.9947955e-01  -2.4419076e+05
   3.1957319e-09  -1.1319726e-04   4.0302422e-01   3.9948978e-01  -2.4279762e+05
   3.1983995e-09  -1.1255144e-04   4.0301422e-01   3.9949995e-01  -2.4141243e+05
   3.2010670e-09  -1.1190930e-04   4.0300429e-01   3.9951007e-01  -2.4003514e+05
   3.2037346e-09  -1.1127083e-04   4.0299441e-01   3.9952012e-01  -2.3866571e+05
   3.2064021e-09  -1.1063600e-04   4.0298459e-01   3.9953012e-01  -2.3730409e+05
   3.2090697e-09  -1.1000479e-04   4.0297482e-01   3.9954006e-01  -2.3595024e+05
   3.2117372e-09  -1.0937718e-04   4.0296511e-01   3.9954995e-01  -2.3460411e+05
   3.2144048e-09  -1.0875316e-04   4.0295545e-01   3.9955978e-01  -2.3326567e+05
   3.2170724e-09  -1.0813269e-04   4.0294586e-01   3.9956955e-01  -2.3193485e+05
   3.2197399e-09  -1.0751576e-04   4.0293631e-01   3.9957927e-01  -2.3061163e+05
   3.2224075e-09  -1.0690236e-04   4.0292682e-01   3.9958893e-01  -2.2929596e+05
   3.2250750e-09  -1.0629245e-04   4.0291739e-01   3.9959854e-01  -2.2798780e+05
   3.2277426e-09  -1.0568602e-04   4.0290800e-01   3.9960809e-01  -2.2668709e+05
   3.2304101e-09  -1.0508305e-04   4.0289868e-01   3.9961759e-01  -2.2539381e+05
   3.2330777e-09  -1.0448353e-04   4.0288940e-01   3.9962703e-01  -2.2410791e+05
   3.2357452e-09  -1.0388742e-04   4.0288018e-01   3.9963642e-01  -2.2282934e+05
   3.2384128e-09  -1.0329471e-04   4.0287101e-01   3.9964576e-01  -2.2155806e+05
   3.2410804e-09  -1.0270539e-04   4.0286190e-01   3.9965504e-01  -2.2029404e+05
   3.2437479e-09  -1.0211942e-04   4.0285283e-01   3.9966428e-01  -2.1903723e+05
   3.2464155e-09  -1.0153680e-04   4.0284382e-01   3.9967345e-01  -2.1778759e+05
   3.2490830e-09  -1.0095751e-04   4.0283486e-01   3.9968258e-01  -2.1654508e+05
   3.2517506e-09  -1.0038152e-04   4.0282595e-01   3.9969166e-01  -2.1530966e+05
   3.2544181e-09  -9.9808813e-05   4.0281709e-01   3.9970068e-01  -2.1408128e+05
   3.2570857e-09  -9.9239375e-05   4.0280829e-01   3.9970965e-01  -2.1285991e+05
   3.2597533e-09  -9.8673186e-05   4.0279953e-01   3.9971857e-01  -2.1164551e+05
   3.2624208e-09  -9.8110228e-05   4.0279082e-01   3.9972744e-01  -2.1043804e+05
   3.2650884e-09  -9.7550481e-05   4.0278217e-01   3.9973626e-01  -2.0923746e+05
   3.2677559e-09  -9.6993927e-05   4.0277356e-01   3.9974503e-01  -2.0804372e+05
   3.2704235e-09  -9.6440549e-05   4.0276500e-01   3.9975375e-01  -2.0685680e+05
   3.2730910e-09  -9.5890328e-05   4.0275649e-01   3.9976242e-01  -2.0567665e+05
   3.2757586e-09  -9.5343246e-05   4.0274803e-01   3.9977104e-01  -2.0450323e+05
   3.2784261e-09  -9.4799285e-05   4.0273962e-01   3.9977961e-01  -2.0333650e+05
   3.2810937e-09  -9.4258427e-05   4.0273126e-01   3.9978814e-01  -2.0217643e+05
   3.2837613e-09  -9.3720655e-05   4.0272294e-01   3.9979661e-01  -2.0102298e+05
   3.2864288e-09  -9.3185952e-05   4.0271467e-01   3.9980504e-01  -1.9987611e+05
   3.2890964e-09  -9.2654298e-05   4.0270645e-01   3.9981342e-01  -1.9873578e+05
   3.2917639e-09  -9.2125678e-05   4.0269828e-01   3.9982175e-01  -1.9760196e+05
   3.2944315e-09  -9.1600074e-05   4.0269015e-01   3.9983003e-01  -1.9647460e+05
   3.2970990e-09  -9.1077469e-05   4.0268207e-01   3.9983827e-01  -1.9535368e+05
   3.2997666e-09  -9.0557845e-05   4.0267404e-01   3.9984646e-01  -1.9423915e+05
   3.3024341e-09  -9.0041185e-05   4.0266605e-01   3.9985460e-01  -1.9313098e+05
   3.3051017e-09  -8.9527473e-05   4.0265810e-01   3.9986270e-01  -1.9202913e+05
   3.3077693e-09  -8.9016692e-05   4.0265021e-01   3.9987075e-01  -1.9093357e+05
   3.3104368e-09  -8.8508825e-05   4.0264236e-01   3.9987875e-01  -1.8984426e+05
   3.3131044e-09  -8.8003856e-05   4.0263455e-01   3.9988671e-01  -1.8876116e+05
   3.3157719e-09  -8.7501767e-05   4.0262679e-01   3.9989463e-01  -1.8768425e+05
   3.3184395e-09  -8.7002543e-05   4.0261907e-01   3.9990250e-01  -1.8661347e+05
   3.3211070e-09  -8.6506167e-05   4.0261139e-01   3.9991032e-01  -1.8554880e+05
   3.3237746e-09  -8.6012623e-05   4.0260376e-01   3.9991810e-01  -1.8449021e+05
   3.3264421e-09  -8.5521895e-05   4.0259618e-01   3.9992584e-01  -1.8343766e+05
   3.3291097e-09  -8.5033967e-05   4.0258863e-01   3.9993353e-01  -1.8239111e+05
   3.3317773e-09  -8.4548822e-05   4.0258113e-01   3.9994118e-01  -1.8135053e+05
   3.3344448e-09  -8.4066445e-05   4.0257368e-01   3.9994878e-01  -1.8031589e+05
   3.3371124e-09  -8.3586820e-05   4.0256626e-01   3.9995634e-01  -1.7928716e+05
   3.3397799e-09  -8.3109931e-05   4.0255889e-01   3.9996386e-01  -1.7826429e+05
   3.3424475e-09  -8.2635764e-05   4.0255156e-01   3.9997134e-01  -1.7724725e+05
   3.3451150e-09  -8.2164301e-05   4.0254428e-01   3.9997877e-01  -1.7623602e+05
   3.3477826e-09  -8.1695528e-05   4.0253703e-01   3.9998616e-01  -1.7523056e+05
   3.3504502e-09  -8.1229430e-05   4.0252982e-01   3.9999351e-01  -1.7423083e+05
   3.3531177e-09  -8.0765990e-05   4.0252266e-01   4.0000081e-01  -1.7323681e+05
   3.3557853e-09  -8.0305195e-05   4.0251554e-01   4.0000808e-01  -1.7224846e+05
   3.3584528e-09  -7.9847029e-05   4.0250846e-01   4.0001530e-01  -1.7126574e+05
   3.3611204e-09  -7.9391476e-05   4.0250142e-01   4.0002249e-01  -1.7028863e+05
   3.3637879e-09  -7.8938523e-05   4.0249442e-01   4.0002963e-01  -1.6931710e+05
   3.3664555e-09  -7.8488154e-05   4.0248745e-01   4.0003673e-01  -1.6835111e+05
   3.3691230e-09  -7.8040354e-05   4.0248053e-01   4.0004379e-01  -1.6739063e+05
   3.3717906e-09  -7.7595109e-05   4.0247365e-01   4.0005081e-01  -1.6643563e+05
   3.3744582e-09  -7.7152404e-05   4.0246681e-01   4.0005779e-01  -1.6548608e+05
   3.3771257e-09  -7.6712225e-05   4.0246001e-01   4.0006473e-01  -1.6454194e+05
   3.3797933e-09  -7.6274558e-05   4.0245324e-01   4.0007163e-01  -1.6360320e+05
   3.3824608e-09  -7.5839387e-05   4.0244652e-01   4.0007849e-01  -1.6266980e+05
   3.3851284e-09  -7.5406699e-05   4.0243983e-01   4.0008532e-01  -1.6174174e+05
   3.3877959e-09  -7.4976479e-05   4.0243318e-01   4.0009210e-01  -1.6081896e+05
   3.3904635e-09  -7.4548714e-05   4.0242657e-01   4.0009885e-01  -1.5990145e+05
   3.3931310e-09  -7.4123390e-05   4.0242000e-01   4.0010556e-01  -1.5898918e+05
   3.3957986e-09  -7.3700492e-05   4.0241347e-01   4.0011222e-01  -1.5808211e+05
   3.3984662e-09  -7.3280007e-05   4.0240697e-01   4.0011886e-01  -1.5718022e+05
   3.4011337e-09  -7.2861921e-05   4.0240051e-01   4.0012545e-01  -1.5628347e+05
   3.4038013e-09  -7.2446220e-05   4.0239408e-01   4.0013200e-01  -1.5539183e+05
   3.4064688e-09  -7.2032890e-05   4.0238770e-01   4.0013852e-01  -1.5450529e+05
   3.4091364e-09  -7.1621919e-05   4.0238135e-01   4.0014500e-01  -1.5362380e+05
   3.4118039e-09  -7.1213293e-05   4.0237503e-01   4.0015145e-01  -1.5274734e+05
   3.4144715e-09  -7.0806998e-05   4.0236875e-01   4.0015786e-01  -1.5187588e+05
   3.4171390e-09  -7.0403020e-05   4.0236251e-01   4.0016423e-01  -1.5100939e+05
   3.4198066e-09  -7.0001348e-05   4.0235631e-01   4.0017056e-01  -1.5014784e+05
   3.4224742e-09  -6.9601967e-05   4.0235014e-01   4.0017686e-01  -1.4929122e+05
   3.4251417e-09  -6.9204865e-05   4.0234400e-01   4.0018313e-01  -1.4843947e+05
   3.4278093e-09  -6.8810028e-05   4.0233790e-01   4.0018935e-01  -1.4759259e+05
   3.4304768e-09  -6.8417444e-05   4.0233183e-01   4.0019555e-01  -1.4675054e+05
   3.4331444e-09  -6.8027100e-05   4.0232580e-01   4.0020170e-01  -1.4591329e+05
   3.4358119e-09  -6.7638983e-05   4.0231981e-01   4.0020783e-01  -1.4508082e+05
   3.4384795e-09  -6.7253080e-05   4.0231384e-01   4.0021391e-01  -1.4425310e+05
   3.4411470e-09  -6.6869378e-05   4.0230792e-01   4.0021997e-01  -1.4343010e+05
   3.4438146e-09  -6.6487866e-05   4.0230202e-01   4.0022598e-01  -1.4261179e+05
   3.4464822e-09  -6.6108531e-05   4.0229616e-01   4.0023197e-01  -1.4179816e+05
   3.4491497e-09  -6.5731359e-05   4.0229034e-01   4.0023792e-01  -1.4098916e+05
   3.4518173e-09  -6.5356340e-05   4.0228454e-01   4.0024383e-01  -1.4018478e+05
   3.4544848e-09  -6.4983460e-05   4.0227878e-01   4.0024971e-01  -1.3938499e+05
   3.4571524e-09  -6.4612707e-05   4.0227305e-01   4.0025556e-01  -1.3858977e+05
   3.4598199e-09  -6.4244070e-05   4.0226736e-01   4.0026138e-01  -1.3779908e+05
   3.4624875e-09  -6.3877535e-05   4.0226170e-01   4.0026716e-01  -1.3701290e+05
   3.4651551e-09  -6.3513092e-05   4.0225607e-01   4.0027291e-01  -1.3623120e+05
   3.4678226e-09  -6.3150728e-05   4.0225047e-01   4.0027863e-01  -1.3545397e+05
   3.4704902e-09  -6.2790432e-05   4.0224490e-01   4.0028431e-01  -1.3468117e+05
   3.4731577e-09  -6.2432191e-05   4.0223937e-01   4.0028996e-01  -1.3391278e+05
   3.4758253e-09  -6.2075994e-05   4.0223387e-01   4.0029558e-01  -1.3314877e+05
   3.4784928e-09  -6.1721829e-05   4.0222840e-01   4.0030117e-01  -1.3238912e+05
   3.4811604e-09  -6.1369685e-05   4.0222296e-01   4.0030673e-01  -1.3163380e+05
   3.4838279e-09  -6.1019550e-05   4.0221755e-01   4.0031225e-01  -1.3088280e+05
   3.4864955e-09  -6.0671412e-05   4.0221217e-01   4.0031774e-01  -1.3013608e+05
   3.4891631e-09  -6.0325261e-05   4.0220683e-01   4.0032320e-01  -1.2939362e+05
   3.4918306e-09  -5.9981084e-05   4.0220151e-01   4.0032863e-01  -1.2865539e+05
   3.4944982e-09  -5.9638872e-05   4.0219622e-01   4.0033403e-01  -1.2792138e+05
   3.4971657e-09  -5.9298611e-05   4.0219097e-01   4.0033940e-01  -1.2719155e+05
   3.4998333e-09  -5.8960292e-05   4.0218574e-01   4.0034474e-01  -1.2646589e+05
   3.5025008e-09  -5.8623903e-05   4.0218055e-01   4.0035005e-01  -1.2574437e+05
   3.5051684e-09  -5.8289433e-05   4.0217538e-01   4.0035533e-01  -1.2502696e+05
   3.5078359e-09  -5.7956872e-05   4.0217025e-01   4.0036057e-01  -1.2431365e+05
   3.5105035e-09  -5.7626207e-05   4.0216514e-01   4.0036579e-01  -1.2360440e+05
   3.5131711e-09  -5.7297430e-05   4.0216006e-01   4.0037098e-01  -1.2289920e+05
   3.5158386e-09  -5.6970528e-05   4.0215501e-01   4.0037614e-01  -1.2219803e+05
   3.5185062e-09  -5.6645491e-05   4.0214999e-01   4.0038127e-01  -1.2150086e+05
   3.5211737e-09  -5.6322308e-05   4.0214500e-01   4.0038637e-01  -1.2080766e+05
   3.5238413e-09  -5.6000970e-05   4.0214004e-01   4.0039144e-01  -1.2011842e+05
   3.5265088e-09  -5.5681464e-05   4.0213510e-01   4.0039648e-01  -1.1943311e+05
   3.5291764e-09  -5.5363782e-05   4.0213020e-01   4.0040149e-01  -1.1875171e+05
   3.5318439e-09  -5.5047912e-05   4.0212532e-01   4.0040648e-01  -1.1807420e+05
   3.5345115e-09  -5.4733844e-05   4.0212047e-01   4.0041143e-01  -1.1740055e+05
   3.5371791e-09  -5.4421568e-05   4.0211565e-01   4.0041636e-01  -1.1673074e+05
   3.5398466e-09  -5.4111074e-05   4.0211085e-01   4.0042126e-01  -1.1606476e+05
   3.5425142e-09  -5.3802351e-05   4.0210608e-01   4.0042613e-01  -1.1540258e+05
   3.5451817e-09  -5.3495389e-05   4.0210134e-01   4.0043098e-01  -1.1474417e+05
   3.5478493e-09  -5.3190179e-05   4.0209663e-01   4.0043579e-01  -1.1408953e+05
   3.5505168e-09  -5.2886710e-05   4.0209194e-01   4.0044058e-01  -1.1343861e+05
   3.5531844e-09  -5.2584972e-05   4.0208729e-01   4.0044534e-01  -1.1279141e+05
   3.5558520e-09  -5.2284956e-05   4.0208265e-01   4.0045008e-01  -1.1214790e+05
   3.5585195e-09  -5.1986651e-05   4.0207805e-01   4.0045479e-01  -1.1150807e+05
   3.5611871e-09  -5.1690049e-05   4.0207347e-01   4.0045947e-01  -1.1087188e+05
   3.5638546e-09  -5.1395138e-05   4.0206891e-01   4.0046412e-01  -1.1023932e+05
   3.5665222e-09  -5.1101911e-05   4.0206438e-01   4.0046875e-01  -1.0961037e+05
   3.5691897e-09  -5.0810356e-05   4.0205988e-01   4.0047335e-01  -1.0898501e+05
   3.5718573e-09  -5.0520464e-05   4.0205541e-01   4.0047793e-01  -1.0836322e+05
   3.5745248e-09  -5.0232227e-05   4.0205096e-01   4.0048248e-01  -1.0774498e+05
   3.5771924e-09  -4.9945634e-05   4.0204653e-01   4.0048700e-01  -1.0713026e+05
   3.5798600e-09  -4.9660676e-05   4.0204213e-01   4.0049150e-01  -1.0651905e+05
   3.5825275e-09  -4.9377343e-05   4.0203776e-01   4.0049597e-01  -1.0591133e+05
   3.5851951e-09  -4.9095628e-05   4.0203341e-01   4.0050042e-01  -1.0530707e+05
   3.5878626e-09  -4.8815519e-05   4.0202908e-01   4.0050484e-01  -1.0470626e+05
   3.5905302e-09  -4.8537009e-05   4.0202478e-01   4.0050923e-01  -1.0410888e+05
   3.5931977e-09  -4.8260087e-05   4.0202051e-01   4.0051360e-01  -1.0351491e+05
   3.5958653e-09  -4.7984746e-05   4.0201625e-01   4.0051795e-01  -1.0292432e+05
   3.5985328e-09  -4.7710975e-05   4.0201203e-01   4.0052227e-01  -1.0233711e+05
   3.6012004e-09  -4.7438767e-05   4.0200783e-01   4.0052657e-01  -1.0175324e+05
   3.6038680e-09  -4.7168111e-05   4.0200365e-01   4.0053084e-01  -1.0117271e+05
   3.6065355e-09  -4.6899000e-05   4.0199949e-01   4.0053509e-01  -1.0059549e+05
   3.6092031e-09  -4.6631424e-05   4.0199536e-01   4.0053931e-01  -1.0002156e+05
   3.6118706e-09  -4.6365374e-05   4.0199125e-01   4.0054351e-01  -9.9450902e+04
   3.6145382e-09  -4.6100842e-05   4.0198717e-01   4.0054769e-01  -9.8883504e+04
   3.6172057e-09  -4.5837820e-05   4.0198311e-01   4.0055184e-01  -9.8319342e+04
   3.6198733e-09  -4.5576298e-05   4.0197907e-01   4.0055597e-01  -9.7758399e+04
   3.6225408e-09  -4.5316269e-05   4.0197506e-01   4.0056007e-01  -9.7200656e+04
   3.6252084e-09  -4.5057723e-05   4.0197107e-01   4.0056415e-01  -9.6646096e+04
   3.6278760e-09  -4.4800651e-05   4.0196710e-01   4.0056821e-01  -9.6094699e+04
   3.6305435e-09  -4.4545047e-05   4.0196315e-01   4.0057225e-01  -9.5546448e+04
   3.6332111e-09  -4.4290901e-05   4.0195923e-01   4.0057626e-01  -9.5001325e+04
   3.6358786e-09  -4.4038205e-05   4.0195533e-01   4.0058025e-01  -9.4459312e+04
   3.6385462e-09  -4.3786950e-05   4.0195145e-01   4.0058421e-01  -9.3920391e+04
   3.6412137e-09  -4.3537129e-05   4.0194759e-01   4.0058816e-01  -9.3384545e+04
   3.6438813e-09  -4.3288734e-05   4.0194376e-01   4.0059208e-01  -9.2851756e+04
   3.6465488e-09  -4.3041755e-05   4.0193994e-01   4.0059598e-01  -9.2322007e+04
   3.6492164e-09  -4.2796186e-05   4.0193615e-01   4.0059986e-01  -9.1795279e+04
   3.6518840e-09  -4.2552018e-05   4.0193238e-01   4.0060371e-01  -9.1271557e+04
   3.6545515e-09  -4.2309242e-05   4.0192864e-01   4.0060754e-01  -9.0750823e+04
   3.6572191e-09  -4.2067852e-05   4.0192491e-01   4.0061135e-01  -9.0233060e+04
   3.6598866e-09  -4.1827839e-05   4.0192121e-01   4.0061514e-01  -8.9718251e+04
   3.6625542e-09  -4.1589196e-05   4.0191752e-01   4.0061891e-01  -8.9206379e+04
   3.6652217e-09  -4.1351914e-05   4.0191386e-01   4.0062266e-01  -8.8697427e+04
   3.6678893e-09  -4.1115985e-05   4.0191022e-01   4.0062638e-01  -8.8191379e+04
   3.6705569e-09  -4.0881403e-05   4.0190660e-01   4.0063009e-01  -8.7688218e+04
   3.6732244e-09  -4.0648159e-05   4.0190300e-01   4.0063377e-01  -8.7187927e+04
   3.6758920e-09  -4.0416246e-05   4.0189942e-01   4.0063743e-01  -8.6690491e+04
   3.6785595e-09  -4.0185656e-05   4.0189586e-01   4.0064107e-01  -8.6195893e+04
   3.6812271e-09  -3.9956381e-05   4.0189232e-01   4.0064469e-01  -8.5704116e+04
   3.6838946e-09  -3.9728415e-05   4.0188880e-01   4.0064829e-01  -8.5215146e+04
   3.6865622e-09  -3.9501749e-05   4.0188530e-01   4.0065187e-01  -8.4728964e+04
   3.6892297e-09  -3.9276377e-05   4.0188182e-01   4.0065543e-01  -8.4245557e+04
   3.6918973e-09  -3.9052290e-05   4.0187836e-01   4.0065897e-01  -8.3764908e+04
   3.6945649e-09  -3.8829482e-05   4.0187492e-01   4.0066248e-01  -8.3287001e+04
   3.6972324e-09  -3.8607945e-05   4.0187151e-01   4.0066598e-01  -8.2811820e+04
   3.6999000e-09  -3.8387672e-05   4.0186811e-01   4.0066946e-01  -8.2339350e+04
   3.7025675e-09  -3.8168655e-05   4.0186473e-01   4.0067292e-01  -8.1869576e+04
   3.7052351e-09  -3.7950888e-05   4.0186136e-01   4.0067636e-01  -8.1402482e+04
   3.7079026e-09  -3.7734364e-05   4.0185802e-01   4.0067978e-01  -8.0938053e+04
   3.7105702e-09  -3.7519075e-05   4.0185470e-01   4.0068317e-01  -8.0476274e+04
   3.7132377e-09  -3.7305014e-05   4.0185140e-01   4.0068655e-01  -8.0017129e+04
   3.7159053e-09  -3.7092175e-05   4.0184811e-01   4.0068992e-01  -7.9560604e+04
   3.7185729e-09  -3.6880550e-05   4.0184484e-01   4.0069326e-01  -7.9106683e+04
   3.7212404e-09  -3.6670132e-05   4.0184160e-01   4.0069658e-01  -7.8655352e+04
   3.7239080e-09  -3.6460914e-05   4.0183837e-01   4.0069988e-01  -7.8206596e+04
   3.7265755e-09  -3.6252891e-05   4.0183516e-01   4.0070317e-01  -7.7760400e+04
   3.7292431e-09  -3.6046054e-05   4.0183197e-01   4.0070643e-01  -7.7316750e+04
   3.7319106e-09  -3.5840397e-05   4.0182879e-01   4.0070968e-01  -7.6875631e+04
   3.7345782e-09  -3.5635914e-05   4.0182564e-01   4.0071291e-01  -7.6437028e+04
   3.7372457e-09  -3.5432597e-05   4.0182250e-01   4.0071612e-01  -7.6000928e+04
   3.7399133e-09  -3.5230441e-05   4.0181938e-01   4.0071931e-01  -7.5567316e+04
   3.7425809e-09  -3.5029437e-05   4.0181628e-01   4.0072249e-01  -7.5136178e+04
   3.7452484e-09  -3.4829581e-05   4.0181319e-01   4.0072564e-01  -7.4707500e+04
   3.7479160e-09  -3.4630864e-05   4.0181012e-01   4.0072878e-01  -7.4281267e+04
   3.7505835e-09  -3.4433282e-05   4.0180708e-01   4.0073190e-01  -7.3857466e+04
   3.7532511e-09  -3.4236826e-05   4.0180404e-01   4.0073501e-01  -7.3436083e+04
   3.7559186e-09  -3.4041492e-05   4.0180103e-01   4.0073809e-01  -7.3017104e+04
   3.7585862e-09  -3.3847272e-05   4.0179803e-01   4.0074116e-01  -7.2600516e+04
   3.7612538e-09  -3.3654160e-05   4.0179505e-01   4.0074421e-01  -7.2186304e+04
   3.7639213e-09  -3.3462150e-05   4.0179209e-01   4.0074724e-01  -7.1774455e+04
   3.7665889e-09  -3.3271235e-05   4.0178914e-01   4.0075025e-01  -7.1364956e+04
   3.7692564e-09  -3.3081410e-05   4.0178621e-01   4.0075325e-01  -7.0957794e+04
   3.7719240e-09  -3.2892667e-05   4.0178330e-01   4.0075623e-01  -7.0552954e+04
   3.7745915e-09  -3.2705002e-05   4.0178041e-01   4.0075920e-01  -7.0150424e+04
   3.7772591e-09  -3.2518407e-05   4.0177753e-01   4.0076214e-01  -6.9750190e+04
   3.7799266e-09  -3.2332876e-05   4.0177466e-01   4.0076507e-01  -6.9352240e+04
   3.7825942e-09  -3.2148405e-05   4.0177182e-01   4.0076799e-01  -6.8956561e+04
   3.7852618e-09  -3.1964985e-05   4.0176899e-01   4.0077088e-01  -6.8563139e+04
   3.7879293e-09  -3.1782612e-05   4.0176617e-01   4.0077376e-01  -6.8171961e+04
   3.7905969e-09  -3.1601280e-05   4.0176337e-01   4.0077663e-01  -6.7783015e+04
   3.7932644e-09  -3.1420982e-05   4.0176059e-01   4.0077948e-01  -6.7396288e+04
   3.7959320e-09  -3.1241713e-05   4.0175783e-01   4.0078231e-01  -6.7011768e+04
   3.7985995e-09  -3.1063467e-05   4.0175507e-01   4.0078512e-01  -6.6629441e+04
   3.8012671e-09  -3.0886237e-05   4.0175234e-01   4.0078792e-01  -6.6249296e+04
   3.8039346e-09  -3.0710019e-05   4.0174962e-01   4.0079070e-01  -6.5871319e+04
   3.8066022e-09  -3.0534806e-05   4.0174692e-01   4.0079347e-01  -6.5495499e+04
   3.8092698e-09  -3.0360593e-05   4.0174423e-01   4.0079622e-01  -6.5121823e+04
   3.8119373e-09  -3.0187374e-05   4.0174156e-01   4.0079896e-01  -6.4750279e+04
   3.8146049e-09  -3.0015143e-05   4.0173890e-01   4.0080168e-01  -6.4380855e+04
   3.8172724e-09  -2.9843895e-05   4.0173626e-01   4.0080438e-01  -6.4013538e+04
   3.8199400e-09  -2.9673623e-05   4.0173363e-01   4.0080707e-01  -6.3648317e+04
   3.8226075e-09  -2.9504324e-05   4.0173102e-01   4.0080975e-01  -6.3285180e+04
   3.8252751e-09  -2.9335990e-05   4.0172842e-01   4.0081241e-01  -6.2924115e+04
   3.8279426e-09  -2.9168616e-05   4.0172584e-01   4.0081505e-01  -6.2565109e+04
   3.8306102e-09  -2.9002197e-05   4.0172327e-01   4.0081768e-01  -6.2208152e+04
   3.8332778e-09  -2.8836728e-05   4.0172072e-01   4.0082029e-01  -6.1853231e+04
   3.8359453e-09  -2.8672203e-05   4.0171818e-01   4.0082289e-01  -6.1500335e+04
   3.8386129e-09  -2.8508617e-05   4.0171565e-01   4.0082547e-01  -6.1149453e+04
   3.8412804e-09  -2.8345964e-05   4.0171314e-01   4.0082804e-01  -6.0800572e+04
   3.8439480e-09  -2.8184239e-05   4.0171065e-01   4.0083060e-01  -6.0453682e+04
   3.8466155e-09  -2.8023436e-05   4.0170817e-01   4.0083314e-01  -6.0108771e+04
   3.8492831e-09  -2.7863551e-05   4.0170570e-01   4.0083566e-01  -5.9765828e+04
   3.8519507e-09  -2.7704579e-05   4.0170325e-01   4.0083817e-01  -5.9424841e+04
   3.8546182e-09  -2.7546513e-05   4.0170081e-01   4.0084067e-01  -5.9085800e+04
   3.8572858e-09  -2.7389349e-05   4.0169838e-01   4.0084315e-01  -5.8748693e+04
   3.8599533e-09  -2.7233082e-05   4.0169597e-01   4.0084562e-01  -5.8413510e+04
   3.8626209e-09  -2.7077706e-05   4.0169358e-01   4.0084808e-01  -5.8080239e+04
   3.8652884e-09  -2.6923217e-05   4.0169119e-01   4.0085052e-01  -5.7748869e+04
   3.8679560e-09  -2.6769609e-05   4.0168882e-01   4.0085294e-01  -5.7419389e+04
   3.8706235e-09  -2.6616878e-05   4.0168647e-01   4.0085536e-01  -5.7091790e+04
   3.8732911e-09  -2.6465018e-05   4.0168412e-01   4.0085775e-01  -5.6766059e+04
   3.8759587e-09  -2.6314024e-05   4.0168179e-01   4.0086014e-01  -5.6442187e+04
   3.8786262e-09  -2.6163892e-05   4.0167948e-01   4.0086251e-01  -5.6120163e+04
   3.8812938e-09  -2.6014616e-05   4.0167717e-01   4.0086487e-01  -5.5799976e+04
   3.8839613e-09  -2.5866192e-05   4.0167488e-01   4.0086721e-01  -5.5481616e+04
   3.8866289e-09  -2.5718615e-05   4.0167261e-01   4.0086955e-01  -5.5165072e+04
   3.8892964e-09  -2.5571880e-05   4.0167034e-01   4.0087186e-01  -5.4850334e+04
   3.8919640e-09  -2.5425982e-05   4.0166809e-01   4.0087417e-01  -5.4537392e+04
   3.8946315e-09  -2.5280917e-05   4.0166586e-01   4.0087646e-01  -5.4226235e+04
   3.8972991e-09  -2.5136679e-05   4.0166363e-01   4.0087874e-01  -5.3916853e+04
   3.8999667e-09  -2.4993264e-05   4.0166142e-01   4.0088100e-01  -5.3609237e+04
