   0.0000000e+00  -1.6679329e-01   6.2102198e+00   1.4334457e-05  -5.1751281e+08
   2.6675559e-12  -1.6541807e-01   6.2004384e+00   1.5928390e-05  -5.1370023e+08
   5.3351117e-12  -1.6405302e-01   6.1902307e+00   1.7684289e-05  -5.0988535e+08
   8.0026676e-12  -1.6269816e-01   6.1795845e+00   1.9616756e-05  -5.0606828e+08
   1.0670223e-11  -1.6135349e-01   6.1684877e+00   2.1741497e-05  -5.0224917e+08
   1.3337779e-11  -1.6001901e-01   6.1569282e+00   2.4075380e-05  -4.9842817e+08
   1.6005335e-11  -1.5869472e-01   6.1448943e+00   2.6636500e-05  -4.9460546e+08
   1.8672891e-11  -1.5738064e-01   6.1323743e+00   2.9444235e-05  -4.9078123e+08
   2.1340447e-11  -1.5607677e-01   6.1193566e+00   3.2519312e-05  -4.8695568e+08
   2.4008003e-11  -1.5478311e-01   6.1058302e+00   3.5883867e-05  -4.8312903e+08
   2.6675559e-11  -1.5349966e-01   6.0917840e+00   3.9561507e-05  -4.7930154e+08
   2.9343114e-11  -1.5222642e-01   6.0772076e+00   4.3577372e-05  -4.7547346e+08
   3.2010670e-11  -1.5096340e-01   6.0620907e+00   4.7958194e-05  -4.7164508e+08
   3.4678226e-11  -1.4971059e-01   6.0464236e+00   5.2732353e-05  -4.6781670e+08
   3.7345782e-11  -1.4846800e-01   6.0301968e+00   5.7929938e-05  -4.6398863e+08
   4.0013338e-11  -1.4723562e-01   6.0134017e+00   6.3582796e-05  -4.6016122e+08
   4.2680894e-11  -1.4601346e-01   5.9960300e+00   6.9724586e-05  -4.5633484e+08
   4.5348449e-11  -1.4480150e-01   5.9780738e+00   7.6390825e-05  -4.5250986e+08
   4.8016005e-11  -1.4359974e-01   5.9595263e+00   8.3618934e-05  -4.4868669e+08
   5.0683561e-11  -1.4240818e-01   5.9403809e+00   9.1448272e-05  -4.4486576e+08
   5.3351117e-11  -1.4122681e-01   5.9206319e+00   9.9920177e-05  -4.4104751e+08
   5.6018673e-11  -1.4005563e-01   5.9002744e+00   1.0907799e-04  -4.3723241e+08
   5.8686229e-11  -1.3889462e-01   5.8793041e+00   1.1896708e-04  -4.3342094e+08
   6.1353785e-11  -1.3774377e-01   5.8577178e+00   1.2963485e-04  -4.2961362e+08
   6.4021340e-11  -1.3660308e-01   5.8355127e+00   1.4113079e-04  -4.2581096e+08
   6.6688896e-11  -1.3547252e-01   5.8126872e+00   1.5350640e-04  -4.2201352e+08
   6.9356452e-11  -1.3435209e-01   5.7892405e+00   1.6681526e-04  -4.1822187e+08
   7.2024008e-11  -1.3324177e-01   5.7651728e+00   1.8111299e-04  -4.1443658e+08
   7.4691564e-11  -1.3214153e-01   5.7404850e+00   1.9645721e-04  -4.1065825e+08
   7.7359120e-11  -1.3105136e-01   5.7151791e+00   2.1290755e-04  -4.0688751e+08
   8.0026676e-11  -1.2997125e-01   5.6892581e+00   2.3052556e-04  -4.0312499e+08
   8.2694231e-11  -1.2890115e-01   5.6627260e+00   2.4937472e-04  -3.9937133e+08
   8.5361787e-11  -1.2784106e-01   5.6355876e+00   2.6952033e-04  -3.9562720e+08
   8.8029343e-11  -1.2679094e-01   5.6078488e+00   2.9102949e-04  -3.9189328e+08
   9.0696899e-11  -1.2575077e-01   5.5795165e+00   3.1397099e-04  -3.8817025e+08
   9.3364455e-11  -1.2472052e-01   5.5505985e+00   3.3841523e-04  -3.8445881e+08
   9.6032011e-11  -1.2370015e-01   5.5211036e+00   3.6443418e-04  -3.8075967e+08
   9.8699567e-11  -1.2268963e-01   5.4910416e+00   3.9210121e-04  -3.7707353e+08
   1.0136712e-10  -1.2168892e-01   5.4604232e+00   4.2149101e-04  -3.7340112e+08
   1.0403468e-10  -1.2069799e-01   5.4292599e+00   4.5267950e-04  -3.6974316e+08
   1.0670223e-10  -1.1971680e-01   5.3975642e+00   4.8574365e-04  -3.6610039e+08
   1.0936979e-10  -1.1874530e-01   5.3653494e+00   5.2076143e-04  -3.6247352e+08
   1.1203735e-10  -1.1778345e-01   5.3326297e+00   5.5781159e-04  -3.5886329e+08
   1.1470490e-10  -1.1683121e-01   5.2994200e+00   5.9697359e-04  -3.5527043e+08
   1.1737246e-10  -1.1588853e-01   5.2657359e+00   6.3832741e-04  -3.5169565e+08
   1.2004001e-10  -1.1495535e-01   5.2315939e+00   6.8195343e-04  -3.4813969e+08
   1.2270757e-10  -1.1403164e-01   5.1970110e+00   7.2793226e-04  -3.4460325e+08
   1.2537513e-10  -1.1311733e-01   5.1620048e+00   7.7634461e-04  -3.4108703e+08
   1.2804268e-10  -1.1221237e-01   5.1265935e+00   8.2727109e-04  -3.3759173e+08
   1.3071024e-10  -1.1131670e-01   5.0907958e+00   8.8079211e-04  -3.3411804e+08
   1.3337779e-10  -1.1043027e-01   5.0546310e+00   9.3698770e-04  -3.3066662e+08
   1.3604535e-10  -1.0955301e-01   5.0181186e+00   9.9593735e-04  -3.2723813e+08
   1.3871290e-10  -1.0868487e-01   4.9812786e+00   1.0577198e-03  -3.2383321e+08
   1.4138046e-10  -1.0782577e-01   4.9441311e+00   1.1224132e-03  -3.2045250e+08
   1.4404802e-10  -1.0697565e-01   4.9066967e+00   1.1900943e-03  -3.1709658e+08
   1.4671557e-10  -1.0613445e-01   4.8689961e+00   1.2608391e-03  -3.1376605e+08
   1.4938313e-10  -1.0530210e-01   4.8310500e+00   1.3347222e-03  -3.1046147e+08
   1.5205068e-10  -1.0447852e-01   4.7928794e+00   1.4118169e-03  -3.0718340e+08
   1.5471824e-10  -1.0366365e-01   4.7545052e+00   1.4921947e-03  -3.0393234e+08
   1.5738580e-10  -1.0285741e-01   4.7159483e+00   1.5759257e-03  -3.0070879e+08
   1.6005335e-10  -1.0205973e-01   4.6772295e+00   1.6630783e-03  -2.9751324e+08
   1.6272091e-10  -1.0127054e-01   4.6383696e+00   1.7537190e-03  -2.9434612e+08
   1.6538846e-10  -1.0048975e-01   4.5993891e+00   1.8479122e-03  -2.9120787e+08
   1.6805602e-10  -9.9717289e-02   4.5603084e+00   1.9457204e-03  -2.8809887e+08
   1.7072357e-10  -9.8953080e-02   4.5211476e+00   2.0472040e-03  -2.8501949e+08
   1.7339113e-10  -9.8197041e-02   4.4819265e+00   2.1524211e-03  -2.8197008e+08
   1.7605869e-10  -9.7449094e-02   4.4426646e+00   2.2614276e-03  -2.7895096e+08
   1.7872624e-10  -9.6709155e-02   4.4033811e+00   2.3742771e-03  -2.7596241e+08
   1.8139380e-10  -9.5977145e-02   4.3640947e+00   2.4910208e-03  -2.7300469e+08
   1.8406135e-10  -9.5252979e-02   4.3248237e+00   2.6117075e-03  -2.7007804e+08
   1.8672891e-10  -9.4536576e-02   4.2855861e+00   2.7363836e-03  -2.6718266e+08
   1.8939647e-10  -9.3827850e-02   4.2463993e+00   2.8650931e-03  -2.6431873e+08
   1.9206402e-10  -9.3126719e-02   4.2072802e+00   2.9978773e-03  -2.6148640e+08
   1.9473158e-10  -9.2433097e-02   4.1682451e+00   3.1347751e-03  -2.5868581e+08
   1.9739913e-10  -9.1746900e-02   4.1293102e+00   3.2758232e-03  -2.5591705e+08
   2.0006669e-10  -9.1068043e-02   4.0904906e+00   3.4210554e-03  -2.5318019e+08
   2.0273424e-10  -9.0396441e-02   4.0518012e+00   3.5705032e-03  -2.5047528e+08
   2.0540180e-10  -8.9732008e-02   4.0132563e+00   3.7241957e-03  -2.4780236e+08
   2.0806936e-10  -8.9074659e-02   3.9748695e+00   3.8821595e-03  -2.4516142e+08
   2.1073691e-10  -8.8424309e-02   3.9366541e+00   4.0444188e-03  -2.4255243e+08
   2.1340447e-10  -8.7780872e-02   3.8986224e+00   4.2109954e-03  -2.3997537e+08
   2.1607202e-10  -8.7144264e-02   3.8607866e+00   4.3819089e-03  -2.3743016e+08
   2.1873958e-10  -8.6514401e-02   3.8231579e+00   4.5571764e-03  -2.3491671e+08
   2.2140714e-10  -8.5891196e-02   3.7857473e+00   4.7368128e-03  -2.3243492e+08
   2.2407469e-10  -8.5274566e-02   3.7485650e+00   4.9208310e-03  -2.2998466e+08
   2.2674225e-10  -8.4664428e-02   3.7116206e+00   5.1092414e-03  -2.2756580e+08
   2.2940980e-10  -8.4060697e-02   3.6749235e+00   5.3020527e-03  -2.2517816e+08
   2.3207736e-10  -8.3463290e-02   3.6384821e+00   5.4992712e-03  -2.2282158e+08
   2.3474491e-10  -8.2872126e-02   3.6023046e+00   5.7009014e-03  -2.2049585e+08
   2.3741247e-10  -8.2287122e-02   3.5663985e+00   5.9069459e-03  -2.1820078e+08
   2.4008003e-10  -8.1708196e-02   3.5307709e+00   6.1174054e-03  -2.1593614e+08
   2.4274758e-10  -8.1135269e-02   3.4954282e+00   6.3322786e-03  -2.1370169e+08
   2.4541514e-10  -8.0568259e-02   3.4603766e+00   6.5515628e-03  -2.1149719e+08
   2.4808269e-10  -8.0007087e-02   3.4256215e+00   6.7752534e-03  -2.0932237e+08
   2.5075025e-10  -7.9451675e-02   3.3911682e+00   7.0033443e-03  -2.0717697e+08
   2.5341781e-10  -7.8901944e-02   3.3570212e+00   7.2358277e-03  -2.0506071e+08
   2.5608536e-10  -7.8357817e-02   3.3231848e+00   7.4726944e-03  -2.0297330e+08
   2.5875292e-10  -7.7819218e-02   3.2896628e+00   7.7139338e-03  -2.0091445e+08
   2.6142047e-10  -7.7286070e-02   3.2564587e+00   7.9595339e-03  -1.9888384e+08
   2.6408803e-10  -7.6758300e-02   3.2235753e+00   8.2094813e-03  -1.9688117e+08
   2.6675559e-10  -7.6235832e-02   3.1910154e+00   8.4637615e-03  -1.9490612e+08
   2.6942314e-10  -7.5718594e-02   3.1587811e+00   8.7223588e-03  -1.9295837e+08
   2.7209070e-10  -7.5206514e-02   3.1268746e+00   8.9852563e-03  -1.9103759e+08
   2.7475825e-10  -7.4699519e-02   3.0952972e+00   9.2524360e-03  -1.8914345e+08
   2.7742581e-10  -7.4197540e-02   3.0640504e+00   9.5238789e-03  -1.8727561e+08
   2.8009336e-10  -7.3700506e-02   3.0331351e+00   9.7995650e-03  -1.8543374e+08
   2.8276092e-10  -7.3208350e-02   3.0025520e+00   1.0079474e-02  -1.8361749e+08
   2.8542848e-10  -7.2721002e-02   2.9723015e+00   1.0363583e-02  -1.8182652e+08
   2.8809603e-10  -7.2238397e-02   2.9423837e+00   1.0651870e-02  -1.8006049e+08
   2.9076359e-10  -7.1760468e-02   2.9127986e+00   1.0944312e-02  -1.7831905e+08
   2.9343114e-10  -7.1287150e-02   2.8835458e+00   1.1240885e-02  -1.7660185e+08
   2.9609870e-10  -7.0818379e-02   2.8546248e+00   1.1541563e-02  -1.7490856e+08
   2.9876626e-10  -7.0354092e-02   2.8260349e+00   1.1846323e-02  -1.7323881e+08
   3.0143381e-10  -6.9894226e-02   2.7977749e+00   1.2155137e-02  -1.7159228e+08
   3.0410137e-10  -6.9438720e-02   2.7698439e+00   1.2467978e-02  -1.6996860e+08
   3.0676892e-10  -6.8987513e-02   2.7422405e+00   1.2784821e-02  -1.6836745e+08
   3.0943648e-10  -6.8540547e-02   2.7149631e+00   1.3105638e-02  -1.6678848e+08
   3.1210403e-10  -6.8097761e-02   2.6880102e+00   1.3430399e-02  -1.6523134e+08
   3.1477159e-10  -6.7659099e-02   2.6613800e+00   1.3759078e-02  -1.6369571e+08
   3.1743915e-10  -6.7224504e-02   2.6350705e+00   1.4091645e-02  -1.6218124e+08
   3.2010670e-10  -6.6793919e-02   2.6090797e+00   1.4428071e-02  -1.6068760e+08
   3.2277426e-10  -6.6367290e-02   2.5834055e+00   1.4768327e-02  -1.5921447e+08
   3.2544181e-10  -6.5944562e-02   2.5580455e+00   1.5112382e-02  -1.5776151e+08
   3.2810937e-10  -6.5525683e-02   2.5329974e+00   1.5460208e-02  -1.5632841e+08
   3.3077693e-10  -6.5110598e-02   2.5082587e+00   1.5811772e-02  -1.5491483e+08
   3.3344448e-10  -6.4699258e-02   2.4838269e+00   1.6167046e-02  -1.5352048e+08
   3.3611204e-10  -6.4291610e-02   2.4596994e+00   1.6525998e-02  -1.5214502e+08
   3.3877959e-10  -6.3887606e-02   2.4358734e+00   1.6888597e-02  -1.5078815e+08
   3.4144715e-10  -6.3487196e-02   2.4123462e+00   1.7254812e-02  -1.4944957e+08
   3.4411470e-10  -6.3090331e-02   2.3891150e+00   1.7624612e-02  -1.4812896e+08
   3.4678226e-10  -6.2696964e-02   2.3661769e+00   1.7997966e-02  -1.4682605e+08
   3.4944982e-10  -6.2307049e-02   2.3435289e+00   1.8374842e-02  -1.4554052e+08
   3.5211737e-10  -6.1920539e-02   2.3211682e+00   1.8755208e-02  -1.4427209e+08
   3.5478493e-10  -6.1537389e-02   2.2990918e+00   1.9139034e-02  -1.4302047e+08
   3.5745248e-10  -6.1157554e-02   2.2772966e+00   1.9526287e-02  -1.4178538e+08
   3.6012004e-10  -6.0780992e-02   2.2557795e+00   1.9916936e-02  -1.4056654e+08
   3.6278760e-10  -6.0407659e-02   2.2345375e+00   2.0310948e-02  -1.3936368e+08
   3.6545515e-10  -6.0037513e-02   2.2135675e+00   2.0708293e-02  -1.3817653e+08
   3.6812271e-10  -5.9670512e-02   2.1928664e+00   2.1108938e-02  -1.3700483e+08
   3.7079026e-10  -5.9306615e-02   2.1724311e+00   2.1512852e-02  -1.3584830e+08
   3.7345782e-10  -5.8945783e-02   2.1522584e+00   2.1920003e-02  -1.3470670e+08
   3.7612538e-10  -5.8587976e-02   2.1323453e+00   2.2330359e-02  -1.3357977e+08
   3.7879293e-10  -5.8233154e-02   2.1126885e+00   2.2743888e-02  -1.3246727e+08
   3.8146049e-10  -5.7881281e-02   2.0932849e+00   2.3160559e-02  -1.3136894e+08
   3.8412804e-10  -5.7532318e-02   2.0741315e+00   2.3580339e-02  -1.3028456e+08
   3.8679560e-10  -5.7186229e-02   2.0552251e+00   2.4003199e-02  -1.2921387e+08
   3.8946315e-10  -5.6842978e-02   2.0365625e+00   2.4429105e-02  -1.2815666e+08
   3.9213071e-10  -5.6502528e-02   2.0181408e+00   2.4858027e-02  -1.2711268e+08
   3.9479827e-10  -5.6164845e-02   1.9999567e+00   2.5289933e-02  -1.2608173e+08
   3.9746582e-10  -5.5829895e-02   1.9820073e+00   2.5724792e-02  -1.2506357e+08
   4.0013338e-10  -5.5497643e-02   1.9642894e+00   2.6162573e-02  -1.2405800e+08
   4.0280093e-10  -5.5168056e-02   1.9468000e+00   2.6603244e-02  -1.2306479e+08
   4.0546849e-10  -5.4841102e-02   1.9295362e+00   2.7046775e-02  -1.2208375e+08
   4.0813605e-10  -5.4516749e-02   1.9124948e+00   2.7493134e-02  -1.2111466e+08
   4.1080360e-10  -5.4194964e-02   1.8956730e+00   2.7942290e-02  -1.2015733e+08
   4.1347116e-10  -5.3875717e-02   1.8790677e+00   2.8394214e-02  -1.1921156e+08
   4.1613871e-10  -5.3558977e-02   1.8626760e+00   2.8848874e-02  -1.1827715e+08
   4.1880627e-10  -5.3244715e-02   1.8464951e+00   2.9306240e-02  -1.1735392e+08
   4.2147382e-10  -5.2932900e-02   1.8305220e+00   2.9766281e-02  -1.1644168e+08
   4.2414138e-10  -5.2623504e-02   1.8147538e+00   3.0228967e-02  -1.1554024e+08
   4.2680894e-10  -5.2316498e-02   1.7991879e+00   3.0694267e-02  -1.1464943e+08
   4.2947649e-10  -5.2011853e-02   1.7838213e+00   3.1162153e-02  -1.1376907e+08
   4.3214405e-10  -5.1709543e-02   1.7686513e+00   3.1632593e-02  -1.1289899e+08
   4.3481160e-10  -5.1409540e-02   1.7536751e+00   3.2105558e-02  -1.1203901e+08
   4.3747916e-10  -5.1111818e-02   1.7388901e+00   3.2581019e-02  -1.1118898e+08
   4.4014672e-10  -5.0816349e-02   1.7242935e+00   3.3058945e-02  -1.1034873e+08
   4.4281427e-10  -5.0523109e-02   1.7098828e+00   3.3539307e-02  -1.0951810e+08
   4.4548183e-10  -5.0232071e-02   1.6956552e+00   3.4022076e-02  -1.0869693e+08
   4.4814938e-10  -4.9943211e-02   1.6816082e+00   3.4507223e-02  -1.0788507e+08
   4.5081694e-10  -4.9656505e-02   1.6677392e+00   3.4994718e-02  -1.0708237e+08
   4.5348449e-10  -4.9371927e-02   1.6540458e+00   3.5484533e-02  -1.0628868e+08
   4.5615205e-10  -4.9089454e-02   1.6405253e+00   3.5976639e-02  -1.0550385e+08
   4.5881961e-10  -4.8809063e-02   1.6271754e+00   3.6471007e-02  -1.0472775e+08
   4.6148716e-10  -4.8530731e-02   1.6139936e+00   3.6967609e-02  -1.0396022e+08
   4.6415472e-10  -4.8254434e-02   1.6009776e+00   3.7466415e-02  -1.0320115e+08
   4.6682227e-10  -4.7980151e-02   1.5881248e+00   3.7967399e-02  -1.0245038e+08
   4.6948983e-10  -4.7707859e-02   1.5754331e+00   3.8470531e-02  -1.0170780e+08
   4.7215739e-10  -4.7437537e-02   1.5629000e+00   3.8975784e-02  -1.0097326e+08
   4.7482494e-10  -4.7169164e-02   1.5505234e+00   3.9483129e-02  -1.0024665e+08
   4.7749250e-10  -4.6902718e-02   1.5383009e+00   3.9992540e-02  -9.9527844e+07
   4.8016005e-10  -4.6638179e-02   1.5262304e+00   4.0503988e-02  -9.8816712e+07
   4.8282761e-10  -4.6375527e-02   1.5143096e+00   4.1017446e-02  -9.8113138e+07
   4.8549517e-10  -4.6114742e-02   1.5025365e+00   4.1532886e-02  -9.7417006e+07
   4.8816272e-10  -4.5855804e-02   1.4909088e+00   4.2050282e-02  -9.6728199e+07
   4.9083028e-10  -4.5598693e-02   1.4794245e+00   4.2569605e-02  -9.6046606e+07
   4.9349783e-10  -4.5343391e-02   1.4680816e+00   4.3090831e-02  -9.5372116e+07
   4.9616539e-10  -4.5089878e-02   1.4568780e+00   4.3613930e-02  -9.4704620e+07
   4.9883294e-10  -4.4838137e-02   1.4458117e+00   4.4138877e-02  -9.4044012e+07
   5.0150050e-10  -4.4588148e-02   1.4348806e+00   4.4665646e-02  -9.3390187e+07
   5.0416806e-10  -4.4339895e-02   1.4240830e+00   4.5194209e-02  -9.2743044e+07
   5.0683561e-10  -4.4093359e-02   1.4134168e+00   4.5724540e-02  -9.2102480e+07
   5.0950317e-10  -4.3848523e-02   1.4028802e+00   4.6256614e-02  -9.1468399e+07
   5.1217072e-10  -4.3605369e-02   1.3924713e+00   4.6790404e-02  -9.0840703e+07
   5.1483828e-10  -4.3363882e-02   1.3821883e+00   4.7325884e-02  -9.0219298e+07
   5.1750584e-10  -4.3124043e-02   1.3720293e+00   4.7863029e-02  -8.9604090e+07
   5.2017339e-10  -4.2885838e-02   1.3619926e+00   4.8401812e-02  -8.8994987e+07
   5.2284095e-10  -4.2649249e-02   1.3520764e+00   4.8942209e-02  -8.8391902e+07
   5.2550850e-10  -4.2414261e-02   1.3422791e+00   4.9484194e-02  -8.7794744e+07
   5.2817606e-10  -4.2180858e-02   1.3325989e+00   5.0027741e-02  -8.7203429e+07
   5.3084361e-10  -4.1949024e-02   1.3230341e+00   5.0572826e-02  -8.6617871e+07
   5.3351117e-10  -4.1718745e-02   1.3135831e+00   5.1119424e-02  -8.6037988e+07
   5.3617873e-10  -4.1490004e-02   1.3042442e+00   5.1667510e-02  -8.5463697e+07
   5.3884628e-10  -4.1262789e-02   1.2950159e+00   5.2217058e-02  -8.4894919e+07
   5.4151384e-10  -4.1037083e-02   1.2858966e+00   5.2768045e-02  -8.4331576e+07
   5.4418139e-10  -4.0812873e-02   1.2768848e+00   5.3320445e-02  -8.3773589e+07
   5.4684895e-10  -4.0590144e-02   1.2679789e+00   5.3874236e-02  -8.3220885e+07
   5.4951651e-10  -4.0368882e-02   1.2591773e+00   5.4429391e-02  -8.2673387e+07
   5.5218406e-10  -4.0149074e-02   1.2504788e+00   5.4985888e-02  -8.2131024e+07
   5.5485162e-10  -3.9930706e-02   1.2418817e+00   5.5543702e-02  -8.1593723e+07
   5.5751917e-10  -3.9713764e-02   1.2333846e+00   5.6102809e-02  -8.1061414e+07
   5.6018673e-10  -3.9498236e-02   1.2249862e+00   5.6663186e-02  -8.0534029e+07
   5.6285428e-10  -3.9284108e-02   1.2166850e+00   5.7224809e-02  -8.0011500e+07
   5.6552184e-10  -3.9071367e-02   1.2084798e+00   5.7787655e-02  -7.9493760e+07
   5.6818940e-10  -3.8860001e-02   1.2003690e+00   5.8351700e-02  -7.8980743e+07
   5.7085695e-10  -3.8649997e-02   1.1923515e+00   5.8916921e-02  -7.8472386e+07
   5.7352451e-10  -3.8441343e-02   1.1844258e+00   5.9483295e-02  -7.7968625e+07
   5.7619206e-10  -3.8234027e-02   1.1765908e+00   6.0050798e-02  -7.7469400e+07
   5.7885962e-10  -3.8028036e-02   1.1688452e+00   6.0619409e-02  -7.6974648e+07
   5.8152718e-10  -3.7823359e-02   1.1611876e+00   6.1189105e-02  -7.6484310e+07
   5.8419473e-10  -3.7619985e-02   1.1536170e+00   6.1759862e-02  -7.5998328e+07
   5.8686229e-10  -3.7417901e-02   1.1461320e+00   6.2331659e-02  -7.5516643e+07
   5.8952984e-10  -3.7217096e-02   1.1387315e+00   6.2904473e-02  -7.5039201e+07
   5.9219740e-10  -3.7017559e-02   1.1314143e+00   6.3478281e-02  -7.4565943e+07
   5.9486495e-10  -3.6819278e-02   1.1241793e+00   6.4053062e-02  -7.4096817e+07
   5.9753251e-10  -3.6622244e-02   1.1170254e+00   6.4628794e-02  -7.3631769e+07
   6.0020007e-10  -3.6426445e-02   1.1099514e+00   6.5205455e-02  -7.3170745e+07
   6.0286762e-10  -3.6231870e-02   1.1029562e+00   6.5783023e-02  -7.2713694e+07
   6.0553518e-10  -3.6038510e-02   1.0960387e+00   6.6361476e-02  -7.2260565e+07
   6.0820273e-10  -3.5846352e-02   1.0891980e+00   6.6940793e-02  -7.1811308e+07
   6.1087029e-10  -3.5655388e-02   1.0824329e+00   6.7520953e-02  -7.1365874e+07
   6.1353785e-10  -3.5465607e-02   1.0757424e+00   6.8101935e-02  -7.0924214e+07
   6.1620540e-10  -3.5277000e-02   1.0691255e+00   6.8683717e-02  -7.0486281e+07
   6.1887296e-10  -3.5089555e-02   1.0625811e+00   6.9266278e-02  -7.0052028e+07
   6.2154051e-10  -3.4903264e-02   1.0561084e+00   6.9849597e-02  -6.9621410e+07
   6.2420807e-10  -3.4718117e-02   1.0497064e+00   7.0433654e-02  -6.9194380e+07
   6.2687563e-10  -3.4534104e-02   1.0433740e+00   7.1018429e-02  -6.8770895e+07
   6.2954318e-10  -3.4351216e-02   1.0371104e+00   7.1603899e-02  -6.8350912e+07
   6.3221074e-10  -3.4169444e-02   1.0309147e+00   7.2190046e-02  -6.7934386e+07
   6.3487829e-10  -3.3988778e-02   1.0247858e+00   7.2776849e-02  -6.7521277e+07
   6.3754585e-10  -3.3809210e-02   1.0187230e+00   7.3364287e-02  -6.7111542e+07
   6.4021340e-10  -3.3630730e-02   1.0127253e+00   7.3952341e-02  -6.6705140e+07
   6.4288096e-10  -3.3453330e-02   1.0067919e+00   7.4540991e-02  -6.6302032e+07
   6.4554852e-10  -3.3277001e-02   1.0009220e+00   7.5130217e-02  -6.5902178e+07
   6.4821607e-10  -3.3101734e-02   9.9511458e-01   7.5719999e-02  -6.5505540e+07
   6.5088363e-10  -3.2927521e-02   9.8936895e-01   7.6310318e-02  -6.5112078e+07
   6.5355118e-10  -3.2754354e-02   9.8368426e-01   7.6901154e-02  -6.4721756e+07
   6.5621874e-10  -3.2582223e-02   9.7805971e-01   7.7492488e-02  -6.4334537e+07
   6.5888630e-10  -3.2411121e-02   9.7249450e-01   7.8084301e-02  -6.3950384e+07
   6.6155385e-10  -3.2241040e-02   9.6698787e-01   7.8676573e-02  -6.3569261e+07
   6.6422141e-10  -3.2071971e-02   9.6153904e-01   7.9269286e-02  -6.3191133e+07
   6.6688896e-10  -3.1903907e-02   9.5614725e-01   7.9862422e-02  -6.2815966e+07
   6.6955652e-10  -3.1736840e-02   9.5081177e-01   8.0455960e-02  -6.2443725e+07
   6.7222407e-10  -3.1570762e-02   9.4553186e-01   8.1049883e-02  -6.2074378e+07
   6.7489163e-10  -3.1405666e-02   9.4030681e-01   8.1644172e-02  -6.1707890e+07
   6.7755919e-10  -3.1241543e-02   9.3513589e-01   8.2238808e-02  -6.1344230e+07
   6.8022674e-10  -3.1078387e-02   9.3001842e-01   8.2833774e-02  -6.0983365e+07
   6.8289430e-10  -3.0916189e-02   9.2495370e-01   8.3429052e-02  -6.0625264e+07
   6.8556185e-10  -3.0754943e-02   9.1994106e-01   8.4024623e-02  -6.0269896e+07
   6.8822941e-10  -3.0594642e-02   9.1497983e-01   8.4620469e-02  -5.9917231e+07
   6.9089697e-10  -3.0435277e-02   9.1006935e-01   8.5216573e-02  -5.9567238e+07
   6.9356452e-10  -3.0276843e-02   9.0520897e-01   8.5812917e-02  -5.9219887e+07
   6.9623208e-10  -3.0119331e-02   9.0039805e-01   8.6409483e-02  -5.8875151e+07
   6.9889963e-10  -2.9962736e-02   8.9563598e-01   8.7006254e-02  -5.8533000e+07
   7.0156719e-10  -2.9807050e-02   8.9092212e-01   8.7603213e-02  -5.8193405e+07
   7.0423474e-10  -2.9652267e-02   8.8625586e-01   8.8200343e-02  -5.7856340e+07
   7.0690230e-10  -2.9498379e-02   8.8163662e-01   8.8797626e-02  -5.7521777e+07
   7.0956986e-10  -2.9345381e-02   8.7706379e-01   8.9395045e-02  -5.7189688e+07
   7.1223741e-10  -2.9193265e-02   8.7253679e-01   8.9992584e-02  -5.6860047e+07
   7.1490497e-10  -2.9042025e-02   8.6805505e-01   9.0590227e-02  -5.6532828e+07
   7.1757252e-10  -2.8891655e-02   8.6361801e-01   9.1187955e-02  -5.6208006e+07
   7.2024008e-10  -2.8742148e-02   8.5922509e-01   9.1785753e-02  -5.5885554e+07
   7.2290764e-10  -2.8593498e-02   8.5487577e-01   9.2383605e-02  -5.5565449e+07
   7.2557519e-10  -2.8445699e-02   8.5056949e-01   9.2981494e-02  -5.5247664e+07
   7.2824275e-10  -2.8298745e-02   8.4630572e-01   9.3579403e-02  -5.4932176e+07
   7.3091030e-10  -2.8152629e-02   8.4208393e-01   9.4177318e-02  -5.4618962e+07
   7.3357786e-10  -2.8007346e-02   8.3790362e-01   9.4775222e-02  -5.4307997e+07
   7.3624542e-10  -2.7862889e-02   8.3376427e-01   9.5373099e-02  -5.3999258e+07
   7.3891297e-10  -2.7719252e-02   8.2966537e-01   9.5970934e-02  -5.3692722e+07
   7.4158053e-10  -2.7576431e-02   8.2560644e-01   9.6568711e-02  -5.3388368e+07
   7.4424808e-10  -2.7434419e-02   8.2158697e-01   9.7166414e-02  -5.3086171e+07
   7.4691564e-10  -2.7293209e-02   8.1760651e-01   9.7764029e-02  -5.2786112e+07
   7.4958319e-10  -2.7152798e-02   8.1366456e-01   9.8361539e-02  -5.2488167e+07
   7.5225075e-10  -2.7013178e-02   8.0976066e-01   9.8958931e-02  -5.2192317e+07
   7.5491831e-10  -2.6874345e-02   8.0589436e-01   9.9556188e-02  -5.1898539e+07
   7.5758586e-10  -2.6736292e-02   8.0206519e-01   1.0015330e-01  -5.1606813e+07
   7.6025342e-10  -2.6599016e-02   7.9827272e-01   1.0075024e-01  -5.1317119e+07
   7.6292097e-10  -2.6462509e-02   7.9451649e-01   1.0134701e-01  -5.1029436e+07
   7.6558853e-10  -2.6326767e-02   7.9079609e-01   1.0194358e-01  -5.0743745e+07
   7.6825609e-10  -2.6191784e-02   7.8711107e-01   1.0253995e-01  -5.0460026e+07
   7.7092364e-10  -2.6057556e-02   7.8346102e-01   1.0313609e-01  -5.0178260e+07
   7.7359120e-10  -2.5924076e-02   7.7984552e-01   1.0373200e-01  -4.9898428e+07
   7.7625875e-10  -2.5791341e-02   7.7626417e-01   1.0432766e-01  -4.9620512e+07
   7.7892631e-10  -2.5659344e-02   7.7271655e-01   1.0492305e-01  -4.9344491e+07
   7.8159386e-10  -2.5528081e-02   7.6920226e-01   1.0551817e-01  -4.9070350e+07
   7.8426142e-10  -2.5397547e-02   7.6572093e-01   1.0611299e-01  -4.8798068e+07
   7.8692898e-10  -2.5267737e-02   7.6227215e-01   1.0670751e-01  -4.8527629e+07
   7.8959653e-10  -2.5138646e-02   7.5885555e-01   1.0730171e-01  -4.8259016e+07
   7.9226409e-10  -2.5010269e-02   7.5547075e-01   1.0789558e-01  -4.7992210e+07
   7.9493164e-10  -2.4882601e-02   7.5211738e-01   1.0848910e-01  -4.7727195e+07
   7.9759920e-10  -2.4755638e-02   7.4879508e-01   1.0908226e-01  -4.7463954e+07
   8.0026676e-10  -2.4629375e-02   7.4550347e-01   1.0967506e-01  -4.7202471e+07
   8.0293431e-10  -2.4503806e-02   7.4224221e-01   1.1026746e-01  -4.6942728e+07
   8.0560187e-10  -2.4378929e-02   7.3901095e-01   1.1085947e-01  -4.6684711e+07
   8.0826942e-10  -2.4254737e-02   7.3580934e-01   1.1145107e-01  -4.6428402e+07
   8.1093698e-10  -2.4131227e-02   7.3263704e-01   1.1204225e-01  -4.6173787e+07
   8.1360453e-10  -2.4008394e-02   7.2949372e-01   1.1263299e-01  -4.5920850e+07
   8.1627209e-10  -2.3886233e-02   7.2637903e-01   1.1322328e-01  -4.5669574e+07
   8.1893965e-10  -2.3764740e-02   7.2329266e-01   1.1381311e-01  -4.5419947e+07
   8.2160720e-10  -2.3643911e-02   7.2023428e-01   1.1440247e-01  -4.5171951e+07
   8.2427476e-10  -2.3523742e-02   7.1720357e-01   1.1499134e-01  -4.4925573e+07
   8.2694231e-10  -2.3404227e-02   7.1420022e-01   1.1557972e-01  -4.4680798e+07
   8.2960987e-10  -2.3285364e-02   7.1122392e-01   1.1616758e-01  -4.4437612e+07
   8.3227743e-10  -2.3167147e-02   7.0827437e-01   1.1675493e-01  -4.4196001e+07
   8.3494498e-10  -2.3049572e-02   7.0535126e-01   1.1734175e-01  -4.3955950e+07
   8.3761254e-10  -2.2932636e-02   7.0245430e-01   1.1792802e-01  -4.3717446e+07
   8.4028009e-10  -2.2816334e-02   6.9958318e-01   1.1851374e-01  -4.3480475e+07
   8.4294765e-10  -2.2700662e-02   6.9673764e-01   1.1909889e-01  -4.3245023e+07
   8.4561521e-10  -2.2585616e-02   6.9391737e-01   1.1968346e-01  -4.3011078e+07
   8.4828276e-10  -2.2471192e-02   6.9112210e-01   1.2026744e-01  -4.2778626e+07
   8.5095032e-10  -2.2357386e-02   6.8835155e-01   1.2085082e-01  -4.2547655e+07
   8.5361787e-10  -2.2244194e-02   6.8560544e-01   1.2143360e-01  -4.2318151e+07
   8.5628543e-10  -2.2131613e-02   6.8288352e-01   1.2201575e-01  -4.2090101e+07
   8.5895298e-10  -2.2019638e-02   6.8018550e-01   1.2259726e-01  -4.1863494e+07
   8.6162054e-10  -2.1908265e-02   6.7751113e-01   1.2317814e-01  -4.1638317e+07
   8.6428810e-10  -2.1797492e-02   6.7486014e-01   1.2375836e-01  -4.1414557e+07
   8.6695565e-10  -2.1687313e-02   6.7223229e-01   1.2433792e-01  -4.1192203e+07
   8.6962321e-10  -2.1577726e-02   6.6962731e-01   1.2491680e-01  -4.0971243e+07
   8.7229076e-10  -2.1468726e-02   6.6704496e-01   1.2549500e-01  -4.0751665e+07
   8.7495832e-10  -2.1360310e-02   6.6448500e-01   1.2607250e-01  -4.0533458e+07
   8.7762588e-10  -2.1252474e-02   6.6194718e-01   1.2664930e-01  -4.0316609e+07
   8.8029343e-10  -2.1145215e-02   6.5943125e-01   1.2722538e-01  -4.0101108e+07
   8.8296099e-10  -2.1038529e-02   6.5693699e-01   1.2780074e-01  -3.9886944e+07
   8.8562854e-10  -2.0932413e-02   6.5446417e-01   1.2837537e-01  -3.9674104e+07
   8.8829610e-10  -2.0826863e-02   6.5201254e-01   1.2894925e-01  -3.9462580e+07
   8.9096365e-10  -2.0721875e-02   6.4958188e-01   1.2952237e-01  -3.9252358e+07
   8.9363121e-10  -2.0617446e-02   6.4717198e-01   1.3009474e-01  -3.9043430e+07
   8.9629877e-10  -2.0513573e-02   6.4478260e-01   1.3066633e-01  -3.8835784e+07
   8.9896632e-10  -2.0410252e-02   6.4241353e-01   1.3123714e-01  -3.8629410e+07
   9.0163388e-10  -2.0307480e-02   6.4006455e-01   1.3180717e-01  -3.8424297e+07
   9.0430143e-10  -2.0205253e-02   6.3773546e-01   1.3237639e-01  -3.8220436e+07
   9.0696899e-10  -2.0103568e-02   6.3542603e-01   1.3294480e-01  -3.8017816e+07
   9.0963655e-10  -2.0002423e-02   6.3313607e-01   1.3351240e-01  -3.7816428e+07
   9.1230410e-10  -1.9901812e-02   6.3086536e-01   1.3407917e-01  -3.7616261e+07
   9.1497166e-10  -1.9801735e-02   6.2861371e-01   1.3464511e-01  -3.7417305e+07
   9.1763921e-10  -1.9702186e-02   6.2638091e-01   1.3521020e-01  -3.7219552e+07
   9.2030677e-10  -1.9603163e-02   6.2416677e-01   1.3577444e-01  -3.7022992e+07
   9.2297432e-10  -1.9504663e-02   6.2197110e-01   1.3633783e-01  -3.6827614e+07
   9.2564188e-10  -1.9406683e-02   6.1979370e-01   1.3690034e-01  -3.6633411e+07
   9.2830944e-10  -1.9309219e-02   6.1763438e-01   1.3746198e-01  -3.6440372e+07
   9.3097699e-10  -1.9212269e-02   6.1549295e-01   1.3802274e-01  -3.6248489e+07
   9.3364455e-10  -1.9115828e-02   6.1336924e-01   1.3858260e-01  -3.6057752e+07
   9.3631210e-10  -1.9019896e-02   6.1126305e-01   1.3914156e-01  -3.5868153e+07
   9.3897966e-10  -1.8924467e-02   6.0917421e-01   1.3969962e-01  -3.5679683e+07
   9.4164722e-10  -1.8829540e-02   6.0710253e-01   1.4025676e-01  -3.5492334e+07
   9.4431477e-10  -1.8735111e-02   6.0504785e-01   1.4081298e-01  -3.5306095e+07
   9.4698233e-10  -1.8641177e-02   6.0300999e-01   1.4136826e-01  -3.5120960e+07
   9.4964988e-10  -1.8547735e-02   6.0098877e-01   1.4192261e-01  -3.4936919e+07
   9.5231744e-10  -1.8454784e-02   5.9898404e-01   1.4247602e-01  -3.4753965e+07
   9.5498499e-10  -1.8362318e-02   5.9699561e-01   1.4302847e-01  -3.4572089e+07
   9.5765255e-10  -1.8270337e-02   5.9502333e-01   1.4357996e-01  -3.4391282e+07
   9.6032011e-10  -1.8178836e-02   5.9306703e-01   1.4413049e-01  -3.4211538e+07
   9.6298766e-10  -1.8087814e-02   5.9112656e-01   1.4468004e-01  -3.4032847e+07
   9.6565522e-10  -1.7997266e-02   5.8920174e-01   1.4522861e-01  -3.3855202e+07
   9.6832277e-10  -1.7907191e-02   5.8729243e-01   1.4577620e-01  -3.3678596e+07
   9.7099033e-10  -1.7817586e-02   5.8539847e-01   1.4632279e-01  -3.3503019e+07
   9.7365789e-10  -1.7728448e-02   5.8351971e-01   1.4686838e-01  -3.3328466e+07
   9.7632544e-10  -1.7639774e-02   5.8165599e-01   1.4741297e-01  -3.3154928e+07
   9.7899300e-10  -1.7551562e-02   5.7980716e-01   1.4795654e-01  -3.2982397e+07
   9.8166055e-10  -1.7463809e-02   5.7797308e-01   1.4849909e-01  -3.2810867e+07
   9.8432811e-10  -1.7376512e-02   5.7615361e-01   1.4904062e-01  -3.2640329e+07
   9.8699567e-10  -1.7289668e-02   5.7434858e-01   1.4958112e-01  -3.2470777e+07
   9.8966322e-10  -1.7203276e-02   5.7255788e-01   1.5012057e-01  -3.2302204e+07
   9.9233078e-10  -1.7117332e-02   5.7078134e-01   1.5065899e-01  -3.2134602e+07
   9.9499833e-10  -1.7031833e-02   5.6901884e-01   1.5119635e-01  -3.1967964e+07
   9.9766589e-10  -1.6946778e-02   5.6727024e-01   1.5173266e-01  -3.1802284e+07
   1.0003334e-09  -1.6862164e-02   5.6553539e-01   1.5226791e-01  -3.1637554e+07
   1.0030010e-09  -1.6777987e-02   5.6381417e-01   1.5280209e-01  -3.1473768e+07
   1.0056686e-09  -1.6694247e-02   5.6210645e-01   1.5333519e-01  -3.1310919e+07
   1.0083361e-09  -1.6610939e-02   5.6041208e-01   1.5386722e-01  -3.1149000e+07
   1.0110037e-09  -1.6528063e-02   5.5873095e-01   1.5439817e-01  -3.0988004e+07
   1.0136712e-09  -1.6445614e-02   5.5706292e-01   1.5492803e-01  -3.0827926e+07
   1.0163388e-09  -1.6363592e-02   5.5540787e-01   1.5545679e-01  -3.0668757e+07
   1.0190063e-09  -1.6281992e-02   5.5376568e-01   1.5598446e-01  -3.0510493e+07
   1.0216739e-09  -1.6200814e-02   5.5213621e-01   1.5651102e-01  -3.0353127e+07
   1.0243414e-09  -1.6120054e-02   5.5051935e-01   1.5703647e-01  -3.0196652e+07
   1.0270090e-09  -1.6039711e-02   5.4891498e-01   1.5756081e-01  -3.0041062e+07
   1.0296766e-09  -1.5959781e-02   5.4732298e-01   1.5808403e-01  -2.9886351e+07
   1.0323441e-09  -1.5880263e-02   5.4574322e-01   1.5860613e-01  -2.9732513e+07
   1.0350117e-09  -1.5801154e-02   5.4417560e-01   1.5912709e-01  -2.9579542e+07
   1.0376792e-09  -1.5722452e-02   5.4262000e-01   1.5964693e-01  -2.9427431e+07
   1.0403468e-09  -1.5644155e-02   5.4107630e-01   1.6016563e-01  -2.9276175e+07
   1.0430143e-09  -1.5566260e-02   5.3954439e-01   1.6068318e-01  -2.9125768e+07
   1.0456819e-09  -1.5488765e-02   5.3802416e-01   1.6119959e-01  -2.8976205e+07
   1.0483494e-09  -1.5411668e-02   5.3651550e-01   1.6171485e-01  -2.8827478e+07
   1.0510170e-09  -1.5334966e-02   5.3501831e-01   1.6222896e-01  -2.8679583e+07
   1.0536846e-09  -1.5258658e-02   5.3353246e-01   1.6274190e-01  -2.8532514e+07
   1.0563521e-09  -1.5182742e-02   5.3205787e-01   1.6325369e-01  -2.8386265e+07
   1.0590197e-09  -1.5107214e-02   5.3059442e-01   1.6376430e-01  -2.8240831e+07
   1.0616872e-09  -1.5032073e-02   5.2914201e-01   1.6427375e-01  -2.8096207e+07
   1.0643548e-09  -1.4957317e-02   5.2770054e-01   1.6478202e-01  -2.7952386e+07
   1.0670223e-09  -1.4882943e-02   5.2626990e-01   1.6528911e-01  -2.7809363e+07
   1.0696899e-09  -1.4808950e-02   5.2484999e-01   1.6579502e-01  -2.7667133e+07
   1.0723575e-09  -1.4735335e-02   5.2344073e-01   1.6629975e-01  -2.7525691e+07
   1.0750250e-09  -1.4662097e-02   5.2204200e-01   1.6680328e-01  -2.7385031e+07
   1.0776926e-09  -1.4589232e-02   5.2065371e-01   1.6730562e-01  -2.7245149e+07
   1.0803601e-09  -1.4516740e-02   5.1927577e-01   1.6780677e-01  -2.7106038e+07
   1.0830277e-09  -1.4444618e-02   5.1790807e-01   1.6830672e-01  -2.6967694e+07
   1.0856952e-09  -1.4372864e-02   5.1655054e-01   1.6880546e-01  -2.6830112e+07
   1.0883628e-09  -1.4301476e-02   5.1520306e-01   1.6930300e-01  -2.6693287e+07
   1.0910303e-09  -1.4230452e-02   5.1386556e-01   1.6979933e-01  -2.6557214e+07
   1.0936979e-09  -1.4159789e-02   5.1253795e-01   1.7029445e-01  -2.6421888e+07
   1.0963655e-09  -1.4089487e-02   5.1122012e-01   1.7078835e-01  -2.6287303e+07
   1.0990330e-09  -1.4019543e-02   5.0991200e-01   1.7128103e-01  -2.6153456e+07
   1.1017006e-09  -1.3949955e-02   5.0861349e-01   1.7177249e-01  -2.6020341e+07
   1.1043681e-09  -1.3880721e-02   5.0732451e-01   1.7226273e-01  -2.5887953e+07
   1.1070357e-09  -1.3811839e-02   5.0604498e-01   1.7275174e-01  -2.5756288e+07
   1.1097032e-09  -1.3743308e-02   5.0477480e-01   1.7323953e-01  -2.5625341e+07
   1.1123708e-09  -1.3675125e-02   5.0351390e-01   1.7372608e-01  -2.5495108e+07
   1.1150383e-09  -1.3607288e-02   5.0226219e-01   1.7421139e-01  -2.5365584e+07
   1.1177059e-09  -1.3539796e-02   5.0101959e-01   1.7469547e-01  -2.5236764e+07
   1.1203735e-09  -1.3472647e-02   4.9978602e-01   1.7517831e-01  -2.5108644e+07
   1.1230410e-09  -1.3405838e-02   4.9856140e-01   1.7565991e-01  -2.4981219e+07
   1.1257086e-09  -1.3339368e-02   4.9734565e-01   1.7614027e-01  -2.4854485e+07
   1.1283761e-09  -1.3273236e-02   4.9613869e-01   1.7661937e-01  -2.4728437e+07
   1.1310437e-09  -1.3207439e-02   4.9494044e-01   1.7709723e-01  -2.4603071e+07
   1.1337112e-09  -1.3141975e-02   4.9375082e-01   1.7757384e-01  -2.4478384e+07
   1.1363788e-09  -1.3076843e-02   4.9256977e-01   1.7804920e-01  -2.4354369e+07
   1.1390463e-09  -1.3012041e-02   4.9139720e-01   1.7852330e-01  -2.4231024e+07
   1.1417139e-09  -1.2947568e-02   4.9023304e-01   1.7899615e-01  -2.4108344e+07
   1.1443815e-09  -1.2883420e-02   4.8907722e-01   1.7946774e-01  -2.3986324e+07
   1.1470490e-09  -1.2819597e-02   4.8792966e-01   1.7993806e-01  -2.3864962e+07
   1.1497166e-09  -1.2756098e-02   4.8679030e-01   1.8040713e-01  -2.3744251e+07
   1.1523841e-09  -1.2692919e-02   4.8565905e-01   1.8087493e-01  -2.3624189e+07
   1.1550517e-09  -1.2630059e-02   4.8453586e-01   1.8134147e-01  -2.3504772e+07
   1.1577192e-09  -1.2567518e-02   4.8342065e-01   1.8180674e-01  -2.3385995e+07
   1.1603868e-09  -1.2505292e-02   4.8231334e-01   1.8227074e-01  -2.3267854e+07
   1.1630544e-09  -1.2443381e-02   4.8121388e-01   1.8273347e-01  -2.3150346e+07
   1.1657219e-09  -1.2381782e-02   4.8012220e-01   1.8319493e-01  -2.3033466e+07
   1.1683895e-09  -1.2320494e-02   4.7903823e-01   1.8365512e-01  -2.2917211e+07
   1.1710570e-09  -1.2259515e-02   4.7796189e-01   1.8411403e-01  -2.2801576e+07
   1.1737246e-09  -1.2198845e-02   4.7689314e-01   1.8457167e-01  -2.2686559e+07
   1.1763921e-09  -1.2138480e-02   4.7583189e-01   1.8502803e-01  -2.2572154e+07
   1.1790597e-09  -1.2078419e-02   4.7477810e-01   1.8548311e-01  -2.2458359e+07
   1.1817272e-09  -1.2018661e-02   4.7373169e-01   1.8593692e-01  -2.2345170e+07
   1.1843948e-09  -1.1959205e-02   4.7269260e-01   1.8638945e-01  -2.2232583e+07
   1.1870624e-09  -1.1900048e-02   4.7166077e-01   1.8684069e-01  -2.2120594e+07
   1.1897299e-09  -1.1841188e-02   4.7063614e-01   1.8729066e-01  -2.2009199e+07
   1.1923975e-09  -1.1782626e-02   4.6961865e-01   1.8773934e-01  -2.1898396e+07
   1.1950650e-09  -1.1724358e-02   4.6860823e-01   1.8818674e-01  -2.1788180e+07
   1.1977326e-09  -1.1666383e-02   4.6760483e-01   1.8863285e-01  -2.1678547e+07
   1.2004001e-09  -1.1608700e-02   4.6660839e-01   1.8907768e-01  -2.1569496e+07
   1.2030677e-09  -1.1551307e-02   4.6561885e-01   1.8952123e-01  -2.1461021e+07
   1.2057352e-09  -1.1494202e-02   4.6463616e-01   1.8996348e-01  -2.1353119e+07
   1.2084028e-09  -1.1437385e-02   4.6366024e-01   1.9040445e-01  -2.1245787e+07
   1.2110704e-09  -1.1380853e-02   4.6269106e-01   1.9084414e-01  -2.1139022e+07
   1.2137379e-09  -1.1324606e-02   4.6172855e-01   1.9128253e-01  -2.1032820e+07
   1.2164055e-09  -1.1268640e-02   4.6077265e-01   1.9171964e-01  -2.0927178e+07
   1.2190730e-09  -1.1212956e-02   4.5982332e-01   1.9215546e-01  -2.0822092e+07
   1.2217406e-09  -1.1157552e-02   4.5888050e-01   1.9258999e-01  -2.0717559e+07
   1.2244081e-09  -1.1102425e-02   4.5794412e-01   1.9302323e-01  -2.0613576e+07
   1.2270757e-09  -1.1047576e-02   4.5701415e-01   1.9345519e-01  -2.0510139e+07
   1.2297432e-09  -1.0993001e-02   4.5609053e-01   1.9388585e-01  -2.0407246e+07
   1.2324108e-09  -1.0938700e-02   4.5517320e-01   1.9431522e-01  -2.0304893e+07
   1.2350784e-09  -1.0884672e-02   4.5426212e-01   1.9474330e-01  -2.0203076e+07
   1.2377459e-09  -1.0830914e-02   4.5335723e-01   1.9517010e-01  -2.0101794e+07
   1.2404135e-09  -1.0777426e-02   4.5245848e-01   1.9559560e-01  -2.0001042e+07
   1.2430810e-09  -1.0724206e-02   4.5156583e-01   1.9601981e-01  -1.9900817e+07
   1.2457486e-09  -1.0671253e-02   4.5067921e-01   1.9644273e-01  -1.9801117e+07
   1.2484161e-09  -1.0618565e-02   4.4979859e-01   1.9686436e-01  -1.9701938e+07
   1.2510837e-09  -1.0566140e-02   4.4892392e-01   1.9728471e-01  -1.9603277e+07
   1.2537513e-09  -1.0513979e-02   4.4805513e-01   1.9770376e-01  -1.9505131e+07
   1.2564188e-09  -1.0462078e-02   4.4719220e-01   1.9812152e-01  -1.9407498e+07
   1.2590864e-09  -1.0410437e-02   4.4633507e-01   1.9853800e-01  -1.9310373e+07
   1.2617539e-09  -1.0359055e-02   4.4548370e-01   1.9895318e-01  -1.9213755e+07
   1.2644215e-09  -1.0307929e-02   4.4463803e-01   1.9936708e-01  -1.9117640e+07
   1.2670890e-09  -1.0257060e-02   4.4379802e-01   1.9977969e-01  -1.9022026e+07
   1.2697566e-09  -1.0206444e-02   4.4296363e-01   2.0019101e-01  -1.8926909e+07
   1.2724241e-09  -1.0156082e-02   4.4213481e-01   2.0060104e-01  -1.8832287e+07
   1.2750917e-09  -1.0105972e-02   4.4131152e-01   2.0100979e-01  -1.8738156e+07
   1.2777593e-09  -1.0056112e-02   4.4049372e-01   2.0141725e-01  -1.8644514e+07
   1.2804268e-09  -1.0006501e-02   4.3968135e-01   2.0182342e-01  -1.8551359e+07
   1.2830944e-09  -9.9571377e-03   4.3887438e-01   2.0222831e-01  -1.8458686e+07
   1.2857619e-09  -9.9080212e-03   4.3807276e-01   2.0263192e-01  -1.8366495e+07
   1.2884295e-09  -9.8591501e-03   4.3727645e-01   2.0303424e-01  -1.8274780e+07
   1.2910970e-09  -9.8105230e-03   4.3648541e-01   2.0343528e-01  -1.8183541e+07
   1.2937646e-09  -9.7621386e-03   4.3569960e-01   2.0383503e-01  -1.8092775e+07
   1.2964321e-09  -9.7139957e-03   4.3491898e-01   2.0423351e-01  -1.8002477e+07
   1.2990997e-09  -9.6660931e-03   4.3414350e-01   2.0463070e-01  -1.7912647e+07
   1.3017673e-09  -9.6184294e-03   4.3337312e-01   2.0502661e-01  -1.7823281e+07
   1.3044348e-09  -9.5710036e-03   4.3260781e-01   2.0542125e-01  -1.7734377e+07
   1.3071024e-09  -9.5238143e-03   4.3184752e-01   2.0581460e-01  -1.7645932e+07
   1.3097699e-09  -9.4768603e-03   4.3109222e-01   2.0620668e-01  -1.7557943e+07
   1.3124375e-09  -9.4301404e-03   4.3034187e-01   2.0659749e-01  -1.7470408e+07
   1.3151050e-09  -9.3836535e-03   4.2959643e-01   2.0698702e-01  -1.7383324e+07
   1.3177726e-09  -9.3373982e-03   4.2885585e-01   2.0737527e-01  -1.7296689e+07
   1.3204401e-09  -9.2913734e-03   4.2812011e-01   2.0776225e-01  -1.7210500e+07
   1.3231077e-09  -9.2455780e-03   4.2738916e-01   2.0814796e-01  -1.7124755e+07
   1.3257753e-09  -9.2000107e-03   4.2666297e-01   2.0853240e-01  -1.7039451e+07
   1.3284428e-09  -9.1546704e-03   4.2594150e-01   2.0891557e-01  -1.6954585e+07
   1.3311104e-09  -9.1095559e-03   4.2522471e-01   2.0929747e-01  -1.6870156e+07
   1.3337779e-09  -9.0646660e-03   4.2451257e-01   2.0967810e-01  -1.6786161e+07
   1.3364455e-09  -9.0199996e-03   4.2380505e-01   2.1005747e-01  -1.6702597e+07
   1.3391130e-09  -8.9755555e-03   4.2310210e-01   2.1043558e-01  -1.6619462e+07
   1.3417806e-09  -8.9313327e-03   4.2240369e-01   2.1081242e-01  -1.6536753e+07
   1.3444481e-09  -8.8873299e-03   4.2170980e-01   2.1118800e-01  -1.6454469e+07
   1.3471157e-09  -8.8435460e-03   4.2102037e-01   2.1156231e-01  -1.6372606e+07
   1.3497833e-09  -8.7999800e-03   4.2033538e-01   2.1193537e-01  -1.6291163e+07
   1.3524508e-09  -8.7566306e-03   4.1965480e-01   2.1230718e-01  -1.6210137e+07
   1.3551184e-09  -8.7134969e-03   4.1897859e-01   2.1267772e-01  -1.6129526e+07
   1.3577859e-09  -8.6705776e-03   4.1830672e-01   2.1304701e-01  -1.6049327e+07
   1.3604535e-09  -8.6278717e-03   4.1763915e-01   2.1341505e-01  -1.5969538e+07
   1.3631210e-09  -8.5853782e-03   4.1697585e-01   2.1378184e-01  -1.5890158e+07
   1.3657886e-09  -8.5430958e-03   4.1631680e-01   2.1414737e-01  -1.5811183e+07
   1.3684562e-09  -8.5010235e-03   4.1566195e-01   2.1451166e-01  -1.5732611e+07
   1.3711237e-09  -8.4591604e-03   4.1501128e-01   2.1487470e-01  -1.5654441e+07
   1.3737913e-09  -8.4175052e-03   4.1436476e-01   2.1523650e-01  -1.5576670e+07
   1.3764588e-09  -8.3760569e-03   4.1372235e-01   2.1559705e-01  -1.5499295e+07
   1.3791264e-09  -8.3348145e-03   4.1308402e-01   2.1595637e-01  -1.5422316e+07
   1.3817939e-09  -8.2937769e-03   4.1244974e-01   2.1631444e-01  -1.5345728e+07
   1.3844615e-09  -8.2529432e-03   4.1181949e-01   2.1667127e-01  -1.5269531e+07
   1.3871290e-09  -8.2123121e-03   4.1119323e-01   2.1702687e-01  -1.5193723e+07
   1.3897966e-09  -8.1718828e-03   4.1057093e-01   2.1738123e-01  -1.5118300e+07
   1.3924642e-09  -8.1316541e-03   4.0995257e-01   2.1773436e-01  -1.5043261e+07
   1.3951317e-09  -8.0916252e-03   4.0933811e-01   2.1808626e-01  -1.4968604e+07
   1.3977993e-09  -8.0517948e-03   4.0872753e-01   2.1843693e-01  -1.4894327e+07
   1.4004668e-09  -8.0121621e-03   4.0812079e-01   2.1878637e-01  -1.4820427e+07
   1.4031344e-09  -7.9727260e-03   4.0751787e-01   2.1913459e-01  -1.4746903e+07
   1.4058019e-09  -7.9334856e-03   4.0691874e-01   2.1948158e-01  -1.4673753e+07
   1.4084695e-09  -7.8944398e-03   4.0632337e-01   2.1982736e-01  -1.4600974e+07
   1.4111370e-09  -7.8555876e-03   4.0573173e-01   2.2017191e-01  -1.4528565e+07
   1.4138046e-09  -7.8169281e-03   4.0514380e-01   2.2051525e-01  -1.4456523e+07
   1.4164722e-09  -7.7784603e-03   4.0455955e-01   2.2085737e-01  -1.4384847e+07
   1.4191397e-09  -7.7401832e-03   4.0397896e-01   2.2119827e-01  -1.4313534e+07
   1.4218073e-09  -7.7020959e-03   4.0340198e-01   2.2153797e-01  -1.4242583e+07
   1.4244748e-09  -7.6641973e-03   4.0282861e-01   2.2187646e-01  -1.4171991e+07
   1.4271424e-09  -7.6264866e-03   4.0225881e-01   2.2221374e-01  -1.4101758e+07
   1.4298099e-09  -7.5889628e-03   4.0169256e-01   2.2254981e-01  -1.4031880e+07
   1.4324775e-09  -7.5516249e-03   4.0112983e-01   2.2288468e-01  -1.3962355e+07
   1.4351450e-09  -7.5144719e-03   4.0057059e-01   2.2321835e-01  -1.3893183e+07
   1.4378126e-09  -7.4775031e-03   4.0001483e-01   2.2355082e-01  -1.3824361e+07
   1.4404802e-09  -7.4407173e-03   3.9946251e-01   2.2388210e-01  -1.3755887e+07
   1.4431477e-09  -7.4041138e-03   3.9891361e-01   2.2421218e-01  -1.3687759e+07
   1.4458153e-09  -7.3676915e-03   3.9836811e-01   2.2454107e-01  -1.3619976e+07
   1.4484828e-09  -7.3314496e-03   3.9782597e-01   2.2486877e-01  -1.3552535e+07
   1.4511504e-09  -7.2953871e-03   3.9728719e-01   2.2519528e-01  -1.3485435e+07
   1.4538179e-09  -7.2595032e-03   3.9675172e-01   2.2552061e-01  -1.3418674e+07
   1.4564855e-09  -7.2237969e-03   3.9621956e-01   2.2584476e-01  -1.3352250e+07
   1.4591531e-09  -7.1882674e-03   3.9569067e-01   2.2616772e-01  -1.3286162e+07
   1.4618206e-09  -7.1529137e-03   3.9516503e-01   2.2648950e-01  -1.3220407e+07
   1.4644882e-09  -7.1177349e-03   3.9464262e-01   2.2681011e-01  -1.3154983e+07
   1.4671557e-09  -7.0827303e-03   3.9412342e-01   2.2712955e-01  -1.3089890e+07
   1.4698233e-09  -7.0478988e-03   3.9360739e-01   2.2744782e-01  -1.3025125e+07
   1.4724908e-09  -7.0132397e-03   3.9309453e-01   2.2776491e-01  -1.2960686e+07
   1.4751584e-09  -6.9787521e-03   3.9258481e-01   2.2808084e-01  -1.2896572e+07
   1.4778259e-09  -6.9444350e-03   3.9207820e-01   2.2839561e-01  -1.2832781e+07
   1.4804935e-09  -6.9102877e-03   3.9157469e-01   2.2870921e-01  -1.2769311e+07
   1.4831611e-09  -6.8763092e-03   3.9107424e-01   2.2902165e-01  -1.2706161e+07
   1.4858286e-09  -6.8424988e-03   3.9057685e-01   2.2933294e-01  -1.2643329e+07
   1.4884962e-09  -6.8088556e-03   3.9008248e-01   2.2964308e-01  -1.2580813e+07
   1.4911637e-09  -6.7753787e-03   3.8959112e-01   2.2995206e-01  -1.2518611e+07
   1.4938313e-09  -6.7420674e-03   3.8910275e-01   2.3025989e-01  -1.2456722e+07
   1.4964988e-09  -6.7089207e-03   3.8861734e-01   2.3056658e-01  -1.2395145e+07
   1.4991664e-09  -6.6759379e-03   3.8813487e-01   2.3087212e-01  -1.2333877e+07
   1.5018339e-09  -6.6431180e-03   3.8765533e-01   2.3117652e-01  -1.2272917e+07
   1.5045015e-09  -6.6104604e-03   3.8717869e-01   2.3147978e-01  -1.2212263e+07
   1.5071691e-09  -6.5779642e-03   3.8670493e-01   2.3178190e-01  -1.2151914e+07
   1.5098366e-09  -6.5456286e-03   3.8623404e-01   2.3208289e-01  -1.2091869e+07
   1.5125042e-09  -6.5134527e-03   3.8576598e-01   2.3238275e-01  -1.2032124e+07
   1.5151717e-09  -6.4814358e-03   3.8530075e-01   2.3268148e-01  -1.1972680e+07
   1.5178393e-09  -6.4495771e-03   3.8483833e-01   2.3297908e-01  -1.1913533e+07
   1.5205068e-09  -6.4178758e-03   3.8437868e-01   2.3327556e-01  -1.1854684e+07
   1.5231744e-09  -6.3863310e-03   3.8392180e-01   2.3357092e-01  -1.1796130e+07
   1.5258419e-09  -6.3549421e-03   3.8346767e-01   2.3386516e-01  -1.1737869e+07
   1.5285095e-09  -6.3237082e-03   3.8301626e-01   2.3415828e-01  -1.1679901e+07
   1.5311771e-09  -6.2926285e-03   3.8256756e-01   2.3445029e-01  -1.1622223e+07
   1.5338446e-09  -6.2617023e-03   3.8212155e-01   2.3474119e-01  -1.1564834e+07
   1.5365122e-09  -6.2309288e-03   3.8167820e-01   2.3503099e-01  -1.1507733e+07
   1.5391797e-09  -6.2003073e-03   3.8123751e-01   2.3531967e-01  -1.1450918e+07
   1.5418473e-09  -6.1698369e-03   3.8079946e-01   2.3560726e-01  -1.1394387e+07
   1.5445148e-09  -6.1395169e-03   3.8036402e-01   2.3589374e-01  -1.1338139e+07
   1.5471824e-09  -6.1093466e-03   3.7993117e-01   2.3617913e-01  -1.1282173e+07
   1.5498499e-09  -6.0793253e-03   3.7950091e-01   2.3646342e-01  -1.1226487e+07
   1.5525175e-09  -6.0494521e-03   3.7907320e-01   2.3674662e-01  -1.1171080e+07
   1.5551851e-09  -6.0197263e-03   3.7864805e-01   2.3702874e-01  -1.1115950e+07
   1.5578526e-09  -5.9901473e-03   3.7822542e-01   2.3730976e-01  -1.1061096e+07
   1.5605202e-09  -5.9607142e-03   3.7780530e-01   2.3758971e-01  -1.1006516e+07
   1.5631877e-09  -5.9314263e-03   3.7738767e-01   2.3786857e-01  -1.0952209e+07
   1.5658553e-09  -5.9022829e-03   3.7697252e-01   2.3814635e-01  -1.0898173e+07
   1.5685228e-09  -5.8732833e-03   3.7655983e-01   2.3842306e-01  -1.0844408e+07
   1.5711904e-09  -5.8444268e-03   3.7614958e-01   2.3869870e-01  -1.0790911e+07
   1.5738580e-09  -5.8157127e-03   3.7574175e-01   2.3897326e-01  -1.0737681e+07
   1.5765255e-09  -5.7871401e-03   3.7533634e-01   2.3924676e-01  -1.0684717e+07
   1.5791931e-09  -5.7587085e-03   3.7493332e-01   2.3951920e-01  -1.0632018e+07
   1.5818606e-09  -5.7304171e-03   3.7453268e-01   2.3979057e-01  -1.0579582e+07
   1.5845282e-09  -5.7022653e-03   3.7413440e-01   2.4006089e-01  -1.0527408e+07
   1.5871957e-09  -5.6742523e-03   3.7373846e-01   2.4033015e-01  -1.0475494e+07
   1.5898633e-09  -5.6463774e-03   3.7334486e-01   2.4059836e-01  -1.0423839e+07
   1.5925308e-09  -5.6186400e-03   3.7295357e-01   2.4086552e-01  -1.0372442e+07
   1.5951984e-09  -5.5910393e-03   3.7256457e-01   2.4113163e-01  -1.0321301e+07
   1.5978660e-09  -5.5635747e-03   3.7217786e-01   2.4139669e-01  -1.0270415e+07
   1.6005335e-09  -5.5362455e-03   3.7179342e-01   2.4166072e-01  -1.0219784e+07
   1.6032011e-09  -5.5090511e-03   3.7141123e-01   2.4192370e-01  -1.0169404e+07
   1.6058686e-09  -5.4819907e-03   3.7103128e-01   2.4218565e-01  -1.0119276e+07
   1.6085362e-09  -5.4550637e-03   3.7065355e-01   2.4244657e-01  -1.0069397e+07
   1.6112037e-09  -5.4282694e-03   3.7027804e-01   2.4270646e-01  -1.0019768e+07
   1.6138713e-09  -5.4016072e-03   3.6990471e-01   2.4296532e-01  -9.9703850e+06
   1.6165388e-09  -5.3750763e-03   3.6953356e-01   2.4322315e-01  -9.9212484e+06
   1.6192064e-09  -5.3486762e-03   3.6916458e-01   2.4347996e-01  -9.8723566e+06
   1.6218740e-09  -5.3224063e-03   3.6879775e-01   2.4373576e-01  -9.8237083e+06
   1.6245415e-09  -5.2962657e-03   3.6843305e-01   2.4399054e-01  -9.7753022e+06
   1.6272091e-09  -5.2702540e-03   3.6807048e-01   2.4424430e-01  -9.7271371e+06
   1.6298766e-09  -5.2443704e-03   3.6771001e-01   2.4449706e-01  -9.6792117e+06
   1.6325442e-09  -5.2186144e-03   3.6735164e-01   2.4474881e-01  -9.6315249e+06
   1.6352117e-09  -5.1929852e-03   3.6699535e-01   2.4499955e-01  -9.5840753e+06
   1.6378793e-09  -5.1674824e-03   3.6664113e-01   2.4524930e-01  -9.5368619e+06
   1.6405468e-09  -5.1421051e-03   3.6628895e-01   2.4549804e-01  -9.4898833e+06
   1.6432144e-09  -5.1168528e-03   3.6593882e-01   2.4574579e-01  -9.4431384e+06
   1.6458820e-09  -5.0917250e-03   3.6559072e-01   2.4599255e-01  -9.3966259e+06
   1.6485495e-09  -5.0667209e-03   3.6524462e-01   2.4623831e-01  -9.3503448e+06
   1.6512171e-09  -5.0418399e-03   3.6490053e-01   2.4648309e-01  -9.3042937e+06
   1.6538846e-09  -5.0170815e-03   3.6455842e-01   2.4672689e-01  -9.2584716e+06
   1.6565522e-09  -4.9924450e-03   3.6421829e-01   2.4696970e-01  -9.2128772e+06
   1.6592197e-09  -4.9679299e-03   3.6388012e-01   2.4721154e-01  -9.1675094e+06
   1.6618873e-09  -4.9435354e-03   3.6354390e-01   2.4745240e-01  -9.1223670e+06
   1.6645549e-09  -4.9192611e-03   3.6320961e-01   2.4769229e-01  -9.0774489e+06
   1.6672224e-09  -4.8951063e-03   3.6287725e-01   2.4793121e-01  -9.0327540e+06
   1.6698900e-09  -4.8710705e-03   3.6254680e-01   2.4816916e-01  -8.9882810e+06
   1.6725575e-09  -4.8471529e-03   3.6221824e-01   2.4840615e-01  -8.9440289e+06
   1.6752251e-09  -4.8233532e-03   3.6189157e-01   2.4864218e-01  -8.8999965e+06
   1.6778926e-09  -4.7996706e-03   3.6156678e-01   2.4887725e-01  -8.8561828e+06
   1.6805602e-09  -4.7761045e-03   3.6124385e-01   2.4911136e-01  -8.8125866e+06
   1.6832277e-09  -4.7526545e-03   3.6092276e-01   2.4934453e-01  -8.7692067e+06
   1.6858953e-09  -4.7293199e-03   3.6060352e-01   2.4957674e-01  -8.7260422e+06
   1.6885629e-09  -4.7061002e-03   3.6028610e-01   2.4980801e-01  -8.6830918e+06
   1.6912304e-09  -4.6829948e-03   3.5997049e-01   2.5003834e-01  -8.6403546e+06
   1.6938980e-09  -4.6600031e-03   3.5965669e-01   2.5026772e-01  -8.5978294e+06
   1.6965655e-09  -4.6371245e-03   3.5934468e-01   2.5049617e-01  -8.5555152e+06
   1.6992331e-09  -4.6143585e-03   3.5903445e-01   2.5072368e-01  -8.5134108e+06
   1.7019006e-09  -4.5917046e-03   3.5872599e-01   2.5095026e-01  -8.4715152e+06
   1.7045682e-09  -4.5691622e-03   3.5841928e-01   2.5117592e-01  -8.4298274e+06
   1.7072357e-09  -4.5467307e-03   3.5811432e-01   2.5140064e-01  -8.3883463e+06
   1.7099033e-09  -4.5244095e-03   3.5781110e-01   2.5162445e-01  -8.3470708e+06
   1.7125709e-09  -4.5021982e-03   3.5750960e-01   2.5184733e-01  -8.3059999e+06
   1.7152384e-09  -4.4800962e-03   3.5720981e-01   2.5206930e-01  -8.2651326e+06
   1.7179060e-09  -4.4581029e-03   3.5691172e-01   2.5229036e-01  -8.2244679e+06
   1.7205735e-09  -4.4362179e-03   3.5661532e-01   2.5251050e-01  -8.1840046e+06
   1.7232411e-09  -4.4144405e-03   3.5632061e-01   2.5272974e-01  -8.1437419e+06
   1.7259086e-09  -4.3927702e-03   3.5602756e-01   2.5294806e-01  -8.1036786e+06
   1.7285762e-09  -4.3712066e-03   3.5573618e-01   2.5316549e-01  -8.0638137e+06
   1.7312437e-09  -4.3497490e-03   3.5544644e-01   2.5338202e-01  -8.0241464e+06
   1.7339113e-09  -4.3283970e-03   3.5515834e-01   2.5359765e-01  -7.9846755e+06
   1.7365789e-09  -4.3071500e-03   3.5487187e-01   2.5381239e-01  -7.9454000e+06
   1.7392464e-09  -4.2860075e-03   3.5458701e-01   2.5402624e-01  -7.9063191e+06
   1.7419140e-09  -4.2649690e-03   3.5430376e-01   2.5423920e-01  -7.8674316e+06
   1.7445815e-09  -4.2440340e-03   3.5402211e-01   2.5445127e-01  -7.8287367e+06
   1.7472491e-09  -4.2232020e-03   3.5374205e-01   2.5466246e-01  -7.7902333e+06
   1.7499166e-09  -4.2024724e-03   3.5346357e-01   2.5487278e-01  -7.7519205e+06
   1.7525842e-09  -4.1818448e-03   3.5318665e-01   2.5508221e-01  -7.7137973e+06
   1.7552518e-09  -4.1613186e-03   3.5291129e-01   2.5529078e-01  -7.6758627e+06
   1.7579193e-09  -4.1408933e-03   3.5263748e-01   2.5549847e-01  -7.6381159e+06
   1.7605869e-09  -4.1205685e-03   3.5236521e-01   2.5570530e-01  -7.6005558e+06
   1.7632544e-09  -4.1003436e-03   3.5209446e-01   2.5591126e-01  -7.5631816e+06
   1.7659220e-09  -4.0802182e-03   3.5182523e-01   2.5611636e-01  -7.5259922e+06
   1.7685895e-09  -4.0601918e-03   3.5155752e-01   2.5632060e-01  -7.4889868e+06
   1.7712571e-09  -4.0402638e-03   3.5129130e-01   2.5652399e-01  -7.4521644e+06
   1.7739246e-09  -4.0204338e-03   3.5102658e-01   2.5672652e-01  -7.4155241e+06
   1.7765922e-09  -4.0007013e-03   3.5076333e-01   2.5692820e-01  -7.3790650e+06
   1.7792598e-09  -3.9810658e-03   3.5050156e-01   2.5712903e-01  -7.3427862e+06
   1.7819273e-09  -3.9615268e-03   3.5024126e-01   2.5732902e-01  -7.3066868e+06
   1.7845949e-09  -3.9420840e-03   3.4998240e-01   2.5752817e-01  -7.2707658e+06
   1.7872624e-09  -3.9227367e-03   3.4972500e-01   2.5772648e-01  -7.2350224e+06
   1.7899300e-09  -3.9034845e-03   3.4946902e-01   2.5792396e-01  -7.1994556e+06
   1.7925975e-09  -3.8843269e-03   3.4921448e-01   2.5812060e-01  -7.1640646e+06
   1.7952651e-09  -3.8652635e-03   3.4896136e-01   2.5831641e-01  -7.1288486e+06
   1.7979326e-09  -3.8462939e-03   3.4870964e-01   2.5851139e-01  -7.0938066e+06
   1.8006002e-09  -3.8274174e-03   3.4845933e-01   2.5870555e-01  -7.0589377e+06
   1.8032678e-09  -3.8086338e-03   3.4821041e-01   2.5889889e-01  -7.0242411e+06
   1.8059353e-09  -3.7899425e-03   3.4796287e-01   2.5909141e-01  -6.9897159e+06
   1.8086029e-09  -3.7713430e-03   3.4771671e-01   2.5928311e-01  -6.9553613e+06
   1.8112704e-09  -3.7528350e-03   3.4747191e-01   2.5947400e-01  -6.9211763e+06
   1.8139380e-09  -3.7344179e-03   3.4722848e-01   2.5966408e-01  -6.8871603e+06
   1.8166055e-09  -3.7160914e-03   3.4698639e-01   2.5985335e-01  -6.8533122e+06
   1.8192731e-09  -3.6978549e-03   3.4674565e-01   2.6004182e-01  -6.8196312e+06
   1.8219406e-09  -3.6797081e-03   3.4650624e-01   2.6022949e-01  -6.7861166e+06
   1.8246082e-09  -3.6616504e-03   3.4626816e-01   2.6041635e-01  -6.7527675e+06
   1.8272758e-09  -3.6436815e-03   3.4603139e-01   2.6060243e-01  -6.7195831e+06
   1.8299433e-09  -3.6258008e-03   3.4579594e-01   2.6078770e-01  -6.6865624e+06
   1.8326109e-09  -3.6080081e-03   3.4556178e-01   2.6097219e-01  -6.6537048e+06
   1.8352784e-09  -3.5903027e-03   3.4532892e-01   2.6115589e-01  -6.6210094e+06
   1.8379460e-09  -3.5726844e-03   3.4509735e-01   2.6133880e-01  -6.5884754e+06
   1.8406135e-09  -3.5551526e-03   3.4486705e-01   2.6152094e-01  -6.5561019e+06
   1.8432811e-09  -3.5377070e-03   3.4463803e-01   2.6170229e-01  -6.5238882e+06
   1.8459486e-09  -3.5203471e-03   3.4441027e-01   2.6188287e-01  -6.4918335e+06
   1.8486162e-09  -3.5030725e-03   3.4418376e-01   2.6206267e-01  -6.4599370e+06
   1.8512838e-09  -3.4858828e-03   3.4395850e-01   2.6224170e-01  -6.4281978e+06
   1.8539513e-09  -3.4687776e-03   3.4373448e-01   2.6241996e-01  -6.3966153e+06
   1.8566189e-09  -3.4517563e-03   3.4351169e-01   2.6259746e-01  -6.3651886e+06
   1.8592864e-09  -3.4348187e-03   3.4329013e-01   2.6277420e-01  -6.3339169e+06
   1.8619540e-09  -3.4179644e-03   3.4306978e-01   2.6295017e-01  -6.3027994e+06
   1.8646215e-09  -3.4011928e-03   3.4285065e-01   2.6312539e-01  -6.2718355e+06
   1.8672891e-09  -3.3845036e-03   3.4263272e-01   2.6329985e-01  -6.2410243e+06
   1.8699567e-09  -3.3678964e-03   3.4241598e-01   2.6347357e-01  -6.2103650e+06
   1.8726242e-09  -3.3513708e-03   3.4220044e-01   2.6364653e-01  -6.1798570e+06
   1.8752918e-09  -3.3349263e-03   3.4198607e-01   2.6381875e-01  -6.1494993e+06
   1.8779593e-09  -3.3185627e-03   3.4177288e-01   2.6399022e-01  -6.1192914e+06
   1.8806269e-09  -3.3022794e-03   3.4156086e-01   2.6416095e-01  -6.0892325e+06
   1.8832944e-09  -3.2860761e-03   3.4134999e-01   2.6433095e-01  -6.0593217e+06
   1.8859620e-09  -3.2699524e-03   3.4114028e-01   2.6450020e-01  -6.0295585e+06
   1.8886295e-09  -3.2539079e-03   3.4093172e-01   2.6466873e-01  -5.9999419e+06
   1.8912971e-09  -3.2379422e-03   3.4072430e-01   2.6483653e-01  -5.9704714e+06
   1.8939647e-09  -3.2220550e-03   3.4051800e-01   2.6500360e-01  -5.9411461e+06
   1.8966322e-09  -3.2062457e-03   3.4031284e-01   2.6516994e-01  -5.9119653e+06
   1.8992998e-09  -3.1905142e-03   3.4010879e-01   2.6533556e-01  -5.8829284e+06
   1.9019673e-09  -3.1748598e-03   3.3990586e-01   2.6550046e-01  -5.8540347e+06
   1.9046349e-09  -3.1592824e-03   3.3970404e-01   2.6566465e-01  -5.8252833e+06
   1.9073024e-09  -3.1437815e-03   3.3950331e-01   2.6582812e-01  -5.7966735e+06
   1.9099700e-09  -3.1283567e-03   3.3930368e-01   2.6599088e-01  -5.7682048e+06
   1.9126375e-09  -3.1130076e-03   3.3910513e-01   2.6615294e-01  -5.7398764e+06
   1.9153051e-09  -3.0977340e-03   3.3890766e-01   2.6631428e-01  -5.7116875e+06
   1.9179727e-09  -3.0825353e-03   3.3871127e-01   2.6647493e-01  -5.6836375e+06
   1.9206402e-09  -3.0674113e-03   3.3851594e-01   2.6663487e-01  -5.6557258e+06
   1.9233078e-09  -3.0523616e-03   3.3832168e-01   2.6679411e-01  -5.6279515e+06
   1.9259753e-09  -3.0373858e-03   3.3812847e-01   2.6695266e-01  -5.6003140e+06
   1.9286429e-09  -3.0224835e-03   3.3793630e-01   2.6711052e-01  -5.5728127e+06
   1.9313104e-09  -3.0076544e-03   3.3774519e-01   2.6726769e-01  -5.5454469e+06
   1.9339780e-09  -2.9928981e-03   3.3755510e-01   2.6742416e-01  -5.5182158e+06
   1.9366455e-09  -2.9782142e-03   3.3736605e-01   2.6757996e-01  -5.4911189e+06
   1.9393131e-09  -2.9636025e-03   3.3717802e-01   2.6773507e-01  -5.4641554e+06
   1.9419807e-09  -2.9490626e-03   3.3699101e-01   2.6788950e-01  -5.4373247e+06
   1.9446482e-09  -2.9345940e-03   3.3680501e-01   2.6804326e-01  -5.4106262e+06
   1.9473158e-09  -2.9201964e-03   3.3662002e-01   2.6819634e-01  -5.3840591e+06
   1.9499833e-09  -2.9058696e-03   3.3643603e-01   2.6834874e-01  -5.3576228e+06
   1.9526509e-09  -2.8916131e-03   3.3625303e-01   2.6850048e-01  -5.3313167e+06
   1.9553184e-09  -2.8774266e-03   3.3607102e-01   2.6865155e-01  -5.3051401e+06
   1.9579860e-09  -2.8633098e-03   3.3588999e-01   2.6880196e-01  -5.2790925e+06
   1.9606536e-09  -2.8492623e-03   3.3570994e-01   2.6895170e-01  -5.2531730e+06
   1.9633211e-09  -2.8352837e-03   3.3553087e-01   2.6910079e-01  -5.2273811e+06
   1.9659887e-09  -2.8213738e-03   3.3535275e-01   2.6924922e-01  -5.2017163e+06
   1.9686562e-09  -2.8075322e-03   3.3517560e-01   2.6939699e-01  -5.1761777e+06
   1.9713238e-09  -2.7937585e-03   3.3499940e-01   2.6954412e-01  -5.1507649e+06
   1.9739913e-09  -2.7800524e-03   3.3482415e-01   2.6969059e-01  -5.1254771e+06
   1.9766589e-09  -2.7664137e-03   3.3464985e-01   2.6983642e-01  -5.1003139e+06
   1.9793264e-09  -2.7528419e-03   3.3447648e-01   2.6998160e-01  -5.0752744e+06
   1.9819940e-09  -2.7393367e-03   3.3430404e-01   2.7012615e-01  -5.0503582e+06
   1.9846616e-09  -2.7258978e-03   3.3413253e-01   2.7027005e-01  -5.0255647e+06
   1.9873291e-09  -2.7125249e-03   3.3396194e-01   2.7041331e-01  -5.0008931e+06
   1.9899967e-09  -2.6992177e-03   3.3379227e-01   2.7055595e-01  -4.9763430e+06
   1.9926642e-09  -2.6859758e-03   3.3362351e-01   2.7069795e-01  -4.9519136e+06
   1.9953318e-09  -2.6727989e-03   3.3345566e-01   2.7083932e-01  -4.9276045e+06
   1.9979993e-09  -2.6596867e-03   3.3328870e-01   2.7098006e-01  -4.9034150e+06
   2.0006669e-09  -2.6466388e-03   3.3312264e-01   2.7112018e-01  -4.8793445e+06
   2.0033344e-09  -2.6336550e-03   3.3295748e-01   2.7125968e-01  -4.8553924e+06
   2.0060020e-09  -2.6207349e-03   3.3279319e-01   2.7139856e-01  -4.8315582e+06
   2.0086696e-09  -2.6078783e-03   3.3262979e-01   2.7153682e-01  -4.8078412e+06
   2.0113371e-09  -2.5950848e-03   3.3246726e-01   2.7167447e-01  -4.7842409e+06
   2.0140047e-09  -2.5823540e-03   3.3230560e-01   2.7181150e-01  -4.7607567e+06
   2.0166722e-09  -2.5696858e-03   3.3214480e-01   2.7194793e-01  -4.7373880e+06
   2.0193398e-09  -2.5570797e-03   3.3198487e-01   2.7208375e-01  -4.7141343e+06
   2.0220073e-09  -2.5445355e-03   3.3182578e-01   2.7221896e-01  -4.6909949e+06
   2.0246749e-09  -2.5320529e-03   3.3166755e-01   2.7235357e-01  -4.6679694e+06
   2.0273424e-09  -2.5196316e-03   3.3151017e-01   2.7248758e-01  -4.6450572e+06
   2.0300100e-09  -2.5072712e-03   3.3135362e-01   2.7262099e-01  -4.6222576e+06
   2.0326776e-09  -2.4949715e-03   3.3119791e-01   2.7275381e-01  -4.5995701e+06
   2.0353451e-09  -2.4827322e-03   3.3104303e-01   2.7288603e-01  -4.5769943e+06
   2.0380127e-09  -2.4705529e-03   3.3088897e-01   2.7301767e-01  -4.5545294e+06
   2.0406802e-09  -2.4584334e-03   3.3073574e-01   2.7314871e-01  -4.5321750e+06
   2.0433478e-09  -2.4463735e-03   3.3058332e-01   2.7327917e-01  -4.5099306e+06
   2.0460153e-09  -2.4343727e-03   3.3043172e-01   2.7340905e-01  -4.4877955e+06
   2.0486829e-09  -2.4224308e-03   3.3028092e-01   2.7353834e-01  -4.4657693e+06
   2.0513505e-09  -2.4105475e-03   3.3013092e-01   2.7366706e-01  -4.4438514e+06
   2.0540180e-09  -2.3987225e-03   3.2998172e-01   2.7379520e-01  -4.4220413e+06
   2.0566856e-09  -2.3869556e-03   3.2983332e-01   2.7392276e-01  -4.4003384e+06
   2.0593531e-09  -2.3752464e-03   3.2968570e-01   2.7404976e-01  -4.3787422e+06
   2.0620207e-09  -2.3635947e-03   3.2953887e-01   2.7417618e-01  -4.3572522e+06
   2.0646882e-09  -2.3520001e-03   3.2939282e-01   2.7430204e-01  -4.3358678e+06
   2.0673558e-09  -2.3404625e-03   3.2924754e-01   2.7442733e-01  -4.3145886e+06
   2.0700233e-09  -2.3289815e-03   3.2910303e-01   2.7455206e-01  -4.2934140e+06
   2.0726909e-09  -2.3175569e-03   3.2895929e-01   2.7467622e-01  -4.2723435e+06
   2.0753585e-09  -2.3061883e-03   3.2881631e-01   2.7479983e-01  -4.2513765e+06
   2.0780260e-09  -2.2948755e-03   3.2867410e-01   2.7492289e-01  -4.2305127e+06
   2.0806936e-09  -2.2836182e-03   3.2853263e-01   2.7504539e-01  -4.2097513e+06
   2.0833611e-09  -2.2724162e-03   3.2839191e-01   2.7516733e-01  -4.1890921e+06
   2.0860287e-09  -2.2612691e-03   3.2825194e-01   2.7528873e-01  -4.1685344e+06
   2.0886962e-09  -2.2501768e-03   3.2811271e-01   2.7540959e-01  -4.1480777e+06
   2.0913638e-09  -2.2391389e-03   3.2797422e-01   2.7552989e-01  -4.1277216e+06
   2.0940313e-09  -2.2281551e-03   3.2783646e-01   2.7564966e-01  -4.1074655e+06
   2.0966989e-09  -2.2172253e-03   3.2769942e-01   2.7576888e-01  -4.0873089e+06
   2.0993665e-09  -2.2063490e-03   3.2756311e-01   2.7588757e-01  -4.0672515e+06
   2.1020340e-09  -2.1955262e-03   3.2742753e-01   2.7600572e-01  -4.0472926e+06
   2.1047016e-09  -2.1847565e-03   3.2729265e-01   2.7612334e-01  -4.0274318e+06
   2.1073691e-09  -2.1740396e-03   3.2715849e-01   2.7624042e-01  -4.0076686e+06
   2.1100367e-09  -2.1633753e-03   3.2702504e-01   2.7635698e-01  -3.9880025e+06
   2.1127042e-09  -2.1527633e-03   3.2689229e-01   2.7647301e-01  -3.9684331e+06
   2.1153718e-09  -2.1422035e-03   3.2676025e-01   2.7658851e-01  -3.9489598e+06
   2.1180393e-09  -2.1316954e-03   3.2662889e-01   2.7670349e-01  -3.9295822e+06
   2.1207069e-09  -2.1212389e-03   3.2649823e-01   2.7681795e-01  -3.9102998e+06
   2.1233745e-09  -2.1108337e-03   3.2636826e-01   2.7693189e-01  -3.8911122e+06
   2.1260420e-09  -2.1004795e-03   3.2623898e-01   2.7704532e-01  -3.8720189e+06
   2.1287096e-09  -2.0901762e-03   3.2611037e-01   2.7715823e-01  -3.8530193e+06
   2.1313771e-09  -2.0799234e-03   3.2598244e-01   2.7727063e-01  -3.8341132e+06
   2.1340447e-09  -2.0697210e-03   3.2585519e-01   2.7738252e-01  -3.8152999e+06
   2.1367122e-09  -2.0595686e-03   3.2572860e-01   2.7749390e-01  -3.7965790e+06
   2.1393798e-09  -2.0494660e-03   3.2560268e-01   2.7760477e-01  -3.7779501e+06
   2.1420473e-09  -2.0394130e-03   3.2547743e-01   2.7771515e-01  -3.7594128e+06
   2.1447149e-09  -2.0294093e-03   3.2535282e-01   2.7782502e-01  -3.7409665e+06
   2.1473825e-09  -2.0194547e-03   3.2522888e-01   2.7793439e-01  -3.7226108e+06
   2.1500500e-09  -2.0095489e-03   3.2510558e-01   2.7804326e-01  -3.7043453e+06
   2.1527176e-09  -1.9996918e-03   3.2498294e-01   2.7815164e-01  -3.6861695e+06
   2.1553851e-09  -1.9898830e-03   3.2486093e-01   2.7825952e-01  -3.6680830e+06
   2.1580527e-09  -1.9801223e-03   3.2473957e-01   2.7836691e-01  -3.6500854e+06
   2.1607202e-09  -1.9704095e-03   3.2461884e-01   2.7847382e-01  -3.6321762e+06
   2.1633878e-09  -1.9607444e-03   3.2449875e-01   2.7858023e-01  -3.6143549e+06
   2.1660554e-09  -1.9511267e-03   3.2437928e-01   2.7868617e-01  -3.5966212e+06
   2.1687229e-09  -1.9415562e-03   3.2426045e-01   2.7879161e-01  -3.5789746e+06
   2.1713905e-09  -1.9320327e-03   3.2414223e-01   2.7889658e-01  -3.5614146e+06
   2.1740580e-09  -1.9225559e-03   3.2402463e-01   2.7900107e-01  -3.5439410e+06
   2.1767256e-09  -1.9131255e-03   3.2390765e-01   2.7910508e-01  -3.5265531e+06
   2.1793931e-09  -1.9037415e-03   3.2379128e-01   2.7920862e-01  -3.5092506e+06
   2.1820607e-09  -1.8944035e-03   3.2367552e-01   2.7931168e-01  -3.4920331e+06
   2.1847282e-09  -1.8851113e-03   3.2356037e-01   2.7941427e-01  -3.4749002e+06
   2.1873958e-09  -1.8758647e-03   3.2344581e-01   2.7951640e-01  -3.4578514e+06
   2.1900634e-09  -1.8666634e-03   3.2333186e-01   2.7961805e-01  -3.4408864e+06
   2.1927309e-09  -1.8575073e-03   3.2321850e-01   2.7971924e-01  -3.4240047e+06
   2.1953985e-09  -1.8483962e-03   3.2310573e-01   2.7981997e-01  -3.4072058e+06
   2.1980660e-09  -1.8393297e-03   3.2299356e-01   2.7992024e-01  -3.3904895e+06
   2.2007336e-09  -1.8303077e-03   3.2288196e-01   2.8002005e-01  -3.3738553e+06
   2.2034011e-09  -1.8213300e-03   3.2277095e-01   2.8011940e-01  -3.3573027e+06
   2.2060687e-09  -1.8123963e-03   3.2266052e-01   2.8021829e-01  -3.3408315e+06
   2.2087362e-09  -1.8035065e-03   3.2255067e-01   2.8031673e-01  -3.3244411e+06
   2.2114038e-09  -1.7946602e-03   3.2244139e-01   2.8041473e-01  -3.3081312e+06
   2.2140714e-09  -1.7858574e-03   3.2233268e-01   2.8051227e-01  -3.2919014e+06
   2.2167389e-09  -1.7770977e-03   3.2222453e-01   2.8060936e-01  -3.2757513e+06
   2.2194065e-09  -1.7683811e-03   3.2211695e-01   2.8070601e-01  -3.2596805e+06
   2.2220740e-09  -1.7597071e-03   3.2200993e-01   2.8080221e-01  -3.2436886e+06
   2.2247416e-09  -1.7510758e-03   3.2190346e-01   2.8089797e-01  -3.2277752e+06
   2.2274091e-09  -1.7424868e-03   3.2179755e-01   2.8099329e-01  -3.2119400e+06
   2.2300767e-09  -1.7339399e-03   3.2169219e-01   2.8108818e-01  -3.1961825e+06
   2.2327442e-09  -1.7254350e-03   3.2158738e-01   2.8118262e-01  -3.1805024e+06
   2.2354118e-09  -1.7169717e-03   3.2148311e-01   2.8127664e-01  -3.1648992e+06
   2.2380794e-09  -1.7085500e-03   3.2137939e-01   2.8137022e-01  -3.1493727e+06
   2.2407469e-09  -1.7001697e-03   3.2127621e-01   2.8146336e-01  -3.1339224e+06
   2.2434145e-09  -1.6918304e-03   3.2117356e-01   2.8155609e-01  -3.1185480e+06
   2.2460820e-09  -1.6835320e-03   3.2107144e-01   2.8164838e-01  -3.1032490e+06
   2.2487496e-09  -1.6752744e-03   3.2096986e-01   2.8174025e-01  -3.0880252e+06
   2.2514171e-09  -1.6670572e-03   3.2086880e-01   2.8183169e-01  -3.0728761e+06
   2.2540847e-09  -1.6588804e-03   3.2076827e-01   2.8192271e-01  -3.0578014e+06
   2.2567523e-09  -1.6507437e-03   3.2066826e-01   2.8201332e-01  -3.0428006e+06
   2.2594198e-09  -1.6426469e-03   3.2056876e-01   2.8210350e-01  -3.0278736e+06
   2.2620874e-09  -1.6345898e-03   3.2046979e-01   2.8219327e-01  -3.0130198e+06
   2.2647549e-09  -1.6265723e-03   3.2037133e-01   2.8228263e-01  -2.9982389e+06
   2.2674225e-09  -1.6185940e-03   3.2027337e-01   2.8237157e-01  -2.9835306e+06
   2.2700900e-09  -1.6106550e-03   3.2017593e-01   2.8246010e-01  -2.9688945e+06
   2.2727576e-09  -1.6027548e-03   3.2007899e-01   2.8254822e-01  -2.9543302e+06
   2.2754251e-09  -1.5948934e-03   3.1998255e-01   2.8263594e-01  -2.9398374e+06
   2.2780927e-09  -1.5870706e-03   3.1988661e-01   2.8272325e-01  -2.9254158e+06
   2.2807603e-09  -1.5792862e-03   3.1979117e-01   2.8281015e-01  -2.9110650e+06
   2.2834278e-09  -1.5715399e-03   3.1969622e-01   2.8289666e-01  -2.8967846e+06
   2.2860954e-09  -1.5638317e-03   3.1960177e-01   2.8298276e-01  -2.8825743e+06
   2.2887629e-09  -1.5561612e-03   3.1950780e-01   2.8306847e-01  -2.8684337e+06
   2.2914305e-09  -1.5485284e-03   3.1941432e-01   2.8315377e-01  -2.8543626e+06
   2.2940980e-09  -1.5409331e-03   3.1932132e-01   2.8323869e-01  -2.8403606e+06
   2.2967656e-09  -1.5333750e-03   3.1922880e-01   2.8332321e-01  -2.8264272e+06
   2.2994331e-09  -1.5258539e-03   3.1913676e-01   2.8340734e-01  -2.8125623e+06
   2.3021007e-09  -1.5183698e-03   3.1904520e-01   2.8349107e-01  -2.7987654e+06
   2.3047683e-09  -1.5109224e-03   3.1895410e-01   2.8357442e-01  -2.7850362e+06
   2.3074358e-09  -1.5035115e-03   3.1886348e-01   2.8365739e-01  -2.7713744e+06
   2.3101034e-09  -1.4961369e-03   3.1877333e-01   2.8373997e-01  -2.7577797e+06
   2.3127709e-09  -1.4887986e-03   3.1868364e-01   2.8382216e-01  -2.7442517e+06
   2.3154385e-09  -1.4814962e-03   3.1859442e-01   2.8390398e-01  -2.7307901e+06
   2.3181060e-09  -1.4742297e-03   3.1850565e-01   2.8398541e-01  -2.7173946e+06
   2.3207736e-09  -1.4669988e-03   3.1841735e-01   2.8406647e-01  -2.7040648e+06
   2.3234411e-09  -1.4598033e-03   3.1832950e-01   2.8414714e-01  -2.6908004e+06
   2.3261087e-09  -1.4526432e-03   3.1824210e-01   2.8422745e-01  -2.6776011e+06
   2.3287763e-09  -1.4455182e-03   3.1815515e-01   2.8430738e-01  -2.6644667e+06
   2.3314438e-09  -1.4384281e-03   3.1806865e-01   2.8438694e-01  -2.6513966e+06
   2.3341114e-09  -1.4313728e-03   3.1798260e-01   2.8446613e-01  -2.6383907e+06
   2.3367789e-09  -1.4243522e-03   3.1789698e-01   2.8454495e-01  -2.6254487e+06
   2.3394465e-09  -1.4173659e-03   3.1781181e-01   2.8462341e-01  -2.6125702e+06
   2.3421140e-09  -1.4104140e-03   3.1772708e-01   2.8470149e-01  -2.5997548e+06
   2.3447816e-09  -1.4034961e-03   3.1764279e-01   2.8477922e-01  -2.5870024e+06
   2.3474491e-09  -1.3966122e-03   3.1755892e-01   2.8485658e-01  -2.5743125e+06
   2.3501167e-09  -1.3897620e-03   3.1747549e-01   2.8493359e-01  -2.5616849e+06
   2.3527843e-09  -1.3829455e-03   3.1739249e-01   2.8501023e-01  -2.5491193e+06
   2.3554518e-09  -1.3761623e-03   3.1730992e-01   2.8508652e-01  -2.5366154e+06
   2.3581194e-09  -1.3694125e-03   3.1722777e-01   2.8516245e-01  -2.5241728e+06
   2.3607869e-09  -1.3626957e-03   3.1714604e-01   2.8523803e-01  -2.5117913e+06
   2.3634545e-09  -1.3560119e-03   3.1706473e-01   2.8531325e-01  -2.4994705e+06
   2.3661220e-09  -1.3493609e-03   3.1698384e-01   2.8538813e-01  -2.4872102e+06
   2.3687896e-09  -1.3427425e-03   3.1690337e-01   2.8546265e-01  -2.4750100e+06
   2.3714572e-09  -1.3361566e-03   3.1682331e-01   2.8553683e-01  -2.4628698e+06
   2.3741247e-09  -1.3296030e-03   3.1674365e-01   2.8561066e-01  -2.4507891e+06
   2.3767923e-09  -1.3230815e-03   3.1666441e-01   2.8568415e-01  -2.4387676e+06
   2.3794598e-09  -1.3165921e-03   3.1658558e-01   2.8575729e-01  -2.4268052e+06
   2.3821274e-09  -1.3101344e-03   3.1650715e-01   2.8583009e-01  -2.4149015e+06
   2.3847949e-09  -1.3037084e-03   3.1642912e-01   2.8590255e-01  -2.4030562e+06
   2.3874625e-09  -1.2973140e-03   3.1635149e-01   2.8597468e-01  -2.3912690e+06
   2.3901300e-09  -1.2909509e-03   3.1627426e-01   2.8604646e-01  -2.3795396e+06
   2.3927976e-09  -1.2846190e-03   3.1619743e-01   2.8611791e-01  -2.3678678e+06
   2.3954652e-09  -1.2783182e-03   3.1612099e-01   2.8618903e-01  -2.3562533e+06
   2.3981327e-09  -1.2720483e-03   3.1604494e-01   2.8625981e-01  -2.3446957e+06
   2.4008003e-09  -1.2658091e-03   3.1596928e-01   2.8633026e-01  -2.3331949e+06
   2.4034678e-09  -1.2596006e-03   3.1589401e-01   2.8640038e-01  -2.3217505e+06
   2.4061354e-09  -1.2534225e-03   3.1581912e-01   2.8647017e-01  -2.3103623e+06
   2.4088029e-09  -1.2472747e-03   3.1574462e-01   2.8653964e-01  -2.2990299e+06
   2.4114705e-09  -1.2411570e-03   3.1567050e-01   2.8660878e-01  -2.2877531e+06
   2.4141380e-09  -1.2350694e-03   3.1559676e-01   2.8667760e-01  -2.2765317e+06
   2.4168056e-09  -1.2290116e-03   3.1552339e-01   2.8674609e-01  -2.2653653e+06
   2.4194732e-09  -1.2229836e-03   3.1545040e-01   2.8681427e-01  -2.2542538e+06
   2.4221407e-09  -1.2169851e-03   3.1537779e-01   2.8688212e-01  -2.2431967e+06
   2.4248083e-09  -1.2110160e-03   3.1530554e-01   2.8694965e-01  -2.2321939e+06
   2.4274758e-09  -1.2050762e-03   3.1523367e-01   2.8701687e-01  -2.2212451e+06
   2.4301434e-09  -1.1991656e-03   3.1516216e-01   2.8708378e-01  -2.2103499e+06
   2.4328109e-09  -1.1932839e-03   3.1509102e-01   2.8715037e-01  -2.1995083e+06
   2.4354785e-09  -1.1874311e-03   3.1502024e-01   2.8721664e-01  -2.1887198e+06
   2.4381460e-09  -1.1816070e-03   3.1494982e-01   2.8728261e-01  -2.1779843e+06
   2.4408136e-09  -1.1758114e-03   3.1487976e-01   2.8734826e-01  -2.1673015e+06
   2.4434812e-09  -1.1700443e-03   3.1481006e-01   2.8741361e-01  -2.1566710e+06
   2.4461487e-09  -1.1643055e-03   3.1474072e-01   2.8747865e-01  -2.1460927e+06
   2.4488163e-09  -1.1585948e-03   3.1467173e-01   2.8754339e-01  -2.1355663e+06
   2.4514838e-09  -1.1529121e-03   3.1460309e-01   2.8760782e-01  -2.1250916e+06
   2.4541514e-09  -1.1472573e-03   3.1453480e-01   2.8767195e-01  -2.1146682e+06
   2.4568189e-09  -1.1416303e-03   3.1446686e-01   2.8773577e-01  -2.1042960e+06
   2.4594865e-09  -1.1360308e-03   3.1439927e-01   2.8779930e-01  -2.0939747e+06
   2.4621541e-09  -1.1304588e-03   3.1433202e-01   2.8786253e-01  -2.0837040e+06
   2.4648216e-09  -1.1249141e-03   3.1426511e-01   2.8792546e-01  -2.0734837e+06
   2.4674892e-09  -1.1193967e-03   3.1419855e-01   2.8798809e-01  -2.0633135e+06
   2.4701567e-09  -1.1139063e-03   3.1413233e-01   2.8805043e-01  -2.0531933e+06
   2.4728243e-09  -1.1084428e-03   3.1406644e-01   2.8811247e-01  -2.0431227e+06
   2.4754918e-09  -1.1030061e-03   3.1400089e-01   2.8817423e-01  -2.0331014e+06
   2.4781594e-09  -1.0975961e-03   3.1393567e-01   2.8823569e-01  -2.0231294e+06
   2.4808269e-09  -1.0922126e-03   3.1387078e-01   2.8829686e-01  -2.0132063e+06
   2.4834945e-09  -1.0868555e-03   3.1380623e-01   2.8835775e-01  -2.0033318e+06
   2.4861621e-09  -1.0815247e-03   3.1374200e-01   2.8841834e-01  -1.9935058e+06
   2.4888296e-09  -1.0762201e-03   3.1367810e-01   2.8847866e-01  -1.9837280e+06
   2.4914972e-09  -1.0709415e-03   3.1361453e-01   2.8853868e-01  -1.9739982e+06
   2.4941647e-09  -1.0656887e-03   3.1355127e-01   2.8859843e-01  -1.9643161e+06
   2.4968323e-09  -1.0604617e-03   3.1348835e-01   2.8865789e-01  -1.9546815e+06
   2.4994998e-09  -1.0552604e-03   3.1342574e-01   2.8871707e-01  -1.9450942e+06
   2.5021674e-09  -1.0500846e-03   3.1336345e-01   2.8877598e-01  -1.9355539e+06
   2.5048349e-09  -1.0449341e-03   3.1330147e-01   2.8883460e-01  -1.9260604e+06
   2.5075025e-09  -1.0398090e-03   3.1323981e-01   2.8889295e-01  -1.9166135e+06
   2.5101701e-09  -1.0347089e-03   3.1317847e-01   2.8895102e-01  -1.9072129e+06
   2.5128376e-09  -1.0296339e-03   3.1311743e-01   2.8900882e-01  -1.8978584e+06
   2.5155052e-09  -1.0245837e-03   3.1305671e-01   2.8906635e-01  -1.8885499e+06
   2.5181727e-09  -1.0195584e-03   3.1299629e-01   2.8912360e-01  -1.8792870e+06
   2.5208403e-09  -1.0145577e-03   3.1293619e-01   2.8918059e-01  -1.8700695e+06
   2.5235078e-09  -1.0095815e-03   3.1287638e-01   2.8923730e-01  -1.8608972e+06
   2.5261754e-09  -1.0046297e-03   3.1281688e-01   2.8929375e-01  -1.8517700e+06
   2.5288429e-09  -9.9970219e-04   3.1275769e-01   2.8934993e-01  -1.8426875e+06
   2.5315105e-09  -9.9479887e-04   3.1269879e-01   2.8940584e-01  -1.8336496e+06
   2.5341781e-09  -9.8991959e-04   3.1264019e-01   2.8946149e-01  -1.8246560e+06
   2.5368456e-09  -9.8506424e-04   3.1258189e-01   2.8951688e-01  -1.8157065e+06
   2.5395132e-09  -9.8023271e-04   3.1252389e-01   2.8957200e-01  -1.8068009e+06
   2.5421807e-09  -9.7542487e-04   3.1246618e-01   2.8962686e-01  -1.7979390e+06
   2.5448483e-09  -9.7064062e-04   3.1240876e-01   2.8968147e-01  -1.7891206e+06
   2.5475158e-09  -9.6587983e-04   3.1235163e-01   2.8973581e-01  -1.7803454e+06
   2.5501834e-09  -9.6114239e-04   3.1229480e-01   2.8978990e-01  -1.7716133e+06
   2.5528510e-09  -9.5642819e-04   3.1223825e-01   2.8984373e-01  -1.7629240e+06
   2.5555185e-09  -9.5173711e-04   3.1218199e-01   2.8989731e-01  -1.7542774e+06
   2.5581861e-09  -9.4706904e-04   3.1212601e-01   2.8995063e-01  -1.7456732e+06
   2.5608536e-09  -9.4242387e-04   3.1207032e-01   2.9000371e-01  -1.7371111e+06
   2.5635212e-09  -9.3780147e-04   3.1201490e-01   2.9005653e-01  -1.7285911e+06
   2.5661887e-09  -9.3320175e-04   3.1195977e-01   2.9010909e-01  -1.7201128e+06
   2.5688563e-09  -9.2862459e-04   3.1190492e-01   2.9016141e-01  -1.7116762e+06
   2.5715238e-09  -9.2406988e-04   3.1185035e-01   2.9021349e-01  -1.7032809e+06
   2.5741914e-09  -9.1953751e-04   3.1179605e-01   2.9026531e-01  -1.6949268e+06
   2.5768590e-09  -9.1502737e-04   3.1174203e-01   2.9031689e-01  -1.6866137e+06
   2.5795265e-09  -9.1053935e-04   3.1168828e-01   2.9036822e-01  -1.6783414e+06
   2.5821941e-09  -9.0607334e-04   3.1163480e-01   2.9041932e-01  -1.6701096e+06
   2.5848616e-09  -9.0162924e-04   3.1158160e-01   2.9047016e-01  -1.6619183e+06
   2.5875292e-09  -8.9720693e-04   3.1152866e-01   2.9052077e-01  -1.6537671e+06
   2.5901967e-09  -8.9280631e-04   3.1147599e-01   2.9057114e-01  -1.6456558e+06
   2.5928643e-09  -8.8842728e-04   3.1142359e-01   2.9062127e-01  -1.6375844e+06
   2.5955318e-09  -8.8406973e-04   3.1137145e-01   2.9067116e-01  -1.6295526e+06
   2.5981994e-09  -8.7973354e-04   3.1131958e-01   2.9072081e-01  -1.6215601e+06
   2.6008670e-09  -8.7541863e-04   3.1126797e-01   2.9077023e-01  -1.6136069e+06
   2.6035345e-09  -8.7112488e-04   3.1121661e-01   2.9081941e-01  -1.6056927e+06
   2.6062021e-09  -8.6685219e-04   3.1116552e-01   2.9086836e-01  -1.5978173e+06
   2.6088696e-09  -8.6260045e-04   3.1111469e-01   2.9091708e-01  -1.5899805e+06
   2.6115372e-09  -8.5836957e-04   3.1106411e-01   2.9096556e-01  -1.5821822e+06
   2.6142047e-09  -8.5415944e-04   3.1101379e-01   2.9101381e-01  -1.5744221e+06
   2.6168723e-09  -8.4996995e-04   3.1096373e-01   2.9106184e-01  -1.5667001e+06
   2.6195398e-09  -8.4580102e-04   3.1091391e-01   2.9110964e-01  -1.5590159e+06
   2.6222074e-09  -8.4165253e-04   3.1086435e-01   2.9115721e-01  -1.5513695e+06
   2.6248750e-09  -8.3752439e-04   3.1081504e-01   2.9120455e-01  -1.5437605e+06
   2.6275425e-09  -8.3341650e-04   3.1076598e-01   2.9125167e-01  -1.5361889e+06
   2.6302101e-09  -8.2932875e-04   3.1071716e-01   2.9129856e-01  -1.5286544e+06
   2.6328776e-09  -8.2526106e-04   3.1066859e-01   2.9134523e-01  -1.5211569e+06
   2.6355452e-09  -8.2121331e-04   3.1062027e-01   2.9139168e-01  -1.5136962e+06
   2.6382127e-09  -8.1718542e-04   3.1057219e-01   2.9143791e-01  -1.5062720e+06
   2.6408803e-09  -8.1317728e-04   3.1052435e-01   2.9148392e-01  -1.4988843e+06
   2.6435478e-09  -8.0918881e-04   3.1047675e-01   2.9152970e-01  -1.4915327e+06
   2.6462154e-09  -8.0521989e-04   3.1042940e-01   2.9157527e-01  -1.4842173e+06
   2.6488830e-09  -8.0127044e-04   3.1038228e-01   2.9162063e-01  -1.4769377e+06
   2.6515505e-09  -7.9734036e-04   3.1033540e-01   2.9166577e-01  -1.4696939e+06
   2.6542181e-09  -7.9342956e-04   3.1028876e-01   2.9171069e-01  -1.4624855e+06
   2.6568856e-09  -7.8953793e-04   3.1024235e-01   2.9175540e-01  -1.4553126e+06
   2.6595532e-09  -7.8566540e-04   3.1019617e-01   2.9179989e-01  -1.4481748e+06
   2.6622207e-09  -7.8181185e-04   3.1015023e-01   2.9184418e-01  -1.4410720e+06
   2.6648883e-09  -7.7797721e-04   3.1010452e-01   2.9188825e-01  -1.4340040e+06
   2.6675559e-09  -7.7416138e-04   3.1005904e-01   2.9193211e-01  -1.4269708e+06
   2.6702234e-09  -7.7036426e-04   3.1001379e-01   2.9197576e-01  -1.4199720e+06
   2.6728910e-09  -7.6658576e-04   3.0996877e-01   2.9201921e-01  -1.4130075e+06
   2.6755585e-09  -7.6282580e-04   3.0992397e-01   2.9206244e-01  -1.4060772e+06
   2.6782261e-09  -7.5908428e-04   3.0987940e-01   2.9210548e-01  -1.3991809e+06
   2.6808936e-09  -7.5536111e-04   3.0983506e-01   2.9214830e-01  -1.3923185e+06
   2.6835612e-09  -7.5165620e-04   3.0979093e-01   2.9219092e-01  -1.3854896e+06
   2.6862287e-09  -7.4796946e-04   3.0974703e-01   2.9223334e-01  -1.3786943e+06
   2.6888963e-09  -7.4430080e-04   3.0970335e-01   2.9227556e-01  -1.3719323e+06
   2.6915639e-09  -7.4065013e-04   3.0965989e-01   2.9231757e-01  -1.3652035e+06
   2.6942314e-09  -7.3701738e-04   3.0961665e-01   2.9235939e-01  -1.3585077e+06
   2.6968990e-09  -7.3340243e-04   3.0957363e-01   2.9240100e-01  -1.3518447e+06
   2.6995665e-09  -7.2980522e-04   3.0953082e-01   2.9244242e-01  -1.3452144e+06
   2.7022341e-09  -7.2622565e-04   3.0948823e-01   2.9248363e-01  -1.3386166e+06
   2.7049016e-09  -7.2266364e-04   3.0944585e-01   2.9252466e-01  -1.3320512e+06
   2.7075692e-09  -7.1911910e-04   3.0940369e-01   2.9256548e-01  -1.3255180e+06
   2.7102367e-09  -7.1559194e-04   3.0936173e-01   2.9260611e-01  -1.3190168e+06
   2.7129043e-09  -7.1208209e-04   3.0931999e-01   2.9264655e-01  -1.3125475e+06
   2.7155719e-09  -7.0858944e-04   3.0927846e-01   2.9268679e-01  -1.3061099e+06
   2.7182394e-09  -7.0511393e-04   3.0923714e-01   2.9272684e-01  -1.2997039e+06
   2.7209070e-09  -7.0165546e-04   3.0919602e-01   2.9276670e-01  -1.2933294e+06
   2.7235745e-09  -6.9821396e-04   3.0915511e-01   2.9280637e-01  -1.2869861e+06
   2.7262421e-09  -6.9478934e-04   3.0911441e-01   2.9284584e-01  -1.2806739e+06
   2.7289096e-09  -6.9138151e-04   3.0907391e-01   2.9288513e-01  -1.2743926e+06
   2.7315772e-09  -6.8799039e-04   3.0903361e-01   2.9292424e-01  -1.2681422e+06
   2.7342447e-09  -6.8461591e-04   3.0899352e-01   2.9296315e-01  -1.2619225e+06
   2.7369123e-09  -6.8125798e-04   3.0895363e-01   2.9300188e-01  -1.2557332e+06
   2.7395799e-09  -6.7791652e-04   3.0891394e-01   2.9304042e-01  -1.2495743e+06
   2.7422474e-09  -6.7459144e-04   3.0887445e-01   2.9307878e-01  -1.2434456e+06
   2.7449150e-09  -6.7128268e-04   3.0883515e-01   2.9311696e-01  -1.2373469e+06
   2.7475825e-09  -6.6799014e-04   3.0879606e-01   2.9315495e-01  -1.2312782e+06
   2.7502501e-09  -6.6471375e-04   3.0875716e-01   2.9319276e-01  -1.2252392e+06
   2.7529176e-09  -6.6145343e-04   3.0871845e-01   2.9323039e-01  -1.2192299e+06
   2.7555852e-09  -6.5820911e-04   3.0867994e-01   2.9326784e-01  -1.2132500e+06
   2.7582528e-09  -6.5498069e-04   3.0864162e-01   2.9330511e-01  -1.2072995e+06
   2.7609203e-09  -6.5176811e-04   3.0860350e-01   2.9334220e-01  -1.2013781e+06
   2.7635879e-09  -6.4857128e-04   3.0856556e-01   2.9337912e-01  -1.1954858e+06
   2.7662554e-09  -6.4539014e-04   3.0852782e-01   2.9341585e-01  -1.1896224e+06
   2.7689230e-09  -6.4222459e-04   3.0849026e-01   2.9345242e-01  -1.1837877e+06
   2.7715905e-09  -6.3907458e-04   3.0845290e-01   2.9348880e-01  -1.1779817e+06
   2.7742581e-09  -6.3594001e-04   3.0841572e-01   2.9352501e-01  -1.1722041e+06
   2.7769256e-09  -6.3282081e-04   3.0837873e-01   2.9356105e-01  -1.1664549e+06
   2.7795932e-09  -6.2971692e-04   3.0834192e-01   2.9359692e-01  -1.1607339e+06
   2.7822608e-09  -6.2662824e-04   3.0830530e-01   2.9363261e-01  -1.1550409e+06
   2.7849283e-09  -6.2355472e-04   3.0826886e-01   2.9366813e-01  -1.1493758e+06
   2.7875959e-09  -6.2049627e-04   3.0823260e-01   2.9370349e-01  -1.1437386e+06
   2.7902634e-09  -6.1745282e-04   3.0819653e-01   2.9373867e-01  -1.1381290e+06
   2.7929310e-09  -6.1442430e-04   3.0816063e-01   2.9377368e-01  -1.1325469e+06
   2.7955985e-09  -6.1141063e-04   3.0812492e-01   2.9380853e-01  -1.1269921e+06
   2.7982661e-09  -6.0841175e-04   3.0808939e-01   2.9384321e-01  -1.1214646e+06
   2.8009336e-09  -6.0542757e-04   3.0805403e-01   2.9387772e-01  -1.1159643e+06
   2.8036012e-09  -6.0245803e-04   3.0801885e-01   2.9391207e-01  -1.1104909e+06
   2.8062688e-09  -5.9950305e-04   3.0798384e-01   2.9394625e-01  -1.1050443e+06
   2.8089363e-09  -5.9656256e-04   3.0794902e-01   2.9398027e-01  -1.0996245e+06
   2.8116039e-09  -5.9363650e-04   3.0791436e-01   2.9401412e-01  -1.0942312e+06
   2.8142714e-09  -5.9072479e-04   3.0787988e-01   2.9404781e-01  -1.0888644e+06
   2.8169390e-09  -5.8782736e-04   3.0784557e-01   2.9408135e-01  -1.0835239e+06
   2.8196065e-09  -5.8494414e-04   3.0781144e-01   2.9411471e-01  -1.0782096e+06
   2.8222741e-09  -5.8207506e-04   3.0777747e-01   2.9414792e-01  -1.0729214e+06
   2.8249416e-09  -5.7922005e-04   3.0774368e-01   2.9418097e-01  -1.0676591e+06
   2.8276092e-09  -5.7637905e-04   3.0771005e-01   2.9421387e-01  -1.0624226e+06
   2.8302768e-09  -5.7355198e-04   3.0767659e-01   2.9424660e-01  -1.0572118e+06
   2.8329443e-09  -5.7073878e-04   3.0764330e-01   2.9427918e-01  -1.0520266e+06
   2.8356119e-09  -5.6793937e-04   3.0761018e-01   2.9431159e-01  -1.0468668e+06
   2.8382794e-09  -5.6515369e-04   3.0757722e-01   2.9434386e-01  -1.0417322e+06
   2.8409470e-09  -5.6238168e-04   3.0754443e-01   2.9437597e-01  -1.0366229e+06
   2.8436145e-09  -5.5962326e-04   3.0751180e-01   2.9440792e-01  -1.0315386e+06
   2.8462821e-09  -5.5687837e-04   3.0747933e-01   2.9443972e-01  -1.0264793e+06
   2.8489496e-09  -5.5414695e-04   3.0744703e-01   2.9447137e-01  -1.0214448e+06
   2.8516172e-09  -5.5142892e-04   3.0741488e-01   2.9450287e-01  -1.0164350e+06
   2.8542848e-09  -5.4872422e-04   3.0738290e-01   2.9453421e-01  -1.0114497e+06
   2.8569523e-09  -5.4603278e-04   3.0735108e-01   2.9456541e-01  -1.0064889e+06
   2.8596199e-09  -5.4335455e-04   3.0731942e-01   2.9459645e-01  -1.0015524e+06
   2.8622874e-09  -5.4068945e-04   3.0728791e-01   2.9462734e-01  -9.9664016e+05
   2.8649550e-09  -5.3803743e-04   3.0725657e-01   2.9465809e-01  -9.9175199e+05
   2.8676225e-09  -5.3539841e-04   3.0722538e-01   2.9468869e-01  -9.8688779e+05
   2.8702901e-09  -5.3277234e-04   3.0719434e-01   2.9471914e-01  -9.8204745e+05
   2.8729577e-09  -5.3015914e-04   3.0716346e-01   2.9474944e-01  -9.7723084e+05
   2.8756252e-09  -5.2755876e-04   3.0713274e-01   2.9477960e-01  -9.7243786e+05
   2.8782928e-09  -5.2497114e-04   3.0710216e-01   2.9480962e-01  -9.6766839e+05
   2.8809603e-09  -5.2239621e-04   3.0707174e-01   2.9483949e-01  -9.6292230e+05
   2.8836279e-09  -5.1983390e-04   3.0704148e-01   2.9486921e-01  -9.5819950e+05
   2.8862954e-09  -5.1728417e-04   3.0701136e-01   2.9489879e-01  -9.5349985e+05
   2.8889630e-09  -5.1474694e-04   3.0698140e-01   2.9492823e-01  -9.4882326e+05
   2.8916305e-09  -5.1222215e-04   3.0695158e-01   2.9495753e-01  -9.4416960e+05
   2.8942981e-09  -5.0970975e-04   3.0692191e-01   2.9498669e-01  -9.3953877e+05
   2.8969657e-09  -5.0720967e-04   3.0689239e-01   2.9501571e-01  -9.3493064e+05
   2.8996332e-09  -5.0472185e-04   3.0686302e-01   2.9504458e-01  -9.3034512e+05
   2.9023008e-09  -5.0224623e-04   3.0683380e-01   2.9507332e-01  -9.2578209e+05
   2.9049683e-09  -4.9978276e-04   3.0680472e-01   2.9510192e-01  -9.2124144e+05
   2.9076359e-09  -4.9733136e-04   3.0677578e-01   2.9513038e-01  -9.1672305e+05
   2.9103034e-09  -4.9489199e-04   3.0674699e-01   2.9515871e-01  -9.1222683e+05
   2.9129710e-09  -4.9246459e-04   3.0671835e-01   2.9518690e-01  -9.0775265e+05
   2.9156385e-09  -4.9004909e-04   3.0668984e-01   2.9521495e-01  -9.0330042e+05
   2.9183061e-09  -4.8764544e-04   3.0666148e-01   2.9524287e-01  -8.9887003e+05
   2.9209737e-09  -4.8525357e-04   3.0663326e-01   2.9527065e-01  -8.9446137e+05
   2.9236412e-09  -4.8287344e-04   3.0660519e-01   2.9529830e-01  -8.9007432e+05
   2.9263088e-09  -4.8050499e-04   3.0657725e-01   2.9532581e-01  -8.8570879e+05
   2.9289763e-09  -4.7814814e-04   3.0654945e-01   2.9535320e-01  -8.8136468e+05
   2.9316439e-09  -4.7580286e-04   3.0652179e-01   2.9538045e-01  -8.7704187e+05
   2.9343114e-09  -4.7346908e-04   3.0649426e-01   2.9540757e-01  -8.7274026e+05
   2.9369790e-09  -4.7114675e-04   3.0646688e-01   2.9543456e-01  -8.6845974e+05
   2.9396465e-09  -4.6883581e-04   3.0643963e-01   2.9546141e-01  -8.6420022e+05
   2.9423141e-09  -4.6653620e-04   3.0641252e-01   2.9548814e-01  -8.5996159e+05
   2.9449817e-09  -4.6424787e-04   3.0638554e-01   2.9551474e-01  -8.5574375e+05
   2.9476492e-09  -4.6197076e-04   3.0635869e-01   2.9554122e-01  -8.5154660e+05
   2.9503168e-09  -4.5970483e-04   3.0633198e-01   2.9556756e-01  -8.4737002e+05
   2.9529843e-09  -4.5745000e-04   3.0630541e-01   2.9559378e-01  -8.4321394e+05
   2.9556519e-09  -4.5520624e-04   3.0627896e-01   2.9561987e-01  -8.3907823e+05
   2.9583194e-09  -4.5297348e-04   3.0625265e-01   2.9564583e-01  -8.3496281e+05
   2.9609870e-09  -4.5075167e-04   3.0622647e-01   2.9567167e-01  -8.3086758e+05
   2.9636546e-09  -4.4854076e-04   3.0620042e-01   2.9569739e-01  -8.2679242e+05
   2.9663221e-09  -4.4634069e-04   3.0617450e-01   2.9572298e-01  -8.2273726e+05
   2.9689897e-09  -4.4415142e-04   3.0614871e-01   2.9574845e-01  -8.1870198e+05
   2.9716572e-09  -4.4197288e-04   3.0612304e-01   2.9577379e-01  -8.1468649e+05
   2.9743248e-09  -4.3980502e-04   3.0609751e-01   2.9579901e-01  -8.1069070e+05
   2.9769923e-09  -4.3764780e-04   3.0607210e-01   2.9582412e-01  -8.0671450e+05
   2.9796599e-09  -4.3550116e-04   3.0604682e-01   2.9584909e-01  -8.0275781e+05
   2.9823274e-09  -4.3336505e-04   3.0602166e-01   2.9587395e-01  -7.9882052e+05
   2.9849950e-09  -4.3123941e-04   3.0599663e-01   2.9589869e-01  -7.9490254e+05
   2.9876626e-09  -4.2912420e-04   3.0597172e-01   2.9592331e-01  -7.9100378e+05
   2.9903301e-09  -4.2701937e-04   3.0594694e-01   2.9594781e-01  -7.8712413e+05
   2.9929977e-09  -4.2492486e-04   3.0592228e-01   2.9597219e-01  -7.8326352e+05
   2.9956652e-09  -4.2284062e-04   3.0589775e-01   2.9599646e-01  -7.7942183e+05
   2.9983328e-09  -4.2076660e-04   3.0587333e-01   2.9602061e-01  -7.7559899e+05
   3.0010003e-09  -4.1870276e-04   3.0584904e-01   2.9604464e-01  -7.7179490e+05
   3.0036679e-09  -4.1664904e-04   3.0582487e-01   2.9606855e-01  -7.6800947e+05
   3.0063354e-09  -4.1460539e-04   3.0580082e-01   2.9609235e-01  -7.6424260e+05
   3.0090030e-09  -4.1257177e-04   3.0577689e-01   2.9611603e-01  -7.6049420e+05
   3.0116706e-09  -4.1054811e-04   3.0575307e-01   2.9613960e-01  -7.5676419e+05
   3.0143381e-09  -4.0853439e-04   3.0572938e-01   2.9616306e-01  -7.5305247e+05
   3.0170057e-09  -4.0653054e-04   3.0570580e-01   2.9618640e-01  -7.4935896e+05
   3.0196732e-09  -4.0453652e-04   3.0568234e-01   2.9620963e-01  -7.4568356e+05
   3.0223408e-09  -4.0255228e-04   3.0565900e-01   2.9623275e-01  -7.4202619e+05
   3.0250083e-09  -4.0057777e-04   3.0563578e-01   2.9625575e-01  -7.3838675e+05
   3.0276759e-09  -3.9861295e-04   3.0561267e-01   2.9627865e-01  -7.3476516e+05
   3.0303434e-09  -3.9665776e-04   3.0558967e-01   2.9630143e-01  -7.3116134e+05
   3.0330110e-09  -3.9471217e-04   3.0556679e-01   2.9632410e-01  -7.2757519e+05
   3.0356786e-09  -3.9277611e-04   3.0554402e-01   2.9634667e-01  -7.2400663e+05
   3.0383461e-09  -3.9084955e-04   3.0552137e-01   2.9636912e-01  -7.2045556e+05
   3.0410137e-09  -3.8893244e-04   3.0549883e-01   2.9639147e-01  -7.1692192e+05
   3.0436812e-09  -3.8702474e-04   3.0547640e-01   2.9641371e-01  -7.1340561e+05
   3.0463488e-09  -3.8512639e-04   3.0545408e-01   2.9643584e-01  -7.0990654e+05
   3.0490163e-09  -3.8323735e-04   3.0543187e-01   2.9645786e-01  -7.0642463e+05
   3.0516839e-09  -3.8135758e-04   3.0540977e-01   2.9647978e-01  -7.0295980e+05
   3.0543515e-09  -3.7948702e-04   3.0538779e-01   2.9650159e-01  -6.9951196e+05
   3.0570190e-09  -3.7762564e-04   3.0536591e-01   2.9652329e-01  -6.9608103e+05
   3.0596866e-09  -3.7577339e-04   3.0534414e-01   2.9654489e-01  -6.9266693e+05
   3.0623541e-09  -3.7393023e-04   3.0532248e-01   2.9656639e-01  -6.8926957e+05
   3.0650217e-09  -3.7209610e-04   3.0530093e-01   2.9658778e-01  -6.8588888e+05
   3.0676892e-09  -3.7027098e-04   3.0527948e-01   2.9660907e-01  -6.8252476e+05
   3.0703568e-09  -3.6845480e-04   3.0525814e-01   2.9663025e-01  -6.7917715e+05
   3.0730243e-09  -3.6664753e-04   3.0523691e-01   2.9665134e-01  -6.7584595e+05
   3.0756919e-09  -3.6484912e-04   3.0521578e-01   2.9667232e-01  -6.7253109e+05
   3.0783595e-09  -3.6305954e-04   3.0519476e-01   2.9669320e-01  -6.6923249e+05
   3.0810270e-09  -3.6127873e-04   3.0517384e-01   2.9671397e-01  -6.6595006e+05
   3.0836946e-09  -3.5950666e-04   3.0515302e-01   2.9673465e-01  -6.6268374e+05
   3.0863621e-09  -3.5774328e-04   3.0513231e-01   2.9675523e-01  -6.5943343e+05
   3.0890297e-09  -3.5598855e-04   3.0511170e-01   2.9677571e-01  -6.5619906e+05
   3.0916972e-09  -3.5424242e-04   3.0509120e-01   2.9679609e-01  -6.5298056e+05
   3.0943648e-09  -3.5250486e-04   3.0507079e-01   2.9681637e-01  -6.4977784e+05
   3.0970323e-09  -3.5077582e-04   3.0505049e-01   2.9683655e-01  -6.4659083e+05
   3.0996999e-09  -3.4905527e-04   3.0503029e-01   2.9685663e-01  -6.4341945e+05
   3.1023675e-09  -3.4734315e-04   3.0501019e-01   2.9687662e-01  -6.4026363e+05
   3.1050350e-09  -3.4563942e-04   3.0499018e-01   2.9689651e-01  -6.3712328e+05
   3.1077026e-09  -3.4394406e-04   3.0497028e-01   2.9691630e-01  -6.3399833e+05
   3.1103701e-09  -3.4225701e-04   3.0495048e-01   2.9693600e-01  -6.3088871e+05
   3.1130377e-09  -3.4057823e-04   3.0493077e-01   2.9695560e-01  -6.2779434e+05
   3.1157052e-09  -3.3890769e-04   3.0491116e-01   2.9697511e-01  -6.2471515e+05
   3.1183728e-09  -3.3724534e-04   3.0489165e-01   2.9699452e-01  -6.2165106e+05
   3.1210403e-09  -3.3559115e-04   3.0487224e-01   2.9701384e-01  -6.1860199e+05
   3.1237079e-09  -3.3394507e-04   3.0485292e-01   2.9703307e-01  -6.1556788e+05
   3.1263755e-09  -3.3230706e-04   3.0483370e-01   2.9705220e-01  -6.1254865e+05
   3.1290430e-09  -3.3067709e-04   3.0481458e-01   2.9707124e-01  -6.0954423e+05
   3.1317106e-09  -3.2905511e-04   3.0479554e-01   2.9709018e-01  -6.0655454e+05
   3.1343781e-09  -3.2744108e-04   3.0477661e-01   2.9710904e-01  -6.0357952e+05
   3.1370457e-09  -3.2583498e-04   3.0475776e-01   2.9712780e-01  -6.0061909e+05
   3.1397132e-09  -3.2423675e-04   3.0473902e-01   2.9714647e-01  -5.9767317e+05
   3.1423808e-09  -3.2264636e-04   3.0472036e-01   2.9716506e-01  -5.9474171e+05
   3.1450483e-09  -3.2106377e-04   3.0470179e-01   2.9718355e-01  -5.9182462e+05
   3.1477159e-09  -3.1948894e-04   3.0468332e-01   2.9720195e-01  -5.8892184e+05
   3.1503835e-09  -3.1792184e-04   3.0466494e-01   2.9722027e-01  -5.8603329e+05
   3.1530510e-09  -3.1636242e-04   3.0464665e-01   2.9723849e-01  -5.8315892e+05
   3.1557186e-09  -3.1481065e-04   3.0462846e-01   2.9725663e-01  -5.8029863e+05
   3.1583861e-09  -3.1326649e-04   3.0461035e-01   2.9727467e-01  -5.7745238e+05
   3.1610537e-09  -3.1172991e-04   3.0459233e-01   2.9729263e-01  -5.7462009e+05
   3.1637212e-09  -3.1020086e-04   3.0457440e-01   2.9731051e-01  -5.7180169e+05
   3.1663888e-09  -3.0867932e-04   3.0455656e-01   2.9732830e-01  -5.6899711e+05
   3.1690564e-09  -3.0716523e-04   3.0453881e-01   2.9734600e-01  -5.6620628e+05
   3.1717239e-09  -3.0565857e-04   3.0452115e-01   2.9736361e-01  -5.6342915e+05
   3.1743915e-09  -3.0415931e-04   3.0450357e-01   2.9738114e-01  -5.6066563e+05
   3.1770590e-09  -3.0266739e-04   3.0448608e-01   2.9739858e-01  -5.5791567e+05
   3.1797266e-09  -3.0118279e-04   3.0446868e-01   2.9741594e-01  -5.5517919e+05
   3.1823941e-09  -2.9970548e-04   3.0445136e-01   2.9743322e-01  -5.5245614e+05
   3.1850617e-09  -2.9823541e-04   3.0443413e-01   2.9745041e-01  -5.4974644e+05
   3.1877292e-09  -2.9677255e-04   3.0441699e-01   2.9746752e-01  -5.4705003e+05
   3.1903968e-09  -2.9531686e-04   3.0439993e-01   2.9748454e-01  -5.4436684e+05
   3.1930644e-09  -2.9386832e-04   3.0438295e-01   2.9750149e-01  -5.4169682e+05
   3.1957319e-09  -2.9242688e-04   3.0436606e-01   2.9751835e-01  -5.3903988e+05
   3.1983995e-09  -2.9099251e-04   3.0434925e-01   2.9753513e-01  -5.3639599e+05
   3.2010670e-09  -2.8956518e-04   3.0433253e-01   2.9755182e-01  -5.3376505e+05
   3.2037346e-09  -2.8814484e-04   3.0431589e-01   2.9756844e-01  -5.3114702e+05
   3.2064021e-09  -2.8673148e-04   3.0429933e-01   2.9758497e-01  -5.2854183e+05
   3.2090697e-09  -2.8532504e-04   3.0428285e-01   2.9760143e-01  -5.2594942e+05
   3.2117372e-09  -2.8392551e-04   3.0426646e-01   2.9761780e-01  -5.2336972e+05
   3.2144048e-09  -2.8253283e-04   3.0425014e-01   2.9763410e-01  -5.2080268e+05
   3.2170724e-09  -2.8114699e-04   3.0423391e-01   2.9765032e-01  -5.1824822e+05
   3.2197399e-09  -2.7976795e-04   3.0421776e-01   2.9766645e-01  -5.1570630e+05
   3.2224075e-09  -2.7839567e-04   3.0420169e-01   2.9768251e-01  -5.1317684e+05
   3.2250750e-09  -2.7703012e-04   3.0418569e-01   2.9769849e-01  -5.1065978e+05
   3.2277426e-09  -2.7567127e-04   3.0416978e-01   2.9771440e-01  -5.0815507e+05
   3.2304101e-09  -2.7431908e-04   3.0415394e-01   2.9773023e-01  -5.0566265e+05
   3.2330777e-09  -2.7297353e-04   3.0413819e-01   2.9774598e-01  -5.0318245e+05
   3.2357452e-09  -2.7163457e-04   3.0412251e-01   2.9776165e-01  -5.0071441e+05
   3.2384128e-09  -2.7030219e-04   3.0410691e-01   2.9777725e-01  -4.9825848e+05
   3.2410804e-09  -2.6897634e-04   3.0409138e-01   2.9779277e-01  -4.9581459e+05
   3.2437479e-09  -2.6765699e-04   3.0407594e-01   2.9780821e-01  -4.9338269e+05
   3.2464155e-09  -2.6634411e-04   3.0406057e-01   2.9782358e-01  -4.9096272e+05
   3.2490830e-09  -2.6503767e-04   3.0404527e-01   2.9783888e-01  -4.8855461e+05
   3.2517506e-09  -2.6373764e-04   3.0403005e-01   2.9785410e-01  -4.8615832e+05
   3.2544181e-09  -2.6244399e-04   3.0401491e-01   2.9786925e-01  -4.8377378e+05
   3.2570857e-09  -2.6115668e-04   3.0399984e-01   2.9788433e-01  -4.8140093e+05
   3.2597533e-09  -2.5987568e-04   3.0398485e-01   2.9789933e-01  -4.7903972e+05
   3.2624208e-09  -2.5860097e-04   3.0396993e-01   2.9791425e-01  -4.7669010e+05
   3.2650884e-09  -2.5733251e-04   3.0395508e-01   2.9792911e-01  -4.7435199e+05
   3.2677559e-09  -2.5607027e-04   3.0394031e-01   2.9794389e-01  -4.7202535e+05
   3.2704235e-09  -2.5481423e-04   3.0392561e-01   2.9795861e-01  -4.6971013e+05
   3.2730910e-09  -2.5356434e-04   3.0391098e-01   2.9797325e-01  -4.6740626e+05
   3.2757586e-09  -2.5232059e-04   3.0389643e-01   2.9798782e-01  -4.6511369e+05
   3.2784261e-09  -2.5108293e-04   3.0388195e-01   2.9800231e-01  -4.6283236e+05
   3.2810937e-09  -2.4985135e-04   3.0386754e-01   2.9801674e-01  -4.6056222e+05
   3.2837613e-09  -2.4862580e-04   3.0385320e-01   2.9803110e-01  -4.5830322e+05
   3.2864288e-09  -2.4740627e-04   3.0383893e-01   2.9804539e-01  -4.5605529e+05
   3.2890964e-09  -2.4619272e-04   3.0382473e-01   2.9805961e-01  -4.5381839e+05
   3.2917639e-09  -2.4498512e-04   3.0381061e-01   2.9807376e-01  -4.5159246e+05
   3.2944315e-09  -2.4378345e-04   3.0379655e-01   2.9808784e-01  -4.4937745e+05
   3.2970990e-09  -2.4258766e-04   3.0378256e-01   2.9810185e-01  -4.4717331e+05
   3.2997666e-09  -2.4139775e-04   3.0376864e-01   2.9811579e-01  -4.4497997e+05
   3.3024341e-09  -2.4021367e-04   3.0375479e-01   2.9812967e-01  -4.4279739e+05
   3.3051017e-09  -2.3903540e-04   3.0374101e-01   2.9814348e-01  -4.4062551e+05
   3.3077693e-09  -2.3786290e-04   3.0372730e-01   2.9815722e-01  -4.3846429e+05
   3.3104368e-09  -2.3669616e-04   3.0371365e-01   2.9817089e-01  -4.3631366e+05
   3.3131044e-09  -2.3553514e-04   3.0370008e-01   2.9818450e-01  -4.3417359e+05
   3.3157719e-09  -2.3437982e-04   3.0368657e-01   2.9819804e-01  -4.3204401e+05
   3.3184395e-09  -2.3323016e-04   3.0367312e-01   2.9821152e-01  -4.2992487e+05
   3.3211070e-09  -2.3208614e-04   3.0365974e-01   2.9822493e-01  -4.2781613e+05
   3.3237746e-09  -2.3094773e-04   3.0364643e-01   2.9823828e-01  -4.2571773e+05
   3.3264421e-09  -2.2981491e-04   3.0363319e-01   2.9825156e-01  -4.2362963e+05
   3.3291097e-09  -2.2868764e-04   3.0362001e-01   2.9826477e-01  -4.2155176e+05
   3.3317773e-09  -2.2756590e-04   3.0360689e-01   2.9827792e-01  -4.1948409e+05
   3.3344448e-09  -2.2644967e-04   3.0359384e-01   2.9829101e-01  -4.1742655e+05
   3.3371124e-09  -2.2533891e-04   3.0358086e-01   2.9830403e-01  -4.1537911e+05
   3.3397799e-09  -2.2423359e-04   3.0356794e-01   2.9831700e-01  -4.1334171e+05
   3.3424475e-09  -2.2313370e-04   3.0355508e-01   2.9832989e-01  -4.1131430e+05
   3.3451150e-09  -2.2203920e-04   3.0354229e-01   2.9834273e-01  -4.0929684e+05
   3.3477826e-09  -2.2095008e-04   3.0352955e-01   2.9835550e-01  -4.0728927e+05
   3.3504502e-09  -2.1986629e-04   3.0351689e-01   2.9836821e-01  -4.0529155e+05
   3.3531177e-09  -2.1878782e-04   3.0350428e-01   2.9838086e-01  -4.0330362e+05
   3.3557853e-09  -2.1771464e-04   3.0349174e-01   2.9839345e-01  -4.0132545e+05
   3.3584528e-09  -2.1664672e-04   3.0347926e-01   2.9840597e-01  -3.9935697e+05
   3.3611204e-09  -2.1558404e-04   3.0346684e-01   2.9841844e-01  -3.9739816e+05
   3.3637879e-09  -2.1452658e-04   3.0345448e-01   2.9843084e-01  -3.9544894e+05
   3.3664555e-09  -2.1347430e-04   3.0344219e-01   2.9844318e-01  -3.9350929e+05
   3.3691230e-09  -2.1242718e-04   3.0342995e-01   2.9845547e-01  -3.9157916e+05
   3.3717906e-09  -2.1138520e-04   3.0341777e-01   2.9846769e-01  -3.8965848e+05
   3.3744582e-09  -2.1034832e-04   3.0340566e-01   2.9847985e-01  -3.8774723e+05
   3.3771257e-09  -2.0931654e-04   3.0339360e-01   2.9849196e-01  -3.8584536e+05
   3.3797933e-09  -2.0828981e-04   3.0338161e-01   2.9850401e-01  -3.8395281e+05
   3.3824608e-09  -2.0726812e-04   3.0336967e-01   2.9851599e-01  -3.8206954e+05
   3.3851284e-09  -2.0625145e-04   3.0335779e-01   2.9852792e-01  -3.8019551e+05
   3.3877959e-09  -2.0523976e-04   3.0334598e-01   2.9853979e-01  -3.7833067e+05
   3.3904635e-09  -2.0423303e-04   3.0333422e-01   2.9855161e-01  -3.7647498e+05
   3.3931310e-09  -2.0323124e-04   3.0332251e-01   2.9856336e-01  -3.7462839e+05
   3.3957986e-09  -2.0223436e-04   3.0331087e-01   2.9857506e-01  -3.7279085e+05
   3.3984662e-09  -2.0124237e-04   3.0329928e-01   2.9858670e-01  -3.7096233e+05
   3.4011337e-09  -2.0025525e-04   3.0328775e-01   2.9859829e-01  -3.6914278e+05
   3.4038013e-09  -1.9927297e-04   3.0327628e-01   2.9860981e-01  -3.6733215e+05
   3.4064688e-09  -1.9829551e-04   3.0326486e-01   2.9862129e-01  -3.6553040e+05
   3.4091364e-09  -1.9732284e-04   3.0325350e-01   2.9863270e-01  -3.6373749e+05
   3.4118039e-09  -1.9635494e-04   3.0324220e-01   2.9864406e-01  -3.6195337e+05
   3.4144715e-09  -1.9539179e-04   3.0323095e-01   2.9865537e-01  -3.6017801e+05
   3.4171390e-09  -1.9443337e-04   3.0321976e-01   2.9866662e-01  -3.5841135e+05
   3.4198066e-09  -1.9347964e-04   3.0320862e-01   2.9867781e-01  -3.5665335e+05
   3.4224742e-09  -1.9253060e-04   3.0319754e-01   2.9868896e-01  -3.5490398e+05
   3.4251417e-09  -1.9158621e-04   3.0318651e-01   2.9870004e-01  -3.5316318e+05
   3.4278093e-09  -1.9064645e-04   3.0317554e-01   2.9871108e-01  -3.5143093e+05
   3.4304768e-09  -1.8971130e-04   3.0316462e-01   2.9872205e-01  -3.4970717e+05
   3.4331444e-09  -1.8878074e-04   3.0315376e-01   2.9873298e-01  -3.4799187e+05
   3.4358119e-09  -1.8785474e-04   3.0314295e-01   2.9874385e-01  -3.4628498e+05
   3.4384795e-09  -1.8693328e-04   3.0313219e-01   2.9875467e-01  -3.4458646e+05
   3.4411470e-09  -1.8601635e-04   3.0312148e-01   2.9876544e-01  -3.4289627e+05
   3.4438146e-09  -1.8510391e-04   3.0311083e-01   2.9877615e-01  -3.4121437e+05
   3.4464822e-09  -1.8419594e-04   3.0310023e-01   2.9878681e-01  -3.3954072e+05
   3.4491497e-09  -1.8329243e-04   3.0308969e-01   2.9879742e-01  -3.3787528e+05
   3.4518173e-09  -1.8239335e-04   3.0307919e-01   2.9880798e-01  -3.3621801e+05
   3.4544848e-09  -1.8149869e-04   3.0306875e-01   2.9881849e-01  -3.3456886e+05
   3.4571524e-09  -1.8060841e-04   3.0305836e-01   2.9882894e-01  -3.3292781e+05
   3.4598199e-09  -1.7972249e-04   3.0304802e-01   2.9883935e-01  -3.3129480e+05
   3.4624875e-09  -1.7884092e-04   3.0303773e-01   2.9884970e-01  -3.2966980e+05
   3.4651551e-09  -1.7796368e-04   3.0302749e-01   2.9886001e-01  -3.2805277e+05
   3.4678226e-09  -1.7709074e-04   3.0301730e-01   2.9887026e-01  -3.2644368e+05
   3.4704902e-09  -1.7622208e-04   3.0300716e-01   2.9888046e-01  -3.2484247e+05
   3.4731577e-09  -1.7535768e-04   3.0299708e-01   2.9889062e-01  -3.2324912e+05
   3.4758253e-09  -1.7449752e-04   3.0298704e-01   2.9890072e-01  -3.2166359e+05
   3.4784928e-09  -1.7364158e-04   3.0297705e-01   2.9891078e-01  -3.2008583e+05
   3.4811604e-09  -1.7278984e-04   3.0296711e-01   2.9892078e-01  -3.1851581e+05
   3.4838279e-09  -1.7194228e-04   3.0295722e-01   2.9893074e-01  -3.1695348e+05
   3.4864955e-09  -1.7109887e-04   3.0294738e-01   2.9894065e-01  -3.1539883e+05
   3.4891631e-09  -1.7025960e-04   3.0293759e-01   2.9895051e-01  -3.1385179e+05
   3.4918306e-09  -1.6942445e-04   3.0292784e-01   2.9896032e-01  -3.1231235e+05
   3.4944982e-09  -1.6859339e-04   3.0291815e-01   2.9897008e-01  -3.1078046e+05
   3.4971657e-09  -1.6776641e-04   3.0290850e-01   2.9897980e-01  -3.0925607e+05
   3.4998333e-09  -1.6694349e-04   3.0289890e-01   2.9898947e-01  -3.0773917e+05
   3.5025008e-09  -1.6612460e-04   3.0288935e-01   2.9899909e-01  -3.0622971e+05
   3.5051684e-09  -1.6530973e-04   3.0287984e-01   2.9900867e-01  -3.0472765e+05
   3.5078359e-09  -1.6449886e-04   3.0287038e-01   2.9901820e-01  -3.0323295e+05
   3.5105035e-09  -1.6369196e-04   3.0286097e-01   2.9902768e-01  -3.0174559e+05
   3.5131711e-09  -1.6288902e-04   3.0285160e-01   2.9903711e-01  -3.0026552e+05
   3.5158386e-09  -1.6209002e-04   3.0284228e-01   2.9904650e-01  -2.9879271e+05
   3.5185062e-09  -1.6129494e-04   3.0283301e-01   2.9905585e-01  -2.9732713e+05
   3.5211737e-09  -1.6050376e-04   3.0282378e-01   2.9906515e-01  -2.9586873e+05
   3.5238413e-09  -1.5971646e-04   3.0281460e-01   2.9907440e-01  -2.9441749e+05
   3.5265088e-09  -1.5893302e-04   3.0280546e-01   2.9908361e-01  -2.9297336e+05
   3.5291764e-09  -1.5815342e-04   3.0279637e-01   2.9909277e-01  -2.9153632e+05
   3.5318439e-09  -1.5737765e-04   3.0278732e-01   2.9910189e-01  -2.9010633e+05
   3.5345115e-09  -1.5660568e-04   3.0277832e-01   2.9911096e-01  -2.8868335e+05
   3.5371791e-09  -1.5583750e-04   3.0276936e-01   2.9911999e-01  -2.8726735e+05
   3.5398466e-09  -1.5507309e-04   3.0276044e-01   2.9912898e-01  -2.8585829e+05
   3.5425142e-09  -1.5431243e-04   3.0275157e-01   2.9913792e-01  -2.8445615e+05
   3.5451817e-09  -1.5355550e-04   3.0274275e-01   2.9914682e-01  -2.8306088e+05
   3.5478493e-09  -1.5280228e-04   3.0273397e-01   2.9915567e-01  -2.8167246e+05
   3.5505168e-09  -1.5205275e-04   3.0272523e-01   2.9916449e-01  -2.8029084e+05
   3.5531844e-09  -1.5130690e-04   3.0271653e-01   2.9917325e-01  -2.7891601e+05
   3.5558520e-09  -1.5056471e-04   3.0270788e-01   2.9918198e-01  -2.7754791e+05
   3.5585195e-09  -1.4982617e-04   3.0269926e-01   2.9919066e-01  -2.7618653e+05
   3.5611871e-09  -1.4909124e-04   3.0269070e-01   2.9919931e-01  -2.7483182e+05
   3.5638546e-09  -1.4835992e-04   3.0268217e-01   2.9920790e-01  -2.7348376e+05
   3.5665222e-09  -1.4763218e-04   3.0267368e-01   2.9921646e-01  -2.7214231e+05
   3.5691897e-09  -1.4690802e-04   3.0266524e-01   2.9922498e-01  -2.7080744e+05
   3.5718573e-09  -1.4618740e-04   3.0265684e-01   2.9923345e-01  -2.6947911e+05
   3.5745248e-09  -1.4547032e-04   3.0264848e-01   2.9924188e-01  -2.6815730e+05
   3.5771924e-09  -1.4475676e-04   3.0264016e-01   2.9925027e-01  -2.6684198e+05
   3.5798600e-09  -1.4404670e-04   3.0263189e-01   2.9925862e-01  -2.6553311e+05
   3.5825275e-09  -1.4334012e-04   3.0262365e-01   2.9926693e-01  -2.6423065e+05
   3.5851951e-09  -1.4263701e-04   3.0261545e-01   2.9927520e-01  -2.6293458e+05
   3.5878626e-09  -1.4193735e-04   3.0260730e-01   2.9928343e-01  -2.6164488e+05
   3.5905302e-09  -1.4124111e-04   3.0259918e-01   2.9929162e-01  -2.6036149e+05
   3.5931977e-09  -1.4054830e-04   3.0259111e-01   2.9929977e-01  -2.5908440e+05
   3.5958653e-09  -1.3985888e-04   3.0258307e-01   2.9930788e-01  -2.5781358e+05
   3.5985328e-09  -1.3917284e-04   3.0257508e-01   2.9931594e-01  -2.5654899e+05
   3.6012004e-09  -1.3849017e-04   3.0256712e-01   2.9932397e-01  -2.5529060e+05
   3.6038680e-09  -1.3781085e-04   3.0255920e-01   2.9933196e-01  -2.5403838e+05
   3.6065355e-09  -1.3713485e-04   3.0255133e-01   2.9933992e-01  -2.5279231e+05
   3.6092031e-09  -1.3646218e-04   3.0254349e-01   2.9934783e-01  -2.5155234e+05
   3.6118706e-09  -1.3579280e-04   3.0253569e-01   2.9935570e-01  -2.5031846e+05
   3.6145382e-09  -1.3512671e-04   3.0252792e-01   2.9936354e-01  -2.4909063e+05
   3.6172057e-09  -1.3446388e-04   3.0252020e-01   2.9937134e-01  -2.4786882e+05
   3.6198733e-09  -1.3380431e-04   3.0251251e-01   2.9937909e-01  -2.4665301e+05
   3.6225408e-09  -1.3314797e-04   3.0250487e-01   2.9938682e-01  -2.4544316e+05
   3.6252084e-09  -1.3249485e-04   3.0249726e-01   2.9939450e-01  -2.4423924e+05
   3.6278760e-09  -1.3184493e-04   3.0248968e-01   2.9940215e-01  -2.4304123e+05
   3.6305435e-09  -1.3119821e-04   3.0248215e-01   2.9940975e-01  -2.4184909e+05
   3.6332111e-09  -1.3055465e-04   3.0247465e-01   2.9941733e-01  -2.4066280e+05
   3.6358786e-09  -1.2991425e-04   3.0246719e-01   2.9942486e-01  -2.3948233e+05
   3.6385462e-09  -1.2927699e-04   3.0245976e-01   2.9943236e-01  -2.3830765e+05
   3.6412137e-09  -1.2864286e-04   3.0245237e-01   2.9943982e-01  -2.3713873e+05
   3.6438813e-09  -1.2801184e-04   3.0244502e-01   2.9944725e-01  -2.3597555e+05
   3.6465488e-09  -1.2738391e-04   3.0243771e-01   2.9945463e-01  -2.3481807e+05
   3.6492164e-09  -1.2675906e-04   3.0243043e-01   2.9946199e-01  -2.3366626e+05
   3.6518840e-09  -1.2613728e-04   3.0242318e-01   2.9946930e-01  -2.3252011e+05
   3.6545515e-09  -1.2551855e-04   3.0241598e-01   2.9947658e-01  -2.3137958e+05
   3.6572191e-09  -1.2490285e-04   3.0240880e-01   2.9948383e-01  -2.3024464e+05
   3.6598866e-09  -1.2429018e-04   3.0240167e-01   2.9949104e-01  -2.2911527e+05
   3.6625542e-09  -1.2368051e-04   3.0239457e-01   2.9949822e-01  -2.2799144e+05
   3.6652217e-09  -1.2307382e-04   3.0238750e-01   2.9950535e-01  -2.2687312e+05
   3.6678893e-09  -1.2247012e-04   3.0238047e-01   2.9951246e-01  -2.2576028e+05
   3.6705569e-09  -1.2186937e-04   3.0237347e-01   2.9951953e-01  -2.2465291e+05
   3.6732244e-09  -1.2127158e-04   3.0236651e-01   2.9952657e-01  -2.2355096e+05
   3.6758920e-09  -1.2067671e-04   3.0235958e-01   2.9953357e-01  -2.2245442e+05
   3.6785595e-09  -1.2008476e-04   3.0235268e-01   2.9954053e-01  -2.2136326e+05
   3.6812271e-09  -1.1949572e-04   3.0234582e-01   2.9954747e-01  -2.2027745e+05
   3.6838946e-09  -1.1890957e-04   3.0233900e-01   2.9955437e-01  -2.1919697e+05
   3.6865622e-09  -1.1832629e-04   3.0233220e-01   2.9956123e-01  -2.1812178e+05
   3.6892297e-09  -1.1774587e-04   3.0232544e-01   2.9956806e-01  -2.1705187e+05
   3.6918973e-09  -1.1716830e-04   3.0231872e-01   2.9957486e-01  -2.1598721e+05
   3.6945649e-09  -1.1659356e-04   3.0231202e-01   2.9958163e-01  -2.1492777e+05
   3.6972324e-09  -1.1602164e-04   3.0230536e-01   2.9958836e-01  -2.1387352e+05
   3.6999000e-09  -1.1545252e-04   3.0229874e-01   2.9959506e-01  -2.1282445e+05
   3.7025675e-09  -1.1488620e-04   3.0229214e-01   2.9960173e-01  -2.1178052e+05
   3.7052351e-09  -1.1432266e-04   3.0228558e-01   2.9960836e-01  -2.1074171e+05
   3.7079026e-09  -1.1376188e-04   3.0227905e-01   2.9961496e-01  -2.0970800e+05
   3.7105702e-09  -1.1320385e-04   3.0227255e-01   2.9962153e-01  -2.0867936e+05
   3.7132377e-09  -1.1264855e-04   3.0226608e-01   2.9962807e-01  -2.0765576e+05
   3.7159053e-09  -1.1209599e-04   3.0225965e-01   2.9963458e-01  -2.0663719e+05
   3.7185729e-09  -1.1154613e-04   3.0225325e-01   2.9964105e-01  -2.0562361e+05
   3.7212404e-09  -1.1099897e-04   3.0224688e-01   2.9964749e-01  -2.0461500e+05
   3.7239080e-09  -1.1045449e-04   3.0224054e-01   2.9965390e-01  -2.0361134e+05
   3.7265755e-09  -1.0991268e-04   3.0223423e-01   2.9966028e-01  -2.0261260e+05
   3.7292431e-09  -1.0937353e-04   3.0222795e-01   2.9966663e-01  -2.0161876e+05
   3.7319106e-09  -1.0883703e-04   3.0222171e-01   2.9967295e-01  -2.0062979e+05
   3.7345782e-09  -1.0830316e-04   3.0221549e-01   2.9967923e-01  -1.9964568e+05
   3.7372457e-09  -1.0777190e-04   3.0220931e-01   2.9968549e-01  -1.9866639e+05
   3.7399133e-09  -1.0724325e-04   3.0220315e-01   2.9969171e-01  -1.9769190e+05
   3.7425809e-09  -1.0671720e-04   3.0219703e-01   2.9969791e-01  -1.9672220e+05
   3.7452484e-09  -1.0619372e-04   3.0219093e-01   2.9970407e-01  -1.9575725e+05
   3.7479160e-09  -1.0567282e-04   3.0218487e-01   2.9971021e-01  -1.9479704e+05
   3.7505835e-09  -1.0515446e-04   3.0217883e-01   2.9971631e-01  -1.9384153e+05
   3.7532511e-09  -1.0463865e-04   3.0217283e-01   2.9972239e-01  -1.9289071e+05
   3.7559186e-09  -1.0412538e-04   3.0216685e-01   2.9972843e-01  -1.9194456e+05
   3.7585862e-09  -1.0361461e-04   3.0216091e-01   2.9973445e-01  -1.9100304e+05
   3.7612538e-09  -1.0310636e-04   3.0215499e-01   2.9974043e-01  -1.9006615e+05
   3.7639213e-09  -1.0260059e-04   3.0214911e-01   2.9974639e-01  -1.8913384e+05
   3.7665889e-09  -1.0209731e-04   3.0214325e-01   2.9975232e-01  -1.8820612e+05
   3.7692564e-09  -1.0159650e-04   3.0213742e-01   2.9975821e-01  -1.8728294e+05
   3.7719240e-09  -1.0109814e-04   3.0213162e-01   2.9976408e-01  -1.8636429e+05
   3.7745915e-09  -1.0060223e-04   3.0212585e-01   2.9976993e-01  -1.8545014e+05
   3.7772591e-09  -1.0010875e-04   3.0212010e-01   2.9977574e-01  -1.8454048e+05
   3.7799266e-09  -9.9617688e-05   3.0211439e-01   2.9978152e-01  -1.8363529e+05
   3.7825942e-09  -9.9129037e-05   3.0210870e-01   2.9978728e-01  -1.8273453e+05
   3.7852618e-09  -9.8642783e-05   3.0210304e-01   2.9979301e-01  -1.8183819e+05
   3.7879293e-09  -9.8158914e-05   3.0209741e-01   2.9979870e-01  -1.8094624e+05
   3.7905969e-09  -9.7677419e-05   3.0209181e-01   2.9980438e-01  -1.8005868e+05
   3.7932644e-09  -9.7198285e-05   3.0208623e-01   2.9981002e-01  -1.7917546e+05
   3.7959320e-09  -9.6721502e-05   3.0208068e-01   2.9981564e-01  -1.7829658e+05
   3.7985995e-09  -9.6247057e-05   3.0207516e-01   2.9982123e-01  -1.7742201e+05
   3.8012671e-09  -9.5774939e-05   3.0206967e-01   2.9982679e-01  -1.7655172e+05
   3.8039346e-09  -9.5305138e-05   3.0206420e-01   2.9983232e-01  -1.7568571e+05
   3.8066022e-09  -9.4837640e-05   3.0205876e-01   2.9983783e-01  -1.7482394e+05
   3.8092698e-09  -9.4372436e-05   3.0205335e-01   2.9984331e-01  -1.7396640e+05
   3.8119373e-09  -9.3909514e-05   3.0204796e-01   2.9984876e-01  -1.7311307e+05
   3.8146049e-09  -9.3448862e-05   3.0204260e-01   2.9985419e-01  -1.7226392e+05
   3.8172724e-09  -9.2990470e-05   3.0203726e-01   2.9985959e-01  -1.7141894e+05
   3.8199400e-09  -9.2534327e-05   3.0203196e-01   2.9986497e-01  -1.7057810e+05
   3.8226075e-09  -9.2080421e-05   3.0202668e-01   2.9987031e-01  -1.6974139e+05
   3.8252751e-09  -9.1628741e-05   3.0202142e-01   2.9987563e-01  -1.6890878e+05
   3.8279426e-09  -9.1179277e-05   3.0201619e-01   2.9988093e-01  -1.6808025e+05
   3.8306102e-09  -9.0732017e-05   3.0201099e-01   2.9988620e-01  -1.6725579e+05
   3.8332778e-09  -9.0286952e-05   3.0200581e-01   2.9989144e-01  -1.6643537e+05
   3.8359453e-09  -8.9844069e-05   3.0200065e-01   2.9989666e-01  -1.6561898e+05
   3.8386129e-09  -8.9403359e-05   3.0199553e-01   2.9990186e-01  -1.6480659e+05
   3.8412804e-09  -8.8964811e-05   3.0199043e-01   2.9990702e-01  -1.6399819e+05
   3.8439480e-09  -8.8528414e-05   3.0198535e-01   2.9991217e-01  -1.6319375e+05
   3.8466155e-09  -8.8094157e-05   3.0198030e-01   2.9991728e-01  -1.6239325e+05
   3.8492831e-09  -8.7662031e-05   3.0197527e-01   2.9992237e-01  -1.6159669e+05
   3.8519507e-09  -8.7232024e-05   3.0197027e-01   2.9992744e-01  -1.6080403e+05
   3.8546182e-09  -8.6804126e-05   3.0196529e-01   2.9993248e-01  -1.6001525e+05
   3.8572858e-09  -8.6378328e-05   3.0196033e-01   2.9993750e-01  -1.5923035e+05
   3.8599533e-09  -8.5954618e-05   3.0195541e-01   2.9994249e-01  -1.5844930e+05
   3.8626209e-09  -8.5532986e-05   3.0195050e-01   2.9994746e-01  -1.5767207e+05
   3.8652884e-09  -8.5113423e-05   3.0194562e-01   2.9995241e-01  -1.5689866e+05
   3.8679560e-09  -8.4695917e-05   3.0194076e-01   2.9995733e-01  -1.5612905e+05
   3.8706235e-09  -8.4280459e-05   3.0193593e-01   2.9996222e-01  -1.5536321e+05
   3.8732911e-09  -8.3867040e-05   3.0193112e-01   2.9996710e-01  -1.5460112e+05
   3.8759587e-09  -8.3455648e-05   3.0192634e-01   2.9997195e-01  -1.5384277e+05
   3.8786262e-09  -8.3046274e-05   3.0192157e-01   2.9997677e-01  -1.5308815e+05
   3.8812938e-09  -8.2638908e-05   3.0191684e-01   2.9998157e-01  -1.5233722e+05
   3.8839613e-09  -8.2233541e-05   3.0191212e-01   2.9998635e-01  -1.5158998e+05
   3.8866289e-09  -8.1830161e-05   3.0190743e-01   2.9999110e-01  -1.5084640e+05
   3.8892964e-09  -8.1428761e-05   3.0190276e-01   2.9999583e-01  -1.5010647e+05
   3.8919640e-09  -8.1029329e-05   3.0189811e-01   3.0000054e-01  -1.4937017e+05
   3.8946315e-09  -8.0631857e-05   3.0189349e-01   3.0000523e-01  -1.4863748e+05
   3.8972991e-09  -8.0236334e-05   3.0188889e-01   3.0000989e-01  -1.4790838e+05
   3.8999667e-09  -7.9842752e-05   3.0188431e-01   3.0001453e-01  -1.4718286e+05
