   0.0000000e+00  -1.2232426e-01   6.3466683e+00   4.6626900e-04  -5.2122665e+08
   1.0003334e-12  -1.2180357e-01   6.3457050e+00   4.8547562e-04  -5.1983061e+08
   2.0006669e-12  -1.2128427e-01   6.3447246e+00   5.0541709e-04  -5.1843447e+08
   3.0010003e-12  -1.2076636e-01   6.3437269e+00   5.2611906e-04  -5.1703825e+08
   4.0013338e-12  -1.2024985e-01   6.3427117e+00   5.4760793e-04  -5.1564193e+08
   5.0016672e-12  -1.1973474e-01   6.3416786e+00   5.6991094e-04  -5.1424553e+08
   6.0020007e-12  -1.1922103e-01   6.3406275e+00   5.9305613e-04  -5.1284905e+08
   7.0023341e-12  -1.1870871e-01   6.3395581e+00   6.1707241e-04  -5.1145247e+08
   8.0026676e-12  -1.1819779e-01   6.3384702e+00   6.4198955e-04  -5.1005582e+08
   9.0030010e-12  -1.1768827e-01   6.3373635e+00   6.6783823e-04  -5.0865909e+08
   1.0003334e-11  -1.1718015e-01   6.3362377e+00   6.9465002e-04  -5.0726227e+08
   1.1003668e-11  -1.1667342e-01   6.3350926e+00   7.2245745e-04  -5.0586538e+08
   1.2004001e-11  -1.1616809e-01   6.3339279e+00   7.5129399e-04  -5.0446842e+08
   1.3004335e-11  -1.1566415e-01   6.3327434e+00   7.8119410e-04  -5.0307139e+08
   1.4004668e-11  -1.1516162e-01   6.3315388e+00   8.1219324e-04  -5.0167428e+08
   1.5005002e-11  -1.1466048e-01   6.3303139e+00   8.4432790e-04  -5.0027711e+08
   1.6005335e-11  -1.1416074e-01   6.3290683e+00   8.7763564e-04  -4.9887988e+08
   1.7005669e-11  -1.1366240e-01   6.3278018e+00   9.1215507e-04  -4.9748258e+08
   1.8006002e-11  -1.1316545e-01   6.3265142e+00   9.4792590e-04  -4.9608523e+08
   1.9006335e-11  -1.1266990e-01   6.3252051e+00   9.8498899e-04  -4.9468782e+08
   2.0006669e-11  -1.1217575e-01   6.3238744e+00   1.0233863e-03  -4.9329036e+08
   2.1007002e-11  -1.1168300e-01   6.3225216e+00   1.0631611e-03  -4.9189285e+08
   2.2007336e-11  -1.1119165e-01   6.3211466e+00   1.1043577e-03  -4.9049529e+08
   2.3007669e-11  -1.1070169e-01   6.3197490e+00   1.1470216e-03  -4.8909769e+08
   2.4008003e-11  -1.1021314e-01   6.3183286e+00   1.1911998e-03  -4.8770005e+08
   2.5008336e-11  -1.0972598e-01   6.3168852e+00   1.2369404e-03  -4.8630238e+08
   2.6008670e-11  -1.0924022e-01   6.3154183e+00   1.2842929e-03  -4.8490468e+08
   2.7009003e-11  -1.0875585e-01   6.3139277e+00   1.3333079e-03  -4.8350694e+08
   2.8009336e-11  -1.0827289e-01   6.3124132e+00   1.3840376e-03  -4.8210919e+08
   2.9009670e-11  -1.0779132e-01   6.3108745e+00   1.4365357e-03  -4.8071141e+08
   3.0010003e-11  -1.0731115e-01   6.3093112e+00   1.4908569e-03  -4.7931362e+08
   3.1010337e-11  -1.0683238e-01   6.3077231e+00   1.5470577e-03  -4.7791582e+08
   3.2010670e-11  -1.0635501e-01   6.3061098e+00   1.6051960e-03  -4.7651801e+08
   3.3011004e-11  -1.0587904e-01   6.3044712e+00   1.6653310e-03  -4.7512020e+08
   3.4011337e-11  -1.0540446e-01   6.3028068e+00   1.7275237e-03  -4.7372239e+08
   3.5011671e-11  -1.0493128e-01   6.3011164e+00   1.7918366e-03  -4.7232460e+08
   3.6012004e-11  -1.0445951e-01   6.2993998e+00   1.8583337e-03  -4.7092681e+08
   3.7012337e-11  -1.0398912e-01   6.2976565e+00   1.9270805e-03  -4.6952904e+08
   3.8012671e-11  -1.0352014e-01   6.2958863e+00   1.9981445e-03  -4.6813130e+08
   3.9013004e-11  -1.0305256e-01   6.2940889e+00   2.0715945e-03  -4.6673359e+08
   4.0013338e-11  -1.0258637e-01   6.2922640e+00   2.1475013e-03  -4.6533591e+08
   4.1013671e-11  -1.0212158e-01   6.2904113e+00   2.2259373e-03  -4.6393828e+08
   4.2014005e-11  -1.0165819e-01   6.2885305e+00   2.3069765e-03  -4.6254069e+08
   4.3014338e-11  -1.0119620e-01   6.2866212e+00   2.3906950e-03  -4.6114316e+08
   4.4014672e-11  -1.0073561e-01   6.2846833e+00   2.4771706e-03  -4.5974568e+08
   4.5015005e-11  -1.0027641e-01   6.2827163e+00   2.5664829e-03  -4.5834827e+08
   4.6015338e-11  -9.9818611e-02   6.2807199e+00   2.6587134e-03  -4.5695094e+08
   4.7015672e-11  -9.9362210e-02   6.2786940e+00   2.7539454e-03  -4.5555368e+08
   4.8016005e-11  -9.8907206e-02   6.2766380e+00   2.8522645e-03  -4.5415651e+08
   4.9016339e-11  -9.8453600e-02   6.2745518e+00   2.9537579e-03  -4.5275943e+08
   5.0016672e-11  -9.8001392e-02   6.2724350e+00   3.0585148e-03  -4.5136246e+08
   5.1017006e-11  -9.7550581e-02   6.2702874e+00   3.1666268e-03  -4.4996559e+08
   5.2017339e-11  -9.7101167e-02   6.2681085e+00   3.2781872e-03  -4.4856885e+08
   5.3017673e-11  -9.6653150e-02   6.2658981e+00   3.3932914e-03  -4.4717222e+08
   5.4018006e-11  -9.6206530e-02   6.2636559e+00   3.5120371e-03  -4.4577573e+08
   5.5018339e-11  -9.5761307e-02   6.2613816e+00   3.6345240e-03  -4.4437938e+08
   5.6018673e-11  -9.5317480e-02   6.2590749e+00   3.7608541e-03  -4.4298318e+08
   5.7019006e-11  -9.4875051e-02   6.2567354e+00   3.8911315e-03  -4.4158713e+08
   5.8019340e-11  -9.4434017e-02   6.2543628e+00   4.0254624e-03  -4.4019125e+08
   5.9019673e-11  -9.3994380e-02   6.2519569e+00   4.1639555e-03  -4.3879555e+08
   6.0020007e-11  -9.3556138e-02   6.2495172e+00   4.3067216e-03  -4.3740003e+08
   6.1020340e-11  -9.3119293e-02   6.2470436e+00   4.4538739e-03  -4.3600471e+08
   6.2020674e-11  -9.2683843e-02   6.2445357e+00   4.6055279e-03  -4.3460959e+08
   6.3021007e-11  -9.2249789e-02   6.2419931e+00   4.7618015e-03  -4.3321468e+08
   6.4021340e-11  -9.1817129e-02   6.2394156e+00   4.9228148e-03  -4.3181999e+08
   6.5021674e-11  -9.1385865e-02   6.2368029e+00   5.0886905e-03  -4.3042554e+08
   6.6022007e-11  -9.0955995e-02   6.2341546e+00   5.2595537e-03  -4.2903133e+08
   6.7022341e-11  -9.0527520e-02   6.2314705e+00   5.4355318e-03  -4.2763738e+08
   6.8022674e-11  -9.0100439e-02   6.2287502e+00   5.6167549e-03  -4.2624369e+08
   6.9023008e-11  -8.9674752e-02   6.2259934e+00   5.8033555e-03  -4.2485028e+08
   7.0023341e-11  -8.9250459e-02   6.2231998e+00   5.9954685e-03  -4.2345715e+08
   7.1023675e-11  -8.8827559e-02   6.2203692e+00   6.1932314e-03  -4.2206432e+08
   7.2024008e-11  -8.8406052e-02   6.2175012e+00   6.3967843e-03  -4.2067181e+08
   7.3024341e-11  -8.7985938e-02   6.2145955e+00   6.6062700e-03  -4.1927961e+08
   7.4024675e-11  -8.7567217e-02   6.2116518e+00   6.8218336e-03  -4.1788775e+08
   7.5025008e-11  -8.7149887e-02   6.2086698e+00   7.0436230e-03  -4.1649623e+08
   7.6025342e-11  -8.6733949e-02   6.2056492e+00   7.2717887e-03  -4.1510507e+08
   7.7025675e-11  -8.6319402e-02   6.2025897e+00   7.5064838e-03  -4.1371429e+08
   7.8026009e-11  -8.5906247e-02   6.1994911e+00   7.7478642e-03  -4.1232388e+08
   7.9026342e-11  -8.5494482e-02   6.1963530e+00   7.9960881e-03  -4.1093388e+08
   8.0026676e-11  -8.5084107e-02   6.1931751e+00   8.2513168e-03  -4.0954428e+08
   8.1027009e-11  -8.4675122e-02   6.1899571e+00   8.5137141e-03  -4.0815510e+08
   8.2027342e-11  -8.4267526e-02   6.1866988e+00   8.7834466e-03  -4.0676637e+08
   8.3027676e-11  -8.3861320e-02   6.1833998e+00   9.0606833e-03  -4.0537808e+08
   8.4028009e-11  -8.3456501e-02   6.1800600e+00   9.3455963e-03  -4.0399026e+08
   8.5028343e-11  -8.3053071e-02   6.1766789e+00   9.6383602e-03  -4.0260292e+08
   8.6028676e-11  -8.2651028e-02   6.1732563e+00   9.9391524e-03  -4.0121607e+08
   8.7029010e-11  -8.2250372e-02   6.1697920e+00   1.0248153e-02  -3.9982974e+08
   8.8029343e-11  -8.1851102e-02   6.1662856e+00   1.0565545e-02  -3.9844392e+08
   8.9029677e-11  -8.1453219e-02   6.1627370e+00   1.0891514e-02  -3.9705865e+08
   9.0030010e-11  -8.1056721e-02   6.1591457e+00   1.1226248e-02  -3.9567393e+08
   9.1030343e-11  -8.0661607e-02   6.1555116e+00   1.1569938e-02  -3.9428978e+08
   9.2030677e-11  -8.0267878e-02   6.1518344e+00   1.1922778e-02  -3.9290621e+08
   9.3031010e-11  -7.9875532e-02   6.1481138e+00   1.2284965e-02  -3.9152325e+08
   9.4031344e-11  -7.9484570e-02   6.1443496e+00   1.2656697e-02  -3.9014091e+08
   9.5031677e-11  -7.9094990e-02   6.1405415e+00   1.3038177e-02  -3.8875920e+08
   9.6032011e-11  -7.8706792e-02   6.1366893e+00   1.3429609e-02  -3.8737814e+08
   9.7032344e-11  -7.8319974e-02   6.1327927e+00   1.3831201e-02  -3.8599775e+08
   9.8032678e-11  -7.7934538e-02   6.1288514e+00   1.4243162e-02  -3.8461805e+08
   9.9033011e-11  -7.7550480e-02   6.1248653e+00   1.4665705e-02  -3.8323905e+08
   1.0003334e-10  -7.7167802e-02   6.1208340e+00   1.5099045e-02  -3.8186077e+08
   1.0103368e-10  -7.6786503e-02   6.1167575e+00   1.5543401e-02  -3.8048323e+08
   1.0203401e-10  -7.6406580e-02   6.1126353e+00   1.5998992e-02  -3.7910645e+08
   1.0303434e-10  -7.6028035e-02   6.1084673e+00   1.6466042e-02  -3.7773044e+08
   1.0403468e-10  -7.5650865e-02   6.1042533e+00   1.6944776e-02  -3.7635523e+08
   1.0503501e-10  -7.5275071e-02   6.0999931e+00   1.7435422e-02  -3.7498083e+08
   1.0603535e-10  -7.4900651e-02   6.0956864e+00   1.7938212e-02  -3.7360726e+08
   1.0703568e-10  -7.4527605e-02   6.0913331e+00   1.8453377e-02  -3.7223454e+08
   1.0803601e-10  -7.4155931e-02   6.0869329e+00   1.8981154e-02  -3.7086269e+08
   1.0903635e-10  -7.3785629e-02   6.0824856e+00   1.9521781e-02  -3.6949172e+08
   1.1003668e-10  -7.3416698e-02   6.0779910e+00   2.0075497e-02  -3.6812167e+08
   1.1103701e-10  -7.3049137e-02   6.0734490e+00   2.0642545e-02  -3.6675255e+08
   1.1203735e-10  -7.2682945e-02   6.0688593e+00   2.1223171e-02  -3.6538437e+08
   1.1303768e-10  -7.2318121e-02   6.0642219e+00   2.1817621e-02  -3.6401716e+08
   1.1403801e-10  -7.1954664e-02   6.0595364e+00   2.2426144e-02  -3.6265095e+08
   1.1503835e-10  -7.1592574e-02   6.0548027e+00   2.3048993e-02  -3.6128574e+08
   1.1603868e-10  -7.1231848e-02   6.0500207e+00   2.3686420e-02  -3.5992156e+08
   1.1703901e-10  -7.0872486e-02   6.0451902e+00   2.4338681e-02  -3.5855844e+08
   1.1803935e-10  -7.0514488e-02   6.0403111e+00   2.5006035e-02  -3.5719639e+08
   1.1903968e-10  -7.0157851e-02   6.0353831e+00   2.5688740e-02  -3.5583544e+08
   1.2004001e-10  -6.9802575e-02   6.0304062e+00   2.6387057e-02  -3.5447560e+08
   1.2104035e-10  -6.9448658e-02   6.0253803e+00   2.7101251e-02  -3.5311690e+08
   1.2204068e-10  -6.9096101e-02   6.0203051e+00   2.7831586e-02  -3.5175936e+08
   1.2304101e-10  -6.8744900e-02   6.0151805e+00   2.8578329e-02  -3.5040300e+08
   1.2404135e-10  -6.8395056e-02   6.0100065e+00   2.9341748e-02  -3.4904785e+08
   1.2504168e-10  -6.8046566e-02   6.0047830e+00   3.0122114e-02  -3.4769393e+08
   1.2604201e-10  -6.7699431e-02   5.9995097e+00   3.0919697e-02  -3.4634125e+08
   1.2704235e-10  -6.7353647e-02   5.9941866e+00   3.1734771e-02  -3.4498985e+08
   1.2804268e-10  -6.7009215e-02   5.9888137e+00   3.2567609e-02  -3.4363975e+08
   1.2904301e-10  -6.6666133e-02   5.9833908e+00   3.3418488e-02  -3.4229096e+08
   1.3004335e-10  -6.6324399e-02   5.9779178e+00   3.4287685e-02  -3.4094352e+08
   1.3104368e-10  -6.5984013e-02   5.9723947e+00   3.5175475e-02  -3.3959745e+08
   1.3204401e-10  -6.5644972e-02   5.9668214e+00   3.6082140e-02  -3.3825276e+08
   1.3304435e-10  -6.5307275e-02   5.9611979e+00   3.7007959e-02  -3.3690949e+08
   1.3404468e-10  -6.4970922e-02   5.9555240e+00   3.7953211e-02  -3.3556765e+08
   1.3504502e-10  -6.4635910e-02   5.9497997e+00   3.8918180e-02  -3.3422727e+08
   1.3604535e-10  -6.4302238e-02   5.9440251e+00   3.9903146e-02  -3.3288838e+08
   1.3704568e-10  -6.3969905e-02   5.9382000e+00   4.0908393e-02  -3.3155100e+08
   1.3804602e-10  -6.3638908e-02   5.9323244e+00   4.1934205e-02  -3.3021516e+08
   1.3904635e-10  -6.3309247e-02   5.9263983e+00   4.2980864e-02  -3.2888087e+08
   1.4004668e-10  -6.2980920e-02   5.9204217e+00   4.4048655e-02  -3.2754816e+08
   1.4104702e-10  -6.2653926e-02   5.9143947e+00   4.5137862e-02  -3.2621707e+08
   1.4204735e-10  -6.2328262e-02   5.9083170e+00   4.6248770e-02  -3.2488760e+08
   1.4304768e-10  -6.2003927e-02   5.9021889e+00   4.7381662e-02  -3.2355979e+08
   1.4404802e-10  -6.1680920e-02   5.8960103e+00   4.8536824e-02  -3.2223367e+08
   1.4504835e-10  -6.1359238e-02   5.8897813e+00   4.9714539e-02  -3.2090925e+08
   1.4604868e-10  -6.1038880e-02   5.8835017e+00   5.0915091e-02  -3.1958657e+08
   1.4704902e-10  -6.0719844e-02   5.8771718e+00   5.2138764e-02  -3.1826564e+08
   1.4804935e-10  -6.0402129e-02   5.8707916e+00   5.3385841e-02  -3.1694650e+08
   1.4904968e-10  -6.0085733e-02   5.8643610e+00   5.4656603e-02  -3.1562916e+08
   1.5005002e-10  -5.9770653e-02   5.8578803e+00   5.5951333e-02  -3.1431366e+08
   1.5105035e-10  -5.9456889e-02   5.8513493e+00   5.7270312e-02  -3.1300002e+08
   1.5205068e-10  -5.9144437e-02   5.8447683e+00   5.8613819e-02  -3.1168827e+08
   1.5305102e-10  -5.8833297e-02   5.8381373e+00   5.9982132e-02  -3.1037842e+08
   1.5405135e-10  -5.8523466e-02   5.8314563e+00   6.1375531e-02  -3.0907051e+08
   1.5505168e-10  -5.8214943e-02   5.8247256e+00   6.2794290e-02  -3.0776457e+08
   1.5605202e-10  -5.7907725e-02   5.8179451e+00   6.4238685e-02  -3.0646061e+08
   1.5705235e-10  -5.7601810e-02   5.8111151e+00   6.5708989e-02  -3.0515866e+08
   1.5805268e-10  -5.7297197e-02   5.8042356e+00   6.7205474e-02  -3.0385876e+08
   1.5905302e-10  -5.6993883e-02   5.7973068e+00   6.8728410e-02  -3.0256091e+08
   1.6005335e-10  -5.6691866e-02   5.7903288e+00   7.0278065e-02  -3.0126516e+08
   1.6105368e-10  -5.6391145e-02   5.7833017e+00   7.1854705e-02  -2.9997153e+08
   1.6205402e-10  -5.6091716e-02   5.7762258e+00   7.3458595e-02  -2.9868004e+08
   1.6305435e-10  -5.5793579e-02   5.7691012e+00   7.5089995e-02  -2.9739072e+08
   1.6405468e-10  -5.5496730e-02   5.7619280e+00   7.6749165e-02  -2.9610359e+08
   1.6505502e-10  -5.5201167e-02   5.7547065e+00   7.8436364e-02  -2.9481868e+08
   1.6605535e-10  -5.4906889e-02   5.7474368e+00   8.0151843e-02  -2.9353601e+08
   1.6705569e-10  -5.4613893e-02   5.7401191e+00   8.1895856e-02  -2.9225562e+08
   1.6805602e-10  -5.4322176e-02   5.7327537e+00   8.3668652e-02  -2.9097752e+08
   1.6905635e-10  -5.4031737e-02   5.7253407e+00   8.5470475e-02  -2.8970175e+08
   1.7005669e-10  -5.3742573e-02   5.7178804e+00   8.7301570e-02  -2.8842832e+08
   1.7105702e-10  -5.3454682e-02   5.7103729e+00   8.9162175e-02  -2.8715727e+08
   1.7205735e-10  -5.3168061e-02   5.7028186e+00   9.1052528e-02  -2.8588862e+08
   1.7305769e-10  -5.2882708e-02   5.6952177e+00   9.2972860e-02  -2.8462239e+08
   1.7405802e-10  -5.2598620e-02   5.6875704e+00   9.4923402e-02  -2.8335860e+08
   1.7505835e-10  -5.2315796e-02   5.6798770e+00   9.6904379e-02  -2.8209730e+08
   1.7605869e-10  -5.2034232e-02   5.6721378e+00   9.8916014e-02  -2.8083849e+08
   1.7705902e-10  -5.1753926e-02   5.6643530e+00   1.0095852e-01  -2.7958221e+08
   1.7805935e-10  -5.1474876e-02   5.6565229e+00   1.0303212e-01  -2.7832848e+08
   1.7905969e-10  -5.1197078e-02   5.6486479e+00   1.0513702e-01  -2.7707732e+08
   1.8006002e-10  -5.0920531e-02   5.6407281e+00   1.0727343e-01  -2.7582876e+08
   1.8106035e-10  -5.0645232e-02   5.6327640e+00   1.0944154e-01  -2.7458282e+08
   1.8206069e-10  -5.0371177e-02   5.6247558e+00   1.1164156e-01  -2.7333954e+08
   1.8306102e-10  -5.0098366e-02   5.6167038e+00   1.1387368e-01  -2.7209892e+08
   1.8406135e-10  -4.9826794e-02   5.6086085e+00   1.1613808e-01  -2.7086100e+08
   1.8506169e-10  -4.9556459e-02   5.6004701e+00   1.1843495e-01  -2.6962581e+08
   1.8606202e-10  -4.9287358e-02   5.5922889e+00   1.2076446e-01  -2.6839335e+08
   1.8706235e-10  -4.9019489e-02   5.5840654e+00   1.2312680e-01  -2.6716367e+08
   1.8806269e-10  -4.8752849e-02   5.5757998e+00   1.2552213e-01  -2.6593678e+08
   1.8906302e-10  -4.8487434e-02   5.5674926e+00   1.2795061e-01  -2.6471271e+08
   1.9006335e-10  -4.8223243e-02   5.5591441e+00   1.3041240e-01  -2.6349147e+08
   1.9106369e-10  -4.7960273e-02   5.5507546e+00   1.3290766e-01  -2.6227310e+08
   1.9206402e-10  -4.7698519e-02   5.5423247e+00   1.3543653e-01  -2.6105761e+08
   1.9306435e-10  -4.7437980e-02   5.5338547e+00   1.3799915e-01  -2.5984503e+08
   1.9406469e-10  -4.7178653e-02   5.5253449e+00   1.4059567e-01  -2.5863538e+08
   1.9506502e-10  -4.6920535e-02   5.5167958e+00   1.4322621e-01  -2.5742868e+08
   1.9606536e-10  -4.6663622e-02   5.5082078e+00   1.4589089e-01  -2.5622496e+08
   1.9706569e-10  -4.6407912e-02   5.4995814e+00   1.4858985e-01  -2.5502424e+08
   1.9806602e-10  -4.6153402e-02   5.4909168e+00   1.5132318e-01  -2.5382654e+08
   1.9906636e-10  -4.5900088e-02   5.4822147e+00   1.5409100e-01  -2.5263188e+08
   2.0006669e-10  -4.5647968e-02   5.4734753e+00   1.5689342e-01  -2.5144028e+08
   2.0106702e-10  -4.5397039e-02   5.4646992e+00   1.5973052e-01  -2.5025176e+08
   2.0206736e-10  -4.5147297e-02   5.4558869e+00   1.6260239e-01  -2.4906635e+08
   2.0306769e-10  -4.4898740e-02   5.4470387e+00   1.6550913e-01  -2.4788406e+08
   2.0406802e-10  -4.4651364e-02   5.4381551e+00   1.6845080e-01  -2.4670492e+08
   2.0506836e-10  -4.4405165e-02   5.4292366e+00   1.7142748e-01  -2.4552895e+08
   2.0606869e-10  -4.4160142e-02   5.4202836e+00   1.7443924e-01  -2.4435616e+08
   2.0706902e-10  -4.3916291e-02   5.4112967e+00   1.7748612e-01  -2.4318658e+08
   2.0806936e-10  -4.3673608e-02   5.4022764e+00   1.8056819e-01  -2.4202022e+08
   2.0906969e-10  -4.3432090e-02   5.3932230e+00   1.8368548e-01  -2.4085711e+08
   2.1007002e-10  -4.3191734e-02   5.3841372e+00   1.8683805e-01  -2.3969726e+08
   2.1107036e-10  -4.2952537e-02   5.3750193e+00   1.9002591e-01  -2.3854070e+08
   2.1207069e-10  -4.2714496e-02   5.3658700e+00   1.9324910e-01  -2.3738744e+08
   2.1307102e-10  -4.2477606e-02   5.3566897e+00   1.9650763e-01  -2.3623749e+08
   2.1407136e-10  -4.2241865e-02   5.3474789e+00   1.9980152e-01  -2.3509089e+08
   2.1507169e-10  -4.2007270e-02   5.3382382e+00   2.0313078e-01  -2.3394764e+08
   2.1607202e-10  -4.1773817e-02   5.3289680e+00   2.0649539e-01  -2.3280776e+08
   2.1707236e-10  -4.1541503e-02   5.3196689e+00   2.0989537e-01  -2.3167127e+08
   2.1807269e-10  -4.1310323e-02   5.3103414e+00   2.1333068e-01  -2.3053819e+08
   2.1907302e-10  -4.1080276e-02   5.3009860e+00   2.1680131e-01  -2.2940854e+08
   2.2007336e-10  -4.0851357e-02   5.2916034e+00   2.2030724e-01  -2.2828232e+08
   2.2107369e-10  -4.0623564e-02   5.2821939e+00   2.2384843e-01  -2.2715956e+08
   2.2207402e-10  -4.0396891e-02   5.2727582e+00   2.2742483e-01  -2.2604027e+08
   2.2307436e-10  -4.0171337e-02   5.2632968e+00   2.3103640e-01  -2.2492447e+08
   2.2407469e-10  -3.9946898e-02   5.2538103e+00   2.3468310e-01  -2.2381217e+08
   2.2507503e-10  -3.9723569e-02   5.2442992e+00   2.3836484e-01  -2.2270338e+08
   2.2607536e-10  -3.9501348e-02   5.2347640e+00   2.4208157e-01  -2.2159813e+08
   2.2707569e-10  -3.9280231e-02   5.2252054e+00   2.4583322e-01  -2.2049643e+08
   2.2807603e-10  -3.9060214e-02   5.2156238e+00   2.4961970e-01  -2.1939828e+08
   2.2907636e-10  -3.8841294e-02   5.2060199e+00   2.5344092e-01  -2.1830371e+08
   2.3007669e-10  -3.8623468e-02   5.1963941e+00   2.5729680e-01  -2.1721273e+08
   2.3107703e-10  -3.8406731e-02   5.1867471e+00   2.6118722e-01  -2.1612535e+08
   2.3207736e-10  -3.8191080e-02   5.1770795e+00   2.6511209e-01  -2.1504157e+08
   2.3307769e-10  -3.7976512e-02   5.1673917e+00   2.6907128e-01  -2.1396143e+08
   2.3407803e-10  -3.7763022e-02   5.1576845e+00   2.7306469e-01  -2.1288492e+08
   2.3507836e-10  -3.7550608e-02   5.1479582e+00   2.7709218e-01  -2.1181206e+08
   2.3607869e-10  -3.7339265e-02   5.1382136e+00   2.8115361e-01  -2.1074286e+08
   2.3707903e-10  -3.7128990e-02   5.1284512e+00   2.8524886e-01  -2.0967734e+08
   2.3807936e-10  -3.6919780e-02   5.1186715e+00   2.8937776e-01  -2.0861549e+08
   2.3907969e-10  -3.6711629e-02   5.1088752e+00   2.9354018e-01  -2.0755735e+08
   2.4008003e-10  -3.6504536e-02   5.0990628e+00   2.9773596e-01  -2.0650290e+08
   2.4108036e-10  -3.6298495e-02   5.0892349e+00   3.0196492e-01  -2.0545217e+08
   2.4208069e-10  -3.6093504e-02   5.0793921e+00   3.0622691e-01  -2.0440516e+08
   2.4308103e-10  -3.5889559e-02   5.0695349e+00   3.1052173e-01  -2.0336188e+08
   2.4408136e-10  -3.5686655e-02   5.0596640e+00   3.1484922e-01  -2.0232235e+08
   2.4508169e-10  -3.5484789e-02   5.0497799e+00   3.1920918e-01  -2.0128656e+08
   2.4608203e-10  -3.5283958e-02   5.0398831e+00   3.2360142e-01  -2.0025454e+08
   2.4708236e-10  -3.5084158e-02   5.0299744e+00   3.2802574e-01  -1.9922628e+08
   2.4808269e-10  -3.4885384e-02   5.0200541e+00   3.3248193e-01  -1.9820180e+08
   2.4908303e-10  -3.4687633e-02   5.0101231e+00   3.3696978e-01  -1.9718110e+08
   2.5008336e-10  -3.4490902e-02   5.0001817e+00   3.4148908e-01  -1.9616418e+08
   2.5108369e-10  -3.4295186e-02   4.9902306e+00   3.4603961e-01  -1.9515107e+08
   2.5208403e-10  -3.4100481e-02   4.9802703e+00   3.5062113e-01  -1.9414175e+08
   2.5308436e-10  -3.3906785e-02   4.9703015e+00   3.5523342e-01  -1.9313625e+08
   2.5408469e-10  -3.3714092e-02   4.9603246e+00   3.5987623e-01  -1.9213456e+08
   2.5508503e-10  -3.3522400e-02   4.9503404e+00   3.6454933e-01  -1.9113669e+08
   2.5608536e-10  -3.3331704e-02   4.9403492e+00   3.6925246e-01  -1.9014265e+08
   2.5708570e-10  -3.3142001e-02   4.9303518e+00   3.7398538e-01  -1.8915243e+08
   2.5808603e-10  -3.2953286e-02   4.9203487e+00   3.7874782e-01  -1.8816606e+08
   2.5908636e-10  -3.2765557e-02   4.9103404e+00   3.8353953e-01  -1.8718352e+08
   2.6008670e-10  -3.2578808e-02   4.9003275e+00   3.8836023e-01  -1.8620482e+08
   2.6108703e-10  -3.2393036e-02   4.8903105e+00   3.9320966e-01  -1.8522998e+08
   2.6208736e-10  -3.2208238e-02   4.8802901e+00   3.9808753e-01  -1.8425898e+08
   2.6308770e-10  -3.2024409e-02   4.8702668e+00   4.0299357e-01  -1.8329184e+08
   2.6408803e-10  -3.1841546e-02   4.8602411e+00   4.0792750e-01  -1.8232856e+08
   2.6508836e-10  -3.1659645e-02   4.8502136e+00   4.1288902e-01  -1.8136913e+08
   2.6608870e-10  -3.1478701e-02   4.8401849e+00   4.1787785e-01  -1.8041357e+08
   2.6708903e-10  -3.1298712e-02   4.8301554e+00   4.2289367e-01  -1.7946187e+08
   2.6808936e-10  -3.1119672e-02   4.8201257e+00   4.2793620e-01  -1.7851404e+08
   2.6908970e-10  -3.0941579e-02   4.8100964e+00   4.3300514e-01  -1.7757008e+08
   2.7009003e-10  -3.0764428e-02   4.8000680e+00   4.3810016e-01  -1.7662999e+08
   2.7109036e-10  -3.0588216e-02   4.7900411e+00   4.4322096e-01  -1.7569376e+08
   2.7209070e-10  -3.0412939e-02   4.7800161e+00   4.4836723e-01  -1.7476141e+08
   2.7309103e-10  -3.0238592e-02   4.7699937e+00   4.5353864e-01  -1.7383293e+08
   2.7409136e-10  -3.0065172e-02   4.7599742e+00   4.5873488e-01  -1.7290832e+08
   2.7509170e-10  -2.9892675e-02   4.7499583e+00   4.6395561e-01  -1.7198757e+08
   2.7609203e-10  -2.9721097e-02   4.7399465e+00   4.6920052e-01  -1.7107071e+08
   2.7709236e-10  -2.9550435e-02   4.7299392e+00   4.7446927e-01  -1.7015771e+08
   2.7809270e-10  -2.9380684e-02   4.7199370e+00   4.7976152e-01  -1.6924857e+08
   2.7909303e-10  -2.9211841e-02   4.7099404e+00   4.8507695e-01  -1.6834331e+08
   2.8009336e-10  -2.9043901e-02   4.6999500e+00   4.9041521e-01  -1.6744192e+08
   2.8109370e-10  -2.8876861e-02   4.6899661e+00   4.9577596e-01  -1.6654438e+08
   2.8209403e-10  -2.8710717e-02   4.6799893e+00   5.0115885e-01  -1.6565072e+08
   2.8309436e-10  -2.8545465e-02   4.6700201e+00   5.0656354e-01  -1.6476091e+08
   2.8409470e-10  -2.8381101e-02   4.6600589e+00   5.1198969e-01  -1.6387496e+08
   2.8509503e-10  -2.8217621e-02   4.6501063e+00   5.1743694e-01  -1.6299287e+08
   2.8609537e-10  -2.8055022e-02   4.6401628e+00   5.2290494e-01  -1.6211463e+08
   2.8709570e-10  -2.7893300e-02   4.6302287e+00   5.2839333e-01  -1.6124024e+08
   2.8809603e-10  -2.7732450e-02   4.6203046e+00   5.3390176e-01  -1.6036969e+08
   2.8909637e-10  -2.7572469e-02   4.6103909e+00   5.3942988e-01  -1.5950299e+08
   2.9009670e-10  -2.7413354e-02   4.6004882e+00   5.4497732e-01  -1.5864013e+08
   2.9109703e-10  -2.7255099e-02   4.5905967e+00   5.5054372e-01  -1.5778110e+08
   2.9209737e-10  -2.7097702e-02   4.5807171e+00   5.5612872e-01  -1.5692591e+08
   2.9309770e-10  -2.6941159e-02   4.5708498e+00   5.6173196e-01  -1.5607454e+08
   2.9409803e-10  -2.6785465e-02   4.5609951e+00   5.6735307e-01  -1.5522699e+08
   2.9509837e-10  -2.6630617e-02   4.5511535e+00   5.7299169e-01  -1.5438326e+08
   2.9609870e-10  -2.6476612e-02   4.5413255e+00   5.7864745e-01  -1.5354334e+08
   2.9709903e-10  -2.6323444e-02   4.5315115e+00   5.8431999e-01  -1.5270723e+08
   2.9809937e-10  -2.6171111e-02   4.5217119e+00   5.9000893e-01  -1.5187492e+08
   2.9909970e-10  -2.6019609e-02   4.5119271e+00   5.9571392e-01  -1.5104641e+08
   3.0010003e-10  -2.5868933e-02   4.5021576e+00   6.0143457e-01  -1.5022168e+08
   3.0110037e-10  -2.5719081e-02   4.4924037e+00   6.0717053e-01  -1.4940074e+08
   3.0210070e-10  -2.5570048e-02   4.4826658e+00   6.1292141e-01  -1.4858358e+08
   3.0310103e-10  -2.5421831e-02   4.4729444e+00   6.1868686e-01  -1.4777019e+08
   3.0410137e-10  -2.5274425e-02   4.4632398e+00   6.2446650e-01  -1.4696056e+08
   3.0510170e-10  -2.5127827e-02   4.4535525e+00   6.3025996e-01  -1.4615469e+08
   3.0610203e-10  -2.4982034e-02   4.4438827e+00   6.3606687e-01  -1.4535258e+08
   3.0710237e-10  -2.4837041e-02   4.4342309e+00   6.4188686e-01  -1.4455420e+08
   3.0810270e-10  -2.4692844e-02   4.4245975e+00   6.4771957e-01  -1.4375957e+08
   3.0910303e-10  -2.4549441e-02   4.4149827e+00   6.5356461e-01  -1.4296866e+08
   3.1010337e-10  -2.4406827e-02   4.4053871e+00   6.5942163e-01  -1.4218147e+08
   3.1110370e-10  -2.4264999e-02   4.3958108e+00   6.6529025e-01  -1.4139800e+08
   3.1210403e-10  -2.4123952e-02   4.3862544e+00   6.7117011e-01  -1.4061824e+08
   3.1310437e-10  -2.3983683e-02   4.3767181e+00   6.7706083e-01  -1.3984217e+08
   3.1410470e-10  -2.3844189e-02   4.3672022e+00   6.8296206e-01  -1.3906979e+08
   3.1510504e-10  -2.3705466e-02   4.3577072e+00   6.8887342e-01  -1.3830110e+08
   3.1610537e-10  -2.3567510e-02   4.3482333e+00   6.9479455e-01  -1.3753607e+08
   3.1710570e-10  -2.3430317e-02   4.3387808e+00   7.0072509e-01  -1.3677472e+08
   3.1810604e-10  -2.3293884e-02   4.3293501e+00   7.0666467e-01  -1.3601701e+08
   3.1910637e-10  -2.3158207e-02   4.3199415e+00   7.1261293e-01  -1.3526296e+08
   3.2010670e-10  -2.3023282e-02   4.3105553e+00   7.1856950e-01  -1.3451254e+08
   3.2110704e-10  -2.2889106e-02   4.3011917e+00   7.2453404e-01  -1.3376575e+08
   3.2210737e-10  -2.2755676e-02   4.2918512e+00   7.3050618e-01  -1.3302258e+08
   3.2310770e-10  -2.2622987e-02   4.2825340e+00   7.3648556e-01  -1.3228302e+08
   3.2410804e-10  -2.2491036e-02   4.2732403e+00   7.4247183e-01  -1.3154706e+08
   3.2510837e-10  -2.2359819e-02   4.2639705e+00   7.4846463e-01  -1.3081470e+08
   3.2610870e-10  -2.2229333e-02   4.2547248e+00   7.5446362e-01  -1.3008591e+08
   3.2710904e-10  -2.2099574e-02   4.2455035e+00   7.6046843e-01  -1.2936069e+08
   3.2810937e-10  -2.1970539e-02   4.2363069e+00   7.6647872e-01  -1.2863904e+08
   3.2910970e-10  -2.1842224e-02   4.2271353e+00   7.7249415e-01  -1.2792094e+08
   3.3011004e-10  -2.1714625e-02   4.2179888e+00   7.7851436e-01  -1.2720638e+08
   3.3111037e-10  -2.1587740e-02   4.2088677e+00   7.8453901e-01  -1.2649535e+08
   3.3211070e-10  -2.1461563e-02   4.1997724e+00   7.9056776e-01  -1.2578784e+08
   3.3311104e-10  -2.1336093e-02   4.1907029e+00   7.9660028e-01  -1.2508384e+08
   3.3411137e-10  -2.1211325e-02   4.1816597e+00   8.0263621e-01  -1.2438334e+08
   3.3511170e-10  -2.1087256e-02   4.1726428e+00   8.0867523e-01  -1.2368633e+08
   3.3611204e-10  -2.0963883e-02   4.1636525e+00   8.1471701e-01  -1.2299279e+08
   3.3711237e-10  -2.0841201e-02   4.1546891e+00   8.2076120e-01  -1.2230273e+08
   3.3811270e-10  -2.0719208e-02   4.1457527e+00   8.2680748e-01  -1.2161612e+08
   3.3911304e-10  -2.0597900e-02   4.1368436e+00   8.3285552e-01  -1.2093296e+08
   3.4011337e-10  -2.0477274e-02   4.1279620e+00   8.3890500e-01  -1.2025323e+08
   3.4111370e-10  -2.0357326e-02   4.1191080e+00   8.4495559e-01  -1.1957693e+08
   3.4211404e-10  -2.0238053e-02   4.1102819e+00   8.5100698e-01  -1.1890403e+08
   3.4311437e-10  -2.0119450e-02   4.1014839e+00   8.5705884e-01  -1.1823454e+08
   3.4411470e-10  -2.0001516e-02   4.0927141e+00   8.6311087e-01  -1.1756844e+08
   3.4511504e-10  -1.9884247e-02   4.0839727e+00   8.6916273e-01  -1.1690572e+08
   3.4611537e-10  -1.9767638e-02   4.0752600e+00   8.7521414e-01  -1.1624636e+08
   3.4711571e-10  -1.9651688e-02   4.0665760e+00   8.8126477e-01  -1.1559036e+08
   3.4811604e-10  -1.9536392e-02   4.0579210e+00   8.8731433e-01  -1.1493770e+08
   3.4911637e-10  -1.9421747e-02   4.0492950e+00   8.9336250e-01  -1.1428838e+08
   3.5011671e-10  -1.9307750e-02   4.0406984e+00   8.9940899e-01  -1.1364237e+08
   3.5111704e-10  -1.9194397e-02   4.0321311e+00   9.0545350e-01  -1.1299968e+08
   3.5211737e-10  -1.9081686e-02   4.0235934e+00   9.1149574e-01  -1.1236028e+08
   3.5311771e-10  -1.8969612e-02   4.0150855e+00   9.1753542e-01  -1.1172416e+08
   3.5411804e-10  -1.8858173e-02   4.0066073e+00   9.2357224e-01  -1.1109132e+08
   3.5511837e-10  -1.8747366e-02   3.9981592e+00   9.2960591e-01  -1.1046174e+08
   3.5611871e-10  -1.8637186e-02   3.9897412e+00   9.3563616e-01  -1.0983541e+08
   3.5711904e-10  -1.8527632e-02   3.9813535e+00   9.4166270e-01  -1.0921232e+08
   3.5811937e-10  -1.8418699e-02   3.9729961e+00   9.4768526e-01  -1.0859246e+08
   3.5911971e-10  -1.8310384e-02   3.9646692e+00   9.5370355e-01  -1.0797580e+08
   3.6012004e-10  -1.8202685e-02   3.9563729e+00   9.5971731e-01  -1.0736235e+08
   3.6112037e-10  -1.8095597e-02   3.9481073e+00   9.6572627e-01  -1.0675209e+08
   3.6212071e-10  -1.7989119e-02   3.9398726e+00   9.7173016e-01  -1.0614500e+08
   3.6312104e-10  -1.7883246e-02   3.9316687e+00   9.7772871e-01  -1.0554108e+08
   3.6412137e-10  -1.7777975e-02   3.9234959e+00   9.8372167e-01  -1.0494031e+08
   3.6512171e-10  -1.7673304e-02   3.9153542e+00   9.8970877e-01  -1.0434268e+08
   3.6612204e-10  -1.7569229e-02   3.9072437e+00   9.9568977e-01  -1.0374818e+08
   3.6712237e-10  -1.7465747e-02   3.8991645e+00   1.0016644e+00  -1.0315679e+08
   3.6812271e-10  -1.7362855e-02   3.8911167e+00   1.0076324e+00  -1.0256851e+08
   3.6912304e-10  -1.7260550e-02   3.8831004e+00   1.0135936e+00  -1.0198332e+08
   3.7012337e-10  -1.7158829e-02   3.8751155e+00   1.0195477e+00  -1.0140121e+08
   3.7112371e-10  -1.7057688e-02   3.8671623e+00   1.0254944e+00  -1.0082216e+08
   3.7212404e-10  -1.6957125e-02   3.8592407e+00   1.0314336e+00  -1.0024617e+08
   3.7312437e-10  -1.6857137e-02   3.8513509e+00   1.0373649e+00  -9.9673216e+07
   3.7412471e-10  -1.6757720e-02   3.8434928e+00   1.0432882e+00  -9.9103293e+07
   3.7512504e-10  -1.6658872e-02   3.8356666e+00   1.0492032e+00  -9.8536387e+07
   3.7612538e-10  -1.6560589e-02   3.8278723e+00   1.0551098e+00  -9.7972485e+07
   3.7712571e-10  -1.6462869e-02   3.8201100e+00   1.0610076e+00  -9.7411575e+07
   3.7812604e-10  -1.6365709e-02   3.8123796e+00   1.0668964e+00  -9.6853644e+07
   3.7912638e-10  -1.6269105e-02   3.8046813e+00   1.0727762e+00  -9.6298679e+07
   3.8012671e-10  -1.6173054e-02   3.7970151e+00   1.0786465e+00  -9.5746669e+07
   3.8112704e-10  -1.6077554e-02   3.7893810e+00   1.0845073e+00  -9.5197601e+07
   3.8212738e-10  -1.5982602e-02   3.7817790e+00   1.0903583e+00  -9.4651462e+07
   3.8312771e-10  -1.5888195e-02   3.7742092e+00   1.0961993e+00  -9.4108239e+07
   3.8412804e-10  -1.5794330e-02   3.7666717e+00   1.1020301e+00  -9.3567921e+07
   3.8512838e-10  -1.5701003e-02   3.7591663e+00   1.1078505e+00  -9.3030495e+07
   3.8612871e-10  -1.5608213e-02   3.7516932e+00   1.1136604e+00  -9.2495948e+07
   3.8712904e-10  -1.5515956e-02   3.7442524e+00   1.1194594e+00  -9.1964269e+07
   3.8812938e-10  -1.5424229e-02   3.7368438e+00   1.1252475e+00  -9.1435443e+07
   3.8912971e-10  -1.5333030e-02   3.7294676e+00   1.1310245e+00  -9.0909460e+07
   3.9013004e-10  -1.5242356e-02   3.7221236e+00   1.1367901e+00  -9.0386307e+07
   3.9113038e-10  -1.5152203e-02   3.7148120e+00   1.1425442e+00  -8.9865970e+07
   3.9213071e-10  -1.5062570e-02   3.7075326e+00   1.1482865e+00  -8.9348438e+07
   3.9313104e-10  -1.4973452e-02   3.7002856e+00   1.1540171e+00  -8.8833699e+07
   3.9413138e-10  -1.4884848e-02   3.6930709e+00   1.1597355e+00  -8.8321739e+07
   3.9513171e-10  -1.4796755e-02   3.6858885e+00   1.1654418e+00  -8.7812547e+07
   3.9613204e-10  -1.4709170e-02   3.6787383e+00   1.1711357e+00  -8.7306110e+07
   3.9713238e-10  -1.4622090e-02   3.6716205e+00   1.1768170e+00  -8.6802416e+07
   3.9813271e-10  -1.4535512e-02   3.6645349e+00   1.1824857e+00  -8.6301453e+07
   3.9913304e-10  -1.4449434e-02   3.6574816e+00   1.1881415e+00  -8.5803207e+07
   4.0013338e-10  -1.4363854e-02   3.6504606e+00   1.1937842e+00  -8.5307667e+07
   4.0113371e-10  -1.4278767e-02   3.6434717e+00   1.1994138e+00  -8.4814820e+07
   4.0213404e-10  -1.4194172e-02   3.6365151e+00   1.2050301e+00  -8.4324655e+07
   4.0313438e-10  -1.4110066e-02   3.6295906e+00   1.2106330e+00  -8.3837158e+07
   4.0413471e-10  -1.4026446e-02   3.6226983e+00   1.2162222e+00  -8.3352318e+07
   4.0513505e-10  -1.3943310e-02   3.6158380e+00   1.2217976e+00  -8.2870123e+07
   4.0613538e-10  -1.3860655e-02   3.6090099e+00   1.2273592e+00  -8.2390560e+07
   4.0713571e-10  -1.3778478e-02   3.6022138e+00   1.2329068e+00  -8.1913616e+07
   4.0813605e-10  -1.3696777e-02   3.5954497e+00   1.2384402e+00  -8.1439281e+07
   4.0913638e-10  -1.3615549e-02   3.5887176e+00   1.2439593e+00  -8.0967541e+07
   4.1013671e-10  -1.3534792e-02   3.5820175e+00   1.2494640e+00  -8.0498384e+07
   4.1113705e-10  -1.3454503e-02   3.5753492e+00   1.2549542e+00  -8.0031799e+07
   4.1213738e-10  -1.3374679e-02   3.5687128e+00   1.2604297e+00  -7.9567774e+07
   4.1313771e-10  -1.3295318e-02   3.5621081e+00   1.2658904e+00  -7.9106295e+07
   4.1413805e-10  -1.3216417e-02   3.5555353e+00   1.2713362e+00  -7.8647352e+07
   4.1513838e-10  -1.3137974e-02   3.5489941e+00   1.2767670e+00  -7.8190933e+07
   4.1613871e-10  -1.3059986e-02   3.5424846e+00   1.2821827e+00  -7.7737024e+07
   4.1713905e-10  -1.2982451e-02   3.5360067e+00   1.2875832e+00  -7.7285615e+07
   4.1813938e-10  -1.2905367e-02   3.5295603e+00   1.2929683e+00  -7.6836694e+07
   4.1913971e-10  -1.2828730e-02   3.5231454e+00   1.2983380e+00  -7.6390248e+07
   4.2014005e-10  -1.2752538e-02   3.5167619e+00   1.3036921e+00  -7.5946266e+07
   4.2114038e-10  -1.2676790e-02   3.5104098e+00   1.3090306e+00  -7.5504735e+07
   4.2214071e-10  -1.2601481e-02   3.5040890e+00   1.3143533e+00  -7.5065645e+07
   4.2314105e-10  -1.2526611e-02   3.4977994e+00   1.3196602e+00  -7.4628983e+07
   4.2414138e-10  -1.2452176e-02   3.4915410e+00   1.3249511e+00  -7.4194738e+07
   4.2514171e-10  -1.2378175e-02   3.4853138e+00   1.3302260e+00  -7.3762898e+07
   4.2614205e-10  -1.2304604e-02   3.4791175e+00   1.3354849e+00  -7.3333450e+07
   4.2714238e-10  -1.2231461e-02   3.4729523e+00   1.3407275e+00  -7.2906385e+07
   4.2814271e-10  -1.2158745e-02   3.4668179e+00   1.3459538e+00  -7.2481689e+07
   4.2914305e-10  -1.2086452e-02   3.4607143e+00   1.3511638e+00  -7.2059352e+07
   4.3014338e-10  -1.2014580e-02   3.4546415e+00   1.3563573e+00  -7.1639361e+07
   4.3114371e-10  -1.1943127e-02   3.4485994e+00   1.3615343e+00  -7.1221706e+07
   4.3214405e-10  -1.1872091e-02   3.4425879e+00   1.3666947e+00  -7.0806375e+07
   4.3314438e-10  -1.1801469e-02   3.4366069e+00   1.3718385e+00  -7.0393356e+07
   4.3414471e-10  -1.1731260e-02   3.4306563e+00   1.3769655e+00  -6.9982638e+07
   4.3514505e-10  -1.1661459e-02   3.4247361e+00   1.3820757e+00  -6.9574209e+07
   4.3614538e-10  -1.1592067e-02   3.4188462e+00   1.3871691e+00  -6.9168059e+07
   4.3714572e-10  -1.1523079e-02   3.4129865e+00   1.3922455e+00  -6.8764176e+07
   4.3814605e-10  -1.1454494e-02   3.4071569e+00   1.3973049e+00  -6.8362548e+07
   4.3914638e-10  -1.1386310e-02   3.4013573e+00   1.4023473e+00  -6.7963165e+07
   4.4014672e-10  -1.1318524e-02   3.3955877e+00   1.4073725e+00  -6.7566015e+07
   4.4114705e-10  -1.1251134e-02   3.3898479e+00   1.4123806e+00  -6.7171087e+07
   4.4214738e-10  -1.1184138e-02   3.3841379e+00   1.4173715e+00  -6.6778370e+07
   4.4314772e-10  -1.1117534e-02   3.3784576e+00   1.4223451e+00  -6.6387853e+07
   4.4414805e-10  -1.1051320e-02   3.3728068e+00   1.4273013e+00  -6.5999525e+07
   4.4514838e-10  -1.0985492e-02   3.3671856e+00   1.4322402e+00  -6.5613375e+07
   4.4614872e-10  -1.0920050e-02   3.3615938e+00   1.4371617e+00  -6.5229391e+07
   4.4714905e-10  -1.0854991e-02   3.3560313e+00   1.4420657e+00  -6.4847563e+07
   4.4814938e-10  -1.0790313e-02   3.3504980e+00   1.4469523e+00  -6.4467881e+07
   4.4914972e-10  -1.0726013e-02   3.3449938e+00   1.4518212e+00  -6.4090332e+07
   4.5015005e-10  -1.0662090e-02   3.3395187e+00   1.4566726e+00  -6.3714906e+07
   4.5115038e-10  -1.0598542e-02   3.3340725e+00   1.4615064e+00  -6.3341594e+07
   4.5215072e-10  -1.0535366e-02   3.3286551e+00   1.4663225e+00  -6.2970382e+07
   4.5315105e-10  -1.0472560e-02   3.3232665e+00   1.4711209e+00  -6.2601262e+07
   4.5415138e-10  -1.0410122e-02   3.3179065e+00   1.4759016e+00  -6.2234222e+07
   4.5515172e-10  -1.0348050e-02   3.3125751e+00   1.4806646e+00  -6.1869252e+07
   4.5615205e-10  -1.0286343e-02   3.3072721e+00   1.4854098e+00  -6.1506341e+07
   4.5715238e-10  -1.0224997e-02   3.3019975e+00   1.4901372e+00  -6.1145479e+07
   4.5815272e-10  -1.0164011e-02   3.2967511e+00   1.4948467e+00  -6.0786654e+07
   4.5915305e-10  -1.0103384e-02   3.2915329e+00   1.4995384e+00  -6.0429858e+07
   4.6015338e-10  -1.0043112e-02   3.2863427e+00   1.5042122e+00  -6.0075078e+07
   4.6115372e-10  -9.9831936e-03   3.2811804e+00   1.5088681e+00  -5.9722305e+07
   4.6215405e-10  -9.9236274e-03   3.2760460e+00   1.5135061e+00  -5.9371528e+07
   4.6315438e-10  -9.8644111e-03   3.2709393e+00   1.5181262e+00  -5.9022738e+07
   4.6415472e-10  -9.8055427e-03   3.2658602e+00   1.5227283e+00  -5.8675923e+07
   4.6515505e-10  -9.7470202e-03   3.2608087e+00   1.5273125e+00  -5.8331074e+07
   4.6615539e-10  -9.6888416e-03   3.2557846e+00   1.5318787e+00  -5.7988180e+07
   4.6715572e-10  -9.6310051e-03   3.2507878e+00   1.5364269e+00  -5.7647231e+07
   4.6815605e-10  -9.5735086e-03   3.2458182e+00   1.5409571e+00  -5.7308217e+07
   4.6915639e-10  -9.5163502e-03   3.2408757e+00   1.5454693e+00  -5.6971128e+07
   4.7015672e-10  -9.4595281e-03   3.2359603e+00   1.5499635e+00  -5.6635955e+07
   4.7115705e-10  -9.4030403e-03   3.2310717e+00   1.5544396e+00  -5.6302686e+07
   4.7215739e-10  -9.3468848e-03   3.2262099e+00   1.5588978e+00  -5.5971312e+07
   4.7315772e-10  -9.2910599e-03   3.2213748e+00   1.5633379e+00  -5.5641823e+07
   4.7415805e-10  -9.2355637e-03   3.2165662e+00   1.5677600e+00  -5.5314209e+07
   4.7515839e-10  -9.1803941e-03   3.2117841e+00   1.5721641e+00  -5.4988460e+07
   4.7615872e-10  -9.1255495e-03   3.2070284e+00   1.5765501e+00  -5.4664568e+07
   4.7715905e-10  -9.0710280e-03   3.2022989e+00   1.5809181e+00  -5.4342520e+07
   4.7815939e-10  -9.0168276e-03   3.1975955e+00   1.5852681e+00  -5.4022309e+07
   4.7915972e-10  -8.9629467e-03   3.1929182e+00   1.5896001e+00  -5.3703925e+07
   4.8016005e-10  -8.9093833e-03   3.1882668e+00   1.5939141e+00  -5.3387357e+07
   4.8116039e-10  -8.8561356e-03   3.1836412e+00   1.5982100e+00  -5.3072596e+07
   4.8216072e-10  -8.8032019e-03   3.1790412e+00   1.6024880e+00  -5.2759632e+07
   4.8316105e-10  -8.7505803e-03   3.1744669e+00   1.6067480e+00  -5.2448457e+07
   4.8416139e-10  -8.6982691e-03   3.1699181e+00   1.6109899e+00  -5.2139061e+07
   4.8516172e-10  -8.6462664e-03   3.1653946e+00   1.6152140e+00  -5.1831433e+07
   4.8616205e-10  -8.5945706e-03   3.1608964e+00   1.6194200e+00  -5.1525566e+07
   4.8716239e-10  -8.5431799e-03   3.1564234e+00   1.6236082e+00  -5.1221448e+07
   4.8816272e-10  -8.4920925e-03   3.1519753e+00   1.6277784e+00  -5.0919072e+07
   4.8916305e-10  -8.4413067e-03   3.1475522e+00   1.6319306e+00  -5.0618428e+07
   4.9016339e-10  -8.3908207e-03   3.1431540e+00   1.6360650e+00  -5.0319506e+07
   4.9116372e-10  -8.3406329e-03   3.1387804e+00   1.6401815e+00  -5.0022297e+07
   4.9216405e-10  -8.2907415e-03   3.1344314e+00   1.6442802e+00  -4.9726793e+07
   4.9316439e-10  -8.2411449e-03   3.1301069e+00   1.6483610e+00  -4.9432984e+07
   4.9416472e-10  -8.1918413e-03   3.1258068e+00   1.6524240e+00  -4.9140861e+07
   4.9516506e-10  -8.1428290e-03   3.1215310e+00   1.6564692e+00  -4.8850415e+07
   4.9616539e-10  -8.0941064e-03   3.1172793e+00   1.6604966e+00  -4.8561637e+07
   4.9716572e-10  -8.0456719e-03   3.1130516e+00   1.6645062e+00  -4.8274518e+07
   4.9816606e-10  -7.9975237e-03   3.1088479e+00   1.6684981e+00  -4.7989050e+07
   4.9916639e-10  -7.9496602e-03   3.1046680e+00   1.6724723e+00  -4.7705222e+07
   5.0016672e-10  -7.9020799e-03   3.1005118e+00   1.6764289e+00  -4.7423027e+07
   5.0116706e-10  -7.8547809e-03   3.0963792e+00   1.6803678e+00  -4.7142456e+07
   5.0216739e-10  -7.8077619e-03   3.0922701e+00   1.6842890e+00  -4.6863499e+07
   5.0316772e-10  -7.7610210e-03   3.0881844e+00   1.6881927e+00  -4.6586149e+07
   5.0416806e-10  -7.7145568e-03   3.0841219e+00   1.6920787e+00  -4.6310396e+07
   5.0516839e-10  -7.6683675e-03   3.0800826e+00   1.6959473e+00  -4.6036232e+07
   5.0616872e-10  -7.6224518e-03   3.0760664e+00   1.6997983e+00  -4.5763649e+07
   5.0716906e-10  -7.5768079e-03   3.0720731e+00   1.7036319e+00  -4.5492637e+07
   5.0816939e-10  -7.5314343e-03   3.0681026e+00   1.7074480e+00  -4.5223188e+07
   5.0916972e-10  -7.4863294e-03   3.0641549e+00   1.7112466e+00  -4.4955294e+07
   5.1017006e-10  -7.4414917e-03   3.0602297e+00   1.7150279e+00  -4.4688946e+07
   5.1117039e-10  -7.3969197e-03   3.0563271e+00   1.7187919e+00  -4.4424137e+07
   5.1217072e-10  -7.3526118e-03   3.0524468e+00   1.7225385e+00  -4.4160856e+07
   5.1317106e-10  -7.3085665e-03   3.0485888e+00   1.7262679e+00  -4.3899097e+07
   5.1417139e-10  -7.2647822e-03   3.0447530e+00   1.7299800e+00  -4.3638851e+07
   5.1517172e-10  -7.2212575e-03   3.0409393e+00   1.7336749e+00  -4.3380109e+07
   5.1617206e-10  -7.1779909e-03   3.0371475e+00   1.7373527e+00  -4.3122864e+07
   5.1717239e-10  -7.1349808e-03   3.0333775e+00   1.7410133e+00  -4.2867108e+07
   5.1817272e-10  -7.0922258e-03   3.0296293e+00   1.7446568e+00  -4.2612831e+07
   5.1917306e-10  -7.0497244e-03   3.0259028e+00   1.7482832e+00  -4.2360026e+07
   5.2017339e-10  -7.0074752e-03   3.0221977e+00   1.7518927e+00  -4.2108686e+07
   5.2117372e-10  -6.9654766e-03   3.0185141e+00   1.7554851e+00  -4.1858801e+07
   5.2217406e-10  -6.9237273e-03   3.0148517e+00   1.7590607e+00  -4.1610365e+07
   5.2317439e-10  -6.8822257e-03   3.0112106e+00   1.7626193e+00  -4.1363368e+07
   5.2417472e-10  -6.8409705e-03   3.0075906e+00   1.7661611e+00  -4.1117804e+07
   5.2517506e-10  -6.7999602e-03   3.0039915e+00   1.7696861e+00  -4.0873664e+07
   5.2617539e-10  -6.7591934e-03   3.0004133e+00   1.7731943e+00  -4.0630941e+07
   5.2717573e-10  -6.7186686e-03   2.9968559e+00   1.7766857e+00  -4.0389626e+07
   5.2817606e-10  -6.6783846e-03   2.9933192e+00   1.7801605e+00  -4.0149712e+07
   5.2917639e-10  -6.6383398e-03   2.9898030e+00   1.7836187e+00  -3.9911192e+07
   5.3017673e-10  -6.5985329e-03   2.9863073e+00   1.7870602e+00  -3.9674057e+07
   5.3117706e-10  -6.5589625e-03   2.9828319e+00   1.7904852e+00  -3.9438299e+07
   5.3217739e-10  -6.5196273e-03   2.9793768e+00   1.7938938e+00  -3.9203913e+07
   5.3317773e-10  -6.4805258e-03   2.9759418e+00   1.7972858e+00  -3.8970889e+07
   5.3417806e-10  -6.4416567e-03   2.9725268e+00   1.8006614e+00  -3.8739220e+07
   5.3517839e-10  -6.4030187e-03   2.9691318e+00   1.8040207e+00  -3.8508899e+07
   5.3617873e-10  -6.3646104e-03   2.9657566e+00   1.8073637e+00  -3.8279918e+07
   5.3717906e-10  -6.3264305e-03   2.9624012e+00   1.8106903e+00  -3.8052270e+07
   5.3817939e-10  -6.2884776e-03   2.9590653e+00   1.8140008e+00  -3.7825947e+07
   5.3917973e-10  -6.2507504e-03   2.9557490e+00   1.8172951e+00  -3.7600943e+07
   5.4018006e-10  -6.2132476e-03   2.9524521e+00   1.8205732e+00  -3.7377249e+07
   5.4118039e-10  -6.1759680e-03   2.9491745e+00   1.8238353e+00  -3.7154859e+07
   5.4218073e-10  -6.1389101e-03   2.9459161e+00   1.8270813e+00  -3.6933766e+07
   5.4318106e-10  -6.1020727e-03   2.9426768e+00   1.8303114e+00  -3.6713961e+07
   5.4418139e-10  -6.0654546e-03   2.9394566e+00   1.8335255e+00  -3.6495438e+07
   5.4518173e-10  -6.0290544e-03   2.9362552e+00   1.8367237e+00  -3.6278190e+07
   5.4618206e-10  -5.9928709e-03   2.9330726e+00   1.8399061e+00  -3.6062210e+07
   5.4718239e-10  -5.9569028e-03   2.9299088e+00   1.8430728e+00  -3.5847491e+07
   5.4818273e-10  -5.9211488e-03   2.9267635e+00   1.8462237e+00  -3.5634025e+07
   5.4918306e-10  -5.8856077e-03   2.9236368e+00   1.8493589e+00  -3.5421805e+07
   5.5018339e-10  -5.8502783e-03   2.9205285e+00   1.8524785e+00  -3.5210825e+07
   5.5118373e-10  -5.8151593e-03   2.9174385e+00   1.8555825e+00  -3.5001078e+07
   5.5218406e-10  -5.7802495e-03   2.9143667e+00   1.8586710e+00  -3.4792557e+07
   5.5318439e-10  -5.7455476e-03   2.9113130e+00   1.8617440e+00  -3.4585255e+07
   5.5418473e-10  -5.7110525e-03   2.9082773e+00   1.8648015e+00  -3.4379165e+07
   5.5518506e-10  -5.6767630e-03   2.9052595e+00   1.8678438e+00  -3.4174281e+07
   5.5618540e-10  -5.6426778e-03   2.9022595e+00   1.8708707e+00  -3.3970595e+07
   5.5718573e-10  -5.6087957e-03   2.8992773e+00   1.8738823e+00  -3.3768101e+07
   5.5818606e-10  -5.5751156e-03   2.8963127e+00   1.8768787e+00  -3.3566792e+07
   5.5918640e-10  -5.5416362e-03   2.8933656e+00   1.8798600e+00  -3.3366662e+07
   5.6018673e-10  -5.5083565e-03   2.8904360e+00   1.8828261e+00  -3.3167704e+07
   5.6118706e-10  -5.4752752e-03   2.8875237e+00   1.8857772e+00  -3.2969911e+07
   5.6218740e-10  -5.4423911e-03   2.8846286e+00   1.8887134e+00  -3.2773277e+07
   5.6318773e-10  -5.4097032e-03   2.8817507e+00   1.8916345e+00  -3.2577796e+07
   5.6418806e-10  -5.3772102e-03   2.8788899e+00   1.8945408e+00  -3.2383460e+07
   5.6518840e-10  -5.3449110e-03   2.8760460e+00   1.8974322e+00  -3.2190264e+07
   5.6618873e-10  -5.3128045e-03   2.8732190e+00   1.9003089e+00  -3.1998200e+07
   5.6718906e-10  -5.2808896e-03   2.8704087e+00   1.9031708e+00  -3.1807264e+07
   5.6818940e-10  -5.2491651e-03   2.8676151e+00   1.9060181e+00  -3.1617448e+07
   5.6918973e-10  -5.2176299e-03   2.8648381e+00   1.9088507e+00  -3.1428745e+07
   5.7019006e-10  -5.1862829e-03   2.8620776e+00   1.9116688e+00  -3.1241150e+07
   5.7119040e-10  -5.1551230e-03   2.8593336e+00   1.9144723e+00  -3.1054657e+07
   5.7219073e-10  -5.1241491e-03   2.8566058e+00   1.9172614e+00  -3.0869259e+07
   5.7319106e-10  -5.0933600e-03   2.8538942e+00   1.9200361e+00  -3.0684950e+07
   5.7419140e-10  -5.0627549e-03   2.8511988e+00   1.9227965e+00  -3.0501724e+07
   5.7519173e-10  -5.0323324e-03   2.8485194e+00   1.9255426e+00  -3.0319574e+07
   5.7619206e-10  -5.0020916e-03   2.8458560e+00   1.9282744e+00  -3.0138496e+07
   5.7719240e-10  -4.9720314e-03   2.8432084e+00   1.9309921e+00  -2.9958481e+07
   5.7819273e-10  -4.9421507e-03   2.8405766e+00   1.9336956e+00  -2.9779526e+07
   5.7919306e-10  -4.9124486e-03   2.8379605e+00   1.9363851e+00  -2.9601622e+07
   5.8019340e-10  -4.8829238e-03   2.8353600e+00   1.9390605e+00  -2.9424766e+07
   5.8119373e-10  -4.8535754e-03   2.8327750e+00   1.9417220e+00  -2.9248950e+07
   5.8219406e-10  -4.8244024e-03   2.8302055e+00   1.9443696e+00  -2.9074169e+07
   5.8319440e-10  -4.7954037e-03   2.8276512e+00   1.9470034e+00  -2.8900417e+07
   5.8419473e-10  -4.7665783e-03   2.8251122e+00   1.9496234e+00  -2.8727687e+07
   5.8519507e-10  -4.7379251e-03   2.8225884e+00   1.9522296e+00  -2.8555975e+07
   5.8619540e-10  -4.7094432e-03   2.8200796e+00   1.9548221e+00  -2.8385275e+07
   5.8719573e-10  -4.6811315e-03   2.8175859e+00   1.9574011e+00  -2.8215580e+07
   5.8819607e-10  -4.6529891e-03   2.8151070e+00   1.9599664e+00  -2.8046885e+07
   5.8919640e-10  -4.6250149e-03   2.8126429e+00   1.9625183e+00  -2.7879185e+07
   5.9019673e-10  -4.5972080e-03   2.8101936e+00   1.9650567e+00  -2.7712473e+07
   5.9119707e-10  -4.5695674e-03   2.8077590e+00   1.9675816e+00  -2.7546743e+07
   5.9219740e-10  -4.5420920e-03   2.8053389e+00   1.9700933e+00  -2.7381992e+07
   5.9319773e-10  -4.5147809e-03   2.8029333e+00   1.9725916e+00  -2.7218212e+07
   5.9419807e-10  -4.4876332e-03   2.8005421e+00   1.9750768e+00  -2.7055398e+07
   5.9519840e-10  -4.4606479e-03   2.7981652e+00   1.9775487e+00  -2.6893546e+07
   5.9619873e-10  -4.4338240e-03   2.7958026e+00   1.9800075e+00  -2.6732648e+07
   5.9719907e-10  -4.4071605e-03   2.7934541e+00   1.9824533e+00  -2.6572700e+07
   5.9819940e-10  -4.3806566e-03   2.7911197e+00   1.9848860e+00  -2.6413697e+07
   5.9919973e-10  -4.3543113e-03   2.7887993e+00   1.9873058e+00  -2.6255632e+07
   6.0020007e-10  -4.3281235e-03   2.7864928e+00   1.9897127e+00  -2.6098502e+07
   6.0120040e-10  -4.3020926e-03   2.7842001e+00   1.9921068e+00  -2.5942299e+07
   6.0220073e-10  -4.2762173e-03   2.7819212e+00   1.9944880e+00  -2.5787019e+07
   6.0320107e-10  -4.2504970e-03   2.7796560e+00   1.9968565e+00  -2.5632657e+07
   6.0420140e-10  -4.2249306e-03   2.7774043e+00   1.9992124e+00  -2.5479208e+07
   6.0520173e-10  -4.1995172e-03   2.7751662e+00   2.0015556e+00  -2.5326666e+07
   6.0620207e-10  -4.1742560e-03   2.7729415e+00   2.0038863e+00  -2.5175025e+07
   6.0720240e-10  -4.1491460e-03   2.7707302e+00   2.0062044e+00  -2.5024282e+07
   6.0820273e-10  -4.1241864e-03   2.7685322e+00   2.0085101e+00  -2.4874430e+07
   6.0920307e-10  -4.0993762e-03   2.7663474e+00   2.0108034e+00  -2.4725465e+07
   6.1020340e-10  -4.0747146e-03   2.7641757e+00   2.0130843e+00  -2.4577381e+07
   6.1120373e-10  -4.0502006e-03   2.7620170e+00   2.0153530e+00  -2.4430174e+07
   6.1220407e-10  -4.0258335e-03   2.7598714e+00   2.0176094e+00  -2.4283837e+07
   6.1320440e-10  -4.0016124e-03   2.7577386e+00   2.0198536e+00  -2.4138368e+07
   6.1420473e-10  -3.9775363e-03   2.7556187e+00   2.0220857e+00  -2.3993759e+07
   6.1520507e-10  -3.9536044e-03   2.7535115e+00   2.0243058e+00  -2.3850007e+07
   6.1620540e-10  -3.9298159e-03   2.7514170e+00   2.0265138e+00  -2.3707107e+07
   6.1720574e-10  -3.9061699e-03   2.7493352e+00   2.0287098e+00  -2.3565053e+07
   6.1820607e-10  -3.8826656e-03   2.7472658e+00   2.0308939e+00  -2.3423841e+07
   6.1920640e-10  -3.8593021e-03   2.7452089e+00   2.0330662e+00  -2.3283466e+07
   6.2020674e-10  -3.8360787e-03   2.7431644e+00   2.0352267e+00  -2.3143923e+07
   6.2120707e-10  -3.8129944e-03   2.7411322e+00   2.0373754e+00  -2.3005207e+07
   6.2220740e-10  -3.7900484e-03   2.7391123e+00   2.0395125e+00  -2.2867313e+07
   6.2320774e-10  -3.7672400e-03   2.7371045e+00   2.0416379e+00  -2.2730237e+07
   6.2420807e-10  -3.7445683e-03   2.7351088e+00   2.0437517e+00  -2.2593975e+07
   6.2520840e-10  -3.7220324e-03   2.7331252e+00   2.0458540e+00  -2.2458520e+07
   6.2620874e-10  -3.6996317e-03   2.7311535e+00   2.0479448e+00  -2.2323869e+07
   6.2720907e-10  -3.6773653e-03   2.7291937e+00   2.0500242e+00  -2.2190018e+07
   6.2820940e-10  -3.6552324e-03   2.7272457e+00   2.0520922e+00  -2.2056960e+07
   6.2920974e-10  -3.6332321e-03   2.7253095e+00   2.0541489e+00  -2.1924692e+07
   6.3021007e-10  -3.6113638e-03   2.7233849e+00   2.0561943e+00  -2.1793210e+07
   6.3121040e-10  -3.5896266e-03   2.7214720e+00   2.0582285e+00  -2.1662508e+07
   6.3221074e-10  -3.5680198e-03   2.7195706e+00   2.0602516e+00  -2.1532583e+07
   6.3321107e-10  -3.5465426e-03   2.7176807e+00   2.0622635e+00  -2.1403429e+07
   6.3421140e-10  -3.5251941e-03   2.7158021e+00   2.0642644e+00  -2.1275042e+07
   6.3521174e-10  -3.5039737e-03   2.7139350e+00   2.0662543e+00  -2.1147418e+07
   6.3621207e-10  -3.4828806e-03   2.7120791e+00   2.0682332e+00  -2.1020553e+07
   6.3721240e-10  -3.4619140e-03   2.7102344e+00   2.0702013e+00  -2.0894441e+07
   6.3821274e-10  -3.4410732e-03   2.7084008e+00   2.0721585e+00  -2.0769079e+07
   6.3921307e-10  -3.4203575e-03   2.7065783e+00   2.0741049e+00  -2.0644462e+07
   6.4021340e-10  -3.3997660e-03   2.7047668e+00   2.0760406e+00  -2.0520586e+07
   6.4121374e-10  -3.3792981e-03   2.7029663e+00   2.0779655e+00  -2.0397447e+07
   6.4221407e-10  -3.3589529e-03   2.7011767e+00   2.0798799e+00  -2.0275040e+07
   6.4321440e-10  -3.3387299e-03   2.6993978e+00   2.0817836e+00  -2.0153361e+07
   6.4421474e-10  -3.3186282e-03   2.6976297e+00   2.0836768e+00  -2.0032406e+07
   6.4521507e-10  -3.2986472e-03   2.6958723e+00   2.0855596e+00  -1.9912170e+07
   6.4621541e-10  -3.2787860e-03   2.6941256e+00   2.0874319e+00  -1.9792650e+07
   6.4721574e-10  -3.2590441e-03   2.6923893e+00   2.0892938e+00  -1.9673842e+07
   6.4821607e-10  -3.2394207e-03   2.6906636e+00   2.0911454e+00  -1.9555740e+07
   6.4921641e-10  -3.2199150e-03   2.6889483e+00   2.0929867e+00  -1.9438341e+07
   6.5021674e-10  -3.2005265e-03   2.6872434e+00   2.0948178e+00  -1.9321642e+07
   6.5121707e-10  -3.1812543e-03   2.6855488e+00   2.0966386e+00  -1.9205637e+07
   6.5221741e-10  -3.1620978e-03   2.6838645e+00   2.0984494e+00  -1.9090323e+07
   6.5321774e-10  -3.1430564e-03   2.6821903e+00   2.1002501e+00  -1.8975696e+07
   6.5421807e-10  -3.1241292e-03   2.6805263e+00   2.1020407e+00  -1.8861752e+07
   6.5521841e-10  -3.1053157e-03   2.6788724e+00   2.1038214e+00  -1.8748486e+07
   6.5621874e-10  -3.0866152e-03   2.6772284e+00   2.1055922e+00  -1.8635895e+07
   6.5721907e-10  -3.0680270e-03   2.6755944e+00   2.1073530e+00  -1.8523976e+07
   6.5821941e-10  -3.0495504e-03   2.6739703e+00   2.1091040e+00  -1.8412723e+07
   6.5921974e-10  -3.0311847e-03   2.6723560e+00   2.1108453e+00  -1.8302133e+07
   6.6022007e-10  -3.0129294e-03   2.6707515e+00   2.1125768e+00  -1.8192203e+07
   6.6122041e-10  -2.9947837e-03   2.6691567e+00   2.1142986e+00  -1.8082928e+07
   6.6222074e-10  -2.9767470e-03   2.6675716e+00   2.1160108e+00  -1.7974305e+07
   6.6322107e-10  -2.9588186e-03   2.6659960e+00   2.1177134e+00  -1.7866329e+07
   6.6422141e-10  -2.9409979e-03   2.6644300e+00   2.1194064e+00  -1.7758998e+07
   6.6522174e-10  -2.9232842e-03   2.6628735e+00   2.1210900e+00  -1.7652306e+07
   6.6622207e-10  -2.9056770e-03   2.6613264e+00   2.1227641e+00  -1.7546251e+07
   6.6722241e-10  -2.8881756e-03   2.6597887e+00   2.1244288e+00  -1.7440829e+07
   6.6822274e-10  -2.8707793e-03   2.6582603e+00   2.1260841e+00  -1.7336036e+07
   6.6922307e-10  -2.8534875e-03   2.6567412e+00   2.1277302e+00  -1.7231868e+07
   6.7022341e-10  -2.8362996e-03   2.6552312e+00   2.1293670e+00  -1.7128322e+07
   6.7122374e-10  -2.8192150e-03   2.6537304e+00   2.1309946e+00  -1.7025394e+07
   6.7222407e-10  -2.8022330e-03   2.6522388e+00   2.1326130e+00  -1.6923080e+07
   6.7322441e-10  -2.7853531e-03   2.6507561e+00   2.1342223e+00  -1.6821378e+07
   6.7422474e-10  -2.7685746e-03   2.6492824e+00   2.1358226e+00  -1.6720282e+07
   6.7522508e-10  -2.7518969e-03   2.6478177e+00   2.1374138e+00  -1.6619790e+07
   6.7622541e-10  -2.7353195e-03   2.6463618e+00   2.1389960e+00  -1.6519899e+07
   6.7722574e-10  -2.7188417e-03   2.6449148e+00   2.1405693e+00  -1.6420604e+07
   6.7822608e-10  -2.7024630e-03   2.6434765e+00   2.1421338e+00  -1.6321902e+07
   6.7922641e-10  -2.6861827e-03   2.6420470e+00   2.1436894e+00  -1.6223790e+07
   6.8022674e-10  -2.6700002e-03   2.6406261e+00   2.1452362e+00  -1.6126264e+07
   6.8122708e-10  -2.6539150e-03   2.6392138e+00   2.1467742e+00  -1.6029320e+07
   6.8222741e-10  -2.6379265e-03   2.6378101e+00   2.1483036e+00  -1.5932957e+07
   6.8322774e-10  -2.6220342e-03   2.6364149e+00   2.1498242e+00  -1.5837169e+07
   6.8422808e-10  -2.6062373e-03   2.6350282e+00   2.1513363e+00  -1.5741953e+07
   6.8522841e-10  -2.5905355e-03   2.6336499e+00   2.1528398e+00  -1.5647307e+07
   6.8622874e-10  -2.5749280e-03   2.6322799e+00   2.1543348e+00  -1.5553227e+07
   6.8722908e-10  -2.5594143e-03   2.6309182e+00   2.1558213e+00  -1.5459709e+07
   6.8822941e-10  -2.5439940e-03   2.6295648e+00   2.1572994e+00  -1.5366750e+07
   6.8922974e-10  -2.5286663e-03   2.6282196e+00   2.1587691e+00  -1.5274348e+07
   6.9023008e-10  -2.5134308e-03   2.6268826e+00   2.1602304e+00  -1.5182498e+07
   6.9123041e-10  -2.4982870e-03   2.6255537e+00   2.1616834e+00  -1.5091197e+07
   6.9223074e-10  -2.4832342e-03   2.6242328e+00   2.1631282e+00  -1.5000442e+07
   6.9323108e-10  -2.4682719e-03   2.6229200e+00   2.1645648e+00  -1.4910231e+07
   6.9423141e-10  -2.4533996e-03   2.6216151e+00   2.1659931e+00  -1.4820559e+07
   6.9523174e-10  -2.4386167e-03   2.6203181e+00   2.1674134e+00  -1.4731424e+07
   6.9623208e-10  -2.4239227e-03   2.6190290e+00   2.1688255e+00  -1.4642822e+07
   6.9723241e-10  -2.4093171e-03   2.6177477e+00   2.1702297e+00  -1.4554750e+07
   6.9823274e-10  -2.3947994e-03   2.6164742e+00   2.1716258e+00  -1.4467206e+07
   6.9923308e-10  -2.3803690e-03   2.6152085e+00   2.1730139e+00  -1.4380186e+07
   7.0023341e-10  -2.3660253e-03   2.6139504e+00   2.1743941e+00  -1.4293686e+07
   7.0123374e-10  -2.3517680e-03   2.6126999e+00   2.1757665e+00  -1.4207705e+07
   7.0223408e-10  -2.3375964e-03   2.6114570e+00   2.1771310e+00  -1.4122238e+07
   7.0323441e-10  -2.3235100e-03   2.6102217e+00   2.1784877e+00  -1.4037283e+07
   7.0423474e-10  -2.3095084e-03   2.6089939e+00   2.1798367e+00  -1.3952837e+07
   7.0523508e-10  -2.2955910e-03   2.6077735e+00   2.1811780e+00  -1.3868896e+07
   7.0623541e-10  -2.2817573e-03   2.6065605e+00   2.1825116e+00  -1.3785458e+07
   7.0723575e-10  -2.2680069e-03   2.6053549e+00   2.1838375e+00  -1.3702521e+07
   7.0823608e-10  -2.2543392e-03   2.6041566e+00   2.1851559e+00  -1.3620079e+07
   7.0923641e-10  -2.2407537e-03   2.6029655e+00   2.1864667e+00  -1.3538132e+07
   7.1023675e-10  -2.2272499e-03   2.6017817e+00   2.1877700e+00  -1.3456676e+07
   7.1123708e-10  -2.2138274e-03   2.6006051e+00   2.1890659e+00  -1.3375708e+07
   7.1223741e-10  -2.2004857e-03   2.5994357e+00   2.1903543e+00  -1.3295225e+07
   7.1323775e-10  -2.1872242e-03   2.5982733e+00   2.1916353e+00  -1.3215225e+07
   7.1423808e-10  -2.1740426e-03   2.5971180e+00   2.1929090e+00  -1.3135703e+07
   7.1523841e-10  -2.1609402e-03   2.5959697e+00   2.1941754e+00  -1.3056659e+07
   7.1623875e-10  -2.1479167e-03   2.5948283e+00   2.1954345e+00  -1.2978088e+07
   7.1723908e-10  -2.1349716e-03   2.5936939e+00   2.1966863e+00  -1.2899989e+07
   7.1823941e-10  -2.1221043e-03   2.5925664e+00   2.1979310e+00  -1.2822357e+07
   7.1923975e-10  -2.1093145e-03   2.5914457e+00   2.1991685e+00  -1.2745192e+07
   7.2024008e-10  -2.0966017e-03   2.5903319e+00   2.2003989e+00  -1.2668488e+07
   7.2124041e-10  -2.0839654e-03   2.5892248e+00   2.2016223e+00  -1.2592245e+07
   7.2224075e-10  -2.0714051e-03   2.5881244e+00   2.2028386e+00  -1.2516459e+07
   7.2324108e-10  -2.0589204e-03   2.5870307e+00   2.2040479e+00  -1.2441128e+07
   7.2424141e-10  -2.0465109e-03   2.5859436e+00   2.2052502e+00  -1.2366248e+07
   7.2524175e-10  -2.0341760e-03   2.5848631e+00   2.2064456e+00  -1.2291817e+07
   7.2624208e-10  -2.0219154e-03   2.5837892e+00   2.2076341e+00  -1.2217833e+07
   7.2724241e-10  -2.0097286e-03   2.5827218e+00   2.2088158e+00  -1.2144293e+07
   7.2824275e-10  -1.9976151e-03   2.5816609e+00   2.2099907e+00  -1.2071194e+07
   7.2924308e-10  -1.9855745e-03   2.5806064e+00   2.2111587e+00  -1.1998534e+07
   7.3024341e-10  -1.9736065e-03   2.5795584e+00   2.2123201e+00  -1.1926310e+07
   7.3124375e-10  -1.9617104e-03   2.5785167e+00   2.2134747e+00  -1.1854519e+07
   7.3224408e-10  -1.9498860e-03   2.5774813e+00   2.2146227e+00  -1.1783158e+07
   7.3324441e-10  -1.9381328e-03   2.5764522e+00   2.2157641e+00  -1.1712227e+07
   7.3424475e-10  -1.9264503e-03   2.5754294e+00   2.2168988e+00  -1.1641720e+07
   7.3524508e-10  -1.9148381e-03   2.5744127e+00   2.2180270e+00  -1.1571637e+07
   7.3624542e-10  -1.9032959e-03   2.5734023e+00   2.2191487e+00  -1.1501975e+07
   7.3724575e-10  -1.8918231e-03   2.5723979e+00   2.2202639e+00  -1.1432731e+07
   7.3824608e-10  -1.8804194e-03   2.5713997e+00   2.2213726e+00  -1.1363903e+07
   7.3924642e-10  -1.8690844e-03   2.5704075e+00   2.2224750e+00  -1.1295488e+07
   7.4024675e-10  -1.8578175e-03   2.5694214e+00   2.2235709e+00  -1.1227483e+07
   7.4124708e-10  -1.8466186e-03   2.5684412e+00   2.2246605e+00  -1.1159887e+07
   7.4224742e-10  -1.8354870e-03   2.5674670e+00   2.2257438e+00  -1.1092697e+07
   7.4324775e-10  -1.8244225e-03   2.5664987e+00   2.2268209e+00  -1.1025911e+07
   7.4424808e-10  -1.8134246e-03   2.5655363e+00   2.2278917e+00  -1.0959525e+07
   7.4524842e-10  -1.8024929e-03   2.5645798e+00   2.2289562e+00  -1.0893538e+07
   7.4624875e-10  -1.7916271e-03   2.5636290e+00   2.2300146e+00  -1.0827948e+07
   7.4724908e-10  -1.7808266e-03   2.5626840e+00   2.2310669e+00  -1.0762752e+07
   7.4824942e-10  -1.7700912e-03   2.5617448e+00   2.2321131e+00  -1.0697947e+07
   7.4924975e-10  -1.7594205e-03   2.5608112e+00   2.2331532e+00  -1.0633531e+07
   7.5025008e-10  -1.7488140e-03   2.5598834e+00   2.2341872e+00  -1.0569503e+07
   7.5125042e-10  -1.7382713e-03   2.5589611e+00   2.2352153e+00  -1.0505859e+07
   7.5225075e-10  -1.7277922e-03   2.5580445e+00   2.2362374e+00  -1.0442597e+07
   7.5325108e-10  -1.7173762e-03   2.5571334e+00   2.2372536e+00  -1.0379716e+07
   7.5425142e-10  -1.7070228e-03   2.5562278e+00   2.2382638e+00  -1.0317212e+07
   7.5525175e-10  -1.6967319e-03   2.5553278e+00   2.2392682e+00  -1.0255084e+07
   7.5625208e-10  -1.6865029e-03   2.5544332e+00   2.2402667e+00  -1.0193330e+07
   7.5725242e-10  -1.6763355e-03   2.5535440e+00   2.2412595e+00  -1.0131946e+07
   7.5825275e-10  -1.6662293e-03   2.5526603e+00   2.2422464e+00  -1.0070932e+07
   7.5925308e-10  -1.6561840e-03   2.5517819e+00   2.2432276e+00  -1.0010284e+07
   7.6025342e-10  -1.6461992e-03   2.5509088e+00   2.2442031e+00  -9.9500009e+06
   7.6125375e-10  -1.6362745e-03   2.5500411e+00   2.2451730e+00  -9.8900800e+06
   7.6225408e-10  -1.6264096e-03   2.5491786e+00   2.2461372e+00  -9.8305193e+06
   7.6325442e-10  -1.6166041e-03   2.5483213e+00   2.2470957e+00  -9.7713167e+06
   7.6425475e-10  -1.6068577e-03   2.5474693e+00   2.2480487e+00  -9.7124699e+06
   7.6525509e-10  -1.5971700e-03   2.5466224e+00   2.2489962e+00  -9.6539770e+06
   7.6625542e-10  -1.5875406e-03   2.5457807e+00   2.2499381e+00  -9.5958357e+06
   7.6725575e-10  -1.5779692e-03   2.5449441e+00   2.2508745e+00  -9.5380440e+06
   7.6825609e-10  -1.5684555e-03   2.5441125e+00   2.2518055e+00  -9.4805998e+06
   7.6925642e-10  -1.5589991e-03   2.5432860e+00   2.2527310e+00  -9.4235010e+06
   7.7025675e-10  -1.5495996e-03   2.5424646e+00   2.2536511e+00  -9.3667456e+06
   7.7125709e-10  -1.5402567e-03   2.5416481e+00   2.2545659e+00  -9.3103315e+06
   7.7225742e-10  -1.5309702e-03   2.5408365e+00   2.2554753e+00  -9.2542566e+06
   7.7325775e-10  -1.5217395e-03   2.5400299e+00   2.2563794e+00  -9.1985190e+06
   7.7425809e-10  -1.5125645e-03   2.5392282e+00   2.2572783e+00  -9.1431166e+06
   7.7525842e-10  -1.5034447e-03   2.5384314e+00   2.2581719e+00  -9.0880475e+06
   7.7625875e-10  -1.4943799e-03   2.5376393e+00   2.2590602e+00  -9.0333095e+06
   7.7725909e-10  -1.4853696e-03   2.5368521e+00   2.2599434e+00  -8.9789008e+06
   7.7825942e-10  -1.4764137e-03   2.5360697e+00   2.2608214e+00  -8.9248194e+06
   7.7925975e-10  -1.4675117e-03   2.5352920e+00   2.2616943e+00  -8.8710634e+06
   7.8026009e-10  -1.4586633e-03   2.5345191e+00   2.2625621e+00  -8.8176307e+06
   7.8126042e-10  -1.4498682e-03   2.5337508e+00   2.2634248e+00  -8.7645194e+06
   7.8226075e-10  -1.4411261e-03   2.5329872e+00   2.2642825e+00  -8.7117277e+06
   7.8326109e-10  -1.4324367e-03   2.5322283e+00   2.2651351e+00  -8.6592536e+06
   7.8426142e-10  -1.4237996e-03   2.5314739e+00   2.2659828e+00  -8.6070952e+06
   7.8526175e-10  -1.4152145e-03   2.5307241e+00   2.2668255e+00  -8.5552506e+06
   7.8626209e-10  -1.4066812e-03   2.5299789e+00   2.2676633e+00  -8.5037179e+06
   7.8726242e-10  -1.3981992e-03   2.5292382e+00   2.2684961e+00  -8.4524954e+06
   7.8826275e-10  -1.3897684e-03   2.5285020e+00   2.2693241e+00  -8.4015811e+06
   7.8926309e-10  -1.3813883e-03   2.5277703e+00   2.2701472e+00  -8.3509731e+06
   7.9026342e-10  -1.3730588e-03   2.5270430e+00   2.2709655e+00  -8.3006697e+06
   7.9126375e-10  -1.3647794e-03   2.5263201e+00   2.2717790e+00  -8.2506690e+06
   7.9226409e-10  -1.3565499e-03   2.5256016e+00   2.2725878e+00  -8.2009692e+06
   7.9326442e-10  -1.3483700e-03   2.5248874e+00   2.2733918e+00  -8.1515686e+06
   7.9426475e-10  -1.3402394e-03   2.5241776e+00   2.2741911e+00  -8.1024652e+06
   7.9526509e-10  -1.3321577e-03   2.5234721e+00   2.2749857e+00  -8.0536574e+06
   7.9626542e-10  -1.3241247e-03   2.5227709e+00   2.2757756e+00  -8.0051433e+06
   7.9726576e-10  -1.3161402e-03   2.5220739e+00   2.2765609e+00  -7.9569213e+06
   7.9826609e-10  -1.3082037e-03   2.5213812e+00   2.2773416e+00  -7.9089895e+06
   7.9926642e-10  -1.3003151e-03   2.5206927e+00   2.2781178e+00  -7.8613462e+06
   8.0026676e-10  -1.2924739e-03   2.5200083e+00   2.2788893e+00  -7.8139897e+06
   8.0126709e-10  -1.2846801e-03   2.5193281e+00   2.2796564e+00  -7.7669183e+06
   8.0226742e-10  -1.2769332e-03   2.5186521e+00   2.2804189e+00  -7.7201302e+06
   8.0326776e-10  -1.2692329e-03   2.5179801e+00   2.2811769e+00  -7.6736238e+06
   8.0426809e-10  -1.2615791e-03   2.5173122e+00   2.2819305e+00  -7.6273973e+06
   8.0526842e-10  -1.2539713e-03   2.5166484e+00   2.2826797e+00  -7.5814492e+06
   8.0626876e-10  -1.2464095e-03   2.5159886e+00   2.2834245e+00  -7.5357776e+06
   8.0726909e-10  -1.2388931e-03   2.5153327e+00   2.2841649e+00  -7.4903811e+06
   8.0826942e-10  -1.2314221e-03   2.5146809e+00   2.2849009e+00  -7.4452578e+06
   8.0926976e-10  -1.2239961e-03   2.5140330e+00   2.2856326e+00  -7.4004063e+06
   8.1027009e-10  -1.2166148e-03   2.5133891e+00   2.2863600e+00  -7.3558247e+06
   8.1127042e-10  -1.2092780e-03   2.5127491e+00   2.2870832e+00  -7.3115116e+06
   8.1227076e-10  -1.2019854e-03   2.5121129e+00   2.2878020e+00  -7.2674654e+06
   8.1327109e-10  -1.1947367e-03   2.5114806e+00   2.2885167e+00  -7.2236843e+06
   8.1427142e-10  -1.1875317e-03   2.5108521e+00   2.2892271e+00  -7.1801668e+06
   8.1527176e-10  -1.1803702e-03   2.5102275e+00   2.2899334e+00  -7.1369114e+06
   8.1627209e-10  -1.1732518e-03   2.5096066e+00   2.2906355e+00  -7.0939165e+06
   8.1727242e-10  -1.1661762e-03   2.5089895e+00   2.2913335e+00  -7.0511805e+06
   8.1827276e-10  -1.1591433e-03   2.5083762e+00   2.2920273e+00  -7.0087018e+06
   8.1927309e-10  -1.1521528e-03   2.5077666e+00   2.2927171e+00  -6.9664789e+06
   8.2027342e-10  -1.1452044e-03   2.5071606e+00   2.2934028e+00  -6.9245103e+06
   8.2127376e-10  -1.1382979e-03   2.5065584e+00   2.2940845e+00  -6.8827944e+06
   8.2227409e-10  -1.1314330e-03   2.5059598e+00   2.2947622e+00  -6.8413298e+06
   8.2327442e-10  -1.1246095e-03   2.5053648e+00   2.2954358e+00  -6.8001149e+06
   8.2427476e-10  -1.1178271e-03   2.5047734e+00   2.2961055e+00  -6.7591481e+06
   8.2527509e-10  -1.1110855e-03   2.5041857e+00   2.2967713e+00  -6.7184281e+06
   8.2627543e-10  -1.1043846e-03   2.5036014e+00   2.2974331e+00  -6.6779534e+06
   8.2727576e-10  -1.0977240e-03   2.5030208e+00   2.2980910e+00  -6.6377224e+06
   8.2827609e-10  -1.0911036e-03   2.5024436e+00   2.2987450e+00  -6.5977337e+06
   8.2927643e-10  -1.0845231e-03   2.5018700e+00   2.2993952e+00  -6.5579859e+06
   8.3027676e-10  -1.0779822e-03   2.5012998e+00   2.3000416e+00  -6.5184775e+06
   8.3127709e-10  -1.0714808e-03   2.5007331e+00   2.3006841e+00  -6.4792070e+06
   8.3227743e-10  -1.0650185e-03   2.5001698e+00   2.3013228e+00  -6.4401731e+06
   8.3327776e-10  -1.0585952e-03   2.4996099e+00   2.3019578e+00  -6.4013743e+06
   8.3427809e-10  -1.0522106e-03   2.4990535e+00   2.3025890e+00  -6.3628092e+06
   8.3527843e-10  -1.0458644e-03   2.4985004e+00   2.3032165e+00  -6.3244763e+06
   8.3627876e-10  -1.0395565e-03   2.4979506e+00   2.3038403e+00  -6.2863744e+06
   8.3727909e-10  -1.0332866e-03   2.4974042e+00   2.3044604e+00  -6.2485020e+06
   8.3827943e-10  -1.0270545e-03   2.4968611e+00   2.3050769e+00  -6.2108577e+06
   8.3927976e-10  -1.0208600e-03   2.4963213e+00   2.3056897e+00  -6.1734401e+06
   8.4028009e-10  -1.0147027e-03   2.4957848e+00   2.3062989e+00  -6.1362480e+06
   8.4128043e-10  -1.0085826e-03   2.4952515e+00   2.3069044e+00  -6.0992799e+06
   8.4228076e-10  -1.0024994e-03   2.4947215e+00   2.3075065e+00  -6.0625344e+06
   8.4328109e-10  -9.9645279e-04   2.4941947e+00   2.3081049e+00  -6.0260104e+06
   8.4428143e-10  -9.9044265e-04   2.4936710e+00   2.3086998e+00  -5.9897063e+06
   8.4528176e-10  -9.8446873e-04   2.4931506e+00   2.3092912e+00  -5.9536210e+06
   8.4628209e-10  -9.7853080e-04   2.4926333e+00   2.3098791e+00  -5.9177530e+06
   8.4728243e-10  -9.7262867e-04   2.4921191e+00   2.3104635e+00  -5.8821011e+06
   8.4828276e-10  -9.6676209e-04   2.4916080e+00   2.3110445e+00  -5.8466639e+06
   8.4928309e-10  -9.6093088e-04   2.4911001e+00   2.3116220e+00  -5.8114403e+06
   8.5028343e-10  -9.5513480e-04   2.4905952e+00   2.3121962e+00  -5.7764288e+06
   8.5128376e-10  -9.4937366e-04   2.4900934e+00   2.3127669e+00  -5.7416283e+06
   8.5228409e-10  -9.4364723e-04   2.4895946e+00   2.3133342e+00  -5.7070374e+06
   8.5328443e-10  -9.3795531e-04   2.4890989e+00   2.3138982e+00  -5.6726549e+06
   8.5428476e-10  -9.3229770e-04   2.4886061e+00   2.3144589e+00  -5.6384795e+06
   8.5528510e-10  -9.2667418e-04   2.4881164e+00   2.3150162e+00  -5.6045100e+06
   8.5628543e-10  -9.2108455e-04   2.4876296e+00   2.3155702e+00  -5.5707452e+06
   8.5728576e-10  -9.1552860e-04   2.4871457e+00   2.3161210e+00  -5.5371838e+06
   8.5828610e-10  -9.1000614e-04   2.4866648e+00   2.3166685e+00  -5.5038245e+06
   8.5928643e-10  -9.0451696e-04   2.4861868e+00   2.3172127e+00  -5.4706663e+06
   8.6028676e-10  -8.9906086e-04   2.4857117e+00   2.3177537e+00  -5.4377078e+06
   8.6128710e-10  -8.9363764e-04   2.4852395e+00   2.3182915e+00  -5.4049479e+06
   8.6228743e-10  -8.8824711e-04   2.4847701e+00   2.3188262e+00  -5.3723853e+06
   8.6328776e-10  -8.8288906e-04   2.4843036e+00   2.3193576e+00  -5.3400189e+06
   8.6428810e-10  -8.7756330e-04   2.4838399e+00   2.3198860e+00  -5.3078475e+06
   8.6528843e-10  -8.7226964e-04   2.4833791e+00   2.3204111e+00  -5.2758699e+06
   8.6628876e-10  -8.6700789e-04   2.4829210e+00   2.3209332e+00  -5.2440850e+06
   8.6728910e-10  -8.6177784e-04   2.4824657e+00   2.3214522e+00  -5.2124916e+06
   8.6828943e-10  -8.5657931e-04   2.4820131e+00   2.3219681e+00  -5.1810885e+06
   8.6928976e-10  -8.5141211e-04   2.4815633e+00   2.3224810e+00  -5.1498746e+06
   8.7029010e-10  -8.4627606e-04   2.4811162e+00   2.3229908e+00  -5.1188488e+06
   8.7129043e-10  -8.4117095e-04   2.4806719e+00   2.3234975e+00  -5.0880099e+06
   8.7229076e-10  -8.3609662e-04   2.4802302e+00   2.3240013e+00  -5.0573568e+06
   8.7329110e-10  -8.3105286e-04   2.4797912e+00   2.3245021e+00  -5.0268883e+06
   8.7429143e-10  -8.2603951e-04   2.4793548e+00   2.3249999e+00  -4.9966034e+06
   8.7529176e-10  -8.2105636e-04   2.4789211e+00   2.3254948e+00  -4.9665010e+06
   8.7629210e-10  -8.1610325e-04   2.4784900e+00   2.3259867e+00  -4.9365800e+06
   8.7729243e-10  -8.1117999e-04   2.4780616e+00   2.3264757e+00  -4.9068392e+06
   8.7829276e-10  -8.0628641e-04   2.4776357e+00   2.3269618e+00  -4.8772776e+06
   8.7929310e-10  -8.0142231e-04   2.4772124e+00   2.3274451e+00  -4.8478941e+06
   8.8029343e-10  -7.9658753e-04   2.4767917e+00   2.3279254e+00  -4.8186876e+06
   8.8129376e-10  -7.9178189e-04   2.4763735e+00   2.3284029e+00  -4.7896571e+06
   8.8229410e-10  -7.8700521e-04   2.4759579e+00   2.3288776e+00  -4.7608015e+06
   8.8329443e-10  -7.8225732e-04   2.4755447e+00   2.3293494e+00  -4.7321197e+06
   8.8429476e-10  -7.7753805e-04   2.4751341e+00   2.3298185e+00  -4.7036108e+06
   8.8529510e-10  -7.7284721e-04   2.4747260e+00   2.3302847e+00  -4.6752735e+06
   8.8629543e-10  -7.6818465e-04   2.4743203e+00   2.3307482e+00  -4.6471071e+06
   8.8729577e-10  -7.6355019e-04   2.4739171e+00   2.3312090e+00  -4.6191103e+06
   8.8829610e-10  -7.5894366e-04   2.4735163e+00   2.3316670e+00  -4.5912822e+06
   8.8929643e-10  -7.5436489e-04   2.4731180e+00   2.3321223e+00  -4.5636217e+06
   8.9029677e-10  -7.4981372e-04   2.4727221e+00   2.3325749e+00  -4.5361279e+06
   8.9129710e-10  -7.4528998e-04   2.4723285e+00   2.3330247e+00  -4.5087997e+06
   8.9229743e-10  -7.4079351e-04   2.4719374e+00   2.3334720e+00  -4.4816362e+06
   8.9329777e-10  -7.3632413e-04   2.4715486e+00   2.3339165e+00  -4.4546363e+06
   8.9429810e-10  -7.3188169e-04   2.4711622e+00   2.3343584e+00  -4.4277991e+06
   8.9529843e-10  -7.2746603e-04   2.4707781e+00   2.3347977e+00  -4.4011235e+06
   8.9629877e-10  -7.2307698e-04   2.4703963e+00   2.3352344e+00  -4.3746087e+06
   8.9729910e-10  -7.1871438e-04   2.4700169e+00   2.3356685e+00  -4.3482536e+06
   8.9829943e-10  -7.1437807e-04   2.4696397e+00   2.3361000e+00  -4.3220573e+06
   8.9929977e-10  -7.1006791e-04   2.4692649e+00   2.3365289e+00  -4.2960188e+06
   9.0030010e-10  -7.0578371e-04   2.4688923e+00   2.3369553e+00  -4.2701372e+06
   9.0130043e-10  -7.0152534e-04   2.4685219e+00   2.3373792e+00  -4.2444115e+06
   9.0230077e-10  -6.9729264e-04   2.4681538e+00   2.3378005e+00  -4.2188407e+06
   9.0330110e-10  -6.9308545e-04   2.4677880e+00   2.3382193e+00  -4.1934241e+06
   9.0430143e-10  -6.8890361e-04   2.4674243e+00   2.3386356e+00  -4.1681605e+06
   9.0530177e-10  -6.8474698e-04   2.4670629e+00   2.3390495e+00  -4.1430491e+06
   9.0630210e-10  -6.8061540e-04   2.4667036e+00   2.3394609e+00  -4.1180891e+06
   9.0730243e-10  -6.7650872e-04   2.4663465e+00   2.3398698e+00  -4.0932793e+06
   9.0830277e-10  -6.7242679e-04   2.4659916e+00   2.3402763e+00  -4.0686191e+06
   9.0930310e-10  -6.6836947e-04   2.4656388e+00   2.3406804e+00  -4.0441074e+06
   9.1030343e-10  -6.6433660e-04   2.4652882e+00   2.3410821e+00  -4.0197434e+06
   9.1130377e-10  -6.6032804e-04   2.4649396e+00   2.3414814e+00  -3.9955261e+06
   9.1230410e-10  -6.5634364e-04   2.4645932e+00   2.3418783e+00  -3.9714547e+06
   9.1330443e-10  -6.5238325e-04   2.4642489e+00   2.3422729e+00  -3.9475284e+06
   9.1430477e-10  -6.4844674e-04   2.4639067e+00   2.3426651e+00  -3.9237461e+06
   9.1530510e-10  -6.4453395e-04   2.4635665e+00   2.3430550e+00  -3.9001071e+06
   9.1630544e-10  -6.4064474e-04   2.4632284e+00   2.3434425e+00  -3.8766106e+06
   9.1730577e-10  -6.3677898e-04   2.4628924e+00   2.3438278e+00  -3.8532555e+06
   9.1830610e-10  -6.3293651e-04   2.4625584e+00   2.3442107e+00  -3.8300412e+06
   9.1930644e-10  -6.2911721e-04   2.4622264e+00   2.3445914e+00  -3.8069667e+06
   9.2030677e-10  -6.2532092e-04   2.4618964e+00   2.3449698e+00  -3.7840312e+06
   9.2130710e-10  -6.2154752e-04   2.4615684e+00   2.3453459e+00  -3.7612339e+06
   9.2230744e-10  -6.1779686e-04   2.4612424e+00   2.3457198e+00  -3.7385738e+06
   9.2330777e-10  -6.1406881e-04   2.4609183e+00   2.3460915e+00  -3.7160503e+06
   9.2430810e-10  -6.1036322e-04   2.4605963e+00   2.3464609e+00  -3.6936625e+06
   9.2530844e-10  -6.0667998e-04   2.4602761e+00   2.3468282e+00  -3.6714095e+06
   9.2630877e-10  -6.0301893e-04   2.4599580e+00   2.3471933e+00  -3.6492905e+06
   9.2730910e-10  -5.9937995e-04   2.4596417e+00   2.3475562e+00  -3.6273048e+06
   9.2830944e-10  -5.9576291e-04   2.4593273e+00   2.3479169e+00  -3.6054515e+06
   9.2930977e-10  -5.9216766e-04   2.4590149e+00   2.3482755e+00  -3.5837299e+06
   9.3031010e-10  -5.8859409e-04   2.4587044e+00   2.3486319e+00  -3.5621391e+06
   9.3131044e-10  -5.8504205e-04   2.4583957e+00   2.3489863e+00  -3.5406783e+06
   9.3231077e-10  -5.8151143e-04   2.4580889e+00   2.3493385e+00  -3.5193468e+06
   9.3331110e-10  -5.7800209e-04   2.4577839e+00   2.3496886e+00  -3.4981438e+06
   9.3431144e-10  -5.7451390e-04   2.4574808e+00   2.3500366e+00  -3.4770685e+06
   9.3531177e-10  -5.7104673e-04   2.4571795e+00   2.3503825e+00  -3.4561201e+06
   9.3631210e-10  -5.6760047e-04   2.4568801e+00   2.3507264e+00  -3.4352979e+06
   9.3731244e-10  -5.6417497e-04   2.4565825e+00   2.3510682e+00  -3.4146012e+06
   9.3831277e-10  -5.6077013e-04   2.4562866e+00   2.3514080e+00  -3.3940291e+06
   9.3931310e-10  -5.5738581e-04   2.4559926e+00   2.3517458e+00  -3.3735808e+06
   9.4031344e-10  -5.5402188e-04   2.4557003e+00   2.3520815e+00  -3.3532558e+06
   9.4131377e-10  -5.5067824e-04   2.4554098e+00   2.3524153e+00  -3.3330532e+06
   9.4231410e-10  -5.4735475e-04   2.4551211e+00   2.3527470e+00  -3.3129722e+06
   9.4331444e-10  -5.4405129e-04   2.4548341e+00   2.3530768e+00  -3.2930122e+06
   9.4431477e-10  -5.4076774e-04   2.4545488e+00   2.3534046e+00  -3.2731724e+06
   9.4531511e-10  -5.3750399e-04   2.4542653e+00   2.3537305e+00  -3.2534521e+06
   9.4631544e-10  -5.3425991e-04   2.4539835e+00   2.3540544e+00  -3.2338506e+06
   9.4731577e-10  -5.3103538e-04   2.4537034e+00   2.3543764e+00  -3.2143671e+06
   9.4831611e-10  -5.2783029e-04   2.4534250e+00   2.3546964e+00  -3.1950009e+06
   9.4931644e-10  -5.2464452e-04   2.4531482e+00   2.3550146e+00  -3.1757514e+06
   9.5031677e-10  -5.2147796e-04   2.4528732e+00   2.3553308e+00  -3.1566179e+06
   9.5131711e-10  -5.1833048e-04   2.4525998e+00   2.3556452e+00  -3.1375995e+06
   9.5231744e-10  -5.1520198e-04   2.4523280e+00   2.3559576e+00  -3.1186957e+06
   9.5331777e-10  -5.1209233e-04   2.4520579e+00   2.3562682e+00  -3.0999057e+06
   9.5431811e-10  -5.0900143e-04   2.4517895e+00   2.3565770e+00  -3.0812289e+06
   9.5531844e-10  -5.0592916e-04   2.4515226e+00   2.3568839e+00  -3.0626646e+06
   9.5631877e-10  -5.0287541e-04   2.4512574e+00   2.3571890e+00  -3.0442121e+06
   9.5731911e-10  -4.9984006e-04   2.4509938e+00   2.3574923e+00  -3.0258707e+06
   9.5831944e-10  -4.9682302e-04   2.4507318e+00   2.3577937e+00  -3.0076397e+06
   9.5931977e-10  -4.9382416e-04   2.4504713e+00   2.3580934e+00  -2.9895186e+06
   9.6032011e-10  -4.9084338e-04   2.4502124e+00   2.3583912e+00  -2.9715065e+06
   9.6132044e-10  -4.8788057e-04   2.4499551e+00   2.3586873e+00  -2.9536030e+06
   9.6232077e-10  -4.8493561e-04   2.4496994e+00   2.3589816e+00  -2.9358072e+06
   9.6332111e-10  -4.8200841e-04   2.4494452e+00   2.3592742e+00  -2.9181186e+06
   9.6432144e-10  -4.7909886e-04   2.4491925e+00   2.3595650e+00  -2.9005365e+06
   9.6532177e-10  -4.7620685e-04   2.4489414e+00   2.3598540e+00  -2.8830603e+06
   9.6632211e-10  -4.7333226e-04   2.4486918e+00   2.3601414e+00  -2.8656894e+06
   9.6732244e-10  -4.7047501e-04   2.4484437e+00   2.3604270e+00  -2.8484230e+06
   9.6832277e-10  -4.6763498e-04   2.4481971e+00   2.3607109e+00  -2.8312607e+06
   9.6932311e-10  -4.6481208e-04   2.4479520e+00   2.3609931e+00  -2.8142016e+06
   9.7032344e-10  -4.6200619e-04   2.4477084e+00   2.3612736e+00  -2.7972453e+06
   9.7132377e-10  -4.5921721e-04   2.4474662e+00   2.3615525e+00  -2.7803911e+06
   9.7232411e-10  -4.5644505e-04   2.4472255e+00   2.3618297e+00  -2.7636384e+06
   9.7332444e-10  -4.5368960e-04   2.4469863e+00   2.3621052e+00  -2.7469865e+06
   9.7432477e-10  -4.5095076e-04   2.4467485e+00   2.3623791e+00  -2.7304349e+06
   9.7532511e-10  -4.4822843e-04   2.4465121e+00   2.3626513e+00  -2.7139830e+06
   9.7632544e-10  -4.4552251e-04   2.4462772e+00   2.3629220e+00  -2.6976302e+06
   9.7732578e-10  -4.4283291e-04   2.4460437e+00   2.3631910e+00  -2.6813758e+06
   9.7832611e-10  -4.4015952e-04   2.4458116e+00   2.3634584e+00  -2.6652192e+06
   9.7932644e-10  -4.3750224e-04   2.4455809e+00   2.3637241e+00  -2.6491600e+06
   9.8032678e-10  -4.3486099e-04   2.4453516e+00   2.3639883e+00  -2.6331975e+06
   9.8132711e-10  -4.3223566e-04   2.4451237e+00   2.3642510e+00  -2.6173310e+06
   9.8232744e-10  -4.2962616e-04   2.4448972e+00   2.3645120e+00  -2.6015601e+06
   9.8332778e-10  -4.2703238e-04   2.4446721e+00   2.3647715e+00  -2.5858842e+06
   9.8432811e-10  -4.2445425e-04   2.4444483e+00   2.3650295e+00  -2.5703026e+06
   9.8532844e-10  -4.2189166e-04   2.4442258e+00   2.3652858e+00  -2.5548149e+06
   9.8632878e-10  -4.1934451e-04   2.4440047e+00   2.3655407e+00  -2.5394204e+06
   9.8732911e-10  -4.1681273e-04   2.4437850e+00   2.3657940e+00  -2.5241186e+06
   9.8832944e-10  -4.1429620e-04   2.4435665e+00   2.3660459e+00  -2.5089089e+06
   9.8932978e-10  -4.1179485e-04   2.4433494e+00   2.3662962e+00  -2.4937908e+06
   9.9033011e-10  -4.0930858e-04   2.4431336e+00   2.3665450e+00  -2.4787637e+06
   9.9133044e-10  -4.0683730e-04   2.4429191e+00   2.3667923e+00  -2.4638271e+06
   9.9233078e-10  -4.0438092e-04   2.4427059e+00   2.3670382e+00  -2.4489804e+06
   9.9333111e-10  -4.0193934e-04   2.4424940e+00   2.3672826e+00  -2.4342231e+06
   9.9433144e-10  -3.9951249e-04   2.4422834e+00   2.3675255e+00  -2.4195547e+06
   9.9533178e-10  -3.9710027e-04   2.4420740e+00   2.3677669e+00  -2.4049745e+06
   9.9633211e-10  -3.9470259e-04   2.4418659e+00   2.3680069e+00  -2.3904822e+06
   9.9733244e-10  -3.9231937e-04   2.4416591e+00   2.3682455e+00  -2.3760771e+06
   9.9833278e-10  -3.8995052e-04   2.4414535e+00   2.3684827e+00  -2.3617587e+06
   9.9933311e-10  -3.8759595e-04   2.4412492e+00   2.3687184e+00  -2.3475265e+06
   1.0003334e-09  -3.8525557e-04   2.4410461e+00   2.3689527e+00  -2.3333800e+06
   1.0013338e-09  -3.8292931e-04   2.4408442e+00   2.3691856e+00  -2.3193187e+06
   1.0023341e-09  -3.8061707e-04   2.4406436e+00   2.3694172e+00  -2.3053420e+06
   1.0033344e-09  -3.7831877e-04   2.4404441e+00   2.3696473e+00  -2.2914494e+06
   1.0043348e-09  -3.7603433e-04   2.4402459e+00   2.3698761e+00  -2.2776405e+06
   1.0053351e-09  -3.7376367e-04   2.4400489e+00   2.3701034e+00  -2.2639148e+06
   1.0063354e-09  -3.7150669e-04   2.4398530e+00   2.3703295e+00  -2.2502716e+06
   1.0073358e-09  -3.6926332e-04   2.4396584e+00   2.3705541e+00  -2.2367106e+06
   1.0083361e-09  -3.6703348e-04   2.4394649e+00   2.3707775e+00  -2.2232312e+06
   1.0093364e-09  -3.6481709e-04   2.4392726e+00   2.3709995e+00  -2.2098330e+06
   1.0103368e-09  -3.6261405e-04   2.4390814e+00   2.3712201e+00  -2.1965154e+06
   1.0113371e-09  -3.6042430e-04   2.4388914e+00   2.3714395e+00  -2.1832780e+06
   1.0123374e-09  -3.5824776e-04   2.4387026e+00   2.3716575e+00  -2.1701203e+06
   1.0133378e-09  -3.5608434e-04   2.4385149e+00   2.3718742e+00  -2.1570418e+06
   1.0143381e-09  -3.5393396e-04   2.4383283e+00   2.3720896e+00  -2.1440421e+06
   1.0153384e-09  -3.5179655e-04   2.4381429e+00   2.3723038e+00  -2.1311205e+06
   1.0163388e-09  -3.4967202e-04   2.4379585e+00   2.3725166e+00  -2.1182768e+06
   1.0173391e-09  -3.4756031e-04   2.4377753e+00   2.3727282e+00  -2.1055104e+06
   1.0183394e-09  -3.4546133e-04   2.4375932e+00   2.3729385e+00  -2.0928208e+06
   1.0193398e-09  -3.4337501e-04   2.4374122e+00   2.3731475e+00  -2.0802077e+06
   1.0203401e-09  -3.4130127e-04   2.4372323e+00   2.3733553e+00  -2.0676704e+06
   1.0213404e-09  -3.3924003e-04   2.4370535e+00   2.3735619e+00  -2.0552086e+06
   1.0223408e-09  -3.3719122e-04   2.4368758e+00   2.3737672e+00  -2.0428219e+06
   1.0233411e-09  -3.3515476e-04   2.4366991e+00   2.3739712e+00  -2.0305097e+06
   1.0243414e-09  -3.3313059e-04   2.4365235e+00   2.3741741e+00  -2.0182716e+06
   1.0253418e-09  -3.3111862e-04   2.4363490e+00   2.3743757e+00  -2.0061072e+06
   1.0263421e-09  -3.2911879e-04   2.4361755e+00   2.3745762e+00  -1.9940160e+06
   1.0273424e-09  -3.2713101e-04   2.4360031e+00   2.3747754e+00  -1.9819976e+06
   1.0283428e-09  -3.2515522e-04   2.4358317e+00   2.3749734e+00  -1.9700515e+06
   1.0293431e-09  -3.2319134e-04   2.4356613e+00   2.3751703e+00  -1.9581773e+06
   1.0303434e-09  -3.2123931e-04   2.4354920e+00   2.3753659e+00  -1.9463747e+06
   1.0313438e-09  -3.1929905e-04   2.4353237e+00   2.3755604e+00  -1.9346430e+06
   1.0323441e-09  -3.1737049e-04   2.4351564e+00   2.3757538e+00  -1.9229820e+06
   1.0333444e-09  -3.1545356e-04   2.4349901e+00   2.3759459e+00  -1.9113912e+06
   1.0343448e-09  -3.1354819e-04   2.4348249e+00   2.3761370e+00  -1.8998701e+06
   1.0353451e-09  -3.1165431e-04   2.4346606e+00   2.3763268e+00  -1.8884184e+06
   1.0363454e-09  -3.0977185e-04   2.4344973e+00   2.3765156e+00  -1.8770356e+06
   1.0373458e-09  -3.0790074e-04   2.4343350e+00   2.3767032e+00  -1.8657214e+06
   1.0383461e-09  -3.0604092e-04   2.4341737e+00   2.3768896e+00  -1.8544752e+06
   1.0393464e-09  -3.0419231e-04   2.4340134e+00   2.3770750e+00  -1.8432968e+06
   1.0403468e-09  -3.0235485e-04   2.4338540e+00   2.3772592e+00  -1.8321856e+06
   1.0413471e-09  -3.0052848e-04   2.4336956e+00   2.3774424e+00  -1.8211413e+06
   1.0423474e-09  -2.9871311e-04   2.4335382e+00   2.3776244e+00  -1.8101635e+06
   1.0433478e-09  -2.9690870e-04   2.4333817e+00   2.3778054e+00  -1.7992517e+06
   1.0443481e-09  -2.9511517e-04   2.4332262e+00   2.3779852e+00  -1.7884057e+06
   1.0453484e-09  -2.9333245e-04   2.4330716e+00   2.3781640e+00  -1.7776249e+06
   1.0463488e-09  -2.9156049e-04   2.4329179e+00   2.3783417e+00  -1.7669090e+06
   1.0473491e-09  -2.8979921e-04   2.4327651e+00   2.3785184e+00  -1.7562576e+06
   1.0483494e-09  -2.8804856e-04   2.4326133e+00   2.3786940e+00  -1.7456704e+06
   1.0493498e-09  -2.8630846e-04   2.4324624e+00   2.3788685e+00  -1.7351468e+06
   1.0503501e-09  -2.8457886e-04   2.4323124e+00   2.3790420e+00  -1.7246866e+06
   1.0513505e-09  -2.8285969e-04   2.4321634e+00   2.3792144e+00  -1.7142894e+06
   1.0523508e-09  -2.8115089e-04   2.4320152e+00   2.3793859e+00  -1.7039547e+06
   1.0533511e-09  -2.7945239e-04   2.4318679e+00   2.3795562e+00  -1.6936823e+06
   1.0543515e-09  -2.7776414e-04   2.4317215e+00   2.3797256e+00  -1.6834717e+06
   1.0553518e-09  -2.7608608e-04   2.4315760e+00   2.3798939e+00  -1.6733225e+06
   1.0563521e-09  -2.7441813e-04   2.4314313e+00   2.3800613e+00  -1.6632345e+06
   1.0573525e-09  -2.7276024e-04   2.4312876e+00   2.3802276e+00  -1.6532071e+06
   1.0583528e-09  -2.7111236e-04   2.4311447e+00   2.3803929e+00  -1.6432401e+06
   1.0593531e-09  -2.6947441e-04   2.4310027e+00   2.3805573e+00  -1.6333331e+06
   1.0603535e-09  -2.6784634e-04   2.4308615e+00   2.3807206e+00  -1.6234857e+06
   1.0613538e-09  -2.6622809e-04   2.4307212e+00   2.3808830e+00  -1.6136977e+06
   1.0623541e-09  -2.6461961e-04   2.4305817e+00   2.3810444e+00  -1.6039685e+06
   1.0633545e-09  -2.6302082e-04   2.4304431e+00   2.3812048e+00  -1.5942979e+06
   1.0643548e-09  -2.6143168e-04   2.4303053e+00   2.3813643e+00  -1.5846854e+06
   1.0653551e-09  -2.5985212e-04   2.4301684e+00   2.3815228e+00  -1.5751309e+06
   1.0663555e-09  -2.5828210e-04   2.4300322e+00   2.3816804e+00  -1.5656339e+06
   1.0673558e-09  -2.5672154e-04   2.4298969e+00   2.3818370e+00  -1.5561940e+06
   1.0683561e-09  -2.5517040e-04   2.4297624e+00   2.3819926e+00  -1.5468109e+06
   1.0693565e-09  -2.5362861e-04   2.4296288e+00   2.3821474e+00  -1.5374843e+06
   1.0703568e-09  -2.5209612e-04   2.4294959e+00   2.3823012e+00  -1.5282139e+06
   1.0713571e-09  -2.5057288e-04   2.4293638e+00   2.3824541e+00  -1.5189993e+06
   1.0723575e-09  -2.4905882e-04   2.4292326e+00   2.3826060e+00  -1.5098401e+06
   1.0733578e-09  -2.4755390e-04   2.4291021e+00   2.3827571e+00  -1.5007360e+06
   1.0743581e-09  -2.4605806e-04   2.4289724e+00   2.3829072e+00  -1.4916868e+06
   1.0753585e-09  -2.4457124e-04   2.4288435e+00   2.3830565e+00  -1.4826920e+06
   1.0763588e-09  -2.4309339e-04   2.4287154e+00   2.3832048e+00  -1.4737514e+06
   1.0773591e-09  -2.4162446e-04   2.4285881e+00   2.3833523e+00  -1.4648646e+06
   1.0783595e-09  -2.4016438e-04   2.4284615e+00   2.3834988e+00  -1.4560312e+06
   1.0793598e-09  -2.3871312e-04   2.4283357e+00   2.3836445e+00  -1.4472511e+06
   1.0803601e-09  -2.3727061e-04   2.4282106e+00   2.3837893e+00  -1.4385238e+06
   1.0813605e-09  -2.3583680e-04   2.4280863e+00   2.3839333e+00  -1.4298490e+06
   1.0823608e-09  -2.3441164e-04   2.4279628e+00   2.3840764e+00  -1.4212264e+06
   1.0833611e-09  -2.3299508e-04   2.4278400e+00   2.3842186e+00  -1.4126558e+06
   1.0843615e-09  -2.3158707e-04   2.4277179e+00   2.3843599e+00  -1.4041367e+06
   1.0853618e-09  -2.3018755e-04   2.4275966e+00   2.3845005e+00  -1.3956689e+06
   1.0863621e-09  -2.2879647e-04   2.4274760e+00   2.3846401e+00  -1.3872521e+06
   1.0873625e-09  -2.2741379e-04   2.4273562e+00   2.3847790e+00  -1.3788859e+06
   1.0883628e-09  -2.2603945e-04   2.4272371e+00   2.3849170e+00  -1.3705701e+06
   1.0893631e-09  -2.2467340e-04   2.4271186e+00   2.3850541e+00  -1.3623044e+06
   1.0903635e-09  -2.2331559e-04   2.4270010e+00   2.3851905e+00  -1.3540884e+06
   1.0913638e-09  -2.2196597e-04   2.4268840e+00   2.3853260e+00  -1.3459219e+06
   1.0923641e-09  -2.2062450e-04   2.4267677e+00   2.3854607e+00  -1.3378045e+06
   1.0933645e-09  -2.1929112e-04   2.4266521e+00   2.3855946e+00  -1.3297360e+06
   1.0943648e-09  -2.1796578e-04   2.4265372e+00   2.3857277e+00  -1.3217161e+06
   1.0953651e-09  -2.1664844e-04   2.4264231e+00   2.3858600e+00  -1.3137444e+06
   1.0963655e-09  -2.1533905e-04   2.4263096e+00   2.3859915e+00  -1.3058207e+06
   1.0973658e-09  -2.1403756e-04   2.4261968e+00   2.3861222e+00  -1.2979447e+06
   1.0983661e-09  -2.1274393e-04   2.4260846e+00   2.3862522e+00  -1.2901162e+06
   1.0993665e-09  -2.1145809e-04   2.4259732e+00   2.3863813e+00  -1.2823347e+06
   1.1003668e-09  -2.1018002e-04   2.4258624e+00   2.3865097e+00  -1.2746001e+06
   1.1013671e-09  -2.0890966e-04   2.4257523e+00   2.3866373e+00  -1.2669121e+06
   1.1023675e-09  -2.0764696e-04   2.4256429e+00   2.3867641e+00  -1.2592703e+06
   1.1033678e-09  -2.0639189e-04   2.4255341e+00   2.3868902e+00  -1.2516745e+06
   1.1043681e-09  -2.0514438e-04   2.4254260e+00   2.3870155e+00  -1.2441245e+06
   1.1053685e-09  -2.0390440e-04   2.4253185e+00   2.3871400e+00  -1.2366199e+06
   1.1063688e-09  -2.0267191e-04   2.4252117e+00   2.3872638e+00  -1.2291605e+06
   1.1073691e-09  -2.0144685e-04   2.4251055e+00   2.3873869e+00  -1.2217460e+06
   1.1083695e-09  -2.0022919e-04   2.4250000e+00   2.3875092e+00  -1.2143761e+06
   1.1093698e-09  -1.9901887e-04   2.4248951e+00   2.3876308e+00  -1.2070506e+06
   1.1103701e-09  -1.9781586e-04   2.4247908e+00   2.3877517e+00  -1.1997692e+06
   1.1113705e-09  -1.9662010e-04   2.4246872e+00   2.3878718e+00  -1.1925316e+06
   1.1123708e-09  -1.9543156e-04   2.4245842e+00   2.3879912e+00  -1.1853376e+06
   1.1133711e-09  -1.9425020e-04   2.4244818e+00   2.3881099e+00  -1.1781869e+06
   1.1143715e-09  -1.9307596e-04   2.4243801e+00   2.3882279e+00  -1.1710793e+06
   1.1153718e-09  -1.9190881e-04   2.4242789e+00   2.3883452e+00  -1.1640144e+06
   1.1163721e-09  -1.9074870e-04   2.4241784e+00   2.3884617e+00  -1.1569921e+06
   1.1173725e-09  -1.8959560e-04   2.4240785e+00   2.3885776e+00  -1.1500121e+06
   1.1183728e-09  -1.8844945e-04   2.4239791e+00   2.3886927e+00  -1.1430740e+06
   1.1193731e-09  -1.8731022e-04   2.4238804e+00   2.3888072e+00  -1.1361778e+06
   1.1203735e-09  -1.8617786e-04   2.4237823e+00   2.3889210e+00  -1.1293230e+06
   1.1213738e-09  -1.8505234e-04   2.4236848e+00   2.3890341e+00  -1.1225096e+06
   1.1223741e-09  -1.8393361e-04   2.4235878e+00   2.3891465e+00  -1.1157371e+06
   1.1233745e-09  -1.8282164e-04   2.4234915e+00   2.3892583e+00  -1.1090054e+06
   1.1243748e-09  -1.8171637e-04   2.4233957e+00   2.3893693e+00  -1.1023143e+06
   1.1253751e-09  -1.8061778e-04   2.4233005e+00   2.3894797e+00  -1.0956634e+06
   1.1263755e-09  -1.7952581e-04   2.4232059e+00   2.3895895e+00  -1.0890526e+06
   1.1273758e-09  -1.7844044e-04   2.4231118e+00   2.3896985e+00  -1.0824816e+06
   1.1283761e-09  -1.7736161e-04   2.4230183e+00   2.3898070e+00  -1.0759501e+06
   1.1293765e-09  -1.7628930e-04   2.4229254e+00   2.3899147e+00  -1.0694580e+06
   1.1303768e-09  -1.7522346e-04   2.4228331e+00   2.3900218e+00  -1.0630049e+06
   1.1313771e-09  -1.7416405e-04   2.4227413e+00   2.3901283e+00  -1.0565907e+06
   1.1323775e-09  -1.7311104e-04   2.4226500e+00   2.3902342e+00  -1.0502152e+06
   1.1333778e-09  -1.7206438e-04   2.4225593e+00   2.3903394e+00  -1.0438780e+06
   1.1343781e-09  -1.7102404e-04   2.4224692e+00   2.3904439e+00  -1.0375790e+06
   1.1353785e-09  -1.6998998e-04   2.4223796e+00   2.3905479e+00  -1.0313178e+06
   1.1363788e-09  -1.6896217e-04   2.4222905e+00   2.3906512e+00  -1.0250944e+06
   1.1373791e-09  -1.6794055e-04   2.4222020e+00   2.3907539e+00  -1.0189085e+06
   1.1383795e-09  -1.6692510e-04   2.4221140e+00   2.3908559e+00  -1.0127598e+06
   1.1393798e-09  -1.6591578e-04   2.4220266e+00   2.3909574e+00  -1.0066482e+06
   1.1403801e-09  -1.6491256e-04   2.4219397e+00   2.3910582e+00  -1.0005733e+06
   1.1413805e-09  -1.6391539e-04   2.4218533e+00   2.3911585e+00  -9.9453500e+05
   1.1423808e-09  -1.6292424e-04   2.4217674e+00   2.3912581e+00  -9.8853307e+05
   1.1433811e-09  -1.6193907e-04   2.4216820e+00   2.3913571e+00  -9.8256729e+05
   1.1443815e-09  -1.6095985e-04   2.4215972e+00   2.3914556e+00  -9.7663742e+05
   1.1453818e-09  -1.5998654e-04   2.4215129e+00   2.3915534e+00  -9.7074327e+05
   1.1463821e-09  -1.5901910e-04   2.4214290e+00   2.3916507e+00  -9.6488460e+05
   1.1473825e-09  -1.5805751e-04   2.4213457e+00   2.3917474e+00  -9.5906122e+05
   1.1483828e-09  -1.5710172e-04   2.4212629e+00   2.3918434e+00  -9.5327290e+05
   1.1493831e-09  -1.5615170e-04   2.4211806e+00   2.3919390e+00  -9.4751944e+05
   1.1503835e-09  -1.5520742e-04   2.4210988e+00   2.3920339e+00  -9.4180062e+05
   1.1513838e-09  -1.5426883e-04   2.4210175e+00   2.3921283e+00  -9.3611625e+05
   1.1523841e-09  -1.5333592e-04   2.4209367e+00   2.3922221e+00  -9.3046610e+05
   1.1533845e-09  -1.5240863e-04   2.4208563e+00   2.3923153e+00  -9.2484998e+05
   1.1543848e-09  -1.5148695e-04   2.4207765e+00   2.3924080e+00  -9.1926768e+05
   1.1553851e-09  -1.5057082e-04   2.4206971e+00   2.3925001e+00  -9.1371900e+05
   1.1563855e-09  -1.4966023e-04   2.4206182e+00   2.3925916e+00  -9.0820373e+05
   1.1573858e-09  -1.4875514e-04   2.4205398e+00   2.3926826e+00  -9.0272168e+05
   1.1583861e-09  -1.4785551e-04   2.4204619e+00   2.3927731e+00  -8.9727264e+05
   1.1593865e-09  -1.4696131e-04   2.4203844e+00   2.3928630e+00  -8.9185642e+05
   1.1603868e-09  -1.4607251e-04   2.4203074e+00   2.3929524e+00  -8.8647282e+05
   1.1613871e-09  -1.4518908e-04   2.4202309e+00   2.3930412e+00  -8.8112165e+05
   1.1623875e-09  -1.4431098e-04   2.4201548e+00   2.3931295e+00  -8.7580270e+05
   1.1633878e-09  -1.4343818e-04   2.4200792e+00   2.3932173e+00  -8.7051578e+05
   1.1643881e-09  -1.4257065e-04   2.4200041e+00   2.3933045e+00  -8.6526071e+05
   1.1653885e-09  -1.4170837e-04   2.4199294e+00   2.3933913e+00  -8.6003728e+05
   1.1663888e-09  -1.4085128e-04   2.4198551e+00   2.3934774e+00  -8.5484532e+05
   1.1673891e-09  -1.3999937e-04   2.4197813e+00   2.3935631e+00  -8.4968463e+05
   1.1683895e-09  -1.3915261e-04   2.4197080e+00   2.3936483e+00  -8.4455502e+05
   1.1693898e-09  -1.3831096e-04   2.4196351e+00   2.3937329e+00  -8.3945630e+05
   1.1703901e-09  -1.3747439e-04   2.4195626e+00   2.3938171e+00  -8.3438830e+05
   1.1713905e-09  -1.3664287e-04   2.4194906e+00   2.3939007e+00  -8.2935082e+05
   1.1723908e-09  -1.3581638e-04   2.4194190e+00   2.3939838e+00  -8.2434369e+05
   1.1733911e-09  -1.3499487e-04   2.4193478e+00   2.3940664e+00  -8.1936671e+05
   1.1743915e-09  -1.3417833e-04   2.4192771e+00   2.3941486e+00  -8.1441972e+05
   1.1753918e-09  -1.3336671e-04   2.4192068e+00   2.3942302e+00  -8.0950252e+05
   1.1763921e-09  -1.3256000e-04   2.4191369e+00   2.3943113e+00  -8.0461494e+05
   1.1773925e-09  -1.3175816e-04   2.4190674e+00   2.3943920e+00  -7.9975680e+05
   1.1783928e-09  -1.3096116e-04   2.4189984e+00   2.3944721e+00  -7.9492793e+05
   1.1793931e-09  -1.3016897e-04   2.4189298e+00   2.3945518e+00  -7.9012815e+05
   1.1803935e-09  -1.2938157e-04   2.4188616e+00   2.3946310e+00  -7.8535727e+05
   1.1813938e-09  -1.2859892e-04   2.4187938e+00   2.3947097e+00  -7.8061514e+05
   1.1823941e-09  -1.2782100e-04   2.4187264e+00   2.3947880e+00  -7.7590158e+05
   1.1833945e-09  -1.2704778e-04   2.4186594e+00   2.3948658e+00  -7.7121641e+05
   1.1843948e-09  -1.2627922e-04   2.4185928e+00   2.3949431e+00  -7.6655946e+05
   1.1853951e-09  -1.2551531e-04   2.4185267e+00   2.3950199e+00  -7.6193057e+05
   1.1863955e-09  -1.2475601e-04   2.4184609e+00   2.3950963e+00  -7.5732957e+05
   1.1873958e-09  -1.2400130e-04   2.4183955e+00   2.3951722e+00  -7.5275628e+05
   1.1883961e-09  -1.2325115e-04   2.4183306e+00   2.3952477e+00  -7.4821054e+05
   1.1893965e-09  -1.2250552e-04   2.4182660e+00   2.3953227e+00  -7.4369219e+05
   1.1903968e-09  -1.2176440e-04   2.4182018e+00   2.3953973e+00  -7.3920107e+05
   1.1913971e-09  -1.2102776e-04   2.4181380e+00   2.3954714e+00  -7.3473700e+05
   1.1923975e-09  -1.2029556e-04   2.4180746e+00   2.3955450e+00  -7.3029982e+05
   1.1933978e-09  -1.1956779e-04   2.4180115e+00   2.3956182e+00  -7.2588938e+05
   1.1943981e-09  -1.1884441e-04   2.4179489e+00   2.3956910e+00  -7.2150552e+05
   1.1953985e-09  -1.1812540e-04   2.4178866e+00   2.3957634e+00  -7.1714806e+05
   1.1963988e-09  -1.1741074e-04   2.4178247e+00   2.3958353e+00  -7.1281686e+05
   1.1973991e-09  -1.1670039e-04   2.4177632e+00   2.3959067e+00  -7.0851176e+05
   1.1983995e-09  -1.1599433e-04   2.4177020e+00   2.3959778e+00  -7.0423259e+05
   1.1993998e-09  -1.1529254e-04   2.4176412e+00   2.3960484e+00  -6.9997921e+05
   1.2004001e-09  -1.1459498e-04   2.4175808e+00   2.3961185e+00  -6.9575146e+05
   1.2014005e-09  -1.1390164e-04   2.4175208e+00   2.3961883e+00  -6.9154918e+05
   1.2024008e-09  -1.1321249e-04   2.4174611e+00   2.3962576e+00  -6.8737223e+05
   1.2034011e-09  -1.1252750e-04   2.4174018e+00   2.3963266e+00  -6.8322044e+05
   1.2044015e-09  -1.1184665e-04   2.4173428e+00   2.3963951e+00  -6.7909367e+05
   1.2054018e-09  -1.1116991e-04   2.4172842e+00   2.3964632e+00  -6.7499177e+05
   1.2064021e-09  -1.1049726e-04   2.4172259e+00   2.3965308e+00  -6.7091459e+05
   1.2074025e-09  -1.0982867e-04   2.4171680e+00   2.3965981e+00  -6.6686197e+05
   1.2084028e-09  -1.0916412e-04   2.4171105e+00   2.3966650e+00  -6.6283378e+05
   1.2094031e-09  -1.0850358e-04   2.4170533e+00   2.3967315e+00  -6.5882986e+05
   1.2104035e-09  -1.0784704e-04   2.4169964e+00   2.3967975e+00  -6.5485007e+05
   1.2114038e-09  -1.0719446e-04   2.4169399e+00   2.3968632e+00  -6.5089427e+05
   1.2124041e-09  -1.0654583e-04   2.4168837e+00   2.3969285e+00  -6.4696230e+05
   1.2134045e-09  -1.0590111e-04   2.4168279e+00   2.3969933e+00  -6.4305403e+05
   1.2144048e-09  -1.0526029e-04   2.4167724e+00   2.3970578e+00  -6.3916932e+05
   1.2154051e-09  -1.0462334e-04   2.4167172e+00   2.3971219e+00  -6.3530802e+05
   1.2164055e-09  -1.0399023e-04   2.4166624e+00   2.3971856e+00  -6.3146999e+05
   1.2174058e-09  -1.0336096e-04   2.4166079e+00   2.3972489e+00  -6.2765509e+05
   1.2184061e-09  -1.0273548e-04   2.4165537e+00   2.3973119e+00  -6.2386318e+05
   1.2194065e-09  -1.0211378e-04   2.4164999e+00   2.3973745e+00  -6.2009413e+05
   1.2204068e-09  -1.0149584e-04   2.4164464e+00   2.3974366e+00  -6.1634779e+05
   1.2214071e-09  -1.0088163e-04   2.4163932e+00   2.3974985e+00  -6.1262403e+05
   1.2224075e-09  -1.0027114e-04   2.4163403e+00   2.3975599e+00  -6.0892272e+05
   1.2234078e-09  -9.9664329e-05   2.4162877e+00   2.3976210e+00  -6.0524372e+05
   1.2244081e-09  -9.9061187e-05   2.4162355e+00   2.3976817e+00  -6.0158690e+05
   1.2254085e-09  -9.8461690e-05   2.4161836e+00   2.3977420e+00  -5.9795211e+05
   1.2264088e-09  -9.7865815e-05   2.4161320e+00   2.3978020e+00  -5.9433924e+05
   1.2274091e-09  -9.7273540e-05   2.4160807e+00   2.3978616e+00  -5.9074814e+05
   1.2284095e-09  -9.6684844e-05   2.4160297e+00   2.3979208e+00  -5.8717869e+05
   1.2294098e-09  -9.6099705e-05   2.4159790e+00   2.3979797e+00  -5.8363076e+05
   1.2304101e-09  -9.5518101e-05   2.4159287e+00   2.3980383e+00  -5.8010421e+05
   1.2314105e-09  -9.4940012e-05   2.4158786e+00   2.3980964e+00  -5.7659893e+05
   1.2324108e-09  -9.4365417e-05   2.4158289e+00   2.3981543e+00  -5.7311477e+05
   1.2334111e-09  -9.3794293e-05   2.4157794e+00   2.3982118e+00  -5.6965162e+05
   1.2344115e-09  -9.3226620e-05   2.4157302e+00   2.3982689e+00  -5.6620935e+05
   1.2354118e-09  -9.2662378e-05   2.4156814e+00   2.3983257e+00  -5.6278782e+05
   1.2364121e-09  -9.2101545e-05   2.4156328e+00   2.3983821e+00  -5.5938693e+05
   1.2374125e-09  -9.1544102e-05   2.4155845e+00   2.3984382e+00  -5.5600654e+05
   1.2384128e-09  -9.0990027e-05   2.4155366e+00   2.3984940e+00  -5.5264652e+05
   1.2394131e-09  -9.0439300e-05   2.4154889e+00   2.3985494e+00  -5.4930677e+05
   1.2404135e-09  -8.9891901e-05   2.4154415e+00   2.3986045e+00  -5.4598715e+05
   1.2414138e-09  -8.9347811e-05   2.4153944e+00   2.3986593e+00  -5.4268755e+05
   1.2424141e-09  -8.8807008e-05   2.4153475e+00   2.3987137e+00  -5.3940784e+05
   1.2434145e-09  -8.8269474e-05   2.4153010e+00   2.3987679e+00  -5.3614790e+05
   1.2444148e-09  -8.7735189e-05   2.4152547e+00   2.3988216e+00  -5.3290762e+05
   1.2454151e-09  -8.7204132e-05   2.4152087e+00   2.3988751e+00  -5.2968688e+05
   1.2464155e-09  -8.6676285e-05   2.4151630e+00   2.3989282e+00  -5.2648556e+05
   1.2474158e-09  -8.6151628e-05   2.4151176e+00   2.3989810e+00  -5.2330354e+05
   1.2484161e-09  -8.5630141e-05   2.4150724e+00   2.3990335e+00  -5.2014071e+05
   1.2494165e-09  -8.5111807e-05   2.4150276e+00   2.3990857e+00  -5.1699694e+05
   1.2504168e-09  -8.4596605e-05   2.4149829e+00   2.3991376e+00  -5.1387214e+05
   1.2514171e-09  -8.4084517e-05   2.4149386e+00   2.3991891e+00  -5.1076618e+05
   1.2524175e-09  -8.3575524e-05   2.4148945e+00   2.3992404e+00  -5.0767895e+05
   1.2534178e-09  -8.3069608e-05   2.4148507e+00   2.3992913e+00  -5.0461033e+05
   1.2544181e-09  -8.2566749e-05   2.4148072e+00   2.3993419e+00  -5.0156022e+05
   1.2554185e-09  -8.2066930e-05   2.4147639e+00   2.3993922e+00  -4.9852851e+05
   1.2564188e-09  -8.1570132e-05   2.4147209e+00   2.3994422e+00  -4.9551508e+05
   1.2574191e-09  -8.1076336e-05   2.4146781e+00   2.3994920e+00  -4.9251982e+05
   1.2584195e-09  -8.0585526e-05   2.4146356e+00   2.3995414e+00  -4.8954262e+05
   1.2594198e-09  -8.0097682e-05   2.4145934e+00   2.3995905e+00  -4.8658338e+05
   1.2604201e-09  -7.9612786e-05   2.4145514e+00   2.3996393e+00  -4.8364199e+05
   1.2614205e-09  -7.9130822e-05   2.4145097e+00   2.3996878e+00  -4.8071834e+05
   1.2624208e-09  -7.8651771e-05   2.4144682e+00   2.3997361e+00  -4.7781232e+05
   1.2634211e-09  -7.8175616e-05   2.4144270e+00   2.3997840e+00  -4.7492382e+05
   1.2644215e-09  -7.7702339e-05   2.4143860e+00   2.3998316e+00  -4.7205275e+05
   1.2654218e-09  -7.7231923e-05   2.4143452e+00   2.3998790e+00  -4.6919900e+05
   1.2664221e-09  -7.6764351e-05   2.4143048e+00   2.3999261e+00  -4.6636245e+05
   1.2674225e-09  -7.6299605e-05   2.4142645e+00   2.3999729e+00  -4.6354302e+05
   1.2684228e-09  -7.5837669e-05   2.4142245e+00   2.4000194e+00  -4.6074060e+05
   1.2694231e-09  -7.5378525e-05   2.4141848e+00   2.4000656e+00  -4.5795507e+05
   1.2704235e-09  -7.4922157e-05   2.4141453e+00   2.4001116e+00  -4.5518635e+05
   1.2714238e-09  -7.4468548e-05   2.4141060e+00   2.4001572e+00  -4.5243433e+05
   1.2724241e-09  -7.4017681e-05   2.4140669e+00   2.4002026e+00  -4.4969892e+05
   1.2734245e-09  -7.3569539e-05   2.4140281e+00   2.4002477e+00  -4.4698000e+05
   1.2744248e-09  -7.3124107e-05   2.4139896e+00   2.4002926e+00  -4.4427748e+05
   1.2754251e-09  -7.2681368e-05   2.4139512e+00   2.4003372e+00  -4.4159127e+05
   1.2764255e-09  -7.2241305e-05   2.4139131e+00   2.4003815e+00  -4.3892126e+05
   1.2774258e-09  -7.1803903e-05   2.4138753e+00   2.4004255e+00  -4.3626736e+05
   1.2784261e-09  -7.1369146e-05   2.4138376e+00   2.4004693e+00  -4.3362947e+05
   1.2794265e-09  -7.0937017e-05   2.4138002e+00   2.4005128e+00  -4.3100750e+05
   1.2804268e-09  -7.0507500e-05   2.4137630e+00   2.4005561e+00  -4.2840134e+05
   1.2814271e-09  -7.0080581e-05   2.4137261e+00   2.4005990e+00  -4.2581090e+05
   1.2824275e-09  -6.9656242e-05   2.4136893e+00   2.4006418e+00  -4.2323610e+05
   1.2834278e-09  -6.9234470e-05   2.4136528e+00   2.4006842e+00  -4.2067683e+05
   1.2844281e-09  -6.8815247e-05   2.4136165e+00   2.4007265e+00  -4.1813300e+05
   1.2854285e-09  -6.8398559e-05   2.4135804e+00   2.4007684e+00  -4.1560452e+05
   1.2864288e-09  -6.7984391e-05   2.4135446e+00   2.4008101e+00  -4.1309129e+05
   1.2874291e-09  -6.7572726e-05   2.4135089e+00   2.4008516e+00  -4.1059323e+05
   1.2884295e-09  -6.7163551e-05   2.4134735e+00   2.4008928e+00  -4.0811024e+05
   1.2894298e-09  -6.6756851e-05   2.4134383e+00   2.4009337e+00  -4.0564223e+05
   1.2904301e-09  -6.6352609e-05   2.4134033e+00   2.4009744e+00  -4.0318912e+05
   1.2914305e-09  -6.5950811e-05   2.4133685e+00   2.4010149e+00  -4.0075081e+05
   1.2924308e-09  -6.5551444e-05   2.4133339e+00   2.4010551e+00  -3.9832721e+05
   1.2934311e-09  -6.5154491e-05   2.4132996e+00   2.4010951e+00  -3.9591823e+05
   1.2944315e-09  -6.4759938e-05   2.4132654e+00   2.4011348e+00  -3.9352380e+05
   1.2954318e-09  -6.4367772e-05   2.4132314e+00   2.4011743e+00  -3.9114381e+05
   1.2964321e-09  -6.3977976e-05   2.4131977e+00   2.4012136e+00  -3.8877818e+05
   1.2974325e-09  -6.3590538e-05   2.4131642e+00   2.4012526e+00  -3.8642683e+05
   1.2984328e-09  -6.3205443e-05   2.4131308e+00   2.4012914e+00  -3.8408967e+05
   1.2994331e-09  -6.2822677e-05   2.4130977e+00   2.4013299e+00  -3.8176662e+05
   1.3004335e-09  -6.2442225e-05   2.4130647e+00   2.4013682e+00  -3.7945758e+05
   1.3014338e-09  -6.2064074e-05   2.4130320e+00   2.4014063e+00  -3.7716248e+05
   1.3024341e-09  -6.1688210e-05   2.4129995e+00   2.4014442e+00  -3.7488124e+05
   1.3034345e-09  -6.1314619e-05   2.4129671e+00   2.4014818e+00  -3.7261376e+05
   1.3044348e-09  -6.0943288e-05   2.4129350e+00   2.4015192e+00  -3.7035996e+05
   1.3054351e-09  -6.0574202e-05   2.4129030e+00   2.4015563e+00  -3.6811977e+05
   1.3064355e-09  -6.0207348e-05   2.4128713e+00   2.4015933e+00  -3.6589310e+05
   1.3074358e-09  -5.9842713e-05   2.4128397e+00   2.4016300e+00  -3.6367987e+05
   1.3084361e-09  -5.9480283e-05   2.4128083e+00   2.4016665e+00  -3.6147999e+05
   1.3094365e-09  -5.9120045e-05   2.4127771e+00   2.4017028e+00  -3.5929340e+05
   1.3104368e-09  -5.8761986e-05   2.4127461e+00   2.4017389e+00  -3.5712000e+05
   1.3114371e-09  -5.8406093e-05   2.4127153e+00   2.4017747e+00  -3.5495973e+05
   1.3124375e-09  -5.8052352e-05   2.4126847e+00   2.4018103e+00  -3.5281249e+05
   1.3134378e-09  -5.7700750e-05   2.4126542e+00   2.4018457e+00  -3.5067821e+05
   1.3144381e-09  -5.7351275e-05   2.4126240e+00   2.4018809e+00  -3.4855682e+05
   1.3154385e-09  -5.7003914e-05   2.4125939e+00   2.4019159e+00  -3.4644824e+05
   1.3164388e-09  -5.6658654e-05   2.4125640e+00   2.4019507e+00  -3.4435238e+05
   1.3174391e-09  -5.6315482e-05   2.4125343e+00   2.4019853e+00  -3.4226918e+05
   1.3184395e-09  -5.5974386e-05   2.4125048e+00   2.4020196e+00  -3.4019855e+05
   1.3194398e-09  -5.5635353e-05   2.4124754e+00   2.4020538e+00  -3.3814042e+05
   1.3204401e-09  -5.5298371e-05   2.4124463e+00   2.4020877e+00  -3.3609472e+05
   1.3214405e-09  -5.4963427e-05   2.4124173e+00   2.4021214e+00  -3.3406136e+05
   1.3224408e-09  -5.4630509e-05   2.4123884e+00   2.4021550e+00  -3.3204029e+05
   1.3234411e-09  -5.4299605e-05   2.4123598e+00   2.4021883e+00  -3.3003141e+05
   1.3244415e-09  -5.3970703e-05   2.4123313e+00   2.4022214e+00  -3.2803466e+05
   1.3254418e-09  -5.3643790e-05   2.4123030e+00   2.4022543e+00  -3.2604997e+05
   1.3264421e-09  -5.3318854e-05   2.4122749e+00   2.4022871e+00  -3.2407727e+05
   1.3274425e-09  -5.2995885e-05   2.4122469e+00   2.4023196e+00  -3.2211647e+05
   1.3284428e-09  -5.2674869e-05   2.4122191e+00   2.4023519e+00  -3.2016751e+05
   1.3294431e-09  -5.2355795e-05   2.4121915e+00   2.4023841e+00  -3.1823032e+05
   1.3304435e-09  -5.2038651e-05   2.4121641e+00   2.4024160e+00  -3.1630483e+05
   1.3314438e-09  -5.1723425e-05   2.4121368e+00   2.4024478e+00  -3.1439096e+05
   1.3324441e-09  -5.1410107e-05   2.4121097e+00   2.4024793e+00  -3.1248865e+05
   1.3334445e-09  -5.1098684e-05   2.4120827e+00   2.4025107e+00  -3.1059783e+05
   1.3344448e-09  -5.0789145e-05   2.4120559e+00   2.4025419e+00  -3.0871843e+05
   1.3354451e-09  -5.0481479e-05   2.4120293e+00   2.4025729e+00  -3.0685037e+05
   1.3364455e-09  -5.0175674e-05   2.4120028e+00   2.4026037e+00  -3.0499359e+05
   1.3374458e-09  -4.9871719e-05   2.4119765e+00   2.4026343e+00  -3.0314803e+05
   1.3384461e-09  -4.9569603e-05   2.4119503e+00   2.4026647e+00  -3.0131361e+05
   1.3394465e-09  -4.9269315e-05   2.4119243e+00   2.4026950e+00  -2.9949027e+05
   1.3404468e-09  -4.8970844e-05   2.4118985e+00   2.4027250e+00  -2.9767795e+05
   1.3414471e-09  -4.8674178e-05   2.4118728e+00   2.4027549e+00  -2.9587656e+05
   1.3424475e-09  -4.8379307e-05   2.4118473e+00   2.4027846e+00  -2.9408606e+05
   1.3434478e-09  -4.8086221e-05   2.4118219e+00   2.4028141e+00  -2.9230637e+05
   1.3444481e-09  -4.7794907e-05   2.4117967e+00   2.4028435e+00  -2.9053743e+05
   1.3454485e-09  -4.7505356e-05   2.4117716e+00   2.4028726e+00  -2.8877917e+05
   1.3464488e-09  -4.7217557e-05   2.4117467e+00   2.4029016e+00  -2.8703153e+05
   1.3474491e-09  -4.6931500e-05   2.4117220e+00   2.4029305e+00  -2.8529445e+05
   1.3484495e-09  -4.6647173e-05   2.4116973e+00   2.4029591e+00  -2.8356786e+05
   1.3494498e-09  -4.6364567e-05   2.4116729e+00   2.4029876e+00  -2.8185169e+05
   1.3504502e-09  -4.6083670e-05   2.4116486e+00   2.4030159e+00  -2.8014590e+05
   1.3514505e-09  -4.5804473e-05   2.4116244e+00   2.4030440e+00  -2.7845041e+05
   1.3524508e-09  -4.5526966e-05   2.4116004e+00   2.4030719e+00  -2.7676515e+05
   1.3534512e-09  -4.5251138e-05   2.4115765e+00   2.4030997e+00  -2.7509008e+05
   1.3544515e-09  -4.4976979e-05   2.4115528e+00   2.4031273e+00  -2.7342513e+05
   1.3554518e-09  -4.4704478e-05   2.4115292e+00   2.4031548e+00  -2.7177023e+05
   1.3564522e-09  -4.4433627e-05   2.4115057e+00   2.4031821e+00  -2.7012533e+05
   1.3574525e-09  -4.4164415e-05   2.4114824e+00   2.4032092e+00  -2.6849037e+05
   1.3584528e-09  -4.3896831e-05   2.4114593e+00   2.4032362e+00  -2.6686528e+05
   1.3594532e-09  -4.3630867e-05   2.4114362e+00   2.4032630e+00  -2.6525001e+05
   1.3604535e-09  -4.3366513e-05   2.4114134e+00   2.4032896e+00  -2.6364450e+05
   1.3614538e-09  -4.3103758e-05   2.4113906e+00   2.4033161e+00  -2.6204869e+05
   1.3624542e-09  -4.2842593e-05   2.4113680e+00   2.4033424e+00  -2.6046252e+05
   1.3634545e-09  -4.2583009e-05   2.4113455e+00   2.4033685e+00  -2.5888593e+05
   1.3644548e-09  -4.2324995e-05   2.4113232e+00   2.4033945e+00  -2.5731887e+05
   1.3654552e-09  -4.2068543e-05   2.4113010e+00   2.4034203e+00  -2.5576127e+05
   1.3664555e-09  -4.1813643e-05   2.4112789e+00   2.4034460e+00  -2.5421309e+05
   1.3674558e-09  -4.1560286e-05   2.4112570e+00   2.4034715e+00  -2.5267426e+05
   1.3684562e-09  -4.1308462e-05   2.4112352e+00   2.4034969e+00  -2.5114472e+05
   1.3694565e-09  -4.1058162e-05   2.4112135e+00   2.4035221e+00  -2.4962443e+05
   1.3704568e-09  -4.0809376e-05   2.4111920e+00   2.4035472e+00  -2.4811332e+05
   1.3714572e-09  -4.0562097e-05   2.4111706e+00   2.4035721e+00  -2.4661135e+05
   1.3724575e-09  -4.0316314e-05   2.4111493e+00   2.4035969e+00  -2.4511845e+05
   1.3734578e-09  -4.0072018e-05   2.4111282e+00   2.4036215e+00  -2.4363457e+05
   1.3744582e-09  -3.9829201e-05   2.4111072e+00   2.4036459e+00  -2.4215966e+05
   1.3754585e-09  -3.9587854e-05   2.4110863e+00   2.4036703e+00  -2.4069366e+05
   1.3764588e-09  -3.9347967e-05   2.4110655e+00   2.4036944e+00  -2.3923651e+05
   1.3774592e-09  -3.9109532e-05   2.4110449e+00   2.4037184e+00  -2.3778818e+05
   1.3784595e-09  -3.8872541e-05   2.4110243e+00   2.4037423e+00  -2.3634859e+05
   1.3794598e-09  -3.8636984e-05   2.4110040e+00   2.4037661e+00  -2.3491771e+05
   1.3804602e-09  -3.8402852e-05   2.4109837e+00   2.4037896e+00  -2.3349547e+05
   1.3814605e-09  -3.8170138e-05   2.4109635e+00   2.4038131e+00  -2.3208182e+05
   1.3824608e-09  -3.7938832e-05   2.4109435e+00   2.4038364e+00  -2.3067672e+05
   1.3834612e-09  -3.7708926e-05   2.4109236e+00   2.4038596e+00  -2.2928011e+05
   1.3844615e-09  -3.7480412e-05   2.4109038e+00   2.4038826e+00  -2.2789195e+05
   1.3854618e-09  -3.7253281e-05   2.4108842e+00   2.4039055e+00  -2.2651217e+05
   1.3864622e-09  -3.7027525e-05   2.4108646e+00   2.4039282e+00  -2.2514073e+05
   1.3874625e-09  -3.6803136e-05   2.4108452e+00   2.4039508e+00  -2.2377757e+05
   1.3884628e-09  -3.6580104e-05   2.4108259e+00   2.4039733e+00  -2.2242266e+05
   1.3894632e-09  -3.6358423e-05   2.4108067e+00   2.4039956e+00  -2.2107594e+05
   1.3904635e-09  -3.6138084e-05   2.4107876e+00   2.4040178e+00  -2.1973735e+05
   1.3914638e-09  -3.5919078e-05   2.4107687e+00   2.4040399e+00  -2.1840686e+05
   1.3924642e-09  -3.5701398e-05   2.4107498e+00   2.4040618e+00  -2.1708441e+05
   1.3934645e-09  -3.5485036e-05   2.4107311e+00   2.4040836e+00  -2.1576995e+05
   1.3944648e-09  -3.5269984e-05   2.4107125e+00   2.4041053e+00  -2.1446344e+05
   1.3954652e-09  -3.5056233e-05   2.4106940e+00   2.4041268e+00  -2.1316482e+05
   1.3964655e-09  -3.4843777e-05   2.4106756e+00   2.4041482e+00  -2.1187406e+05
   1.3974658e-09  -3.4632606e-05   2.4106573e+00   2.4041695e+00  -2.1059109e+05
   1.3984662e-09  -3.4422714e-05   2.4106392e+00   2.4041907e+00  -2.0931588e+05
   1.3994665e-09  -3.4214093e-05   2.4106211e+00   2.4042117e+00  -2.0804838e+05
   1.4004668e-09  -3.4006734e-05   2.4106032e+00   2.4042326e+00  -2.0678855e+05
   1.4014672e-09  -3.3800631e-05   2.4105853e+00   2.4042533e+00  -2.0553632e+05
   1.4024675e-09  -3.3595776e-05   2.4105676e+00   2.4042740e+00  -2.0429167e+05
   1.4034678e-09  -3.3392161e-05   2.4105500e+00   2.4042945e+00  -2.0305454e+05
   1.4044682e-09  -3.3189778e-05   2.4105324e+00   2.4043149e+00  -2.0182490e+05
   1.4054685e-09  -3.2988621e-05   2.4105150e+00   2.4043351e+00  -2.0060268e+05
   1.4064688e-09  -3.2788682e-05   2.4104977e+00   2.4043553e+00  -1.9938785e+05
   1.4074692e-09  -3.2589953e-05   2.4104805e+00   2.4043753e+00  -1.9818037e+05
   1.4084695e-09  -3.2392427e-05   2.4104634e+00   2.4043952e+00  -1.9698019e+05
   1.4094698e-09  -3.2196097e-05   2.4104464e+00   2.4044150e+00  -1.9578727e+05
   1.4104702e-09  -3.2000956e-05   2.4104295e+00   2.4044347e+00  -1.9460155e+05
   1.4114705e-09  -3.1806996e-05   2.4104128e+00   2.4044542e+00  -1.9342301e+05
   1.4124708e-09  -3.1614211e-05   2.4103961e+00   2.4044736e+00  -1.9225159e+05
   1.4134712e-09  -3.1422593e-05   2.4103795e+00   2.4044929e+00  -1.9108726e+05
   1.4144715e-09  -3.1232135e-05   2.4103630e+00   2.4045121e+00  -1.8992996e+05
   1.4154718e-09  -3.1042830e-05   2.4103466e+00   2.4045312e+00  -1.8877966e+05
   1.4164722e-09  -3.0854672e-05   2.4103303e+00   2.4045502e+00  -1.8763632e+05
   1.4174725e-09  -3.0667653e-05   2.4103141e+00   2.4045690e+00  -1.8649989e+05
   1.4184728e-09  -3.0481766e-05   2.4102981e+00   2.4045877e+00  -1.8537033e+05
   1.4194732e-09  -3.0297005e-05   2.4102821e+00   2.4046064e+00  -1.8424760e+05
   1.4204735e-09  -3.0113362e-05   2.4102662e+00   2.4046249e+00  -1.8313166e+05
   1.4214738e-09  -2.9930832e-05   2.4102504e+00   2.4046433e+00  -1.8202247e+05
   1.4224742e-09  -2.9749406e-05   2.4102347e+00   2.4046615e+00  -1.8091999e+05
   1.4234745e-09  -2.9569080e-05   2.4102191e+00   2.4046797e+00  -1.7982417e+05
   1.4244748e-09  -2.9389845e-05   2.4102035e+00   2.4046978e+00  -1.7873498e+05
   1.4254752e-09  -2.9211695e-05   2.4101881e+00   2.4047157e+00  -1.7765238e+05
   1.4264755e-09  -2.9034625e-05   2.4101728e+00   2.4047336e+00  -1.7657632e+05
   1.4274758e-09  -2.8858626e-05   2.4101576e+00   2.4047513e+00  -1.7550677e+05
   1.4284762e-09  -2.8683693e-05   2.4101424e+00   2.4047689e+00  -1.7444369e+05
   1.4294765e-09  -2.8509820e-05   2.4101274e+00   2.4047864e+00  -1.7338704e+05
   1.4304768e-09  -2.8336999e-05   2.4101124e+00   2.4048039e+00  -1.7233678e+05
   1.4314772e-09  -2.8165225e-05   2.4100975e+00   2.4048212e+00  -1.7129287e+05
   1.4324775e-09  -2.7994492e-05   2.4100828e+00   2.4048384e+00  -1.7025527e+05
   1.4334778e-09  -2.7824792e-05   2.4100681e+00   2.4048555e+00  -1.6922395e+05
   1.4344782e-09  -2.7656120e-05   2.4100535e+00   2.4048725e+00  -1.6819887e+05
   1.4354785e-09  -2.7488469e-05   2.4100390e+00   2.4048894e+00  -1.6717998e+05
   1.4364788e-09  -2.7321834e-05   2.4100245e+00   2.4049062e+00  -1.6616726e+05
   1.4374792e-09  -2.7156208e-05   2.4100102e+00   2.4049228e+00  -1.6516067e+05
   1.4384795e-09  -2.6991584e-05   2.4099960e+00   2.4049394e+00  -1.6416016e+05
   1.4394798e-09  -2.6827958e-05   2.4099818e+00   2.4049559e+00  -1.6316570e+05
   1.4404802e-09  -2.6665323e-05   2.4099677e+00   2.4049723e+00  -1.6217726e+05
   1.4414805e-09  -2.6503673e-05   2.4099537e+00   2.4049886e+00  -1.6119480e+05
   1.4424808e-09  -2.6343001e-05   2.4099398e+00   2.4050048e+00  -1.6021828e+05
   1.4434812e-09  -2.6183303e-05   2.4099260e+00   2.4050209e+00  -1.5924767e+05
   1.4444815e-09  -2.6024572e-05   2.4099123e+00   2.4050369e+00  -1.5828293e+05
   1.4454818e-09  -2.5866802e-05   2.4098986e+00   2.4050528e+00  -1.5732402e+05
   1.4464822e-09  -2.5709988e-05   2.4098850e+00   2.4050686e+00  -1.5637092e+05
   1.4474825e-09  -2.5554124e-05   2.4098715e+00   2.4050843e+00  -1.5542358e+05
   1.4484828e-09  -2.5399203e-05   2.4098581e+00   2.4050999e+00  -1.5448197e+05
   1.4494832e-09  -2.5245221e-05   2.4098448e+00   2.4051154e+00  -1.5354606e+05
   1.4504835e-09  -2.5092172e-05   2.4098316e+00   2.4051308e+00  -1.5261581e+05
   1.4514838e-09  -2.4940049e-05   2.4098184e+00   2.4051462e+00  -1.5169119e+05
   1.4524842e-09  -2.4788848e-05   2.4098053e+00   2.4051614e+00  -1.5077216e+05
   1.4534845e-09  -2.4638563e-05   2.4097923e+00   2.4051765e+00  -1.4985869e+05
   1.4544848e-09  -2.4489188e-05   2.4097794e+00   2.4051916e+00  -1.4895074e+05
   1.4554852e-09  -2.4340718e-05   2.4097665e+00   2.4052066e+00  -1.4804829e+05
   1.4564855e-09  -2.4193147e-05   2.4097538e+00   2.4052214e+00  -1.4715130e+05
   1.4574858e-09  -2.4046470e-05   2.4097411e+00   2.4052362e+00  -1.4625974e+05
   1.4584862e-09  -2.3900681e-05   2.4097284e+00   2.4052509e+00  -1.4537357e+05
   1.4594865e-09  -2.3755775e-05   2.4097159e+00   2.4052655e+00  -1.4449276e+05
   1.4604868e-09  -2.3611747e-05   2.4097034e+00   2.4052800e+00  -1.4361729e+05
   1.4614872e-09  -2.3468592e-05   2.4096910e+00   2.4052945e+00  -1.4274710e+05
   1.4624875e-09  -2.3326304e-05   2.4096787e+00   2.4053088e+00  -1.4188219e+05
