   0.0000000e+00  -1.1042087e-01   6.4404087e+00   1.1947463e-03  -5.2376289e+08
   6.6688896e-13  -1.1007188e-01   6.4410384e+00   1.2277563e-03  -5.2284874e+08
   1.3337779e-12  -1.0972350e-01   6.4416755e+00   1.2616199e-03  -5.2193465e+08
   2.0006669e-12  -1.0937572e-01   6.4423198e+00   1.2963575e-03  -5.2102063e+08
   2.6675559e-12  -1.0902856e-01   6.4429715e+00   1.3319899e-03  -5.2010667e+08
   3.3344448e-12  -1.0868201e-01   6.4436306e+00   1.3685384e-03  -5.1919277e+08
   4.0013338e-12  -1.0833607e-01   6.4442973e+00   1.4060247e-03  -5.1827894e+08
   4.6682227e-12  -1.0799073e-01   6.4449715e+00   1.4444710e-03  -5.1736518e+08
   5.3351117e-12  -1.0764601e-01   6.4456533e+00   1.4838999e-03  -5.1645148e+08
   6.0020007e-12  -1.0730189e-01   6.4463428e+00   1.5243346e-03  -5.1553784e+08
   6.6688896e-12  -1.0695839e-01   6.4470401e+00   1.5657987e-03  -5.1462428e+08
   7.3357786e-12  -1.0661549e-01   6.4477452e+00   1.6083164e-03  -5.1371077e+08
   8.0026676e-12  -1.0627321e-01   6.4484582e+00   1.6519124e-03  -5.1279734e+08
   8.6695565e-12  -1.0593153e-01   6.4491791e+00   1.6966117e-03  -5.1188396e+08
   9.3364455e-12  -1.0559046e-01   6.4499081e+00   1.7424401e-03  -5.1097066e+08
   1.0003334e-11  -1.0525000e-01   6.4506451e+00   1.7894238e-03  -5.1005741e+08
   1.0670223e-11  -1.0491015e-01   6.4513903e+00   1.8375896e-03  -5.0914424e+08
   1.1337112e-11  -1.0457091e-01   6.4521437e+00   1.8869649e-03  -5.0823113e+08
   1.2004001e-11  -1.0423227e-01   6.4529054e+00   1.9375775e-03  -5.0731808e+08
   1.2670890e-11  -1.0389425e-01   6.4536754e+00   1.9894559e-03  -5.0640510e+08
   1.3337779e-11  -1.0355683e-01   6.4544538e+00   2.0426292e-03  -5.0549219e+08
   1.4004668e-11  -1.0322003e-01   6.4552407e+00   2.0971271e-03  -5.0457934e+08
   1.4671557e-11  -1.0288383e-01   6.4560362e+00   2.1529798e-03  -5.0366656e+08
   1.5338446e-11  -1.0254824e-01   6.4568402e+00   2.2102183e-03  -5.0275384e+08
   1.6005335e-11  -1.0221326e-01   6.4576529e+00   2.2688740e-03  -5.0184119e+08
   1.6672224e-11  -1.0187889e-01   6.4584744e+00   2.3289792e-03  -5.0092860e+08
   1.7339113e-11  -1.0154512e-01   6.4593047e+00   2.3905667e-03  -5.0001608e+08
   1.8006002e-11  -1.0121197e-01   6.4601438e+00   2.4536699e-03  -4.9910362e+08
   1.8672891e-11  -1.0087942e-01   6.4609919e+00   2.5183230e-03  -4.9819123e+08
   1.9339780e-11  -1.0054749e-01   6.4618490e+00   2.5845610e-03  -4.9727890e+08
   2.0006669e-11  -1.0021616e-01   6.4627152e+00   2.6524192e-03  -4.9636664e+08
   2.0673558e-11  -9.9885436e-02   6.4635905e+00   2.7219340e-03  -4.9545444e+08
   2.1340447e-11  -9.9555323e-02   6.4644750e+00   2.7931424e-03  -4.9454231e+08
   2.2007336e-11  -9.9225819e-02   6.4653688e+00   2.8660820e-03  -4.9363024e+08
   2.2674225e-11  -9.8896922e-02   6.4662719e+00   2.9407914e-03  -4.9271824e+08
   2.3341114e-11  -9.8568634e-02   6.4671845e+00   3.0173097e-03  -4.9180630e+08
   2.4008003e-11  -9.8240954e-02   6.4681065e+00   3.0956770e-03  -4.9089443e+08
   2.4674892e-11  -9.7913882e-02   6.4690380e+00   3.1759340e-03  -4.8998262e+08
   2.5341781e-11  -9.7587419e-02   6.4699792e+00   3.2581224e-03  -4.8907087e+08
   2.6008670e-11  -9.7261563e-02   6.4709300e+00   3.3422844e-03  -4.8815919e+08
   2.6675559e-11  -9.6936315e-02   6.4718905e+00   3.4284634e-03  -4.8724757e+08
   2.7342447e-11  -9.6611675e-02   6.4728609e+00   3.5167033e-03  -4.8633601e+08
   2.8009336e-11  -9.6287643e-02   6.4738411e+00   3.6070490e-03  -4.8542452e+08
   2.8676225e-11  -9.5964219e-02   6.4748313e+00   3.6995464e-03  -4.8451309e+08
   2.9343114e-11  -9.5641402e-02   6.4758315e+00   3.7942421e-03  -4.8360173e+08
   3.0010003e-11  -9.5319194e-02   6.4768417e+00   3.8911836e-03  -4.8269042e+08
   3.0676892e-11  -9.4997593e-02   6.4778620e+00   3.9904193e-03  -4.8177918e+08
   3.1343781e-11  -9.4676600e-02   6.4788926e+00   4.0919987e-03  -4.8086800e+08
   3.2010670e-11  -9.4356214e-02   6.4799334e+00   4.1959720e-03  -4.7995689e+08
   3.2677559e-11  -9.4036436e-02   6.4809846e+00   4.3023904e-03  -4.7904583e+08
   3.3344448e-11  -9.3717265e-02   6.4820461e+00   4.4113062e-03  -4.7813484e+08
   3.4011337e-11  -9.3398702e-02   6.4831181e+00   4.5227727e-03  -4.7722391e+08
   3.4678226e-11  -9.3080747e-02   6.4842006e+00   4.6368439e-03  -4.7631304e+08
   3.5345115e-11  -9.2763399e-02   6.4852937e+00   4.7535751e-03  -4.7540223e+08
   3.6012004e-11  -9.2446658e-02   6.4863974e+00   4.8730224e-03  -4.7449148e+08
   3.6678893e-11  -9.2130525e-02   6.4875119e+00   4.9952433e-03  -4.7358079e+08
   3.7345782e-11  -9.1814999e-02   6.4886371e+00   5.1202960e-03  -4.7267016e+08
   3.8012671e-11  -9.1500080e-02   6.4897732e+00   5.2482399e-03  -4.7175959e+08
   3.8679560e-11  -9.1185768e-02   6.4909201e+00   5.3791355e-03  -4.7084908e+08
   3.9346449e-11  -9.0872064e-02   6.4920780e+00   5.5130444e-03  -4.6993863e+08
   4.0013338e-11  -9.0558967e-02   6.4932470e+00   5.6500293e-03  -4.6902824e+08
   4.0680227e-11  -9.0246477e-02   6.4944270e+00   5.7901541e-03  -4.6811791e+08
   4.1347116e-11  -8.9934594e-02   6.4956181e+00   5.9334837e-03  -4.6720763e+08
   4.2014005e-11  -8.9623318e-02   6.4968205e+00   6.0800844e-03  -4.6629742e+08
   4.2680894e-11  -8.9312649e-02   6.4980341e+00   6.2300236e-03  -4.6538725e+08
   4.3347783e-11  -8.9002587e-02   6.4992591e+00   6.3833697e-03  -4.6447715e+08
   4.4014672e-11  -8.8693132e-02   6.5004954e+00   6.5401927e-03  -4.6356710e+08
   4.4681561e-11  -8.8384283e-02   6.5017432e+00   6.7005635e-03  -4.6265711e+08
   4.5348449e-11  -8.8076042e-02   6.5030025e+00   6.8645544e-03  -4.6174718e+08
   4.6015338e-11  -8.7768407e-02   6.5042733e+00   7.0322391e-03  -4.6083730e+08
   4.6682227e-11  -8.7461379e-02   6.5055558e+00   7.2036923e-03  -4.5992748e+08
   4.7349116e-11  -8.7154958e-02   6.5068499e+00   7.3789904e-03  -4.5901771e+08
   4.8016005e-11  -8.6849144e-02   6.5081558e+00   7.5582106e-03  -4.5810799e+08
   4.8682894e-11  -8.6543936e-02   6.5094734e+00   7.7414320e-03  -4.5719833e+08
   4.9349783e-11  -8.6239335e-02   6.5108029e+00   7.9287348e-03  -4.5628872e+08
   5.0016672e-11  -8.5935341e-02   6.5121442e+00   8.1202005e-03  -4.5537917e+08
   5.0683561e-11  -8.5631953e-02   6.5134975e+00   8.3159122e-03  -4.5446966e+08
   5.1350450e-11  -8.5329171e-02   6.5148628e+00   8.5159543e-03  -4.5356021e+08
   5.2017339e-11  -8.5026996e-02   6.5162402e+00   8.7204126e-03  -4.5265081e+08
   5.2684228e-11  -8.4725428e-02   6.5176296e+00   8.9293745e-03  -4.5174147e+08
   5.3351117e-11  -8.4424466e-02   6.5190312e+00   9.1429288e-03  -4.5083217e+08
   5.4018006e-11  -8.4124110e-02   6.5204450e+00   9.3611659e-03  -4.4992292e+08
   5.4684895e-11  -8.3824361e-02   6.5218711e+00   9.5841774e-03  -4.4901372e+08
   5.5351784e-11  -8.3525218e-02   6.5233094e+00   9.8120569e-03  -4.4810457e+08
   5.6018673e-11  -8.3226681e-02   6.5247601e+00   1.0044899e-02  -4.4719547e+08
   5.6685562e-11  -8.2928750e-02   6.5262232e+00   1.0282801e-02  -4.4628642e+08
   5.7352451e-11  -8.2631426e-02   6.5276988e+00   1.0525860e-02  -4.4537742e+08
   5.8019340e-11  -8.2334708e-02   6.5291868e+00   1.0774176e-02  -4.4446846e+08
   5.8686229e-11  -8.2038596e-02   6.5306873e+00   1.1027850e-02  -4.4355955e+08
   5.9353118e-11  -8.1743090e-02   6.5322004e+00   1.1286986e-02  -4.4265068e+08
   6.0020007e-11  -8.1448191e-02   6.5337261e+00   1.1551688e-02  -4.4174186e+08
   6.0686896e-11  -8.1153897e-02   6.5352645e+00   1.1822063e-02  -4.4083309e+08
   6.1353785e-11  -8.0860210e-02   6.5368156e+00   1.2098218e-02  -4.3992436e+08
   6.2020674e-11  -8.0567128e-02   6.5383794e+00   1.2380263e-02  -4.3901567e+08
   6.2687563e-11  -8.0274653e-02   6.5399559e+00   1.2668311e-02  -4.3810702e+08
   6.3354451e-11  -7.9982783e-02   6.5415453e+00   1.2962473e-02  -4.3719842e+08
   6.4021340e-11  -7.9691519e-02   6.5431475e+00   1.3262866e-02  -4.3628986e+08
   6.4688229e-11  -7.9400861e-02   6.5447626e+00   1.3569607e-02  -4.3538134e+08
   6.5355118e-11  -7.9110810e-02   6.5463906e+00   1.3882814e-02  -4.3447286e+08
   6.6022007e-11  -7.8821363e-02   6.5480316e+00   1.4202607e-02  -4.3356443e+08
   6.6688896e-11  -7.8532523e-02   6.5496855e+00   1.4529111e-02  -4.3265603e+08
   6.7355785e-11  -7.8244289e-02   6.5513524e+00   1.4862448e-02  -4.3174767e+08
   6.8022674e-11  -7.7956660e-02   6.5530324e+00   1.5202745e-02  -4.3083934e+08
   6.8689563e-11  -7.7669637e-02   6.5547254e+00   1.5550131e-02  -4.2993106e+08
   6.9356452e-11  -7.7383220e-02   6.5564315e+00   1.5904735e-02  -4.2902281e+08
   7.0023341e-11  -7.7097408e-02   6.5581507e+00   1.6266691e-02  -4.2811460e+08
   7.0690230e-11  -7.6812203e-02   6.5598831e+00   1.6636132e-02  -4.2720642e+08
   7.1357119e-11  -7.6527602e-02   6.5616286e+00   1.7013195e-02  -4.2629828e+08
   7.2024008e-11  -7.6243608e-02   6.5633873e+00   1.7398018e-02  -4.2539018e+08
   7.2690897e-11  -7.5960219e-02   6.5651591e+00   1.7790741e-02  -4.2448210e+08
   7.3357786e-11  -7.5677435e-02   6.5669442e+00   1.8191507e-02  -4.2357406e+08
   7.4024675e-11  -7.5395258e-02   6.5687425e+00   1.8600461e-02  -4.2266605e+08
   7.4691564e-11  -7.5113685e-02   6.5705541e+00   1.9017749e-02  -4.2175808e+08
   7.5358453e-11  -7.4832718e-02   6.5723789e+00   1.9443520e-02  -4.2085013e+08
   7.6025342e-11  -7.4552357e-02   6.5742170e+00   1.9877925e-02  -4.1994222e+08
   7.6692231e-11  -7.4272601e-02   6.5760684e+00   2.0321118e-02  -4.1903433e+08
   7.7359120e-11  -7.3993451e-02   6.5779330e+00   2.0773253e-02  -4.1812647e+08
   7.8026009e-11  -7.3714906e-02   6.5798109e+00   2.1234489e-02  -4.1721864e+08
   7.8692898e-11  -7.3436967e-02   6.5817022e+00   2.1704986e-02  -4.1631084e+08
   7.9359787e-11  -7.3159632e-02   6.5836067e+00   2.2184905e-02  -4.1540307e+08
   8.0026676e-11  -7.2882904e-02   6.5855245e+00   2.2674412e-02  -4.1449532e+08
   8.0693565e-11  -7.2606780e-02   6.5874556e+00   2.3173672e-02  -4.1358760e+08
   8.1360453e-11  -7.2331262e-02   6.5894001e+00   2.3682856e-02  -4.1267990e+08
   8.2027342e-11  -7.2056350e-02   6.5913578e+00   2.4202135e-02  -4.1177222e+08
   8.2694231e-11  -7.1782042e-02   6.5933288e+00   2.4731682e-02  -4.1086457e+08
   8.3361120e-11  -7.1508340e-02   6.5953131e+00   2.5271674e-02  -4.0995694e+08
   8.4028009e-11  -7.1235244e-02   6.5973106e+00   2.5822289e-02  -4.0904933e+08
   8.4694898e-11  -7.0962752e-02   6.5993214e+00   2.6383709e-02  -4.0814174e+08
   8.5361787e-11  -7.0690866e-02   6.6013454e+00   2.6956117e-02  -4.0723418e+08
   8.6028676e-11  -7.0419585e-02   6.6033827e+00   2.7539699e-02  -4.0632663e+08
   8.6695565e-11  -7.0148909e-02   6.6054332e+00   2.8134644e-02  -4.0541910e+08
   8.7362454e-11  -6.9878839e-02   6.6074968e+00   2.8741143e-02  -4.0451159e+08
   8.8029343e-11  -6.9609373e-02   6.6095736e+00   2.9359389e-02  -4.0360410e+08
   8.8696232e-11  -6.9340513e-02   6.6116636e+00   2.9989578e-02  -4.0269663e+08
   8.9363121e-11  -6.9072258e-02   6.6137667e+00   3.0631909e-02  -4.0178917e+08
   9.0030010e-11  -6.8804609e-02   6.6158828e+00   3.1286583e-02  -4.0088172e+08
   9.0696899e-11  -6.8537564e-02   6.6180120e+00   3.1953804e-02  -3.9997429e+08
   9.1363788e-11  -6.8271125e-02   6.6201542e+00   3.2633778e-02  -3.9906688e+08
   9.2030677e-11  -6.8005290e-02   6.6223094e+00   3.3326714e-02  -3.9815947e+08
   9.2697566e-11  -6.7740061e-02   6.6244775e+00   3.4032825e-02  -3.9725208e+08
   9.3364455e-11  -6.7475437e-02   6.6266585e+00   3.4752323e-02  -3.9634471e+08
   9.4031344e-11  -6.7211419e-02   6.6288524e+00   3.5485427e-02  -3.9543734e+08
   9.4698233e-11  -6.6948005e-02   6.6310591e+00   3.6232355e-02  -3.9452998e+08
   9.5365122e-11  -6.6685196e-02   6.6332786e+00   3.6993330e-02  -3.9362264e+08
   9.6032011e-11  -6.6422993e-02   6.6355107e+00   3.7768578e-02  -3.9271530e+08
   9.6698900e-11  -6.6161394e-02   6.6377556e+00   3.8558326e-02  -3.9180797e+08
   9.7365789e-11  -6.5900401e-02   6.6400130e+00   3.9362804e-02  -3.9090065e+08
   9.8032678e-11  -6.5640013e-02   6.6422829e+00   4.0182246e-02  -3.8999334e+08
   9.8699567e-11  -6.5380230e-02   6.6445654e+00   4.1016887e-02  -3.8908603e+08
   9.9366455e-11  -6.5121052e-02   6.6468602e+00   4.1866967e-02  -3.8817873e+08
   1.0003334e-10  -6.4862479e-02   6.6491674e+00   4.2732728e-02  -3.8727143e+08
   1.0070023e-10  -6.4604511e-02   6.6514869e+00   4.3614413e-02  -3.8636414e+08
   1.0136712e-10  -6.4347148e-02   6.6538186e+00   4.4512270e-02  -3.8545685e+08
   1.0203401e-10  -6.4090390e-02   6.6561624e+00   4.5426548e-02  -3.8454957e+08
   1.0270090e-10  -6.3834238e-02   6.6585183e+00   4.6357502e-02  -3.8364228e+08
   1.0336779e-10  -6.3578690e-02   6.6608861e+00   4.7305385e-02  -3.8273501e+08
   1.0403468e-10  -6.3323748e-02   6.6632658e+00   4.8270458e-02  -3.8182773e+08
   1.0470157e-10  -6.3069410e-02   6.6656574e+00   4.9252980e-02  -3.8092045e+08
   1.0536846e-10  -6.2815678e-02   6.6680606e+00   5.0253217e-02  -3.8001317e+08
   1.0603535e-10  -6.2562550e-02   6.6704754e+00   5.1271436e-02  -3.7910590e+08
   1.0670223e-10  -6.2310028e-02   6.6729018e+00   5.2307906e-02  -3.7819862e+08
   1.0736912e-10  -6.2058111e-02   6.6753396e+00   5.3362900e-02  -3.7729134e+08
   1.0803601e-10  -6.1806799e-02   6.6777887e+00   5.4436694e-02  -3.7638406e+08
   1.0870290e-10  -6.1556092e-02   6.6802490e+00   5.5529567e-02  -3.7547678e+08
   1.0936979e-10  -6.1305990e-02   6.6827204e+00   5.6641800e-02  -3.7456949e+08
   1.1003668e-10  -6.1056493e-02   6.6852028e+00   5.7773677e-02  -3.7366220e+08
   1.1070357e-10  -6.0807601e-02   6.6876961e+00   5.8925486e-02  -3.7275491e+08
   1.1137046e-10  -6.0559314e-02   6.6902001e+00   6.0097516e-02  -3.7184761e+08
   1.1203735e-10  -6.0311632e-02   6.6927147e+00   6.1290061e-02  -3.7094031e+08
   1.1270423e-10  -6.0064556e-02   6.6952399e+00   6.2503416e-02  -3.7003301e+08
   1.1337112e-10  -5.9818084e-02   6.6977755e+00   6.3737881e-02  -3.6912569e+08
   1.1403801e-10  -5.9572218e-02   6.7003213e+00   6.4993757e-02  -3.6821838e+08
   1.1470490e-10  -5.9326957e-02   6.7028772e+00   6.6271348e-02  -3.6731105e+08
   1.1537179e-10  -5.9082300e-02   6.7054430e+00   6.7570961e-02  -3.6640372e+08
   1.1603868e-10  -5.8838249e-02   6.7080187e+00   6.8892908e-02  -3.6549639e+08
   1.1670557e-10  -5.8594803e-02   6.7106041e+00   7.0237500e-02  -3.6458904e+08
   1.1737246e-10  -5.8351962e-02   6.7131990e+00   7.1605055e-02  -3.6368169e+08
   1.1803935e-10  -5.8109727e-02   6.7158033e+00   7.2995890e-02  -3.6277433e+08
   1.1870624e-10  -5.7868096e-02   6.7184168e+00   7.4410327e-02  -3.6186697e+08
   1.1937312e-10  -5.7627070e-02   6.7210394e+00   7.5848691e-02  -3.6095959e+08
   1.2004001e-10  -5.7386650e-02   6.7236709e+00   7.7311309e-02  -3.6005221e+08
   1.2070690e-10  -5.7146835e-02   6.7263111e+00   7.8798511e-02  -3.5914482e+08
   1.2137379e-10  -5.6907625e-02   6.7289599e+00   8.0310629e-02  -3.5823742e+08
   1.2204068e-10  -5.6669020e-02   6.7316170e+00   8.1847999e-02  -3.5733001e+08
   1.2270757e-10  -5.6431020e-02   6.7342824e+00   8.3410959e-02  -3.5642259e+08
   1.2337446e-10  -5.6193625e-02   6.7369558e+00   8.4999850e-02  -3.5551516e+08
   1.2404135e-10  -5.5956836e-02   6.7396370e+00   8.6615016e-02  -3.5460773e+08
   1.2470824e-10  -5.5720652e-02   6.7423258e+00   8.8256804e-02  -3.5370028e+08
   1.2537513e-10  -5.5485073e-02   6.7450221e+00   8.9925561e-02  -3.5279283e+08
   1.2604201e-10  -5.5250099e-02   6.7477257e+00   9.1621641e-02  -3.5188537e+08
   1.2670890e-10  -5.5015730e-02   6.7504363e+00   9.3345396e-02  -3.5097790e+08
   1.2737579e-10  -5.4781967e-02   6.7531537e+00   9.5097185e-02  -3.5007042e+08
   1.2804268e-10  -5.4548808e-02   6.7558778e+00   9.6877365e-02  -3.4916293e+08
   1.2870957e-10  -5.4316255e-02   6.7586083e+00   9.8686300e-02  -3.4825543e+08
   1.2937646e-10  -5.4084307e-02   6.7613450e+00   1.0052435e-01  -3.4734793e+08
   1.3004335e-10  -5.3852965e-02   6.7640877e+00   1.0239189e-01  -3.4644041e+08
   1.3071024e-10  -5.3622227e-02   6.7668361e+00   1.0428929e-01  -3.4553289e+08
   1.3137713e-10  -5.3392095e-02   6.7695901e+00   1.0621691e-01  -3.4462536e+08
   1.3204401e-10  -5.3162568e-02   6.7723494e+00   1.0817513e-01  -3.4371783e+08
   1.3271090e-10  -5.2933646e-02   6.7751137e+00   1.1016433e-01  -3.4281029e+08
   1.3337779e-10  -5.2705330e-02   6.7778828e+00   1.1218488e-01  -3.4190274e+08
   1.3404468e-10  -5.2477619e-02   6.7806565e+00   1.1423718e-01  -3.4099518e+08
   1.3471157e-10  -5.2250513e-02   6.7834345e+00   1.1632159e-01  -3.4008762e+08
   1.3537846e-10  -5.2024012e-02   6.7862165e+00   1.1843851e-01  -3.3918006e+08
   1.3604535e-10  -5.1798117e-02   6.7890024e+00   1.2058832e-01  -3.3827249e+08
   1.3671224e-10  -5.1572827e-02   6.7917918e+00   1.2277141e-01  -3.3736492e+08
   1.3737913e-10  -5.1348142e-02   6.7945845e+00   1.2498818e-01  -3.3645734e+08
   1.3804602e-10  -5.1124062e-02   6.7973802e+00   1.2723901e-01  -3.3554977e+08
   1.3871290e-10  -5.0900588e-02   6.8001786e+00   1.2952431e-01  -3.3464219e+08
   1.3937979e-10  -5.0677719e-02   6.8029795e+00   1.3184447e-01  -3.3373461e+08
   1.4004668e-10  -5.0455455e-02   6.8057826e+00   1.3419989e-01  -3.3282703e+08
   1.4071357e-10  -5.0233796e-02   6.8085875e+00   1.3659097e-01  -3.3191945e+08
   1.4138046e-10  -5.0012743e-02   6.8113940e+00   1.3901812e-01  -3.3101187e+08
   1.4204735e-10  -4.9792295e-02   6.8142019e+00   1.4148173e-01  -3.3010430e+08
   1.4271424e-10  -4.9572452e-02   6.8170107e+00   1.4398222e-01  -3.2919673e+08
   1.4338113e-10  -4.9353215e-02   6.8198202e+00   1.4651998e-01  -3.2828916e+08
   1.4404802e-10  -4.9134583e-02   6.8226302e+00   1.4909544e-01  -3.2738160e+08
   1.4471490e-10  -4.8916556e-02   6.8254402e+00   1.5170900e-01  -3.2647405e+08
   1.4538179e-10  -4.8699134e-02   6.8282500e+00   1.5436108e-01  -3.2556651e+08
   1.4604868e-10  -4.8482318e-02   6.8310592e+00   1.5705207e-01  -3.2465897e+08
   1.4671557e-10  -4.8266107e-02   6.8338675e+00   1.5978241e-01  -3.2375145e+08
   1.4738246e-10  -4.8050501e-02   6.8366747e+00   1.6255251e-01  -3.2284394e+08
   1.4804935e-10  -4.7835500e-02   6.8394803e+00   1.6536277e-01  -3.2193645e+08
   1.4871624e-10  -4.7621104e-02   6.8422841e+00   1.6821362e-01  -3.2102897e+08
   1.4938313e-10  -4.7407314e-02   6.8450856e+00   1.7110548e-01  -3.2012151e+08
   1.5005002e-10  -4.7194129e-02   6.8478846e+00   1.7403877e-01  -3.1921406e+08
   1.5071691e-10  -4.6981549e-02   6.8506807e+00   1.7701390e-01  -3.1830664e+08
   1.5138379e-10  -4.6769574e-02   6.8534736e+00   1.8003129e-01  -3.1739924e+08
   1.5205068e-10  -4.6558204e-02   6.8562628e+00   1.8309138e-01  -3.1649187e+08
   1.5271757e-10  -4.6347440e-02   6.8590481e+00   1.8619457e-01  -3.1558452e+08
   1.5338446e-10  -4.6137280e-02   6.8618291e+00   1.8934128e-01  -3.1467719e+08
   1.5405135e-10  -4.5927726e-02   6.8646054e+00   1.9253196e-01  -3.1376990e+08
   1.5471824e-10  -4.5718777e-02   6.8673767e+00   1.9576700e-01  -3.1286264e+08
   1.5538513e-10  -4.5510432e-02   6.8701425e+00   1.9904684e-01  -3.1195542e+08
   1.5605202e-10  -4.5302693e-02   6.8729026e+00   2.0237190e-01  -3.1104823e+08
   1.5671891e-10  -4.5095559e-02   6.8756564e+00   2.0574260e-01  -3.1014108e+08
   1.5738580e-10  -4.4889030e-02   6.8784037e+00   2.0915936e-01  -3.0923398e+08
   1.5805268e-10  -4.4683105e-02   6.8811440e+00   2.1262261e-01  -3.0832691e+08
   1.5871957e-10  -4.4477786e-02   6.8838770e+00   2.1613276e-01  -3.0741990e+08
   1.5938646e-10  -4.4273071e-02   6.8866023e+00   2.1969024e-01  -3.0651293e+08
   1.6005335e-10  -4.4068962e-02   6.8893194e+00   2.2329546e-01  -3.0560601e+08
   1.6072024e-10  -4.3865457e-02   6.8920280e+00   2.2694885e-01  -3.0469915e+08
   1.6138713e-10  -4.3662557e-02   6.8947276e+00   2.3065083e-01  -3.0379235e+08
   1.6205402e-10  -4.3460262e-02   6.8974179e+00   2.3440180e-01  -3.0288560e+08
   1.6272091e-10  -4.3258571e-02   6.9000985e+00   2.3820220e-01  -3.0197892e+08
   1.6338780e-10  -4.3057485e-02   6.9027688e+00   2.4205243e-01  -3.0107231e+08
   1.6405468e-10  -4.2857003e-02   6.9054286e+00   2.4595291e-01  -3.0016576e+08
   1.6472157e-10  -4.2657127e-02   6.9080774e+00   2.4990405e-01  -2.9925929e+08
   1.6538846e-10  -4.2457854e-02   6.9107148e+00   2.5390626e-01  -2.9835290e+08
   1.6605535e-10  -4.2259186e-02   6.9133403e+00   2.5795995e-01  -2.9744658e+08
   1.6672224e-10  -4.2061123e-02   6.9159535e+00   2.6206554e-01  -2.9654035e+08
   1.6738913e-10  -4.1863664e-02   6.9185540e+00   2.6622342e-01  -2.9563421e+08
   1.6805602e-10  -4.1666809e-02   6.9211413e+00   2.7043399e-01  -2.9472815e+08
   1.6872291e-10  -4.1470558e-02   6.9237151e+00   2.7469767e-01  -2.9382219e+08
   1.6938980e-10  -4.1274912e-02   6.9262749e+00   2.7901485e-01  -2.9291633e+08
   1.7005669e-10  -4.1079869e-02   6.9288202e+00   2.8338593e-01  -2.9201057e+08
   1.7072357e-10  -4.0885431e-02   6.9313506e+00   2.8781130e-01  -2.9110492e+08
   1.7139046e-10  -4.0691597e-02   6.9338656e+00   2.9229135e-01  -2.9019938e+08
   1.7205735e-10  -4.0498366e-02   6.9363648e+00   2.9682648e-01  -2.8929395e+08
   1.7272424e-10  -4.0305739e-02   6.9388478e+00   3.0141706e-01  -2.8838864e+08
   1.7339113e-10  -4.0113716e-02   6.9413141e+00   3.0606349e-01  -2.8748346e+08
   1.7405802e-10  -3.9922297e-02   6.9437632e+00   3.1076613e-01  -2.8657840e+08
   1.7472491e-10  -3.9731481e-02   6.9461947e+00   3.1552538e-01  -2.8567348e+08
   1.7539180e-10  -3.9541269e-02   6.9486082e+00   3.2034159e-01  -2.8476869e+08
   1.7605869e-10  -3.9351660e-02   6.9510031e+00   3.2521515e-01  -2.8386405e+08
   1.7672558e-10  -3.9162654e-02   6.9533790e+00   3.3014641e-01  -2.8295955e+08
   1.7739246e-10  -3.8974251e-02   6.9557355e+00   3.3513573e-01  -2.8205521e+08
   1.7805935e-10  -3.8786452e-02   6.9580720e+00   3.4018348e-01  -2.8115103e+08
   1.7872624e-10  -3.8599255e-02   6.9603882e+00   3.4529001e-01  -2.8024701e+08
   1.7939313e-10  -3.8412662e-02   6.9626835e+00   3.5045567e-01  -2.7934315e+08
   1.8006002e-10  -3.8226671e-02   6.9649575e+00   3.5568079e-01  -2.7843948e+08
   1.8072691e-10  -3.8041282e-02   6.9672097e+00   3.6096572e-01  -2.7753598e+08
   1.8139380e-10  -3.7856496e-02   6.9694397e+00   3.6631080e-01  -2.7663266e+08
   1.8206069e-10  -3.7672313e-02   6.9716470e+00   3.7171636e-01  -2.7572954e+08
   1.8272758e-10  -3.7488731e-02   6.9738310e+00   3.7718271e-01  -2.7482662e+08
   1.8339446e-10  -3.7305752e-02   6.9759914e+00   3.8271019e-01  -2.7392390e+08
   1.8406135e-10  -3.7123375e-02   6.9781277e+00   3.8829909e-01  -2.7302139e+08
   1.8472824e-10  -3.6941599e-02   6.9802394e+00   3.9394974e-01  -2.7211909e+08
   1.8539513e-10  -3.6760426e-02   6.9823259e+00   3.9966244e-01  -2.7121702e+08
   1.8606202e-10  -3.6579853e-02   6.9843870e+00   4.0543748e-01  -2.7031518e+08
   1.8672891e-10  -3.6399882e-02   6.9864220e+00   4.1127515e-01  -2.6941357e+08
   1.8739580e-10  -3.6220513e-02   6.9884305e+00   4.1717574e-01  -2.6851220e+08
   1.8806269e-10  -3.6041744e-02   6.9904121e+00   4.2313953e-01  -2.6761109e+08
   1.8872958e-10  -3.5863576e-02   6.9923662e+00   4.2916680e-01  -2.6671023e+08
   1.8939647e-10  -3.5686009e-02   6.9942924e+00   4.3525779e-01  -2.6580963e+08
   1.9006335e-10  -3.5509043e-02   6.9961902e+00   4.4141279e-01  -2.6490931e+08
   1.9073024e-10  -3.5332676e-02   6.9980592e+00   4.4763203e-01  -2.6400926e+08
   1.9139713e-10  -3.5156910e-02   6.9998989e+00   4.5391576e-01  -2.6310950e+08
   1.9206402e-10  -3.4981744e-02   7.0017089e+00   4.6026423e-01  -2.6221003e+08
   1.9273091e-10  -3.4807178e-02   7.0034885e+00   4.6667766e-01  -2.6131086e+08
   1.9339780e-10  -3.4633211e-02   7.0052375e+00   4.7315628e-01  -2.6041200e+08
   1.9406469e-10  -3.4459844e-02   7.0069553e+00   4.7970030e-01  -2.5951346e+08
   1.9473158e-10  -3.4287075e-02   7.0086415e+00   4.8630993e-01  -2.5861525e+08
   1.9539847e-10  -3.4114906e-02   7.0102956e+00   4.9298537e-01  -2.5771737e+08
   1.9606536e-10  -3.3943335e-02   7.0119171e+00   4.9972681e-01  -2.5681982e+08
   1.9673224e-10  -3.3772363e-02   7.0135057e+00   5.0653444e-01  -2.5592263e+08
   1.9739913e-10  -3.3601989e-02   7.0150608e+00   5.1340844e-01  -2.5502580e+08
   1.9806602e-10  -3.3432213e-02   7.0165820e+00   5.2034897e-01  -2.5412934e+08
   1.9873291e-10  -3.3263035e-02   7.0180689e+00   5.2735618e-01  -2.5323325e+08
   1.9939980e-10  -3.3094454e-02   7.0195210e+00   5.3443024e-01  -2.5233755e+08
   2.0006669e-10  -3.2926470e-02   7.0209378e+00   5.4157128e-01  -2.5144224e+08
   2.0073358e-10  -3.2759084e-02   7.0223190e+00   5.4877944e-01  -2.5054734e+08
   2.0140047e-10  -3.2592294e-02   7.0236640e+00   5.5605484e-01  -2.4965285e+08
   2.0206736e-10  -3.2426100e-02   7.0249725e+00   5.6339759e-01  -2.4875878e+08
   2.0273424e-10  -3.2260503e-02   7.0262441e+00   5.7080780e-01  -2.4786515e+08
   2.0340113e-10  -3.2095501e-02   7.0274782e+00   5.7828557e-01  -2.4697195e+08
   2.0406802e-10  -3.1931095e-02   7.0286745e+00   5.8583098e-01  -2.4607921e+08
   2.0473491e-10  -3.1767284e-02   7.0298326e+00   5.9344411e-01  -2.4518694e+08
   2.0540180e-10  -3.1604068e-02   7.0309520e+00   6.0112502e-01  -2.4429513e+08
   2.0606869e-10  -3.1441446e-02   7.0320324e+00   6.0887378e-01  -2.4340381e+08
   2.0673558e-10  -3.1279419e-02   7.0330733e+00   6.1669043e-01  -2.4251298e+08
   2.0740247e-10  -3.1117986e-02   7.0340743e+00   6.2457501e-01  -2.4162265e+08
   2.0806936e-10  -3.0957146e-02   7.0350350e+00   6.3252754e-01  -2.4073284e+08
   2.0873625e-10  -3.0796900e-02   7.0359551e+00   6.4054804e-01  -2.3984356e+08
   2.0940313e-10  -3.0637246e-02   7.0368341e+00   6.4863653e-01  -2.3895481e+08
   2.1007002e-10  -3.0478185e-02   7.0376717e+00   6.5679299e-01  -2.3806660e+08
   2.1073691e-10  -3.0319717e-02   7.0384675e+00   6.6501741e-01  -2.3717896e+08
   2.1140380e-10  -3.0161840e-02   7.0392211e+00   6.7330977e-01  -2.3629188e+08
   2.1207069e-10  -3.0004554e-02   7.0399321e+00   6.8167003e-01  -2.3540539e+08
   2.1273758e-10  -2.9847859e-02   7.0406003e+00   6.9009815e-01  -2.3451949e+08
   2.1340447e-10  -2.9691755e-02   7.0412251e+00   6.9859406e-01  -2.3363419e+08
   2.1407136e-10  -2.9536241e-02   7.0418063e+00   7.0715770e-01  -2.3274951e+08
   2.1473825e-10  -2.9381317e-02   7.0423436e+00   7.1578900e-01  -2.3186546e+08
   2.1540514e-10  -2.9226983e-02   7.0428366e+00   7.2448785e-01  -2.3098204e+08
   2.1607202e-10  -2.9073237e-02   7.0432849e+00   7.3325417e-01  -2.3009928e+08
   2.1673891e-10  -2.8920080e-02   7.0436882e+00   7.4208783e-01  -2.2921718e+08
   2.1740580e-10  -2.8767511e-02   7.0440463e+00   7.5098872e-01  -2.2833576e+08
   2.1807269e-10  -2.8615529e-02   7.0443587e+00   7.5995670e-01  -2.2745503e+08
   2.1873958e-10  -2.8464134e-02   7.0446253e+00   7.6899162e-01  -2.2657500e+08
   2.1940647e-10  -2.8313327e-02   7.0448456e+00   7.7809333e-01  -2.2569569e+08
   2.2007336e-10  -2.8163105e-02   7.0450194e+00   7.8726166e-01  -2.2481710e+08
   2.2074025e-10  -2.8013469e-02   7.0451465e+00   7.9649643e-01  -2.2393925e+08
   2.2140714e-10  -2.7864418e-02   7.0452265e+00   8.0579745e-01  -2.2306215e+08
   2.2207402e-10  -2.7715952e-02   7.0452591e+00   8.1516451e-01  -2.2218582e+08
   2.2274091e-10  -2.7568070e-02   7.0452442e+00   8.2459740e-01  -2.2131027e+08
   2.2340780e-10  -2.7420772e-02   7.0451813e+00   8.3409590e-01  -2.2043552e+08
   2.2407469e-10  -2.7274057e-02   7.0450704e+00   8.4365977e-01  -2.1956157e+08
   2.2474158e-10  -2.7127924e-02   7.0449111e+00   8.5328877e-01  -2.1868844e+08
   2.2540847e-10  -2.6982374e-02   7.0447032e+00   8.6298262e-01  -2.1781614e+08
   2.2607536e-10  -2.6837404e-02   7.0444466e+00   8.7274106e-01  -2.1694469e+08
   2.2674225e-10  -2.6693016e-02   7.0441408e+00   8.8256382e-01  -2.1607410e+08
   2.2740914e-10  -2.6549208e-02   7.0437859e+00   8.9245058e-01  -2.1520439e+08
   2.2807603e-10  -2.6405980e-02   7.0433815e+00   9.0240106e-01  -2.1433556e+08
   2.2874291e-10  -2.6263331e-02   7.0429274e+00   9.1241492e-01  -2.1346764e+08
   2.2940980e-10  -2.6121260e-02   7.0424236e+00   9.2249185e-01  -2.1260064e+08
   2.3007669e-10  -2.5979767e-02   7.0418697e+00   9.3263150e-01  -2.1173457e+08
   2.3074358e-10  -2.5838852e-02   7.0412656e+00   9.4283353e-01  -2.1086944e+08
   2.3141047e-10  -2.5698513e-02   7.0406113e+00   9.5309757e-01  -2.1000527e+08
   2.3207736e-10  -2.5558750e-02   7.0399064e+00   9.6342324e-01  -2.0914208e+08
   2.3274425e-10  -2.5419563e-02   7.0391509e+00   9.7381018e-01  -2.0827988e+08
   2.3341114e-10  -2.5280950e-02   7.0383447e+00   9.8425797e-01  -2.0741868e+08
   2.3407803e-10  -2.5142911e-02   7.0374875e+00   9.9476621e-01  -2.0655850e+08
   2.3474491e-10  -2.5005446e-02   7.0365794e+00   1.0053345e+00  -2.0569936e+08
   2.3541180e-10  -2.4868553e-02   7.0356201e+00   1.0159624e+00  -2.0484126e+08
   2.3607869e-10  -2.4732232e-02   7.0346096e+00   1.0266494e+00  -2.0398423e+08
   2.3674558e-10  -2.4596482e-02   7.0335479e+00   1.0373952e+00  -2.0312828e+08
   2.3741247e-10  -2.4461303e-02   7.0324347e+00   1.0481992e+00  -2.0227342e+08
   2.3807936e-10  -2.4326693e-02   7.0312701e+00   1.0590611e+00  -2.0141966e+08
   2.3874625e-10  -2.4192652e-02   7.0300540e+00   1.0699802e+00  -2.0056704e+08
   2.3941314e-10  -2.4059180e-02   7.0287863e+00   1.0809561e+00  -1.9971555e+08
   2.4008003e-10  -2.3926275e-02   7.0274669e+00   1.0919884e+00  -1.9886521e+08
   2.4074692e-10  -2.3793937e-02   7.0260960e+00   1.1030765e+00  -1.9801605e+08
   2.4141380e-10  -2.3662164e-02   7.0246733e+00   1.1142198e+00  -1.9716807e+08
   2.4208069e-10  -2.3530957e-02   7.0231990e+00   1.1254179e+00  -1.9632129e+08
   2.4274758e-10  -2.3400314e-02   7.0216729e+00   1.1366702e+00  -1.9547573e+08
   2.4341447e-10  -2.3270235e-02   7.0200952e+00   1.1479762e+00  -1.9463139e+08
   2.4408136e-10  -2.3140718e-02   7.0184657e+00   1.1593352e+00  -1.9378831e+08
   2.4474825e-10  -2.3011763e-02   7.0167846e+00   1.1707468e+00  -1.9294649e+08
   2.4541514e-10  -2.2883370e-02   7.0150519e+00   1.1822104e+00  -1.9210594e+08
   2.4608203e-10  -2.2755536e-02   7.0132675e+00   1.1937252e+00  -1.9126669e+08
   2.4674892e-10  -2.2628261e-02   7.0114316e+00   1.2052909e+00  -1.9042875e+08
   2.4741581e-10  -2.2501545e-02   7.0095442e+00   1.2169067e+00  -1.8959213e+08
   2.4808269e-10  -2.2375386e-02   7.0076054e+00   1.2285721e+00  -1.8875685e+08
   2.4874958e-10  -2.2249784e-02   7.0056152e+00   1.2402863e+00  -1.8792293e+08
   2.4941647e-10  -2.2124738e-02   7.0035737e+00   1.2520489e+00  -1.8709038e+08
   2.5008336e-10  -2.2000246e-02   7.0014811e+00   1.2638591e+00  -1.8625922e+08
   2.5075025e-10  -2.1876309e-02   6.9993374e+00   1.2757163e+00  -1.8542946e+08
   2.5141714e-10  -2.1752924e-02   6.9971427e+00   1.2876198e+00  -1.8460112e+08
   2.5208403e-10  -2.1630091e-02   6.9948972e+00   1.2995690e+00  -1.8377421e+08
   2.5275092e-10  -2.1507809e-02   6.9926010e+00   1.3115633e+00  -1.8294875e+08
   2.5341781e-10  -2.1386077e-02   6.9902542e+00   1.3236018e+00  -1.8212476e+08
   2.5408469e-10  -2.1264894e-02   6.9878569e+00   1.3356840e+00  -1.8130225e+08
   2.5475158e-10  -2.1144259e-02   6.9854095e+00   1.3478092e+00  -1.8048123e+08
   2.5541847e-10  -2.1024171e-02   6.9829119e+00   1.3599766e+00  -1.7966173e+08
   2.5608536e-10  -2.0904629e-02   6.9803644e+00   1.3721856e+00  -1.7884375e+08
   2.5675225e-10  -2.0785632e-02   6.9777671e+00   1.3844354e+00  -1.7802732e+08
   2.5741914e-10  -2.0667180e-02   6.9751203e+00   1.3967253e+00  -1.7721244e+08
   2.5808603e-10  -2.0549270e-02   6.9724241e+00   1.4090546e+00  -1.7639914e+08
   2.5875292e-10  -2.0431901e-02   6.9696788e+00   1.4214226e+00  -1.7558743e+08
   2.5941981e-10  -2.0315074e-02   6.9668846e+00   1.4338285e+00  -1.7477732e+08
   2.6008670e-10  -2.0198786e-02   6.9640416e+00   1.4462716e+00  -1.7396884e+08
   2.6075358e-10  -2.0083037e-02   6.9611502e+00   1.4587511e+00  -1.7316198e+08
   2.6142047e-10  -1.9967826e-02   6.9582106e+00   1.4712663e+00  -1.7235678e+08
   2.6208736e-10  -1.9853151e-02   6.9552229e+00   1.4838165e+00  -1.7155325e+08
   2.6275425e-10  -1.9739011e-02   6.9521876e+00   1.4964008e+00  -1.7075139e+08
   2.6342114e-10  -1.9625406e-02   6.9491048e+00   1.5090185e+00  -1.6995123e+08
   2.6408803e-10  -1.9512333e-02   6.9459748e+00   1.5216689e+00  -1.6915278e+08
   2.6475492e-10  -1.9399793e-02   6.9427979e+00   1.5343511e+00  -1.6835605e+08
   2.6542181e-10  -1.9287783e-02   6.9395744e+00   1.5470645e+00  -1.6756107e+08
   2.6608870e-10  -1.9176303e-02   6.9363046e+00   1.5598081e+00  -1.6676784e+08
   2.6675559e-10  -1.9065351e-02   6.9329888e+00   1.5725812e+00  -1.6597638e+08
   2.6742247e-10  -1.8954926e-02   6.9296272e+00   1.5853831e+00  -1.6518670e+08
   2.6808936e-10  -1.8845028e-02   6.9262203e+00   1.5982129e+00  -1.6439882e+08
   2.6875625e-10  -1.8735654e-02   6.9227683e+00   1.6110699e+00  -1.6361276e+08
   2.6942314e-10  -1.8626804e-02   6.9192715e+00   1.6239532e+00  -1.6282852e+08
   2.7009003e-10  -1.8518476e-02   6.9157304e+00   1.6368621e+00  -1.6204612e+08
   2.7075692e-10  -1.8410669e-02   6.9121452e+00   1.6497958e+00  -1.6126558e+08
   2.7142381e-10  -1.8303383e-02   6.9085163e+00   1.6627534e+00  -1.6048691e+08
   2.7209070e-10  -1.8196615e-02   6.9048441e+00   1.6757341e+00  -1.5971012e+08
   2.7275759e-10  -1.8090364e-02   6.9011289e+00   1.6887373e+00  -1.5893523e+08
   2.7342447e-10  -1.7984630e-02   6.8973710e+00   1.7017619e+00  -1.5816225e+08
   2.7409136e-10  -1.7879410e-02   6.8935709e+00   1.7148073e+00  -1.5739120e+08
   2.7475825e-10  -1.7774704e-02   6.8897290e+00   1.7278726e+00  -1.5662208e+08
   2.7542514e-10  -1.7670510e-02   6.8858456e+00   1.7409570e+00  -1.5585492e+08
   2.7609203e-10  -1.7566828e-02   6.8819211e+00   1.7540598e+00  -1.5508972e+08
   2.7675892e-10  -1.7463654e-02   6.8779560e+00   1.7671800e+00  -1.5432650e+08
   2.7742581e-10  -1.7360990e-02   6.8739505e+00   1.7803170e+00  -1.5356527e+08
   2.7809270e-10  -1.7258832e-02   6.8699052e+00   1.7934698e+00  -1.5280604e+08
   2.7875959e-10  -1.7157179e-02   6.8658204e+00   1.8066377e+00  -1.5204883e+08
   2.7942648e-10  -1.7056032e-02   6.8616966e+00   1.8198199e+00  -1.5129366e+08
   2.8009336e-10  -1.6955387e-02   6.8575342e+00   1.8330155e+00  -1.5054052e+08
   2.8076025e-10  -1.6855243e-02   6.8533336e+00   1.8462238e+00  -1.4978944e+08
   2.8142714e-10  -1.6755600e-02   6.8490952e+00   1.8594439e+00  -1.4904042e+08
   2.8209403e-10  -1.6656456e-02   6.8448195e+00   1.8726751e+00  -1.4829348e+08
   2.8276092e-10  -1.6557809e-02   6.8405069e+00   1.8859165e+00  -1.4754864e+08
   2.8342781e-10  -1.6459658e-02   6.8361579e+00   1.8991673e+00  -1.4680589e+08
   2.8409470e-10  -1.6362002e-02   6.8317729e+00   1.9124268e+00  -1.4606526e+08
   2.8476159e-10  -1.6264839e-02   6.8273523e+00   1.9256942e+00  -1.4532676e+08
   2.8542848e-10  -1.6168167e-02   6.8228967e+00   1.9389686e+00  -1.4459039e+08
   2.8609537e-10  -1.6071986e-02   6.8184065e+00   1.9522492e+00  -1.4385617e+08
   2.8676225e-10  -1.5976294e-02   6.8138820e+00   1.9655354e+00  -1.4312411e+08
   2.8742914e-10  -1.5881090e-02   6.8093239e+00   1.9788262e+00  -1.4239423e+08
   2.8809603e-10  -1.5786371e-02   6.8047326e+00   1.9921210e+00  -1.4166652e+08
   2.8876292e-10  -1.5692138e-02   6.8001085e+00   2.0054188e+00  -1.4094100e+08
   2.8942981e-10  -1.5598387e-02   6.7954521e+00   2.0187190e+00  -1.4021769e+08
   2.9009670e-10  -1.5505118e-02   6.7907639e+00   2.0320208e+00  -1.3949659e+08
   2.9076359e-10  -1.5412329e-02   6.7860444e+00   2.0453234e+00  -1.3877771e+08
   2.9143048e-10  -1.5320018e-02   6.7812940e+00   2.0586261e+00  -1.3806107e+08
   2.9209737e-10  -1.5228185e-02   6.7765132e+00   2.0719280e+00  -1.3734667e+08
   2.9276425e-10  -1.5136828e-02   6.7717026e+00   2.0852285e+00  -1.3663452e+08
   2.9343114e-10  -1.5045944e-02   6.7668626e+00   2.0985267e+00  -1.3592463e+08
   2.9409803e-10  -1.4955534e-02   6.7619936e+00   2.1118219e+00  -1.3521702e+08
   2.9476492e-10  -1.4865594e-02   6.7570963e+00   2.1251134e+00  -1.3451168e+08
   2.9543181e-10  -1.4776124e-02   6.7521710e+00   2.1384005e+00  -1.3380863e+08
   2.9609870e-10  -1.4687123e-02   6.7472182e+00   2.1516824e+00  -1.3310788e+08
   2.9676559e-10  -1.4598587e-02   6.7422386e+00   2.1649583e+00  -1.3240944e+08
   2.9743248e-10  -1.4510517e-02   6.7372324e+00   2.1782276e+00  -1.3171331e+08
   2.9809937e-10  -1.4422910e-02   6.7322004e+00   2.1914896e+00  -1.3101951e+08
   2.9876626e-10  -1.4335766e-02   6.7271428e+00   2.2047434e+00  -1.3032803e+08
   2.9943314e-10  -1.4249081e-02   6.7220603e+00   2.2179885e+00  -1.2963890e+08
   3.0010003e-10  -1.4162855e-02   6.7169534e+00   2.2312240e+00  -1.2895212e+08
   3.0076692e-10  -1.4077087e-02   6.7118224e+00   2.2444494e+00  -1.2826768e+08
   3.0143381e-10  -1.3991774e-02   6.7066680e+00   2.2576639e+00  -1.2758561e+08
   3.0210070e-10  -1.3906915e-02   6.7014907e+00   2.2708669e+00  -1.2690591e+08
   3.0276759e-10  -1.3822509e-02   6.6962908e+00   2.2840576e+00  -1.2622859e+08
   3.0343448e-10  -1.3738554e-02   6.6910690e+00   2.2972353e+00  -1.2555365e+08
   3.0410137e-10  -1.3655048e-02   6.6858257e+00   2.3103995e+00  -1.2488110e+08
   3.0476826e-10  -1.3571990e-02   6.6805614e+00   2.3235495e+00  -1.2421095e+08
   3.0543515e-10  -1.3489377e-02   6.6752766e+00   2.3366846e+00  -1.2354320e+08
   3.0610203e-10  -1.3407210e-02   6.6699718e+00   2.3498041e+00  -1.2287785e+08
   3.0676892e-10  -1.3325485e-02   6.6646476e+00   2.3629074e+00  -1.2221493e+08
   3.0743581e-10  -1.3244202e-02   6.6593043e+00   2.3759939e+00  -1.2155442e+08
   3.0810270e-10  -1.3163358e-02   6.6539425e+00   2.3890630e+00  -1.2089634e+08
   3.0876959e-10  -1.3082952e-02   6.6485627e+00   2.4021139e+00  -1.2024069e+08
   3.0943648e-10  -1.3002983e-02   6.6431653e+00   2.4151462e+00  -1.1958748e+08
   3.1010337e-10  -1.2923448e-02   6.6377510e+00   2.4281593e+00  -1.1893671e+08
   3.1077026e-10  -1.2844347e-02   6.6323200e+00   2.4411524e+00  -1.1828839e+08
   3.1143715e-10  -1.2765677e-02   6.6268730e+00   2.4541250e+00  -1.1764252e+08
   3.1210403e-10  -1.2687437e-02   6.6214104e+00   2.4670766e+00  -1.1699910e+08
   3.1277092e-10  -1.2609626e-02   6.6159327e+00   2.4800065e+00  -1.1635815e+08
   3.1343781e-10  -1.2532241e-02   6.6104404e+00   2.4929142e+00  -1.1571966e+08
   3.1410470e-10  -1.2455281e-02   6.6049339e+00   2.5057992e+00  -1.1508363e+08
   3.1477159e-10  -1.2378744e-02   6.5994138e+00   2.5186608e+00  -1.1445009e+08
   3.1543848e-10  -1.2302629e-02   6.5938805e+00   2.5314985e+00  -1.1381901e+08
   3.1610537e-10  -1.2226934e-02   6.5883344e+00   2.5443117e+00  -1.1319042e+08
   3.1677226e-10  -1.2151658e-02   6.5827761e+00   2.5571000e+00  -1.1256431e+08
   3.1743915e-10  -1.2076798e-02   6.5772061e+00   2.5698628e+00  -1.1194069e+08
   3.1810604e-10  -1.2002353e-02   6.5716247e+00   2.5825996e+00  -1.1131955e+08
   3.1877292e-10  -1.1928322e-02   6.5660325e+00   2.5953099e+00  -1.1070091e+08
   3.1943981e-10  -1.1854702e-02   6.5604298e+00   2.6079932e+00  -1.1008476e+08
   3.2010670e-10  -1.1781492e-02   6.5548173e+00   2.6206489e+00  -1.0947110e+08
   3.2077359e-10  -1.1708691e-02   6.5491952e+00   2.6332766e+00  -1.0885995e+08
   3.2144048e-10  -1.1636297e-02   6.5435641e+00   2.6458758e+00  -1.0825130e+08
   3.2210737e-10  -1.1564307e-02   6.5379245e+00   2.6584460e+00  -1.0764515e+08
   3.2277426e-10  -1.1492721e-02   6.5322767e+00   2.6709868e+00  -1.0704150e+08
   3.2344115e-10  -1.1421537e-02   6.5266212e+00   2.6834977e+00  -1.0644036e+08
   3.2410804e-10  -1.1350753e-02   6.5209585e+00   2.6959782e+00  -1.0584173e+08
   3.2477492e-10  -1.1280367e-02   6.5152890e+00   2.7084280e+00  -1.0524561e+08
   3.2544181e-10  -1.1210378e-02   6.5096131e+00   2.7208465e+00  -1.0465199e+08
   3.2610870e-10  -1.1140784e-02   6.5039312e+00   2.7332334e+00  -1.0406089e+08
   3.2677559e-10  -1.1071583e-02   6.4982438e+00   2.7455882e+00  -1.0347230e+08
   3.2744248e-10  -1.1002774e-02   6.4925513e+00   2.7579105e+00  -1.0288622e+08
   3.2810937e-10  -1.0934355e-02   6.4868541e+00   2.7701999e+00  -1.0230265e+08
   3.2877626e-10  -1.0866325e-02   6.4811527e+00   2.7824559e+00  -1.0172160e+08
   3.2944315e-10  -1.0798681e-02   6.4754474e+00   2.7946784e+00  -1.0114306e+08
   3.3011004e-10  -1.0731422e-02   6.4697387e+00   2.8068667e+00  -1.0056703e+08
   3.3077693e-10  -1.0664546e-02   6.4640270e+00   2.8190206e+00  -9.9993512e+07
   3.3144381e-10  -1.0598052e-02   6.4583126e+00   2.8311397e+00  -9.9422508e+07
   3.3211070e-10  -1.0531938e-02   6.4525960e+00   2.8432236e+00  -9.8854015e+07
   3.3277759e-10  -1.0466202e-02   6.4468775e+00   2.8552719e+00  -9.8288033e+07
   3.3344448e-10  -1.0400843e-02   6.4411576e+00   2.8672844e+00  -9.7724562e+07
   3.3411137e-10  -1.0335859e-02   6.4354367e+00   2.8792607e+00  -9.7163599e+07
   3.3477826e-10  -1.0271248e-02   6.4297150e+00   2.8912005e+00  -9.6605144e+07
   3.3544515e-10  -1.0207008e-02   6.4239931e+00   2.9031034e+00  -9.6049196e+07
   3.3611204e-10  -1.0143139e-02   6.4182712e+00   2.9149690e+00  -9.5495753e+07
   3.3677893e-10  -1.0079638e-02   6.4125498e+00   2.9267973e+00  -9.4944814e+07
   3.3744582e-10  -1.0016503e-02   6.4068293e+00   2.9385877e+00  -9.4396377e+07
   3.3811270e-10  -9.9537331e-03   6.4011099e+00   2.9503400e+00  -9.3850440e+07
   3.3877959e-10  -9.8913266e-03   6.3953920e+00   2.9620539e+00  -9.3307001e+07
   3.3944648e-10  -9.8292817e-03   6.3896761e+00   2.9737292e+00  -9.2766059e+07
   3.4011337e-10  -9.7675967e-03   6.3839623e+00   2.9853656e+00  -9.2227610e+07
   3.4078026e-10  -9.7062700e-03   6.3782512e+00   2.9969627e+00  -9.1691652e+07
   3.4144715e-10  -9.6452998e-03   6.3725431e+00   3.0085204e+00  -9.1158183e+07
   3.4211404e-10  -9.5846846e-03   6.3668382e+00   3.0200384e+00  -9.0627201e+07
   3.4278093e-10  -9.5244227e-03   6.3611369e+00   3.0315165e+00  -9.0098702e+07
   3.4344782e-10  -9.4645124e-03   6.3554396e+00   3.0429543e+00  -8.9572683e+07
   3.4411470e-10  -9.4049520e-03   6.3497465e+00   3.0543518e+00  -8.9049142e+07
   3.4478159e-10  -9.3457400e-03   6.3440581e+00   3.0657086e+00  -8.8528075e+07
   3.4544848e-10  -9.2868747e-03   6.3383746e+00   3.0770245e+00  -8.8009480e+07
   3.4611537e-10  -9.2283544e-03   6.3326963e+00   3.0882993e+00  -8.7493352e+07
   3.4678226e-10  -9.1701774e-03   6.3270235e+00   3.0995329e+00  -8.6979688e+07
   3.4744915e-10  -9.1123422e-03   6.3213566e+00   3.1107249e+00  -8.6468484e+07
   3.4811604e-10  -9.0548471e-03   6.3156958e+00   3.1218753e+00  -8.5959737e+07
   3.4878293e-10  -8.9976904e-03   6.3100415e+00   3.1329839e+00  -8.5453443e+07
   3.4944982e-10  -8.9408706e-03   6.3043940e+00   3.1440503e+00  -8.4949598e+07
   3.5011671e-10  -8.8843860e-03   6.2987534e+00   3.1550746e+00  -8.4448198e+07
   3.5078359e-10  -8.8282349e-03   6.2931202e+00   3.1660565e+00  -8.3949238e+07
   3.5145048e-10  -8.7724158e-03   6.2874946e+00   3.1769959e+00  -8.3452714e+07
   3.5211737e-10  -8.7169269e-03   6.2818769e+00   3.1878925e+00  -8.2958622e+07
   3.5278426e-10  -8.6617668e-03   6.2762673e+00   3.1987463e+00  -8.2466957e+07
   3.5345115e-10  -8.6069338e-03   6.2706661e+00   3.2095572e+00  -8.1977714e+07
   3.5411804e-10  -8.5524262e-03   6.2650737e+00   3.2203249e+00  -8.1490890e+07
   3.5478493e-10  -8.4982425e-03   6.2594902e+00   3.2310493e+00  -8.1006478e+07
   3.5545182e-10  -8.4443810e-03   6.2539158e+00   3.2417304e+00  -8.0524475e+07
   3.5611871e-10  -8.3908402e-03   6.2483510e+00   3.2523679e+00  -8.0044874e+07
   3.5678560e-10  -8.3376184e-03   6.2427958e+00   3.2629618e+00  -7.9567672e+07
   3.5745248e-10  -8.2847140e-03   6.2372506e+00   3.2735121e+00  -7.9092862e+07
   3.5811937e-10  -8.2321255e-03   6.2317156e+00   3.2840185e+00  -7.8620439e+07
   3.5878626e-10  -8.1798513e-03   6.2261911e+00   3.2944809e+00  -7.8150398e+07
   3.5945315e-10  -8.1278897e-03   6.2206772e+00   3.3048994e+00  -7.7682733e+07
   3.6012004e-10  -8.0762392e-03   6.2151741e+00   3.3152737e+00  -7.7217440e+07
   3.6078693e-10  -8.0248982e-03   6.2096822e+00   3.3256039e+00  -7.6754511e+07
   3.6145382e-10  -7.9738652e-03   6.2042017e+00   3.3358898e+00  -7.6293942e+07
   3.6212071e-10  -7.9231385e-03   6.1987327e+00   3.3461313e+00  -7.5835726e+07
   3.6278760e-10  -7.8727166e-03   6.1932754e+00   3.3563285e+00  -7.5379858e+07
   3.6345448e-10  -7.8225980e-03   6.1878302e+00   3.3664812e+00  -7.4926332e+07
   3.6412137e-10  -7.7727810e-03   6.1823971e+00   3.3765894e+00  -7.4475141e+07
   3.6478826e-10  -7.7232642e-03   6.1769764e+00   3.3866531e+00  -7.4026280e+07
   3.6545515e-10  -7.6740459e-03   6.1715683e+00   3.3966721e+00  -7.3579741e+07
   3.6612204e-10  -7.6251246e-03   6.1661730e+00   3.4066465e+00  -7.3135520e+07
   3.6678893e-10  -7.5764988e-03   6.1607906e+00   3.4165761e+00  -7.2693608e+07
   3.6745582e-10  -7.5281669e-03   6.1554214e+00   3.4264611e+00  -7.2254001e+07
   3.6812271e-10  -7.4801275e-03   6.1500655e+00   3.4363013e+00  -7.1816692e+07
   3.6878960e-10  -7.4323789e-03   6.1447232e+00   3.4460967e+00  -7.1381673e+07
   3.6945649e-10  -7.3849197e-03   6.1393945e+00   3.4558473e+00  -7.0948938e+07
   3.7012337e-10  -7.3377483e-03   6.1340797e+00   3.4655532e+00  -7.0518481e+07
   3.7079026e-10  -7.2908632e-03   6.1287789e+00   3.4752142e+00  -7.0090295e+07
   3.7145715e-10  -7.2442629e-03   6.1234923e+00   3.4848303e+00  -6.9664373e+07
   3.7212404e-10  -7.1979458e-03   6.1182201e+00   3.4944017e+00  -6.9240708e+07
   3.7279093e-10  -7.1519106e-03   6.1129624e+00   3.5039282e+00  -6.8819292e+07
   3.7345782e-10  -7.1061557e-03   6.1077194e+00   3.5134099e+00  -6.8400120e+07
   3.7412471e-10  -7.0606795e-03   6.1024912e+00   3.5228468e+00  -6.7983184e+07
   3.7479160e-10  -7.0154807e-03   6.0972779e+00   3.5322389e+00  -6.7568477e+07
   3.7545849e-10  -6.9705577e-03   6.0920798e+00   3.5415862e+00  -6.7155991e+07
   3.7612538e-10  -6.9259090e-03   6.0868969e+00   3.5508888e+00  -6.6745720e+07
   3.7679226e-10  -6.8815332e-03   6.0817294e+00   3.5601466e+00  -6.6337656e+07
   3.7745915e-10  -6.8374288e-03   6.0765774e+00   3.5693598e+00  -6.5931791e+07
   3.7812604e-10  -6.7935944e-03   6.0714411e+00   3.5785282e+00  -6.5528120e+07
   3.7879293e-10  -6.7500284e-03   6.0663206e+00   3.5876520e+00  -6.5126633e+07
   3.7945982e-10  -6.7067294e-03   6.0612160e+00   3.5967313e+00  -6.4727324e+07
   3.8012671e-10  -6.6636960e-03   6.0561274e+00   3.6057659e+00  -6.4330185e+07
   3.8079360e-10  -6.6209267e-03   6.0510549e+00   3.6147561e+00  -6.3935208e+07
   3.8146049e-10  -6.5784202e-03   6.0459987e+00   3.6237018e+00  -6.3542386e+07
   3.8212738e-10  -6.5361748e-03   6.0409589e+00   3.6326031e+00  -6.3151712e+07
   3.8279426e-10  -6.4941893e-03   6.0359355e+00   3.6414600e+00  -6.2763177e+07
   3.8346115e-10  -6.4524622e-03   6.0309287e+00   3.6502727e+00  -6.2376775e+07
   3.8412804e-10  -6.4109921e-03   6.0259387e+00   3.6590411e+00  -6.1992496e+07
   3.8479493e-10  -6.3697775e-03   6.0209654e+00   3.6677653e+00  -6.1610334e+07
   3.8546182e-10  -6.3288171e-03   6.0160090e+00   3.6764455e+00  -6.1230280e+07
   3.8612871e-10  -6.2881094e-03   6.0110695e+00   3.6850816e+00  -6.0852327e+07
   3.8679560e-10  -6.2476531e-03   6.0061471e+00   3.6936738e+00  -6.0476467e+07
   3.8746249e-10  -6.2074468e-03   6.0012419e+00   3.7022221e+00  -6.0102692e+07
   3.8812938e-10  -6.1674890e-03   5.9963540e+00   3.7107265e+00  -5.9730993e+07
   3.8879627e-10  -6.1277784e-03   5.9914833e+00   3.7191873e+00  -5.9361364e+07
   3.8946315e-10  -6.0883137e-03   5.9866301e+00   3.7276044e+00  -5.8993796e+07
   3.9013004e-10  -6.0490934e-03   5.9817943e+00   3.7359780e+00  -5.8628281e+07
   3.9079693e-10  -6.0101161e-03   5.9769761e+00   3.7443081e+00  -5.8264811e+07
   3.9146382e-10  -5.9713806e-03   5.9721755e+00   3.7525948e+00  -5.7903378e+07
   3.9213071e-10  -5.9328854e-03   5.9673926e+00   3.7608382e+00  -5.7543974e+07
   3.9279760e-10  -5.8946292e-03   5.9626275e+00   3.7690385e+00  -5.7186591e+07
   3.9346449e-10  -5.8566107e-03   5.9578802e+00   3.7771957e+00  -5.6831220e+07
   3.9413138e-10  -5.8188286e-03   5.9531508e+00   3.7853099e+00  -5.6477853e+07
   3.9479827e-10  -5.7812814e-03   5.9484393e+00   3.7933812e+00  -5.6126483e+07
   3.9546516e-10  -5.7439679e-03   5.9437458e+00   3.8014097e+00  -5.5777102e+07
   3.9613204e-10  -5.7068867e-03   5.9390704e+00   3.8093955e+00  -5.5429700e+07
   3.9679893e-10  -5.6700365e-03   5.9344131e+00   3.8173388e+00  -5.5084269e+07
   3.9746582e-10  -5.6334160e-03   5.9297739e+00   3.8252397e+00  -5.4740803e+07
   3.9813271e-10  -5.5970240e-03   5.9251530e+00   3.8330982e+00  -5.4399291e+07
   3.9879960e-10  -5.5608590e-03   5.9205503e+00   3.8409144e+00  -5.4059727e+07
   3.9946649e-10  -5.5249199e-03   5.9159659e+00   3.8486886e+00  -5.3722101e+07
   4.0013338e-10  -5.4892052e-03   5.9113999e+00   3.8564207e+00  -5.3386406e+07
   4.0080027e-10  -5.4537138e-03   5.9068522e+00   3.8641110e+00  -5.3052633e+07
   4.0146716e-10  -5.4184444e-03   5.9023229e+00   3.8717595e+00  -5.2720774e+07
   4.0213404e-10  -5.3833956e-03   5.8978120e+00   3.8793664e+00  -5.2390821e+07
   4.0280093e-10  -5.3485662e-03   5.8933197e+00   3.8869318e+00  -5.2062765e+07
   4.0346782e-10  -5.3139550e-03   5.8888458e+00   3.8944558e+00  -5.1736598e+07
   4.0413471e-10  -5.2795607e-03   5.8843905e+00   3.9019385e+00  -5.1412312e+07
   4.0480160e-10  -5.2453820e-03   5.8799537e+00   3.9093802e+00  -5.1089897e+07
   4.0546849e-10  -5.2114177e-03   5.8755355e+00   3.9167808e+00  -5.0769347e+07
   4.0613538e-10  -5.1776665e-03   5.8711359e+00   3.9241405e+00  -5.0450653e+07
   4.0680227e-10  -5.1441273e-03   5.8667549e+00   3.9314596e+00  -5.0133806e+07
   4.0746916e-10  -5.1107988e-03   5.8623926e+00   3.9387380e+00  -4.9818798e+07
   4.0813605e-10  -5.0776797e-03   5.8580489e+00   3.9459760e+00  -4.9505621e+07
   4.0880293e-10  -5.0447689e-03   5.8537239e+00   3.9531736e+00  -4.9194266e+07
   4.0946982e-10  -5.0120651e-03   5.8494176e+00   3.9603311e+00  -4.8884725e+07
   4.1013671e-10  -4.9795671e-03   5.8451299e+00   3.9674485e+00  -4.8576990e+07
   4.1080360e-10  -4.9472737e-03   5.8408610e+00   3.9745260e+00  -4.8271052e+07
   4.1147049e-10  -4.9151838e-03   5.8366108e+00   3.9815637e+00  -4.7966904e+07
   4.1213738e-10  -4.8832961e-03   5.8323793e+00   3.9885619e+00  -4.7664536e+07
   4.1280427e-10  -4.8516095e-03   5.8281665e+00   3.9955205e+00  -4.7363940e+07
   4.1347116e-10  -4.8201228e-03   5.8239724e+00   4.0024398e+00  -4.7065109e+07
   4.1413805e-10  -4.7888347e-03   5.8197971e+00   4.0093199e+00  -4.6768033e+07
   4.1480493e-10  -4.7577442e-03   5.8156405e+00   4.0161610e+00  -4.6472705e+07
   4.1547182e-10  -4.7268501e-03   5.8115026e+00   4.0229631e+00  -4.6179116e+07
   4.1613871e-10  -4.6961511e-03   5.8073834e+00   4.0297265e+00  -4.5887258e+07
   4.1680560e-10  -4.6656463e-03   5.8032829e+00   4.0364514e+00  -4.5597122e+07
   4.1747249e-10  -4.6353343e-03   5.7992011e+00   4.0431377e+00  -4.5308701e+07
   4.1813938e-10  -4.6052141e-03   5.7951380e+00   4.0497858e+00  -4.5021986e+07
   4.1880627e-10  -4.5752846e-03   5.7910936e+00   4.0563957e+00  -4.4736969e+07
   4.1947316e-10  -4.5455446e-03   5.7870679e+00   4.0629676e+00  -4.4453641e+07
   4.2014005e-10  -4.5159929e-03   5.7830608e+00   4.0695017e+00  -4.4171995e+07
   4.2080694e-10  -4.4866286e-03   5.7790724e+00   4.0759980e+00  -4.3892022e+07
   4.2147382e-10  -4.4574504e-03   5.7751026e+00   4.0824568e+00  -4.3613713e+07
   4.2214071e-10  -4.4284572e-03   5.7711515e+00   4.0888783e+00  -4.3337062e+07
   4.2280760e-10  -4.3996480e-03   5.7672189e+00   4.0952625e+00  -4.3062059e+07
   4.2347449e-10  -4.3710216e-03   5.7633049e+00   4.1016096e+00  -4.2788696e+07
   4.2414138e-10  -4.3425770e-03   5.7594095e+00   4.1079198e+00  -4.2516966e+07
   4.2480827e-10  -4.3143131e-03   5.7555326e+00   4.1141933e+00  -4.2246860e+07
   4.2547516e-10  -4.2862287e-03   5.7516742e+00   4.1204301e+00  -4.1978369e+07
   4.2614205e-10  -4.2583229e-03   5.7478343e+00   4.1266305e+00  -4.1711487e+07
   4.2680894e-10  -4.2305945e-03   5.7440128e+00   4.1327946e+00  -4.1446204e+07
   4.2747583e-10  -4.2030425e-03   5.7402098e+00   4.1389225e+00  -4.1182513e+07
   4.2814271e-10  -4.1756658e-03   5.7364253e+00   4.1450145e+00  -4.0920405e+07
   4.2880960e-10  -4.1484634e-03   5.7326591e+00   4.1510706e+00  -4.0659873e+07
   4.2947649e-10  -4.1214342e-03   5.7289112e+00   4.1570911e+00  -4.0400909e+07
   4.3014338e-10  -4.0945772e-03   5.7251817e+00   4.1630761e+00  -4.0143504e+07
   4.3081027e-10  -4.0678914e-03   5.7214704e+00   4.1690257e+00  -3.9887651e+07
   4.3147716e-10  -4.0413756e-03   5.7177775e+00   4.1749402e+00  -3.9633341e+07
   4.3214405e-10  -4.0150289e-03   5.7141027e+00   4.1808196e+00  -3.9380566e+07
   4.3281094e-10  -3.9888503e-03   5.7104462e+00   4.1866642e+00  -3.9129320e+07
   4.3347783e-10  -3.9628388e-03   5.7068078e+00   4.1924740e+00  -3.8879593e+07
   4.3414471e-10  -3.9369933e-03   5.7031875e+00   4.1982493e+00  -3.8631378e+07
   4.3481160e-10  -3.9113128e-03   5.6995853e+00   4.2039902e+00  -3.8384667e+07
   4.3547849e-10  -3.8857963e-03   5.6960012e+00   4.2096969e+00  -3.8139451e+07
   4.3614538e-10  -3.8604429e-03   5.6924350e+00   4.2153695e+00  -3.7895725e+07
   4.3681227e-10  -3.8352515e-03   5.6888869e+00   4.2210083e+00  -3.7653478e+07
   4.3747916e-10  -3.8102212e-03   5.6853566e+00   4.2266132e+00  -3.7412704e+07
   4.3814605e-10  -3.7853509e-03   5.6818443e+00   4.2321846e+00  -3.7173395e+07
   4.3881294e-10  -3.7606398e-03   5.6783497e+00   4.2377226e+00  -3.6935544e+07
   4.3947983e-10  -3.7360868e-03   5.6748730e+00   4.2432273e+00  -3.6699141e+07
   4.4014672e-10  -3.7116910e-03   5.6714141e+00   4.2486989e+00  -3.6464180e+07
   4.4081360e-10  -3.6874513e-03   5.6679728e+00   4.2541375e+00  -3.6230653e+07
   4.4148049e-10  -3.6633670e-03   5.6645493e+00   4.2595434e+00  -3.5998553e+07
   4.4214738e-10  -3.6394370e-03   5.6611433e+00   4.2649166e+00  -3.5767871e+07
   4.4281427e-10  -3.6156603e-03   5.6577550e+00   4.2702574e+00  -3.5538600e+07
   4.4348116e-10  -3.5920360e-03   5.6543842e+00   4.2755659e+00  -3.5310733e+07
   4.4414805e-10  -3.5685633e-03   5.6510308e+00   4.2808422e+00  -3.5084262e+07
   4.4481494e-10  -3.5452411e-03   5.6476949e+00   4.2860866e+00  -3.4859179e+07
   4.4548183e-10  -3.5220686e-03   5.6443764e+00   4.2912991e+00  -3.4635477e+07
   4.4614872e-10  -3.4990448e-03   5.6410752e+00   4.2964800e+00  -3.4413148e+07
   4.4681561e-10  -3.4761688e-03   5.6377913e+00   4.3016293e+00  -3.4192186e+07
   4.4748249e-10  -3.4534397e-03   5.6345246e+00   4.3067474e+00  -3.3972581e+07
   4.4814938e-10  -3.4308566e-03   5.6312752e+00   4.3118342e+00  -3.3754328e+07
   4.4881627e-10  -3.4084186e-03   5.6280428e+00   4.3168900e+00  -3.3537418e+07
   4.4948316e-10  -3.3861248e-03   5.6248276e+00   4.3219149e+00  -3.3321845e+07
   4.5015005e-10  -3.3639744e-03   5.6216294e+00   4.3269091e+00  -3.3107600e+07
   4.5081694e-10  -3.3419664e-03   5.6184481e+00   4.3318728e+00  -3.2894678e+07
   4.5148383e-10  -3.3200999e-03   5.6152838e+00   4.3368061e+00  -3.2683069e+07
   4.5215072e-10  -3.2983741e-03   5.6121364e+00   4.3417091e+00  -3.2472768e+07
   4.5281761e-10  -3.2767881e-03   5.6090058e+00   4.3465820e+00  -3.2263766e+07
   4.5348449e-10  -3.2553411e-03   5.6058919e+00   4.3514251e+00  -3.2056057e+07
   4.5415138e-10  -3.2340322e-03   5.6027947e+00   4.3562383e+00  -3.1849634e+07
   4.5481827e-10  -3.2128605e-03   5.5997142e+00   4.3610220e+00  -3.1644489e+07
   4.5548516e-10  -3.1918252e-03   5.5966503e+00   4.3657762e+00  -3.1440615e+07
   4.5615205e-10  -3.1709254e-03   5.5936030e+00   4.3705011e+00  -3.1238005e+07
   4.5681894e-10  -3.1501603e-03   5.5905721e+00   4.3751968e+00  -3.1036652e+07
   4.5748583e-10  -3.1295291e-03   5.5875576e+00   4.3798636e+00  -3.0836549e+07
   4.5815272e-10  -3.1090310e-03   5.5845595e+00   4.3845015e+00  -3.0637689e+07
   4.5881961e-10  -3.0886650e-03   5.5815777e+00   4.3891107e+00  -3.0440065e+07
   4.5948650e-10  -3.0684304e-03   5.5786122e+00   4.3936914e+00  -3.0243669e+07
   4.6015338e-10  -3.0483264e-03   5.5756629e+00   4.3982438e+00  -3.0048496e+07
   4.6082027e-10  -3.0283521e-03   5.5727297e+00   4.4027679e+00  -2.9854538e+07
   4.6148716e-10  -3.0085068e-03   5.5698125e+00   4.4072639e+00  -2.9661788e+07
   4.6215405e-10  -2.9887896e-03   5.5669114e+00   4.4117320e+00  -2.9470240e+07
   4.6282094e-10  -2.9691998e-03   5.5640263e+00   4.4161724e+00  -2.9279886e+07
   4.6348783e-10  -2.9497365e-03   5.5611570e+00   4.4205852e+00  -2.9090720e+07
   4.6415472e-10  -2.9303989e-03   5.5583036e+00   4.4249705e+00  -2.8902735e+07
   4.6482161e-10  -2.9111864e-03   5.5554660e+00   4.4293284e+00  -2.8715924e+07
   4.6548850e-10  -2.8920980e-03   5.5526441e+00   4.4336593e+00  -2.8530281e+07
   4.6615539e-10  -2.8731331e-03   5.5498378e+00   4.4379631e+00  -2.8345799e+07
   4.6682227e-10  -2.8542908e-03   5.5470472e+00   4.4422400e+00  -2.8162470e+07
   4.6748916e-10  -2.8355703e-03   5.5442720e+00   4.4464902e+00  -2.7980290e+07
   4.6815605e-10  -2.8169710e-03   5.5415124e+00   4.4507139e+00  -2.7799250e+07
   4.6882294e-10  -2.7984920e-03   5.5387681e+00   4.4549111e+00  -2.7619345e+07
   4.6948983e-10  -2.7801327e-03   5.5360392e+00   4.4590821e+00  -2.7440567e+07
   4.7015672e-10  -2.7618922e-03   5.5333256e+00   4.4632269e+00  -2.7262911e+07
   4.7082361e-10  -2.7437698e-03   5.5306273e+00   4.4673458e+00  -2.7086370e+07
   4.7149050e-10  -2.7257647e-03   5.5279441e+00   4.4714388e+00  -2.6910938e+07
   4.7215739e-10  -2.7078763e-03   5.5252760e+00   4.4755062e+00  -2.6736607e+07
   4.7282427e-10  -2.6901038e-03   5.5226229e+00   4.4795480e+00  -2.6563372e+07
   4.7349116e-10  -2.6724464e-03   5.5199848e+00   4.4835644e+00  -2.6391226e+07
   4.7415805e-10  -2.6549035e-03   5.5173616e+00   4.4875555e+00  -2.6220163e+07
   4.7482494e-10  -2.6374743e-03   5.5147533e+00   4.4915216e+00  -2.6050176e+07
   4.7549183e-10  -2.6201581e-03   5.5121598e+00   4.4954627e+00  -2.5881260e+07
   4.7615872e-10  -2.6029542e-03   5.5095810e+00   4.4993789e+00  -2.5713408e+07
   4.7682561e-10  -2.5858619e-03   5.5070168e+00   4.5032705e+00  -2.5546614e+07
   4.7749250e-10  -2.5688805e-03   5.5044673e+00   4.5071375e+00  -2.5380871e+07
   4.7815939e-10  -2.5520092e-03   5.5019323e+00   4.5109801e+00  -2.5216174e+07
   4.7882628e-10  -2.5352475e-03   5.4994118e+00   4.5147984e+00  -2.5052516e+07
   4.7949316e-10  -2.5185945e-03   5.4969057e+00   4.5185926e+00  -2.4889892e+07
   4.8016005e-10  -2.5020497e-03   5.4944139e+00   4.5223629e+00  -2.4728294e+07
   4.8082694e-10  -2.4856122e-03   5.4919364e+00   4.5261093e+00  -2.4567718e+07
   4.8149383e-10  -2.4692816e-03   5.4894732e+00   4.5298319e+00  -2.4408156e+07
   4.8216072e-10  -2.4530569e-03   5.4870241e+00   4.5335311e+00  -2.4249604e+07
   4.8282761e-10  -2.4369377e-03   5.4845891e+00   4.5372067e+00  -2.4092055e+07
   4.8349450e-10  -2.4209233e-03   5.4821681e+00   4.5408591e+00  -2.3935502e+07
   4.8416139e-10  -2.4050129e-03   5.4797611e+00   4.5444883e+00  -2.3779942e+07
   4.8482828e-10  -2.3892059e-03   5.4773681e+00   4.5480945e+00  -2.3625366e+07
   4.8549517e-10  -2.3735017e-03   5.4749888e+00   4.5516778e+00  -2.3471770e+07
   4.8616205e-10  -2.3578995e-03   5.4726234e+00   4.5552383e+00  -2.3319148e+07
   4.8682894e-10  -2.3423989e-03   5.4702716e+00   4.5587762e+00  -2.3167493e+07
   4.8749583e-10  -2.3269990e-03   5.4679335e+00   4.5622916e+00  -2.3016801e+07
   4.8816272e-10  -2.3116994e-03   5.4656090e+00   4.5657846e+00  -2.2867065e+07
   4.8882961e-10  -2.2964992e-03   5.4632980e+00   4.5692555e+00  -2.2718280e+07
   4.8949650e-10  -2.2813980e-03   5.4610005e+00   4.5727042e+00  -2.2570440e+07
   4.9016339e-10  -2.2663951e-03   5.4587164e+00   4.5761309e+00  -2.2423539e+07
   4.9083028e-10  -2.2514898e-03   5.4564457e+00   4.5795358e+00  -2.2277572e+07
   4.9149717e-10  -2.2366815e-03   5.4541882e+00   4.5829190e+00  -2.2132533e+07
   4.9216405e-10  -2.2219697e-03   5.4519439e+00   4.5862806e+00  -2.1988417e+07
   4.9283094e-10  -2.2073537e-03   5.4497127e+00   4.5896208e+00  -2.1845218e+07
   4.9349783e-10  -2.1928328e-03   5.4474947e+00   4.5929396e+00  -2.1702930e+07
   4.9416472e-10  -2.1784066e-03   5.4452897e+00   4.5962372e+00  -2.1561548e+07
   4.9483161e-10  -2.1640743e-03   5.4430976e+00   4.5995138e+00  -2.1421067e+07
   4.9549850e-10  -2.1498354e-03   5.4409184e+00   4.6027694e+00  -2.1281481e+07
   4.9616539e-10  -2.1356893e-03   5.4387521e+00   4.6060042e+00  -2.1142784e+07
   4.9683228e-10  -2.1216355e-03   5.4365986e+00   4.6092183e+00  -2.1004973e+07
   4.9749917e-10  -2.1076732e-03   5.4344577e+00   4.6124118e+00  -2.0868040e+07
   4.9816606e-10  -2.0938019e-03   5.4323295e+00   4.6155849e+00  -2.0731980e+07
   4.9883294e-10  -2.0800211e-03   5.4302139e+00   4.6187376e+00  -2.0596790e+07
   4.9949983e-10  -2.0663302e-03   5.4281108e+00   4.6218702e+00  -2.0462462e+07
   5.0016672e-10  -2.0527286e-03   5.4260202e+00   4.6249826e+00  -2.0328993e+07
   5.0083361e-10  -2.0392156e-03   5.4239420e+00   4.6280751e+00  -2.0196376e+07
   5.0150050e-10  -2.0257909e-03   5.4218761e+00   4.6311477e+00  -2.0064606e+07
   5.0216739e-10  -2.0124537e-03   5.4198225e+00   4.6342007e+00  -1.9933679e+07
   5.0283428e-10  -1.9992036e-03   5.4177811e+00   4.6372340e+00  -1.9803590e+07
   5.0350117e-10  -1.9860400e-03   5.4157519e+00   4.6402478e+00  -1.9674332e+07
   5.0416806e-10  -1.9729622e-03   5.4137348e+00   4.6432423e+00  -1.9545902e+07
   5.0483494e-10  -1.9599699e-03   5.4117297e+00   4.6462175e+00  -1.9418294e+07
   5.0550183e-10  -1.9470624e-03   5.4097365e+00   4.6491736e+00  -1.9291502e+07
   5.0616872e-10  -1.9342391e-03   5.4077553e+00   4.6521107e+00  -1.9165523e+07
   5.0683561e-10  -1.9214996e-03   5.4057860e+00   4.6550289e+00  -1.9040351e+07
   5.0750250e-10  -1.9088433e-03   5.4038284e+00   4.6579283e+00  -1.8915981e+07
   5.0816939e-10  -1.8962697e-03   5.4018825e+00   4.6608090e+00  -1.8792409e+07
   5.0883628e-10  -1.8837783e-03   5.3999484e+00   4.6636712e+00  -1.8669628e+07
   5.0950317e-10  -1.8713684e-03   5.3980258e+00   4.6665149e+00  -1.8547635e+07
   5.1017006e-10  -1.8590397e-03   5.3961148e+00   4.6693403e+00  -1.8426425e+07
   5.1083695e-10  -1.8467915e-03   5.3942152e+00   4.6721475e+00  -1.8305993e+07
   5.1150383e-10  -1.8346234e-03   5.3923272e+00   4.6749366e+00  -1.8186334e+07
   5.1217072e-10  -1.8225348e-03   5.3904504e+00   4.6777077e+00  -1.8067443e+07
   5.1283761e-10  -1.8105252e-03   5.3885850e+00   4.6804609e+00  -1.7949316e+07
   5.1350450e-10  -1.7985942e-03   5.3867309e+00   4.6831963e+00  -1.7831947e+07
   5.1417139e-10  -1.7867412e-03   5.3848879e+00   4.6859141e+00  -1.7715333e+07
   5.1483828e-10  -1.7749657e-03   5.3830561e+00   4.6886143e+00  -1.7599469e+07
   5.1550517e-10  -1.7632673e-03   5.3812353e+00   4.6912970e+00  -1.7484349e+07
   5.1617206e-10  -1.7516453e-03   5.3794256e+00   4.6939625e+00  -1.7369970e+07
   5.1683895e-10  -1.7400994e-03   5.3776268e+00   4.6966106e+00  -1.7256327e+07
   5.1750584e-10  -1.7286290e-03   5.3758389e+00   4.6992417e+00  -1.7143415e+07
   5.1817272e-10  -1.7172337e-03   5.3740619e+00   4.7018557e+00  -1.7031229e+07
   5.1883961e-10  -1.7059130e-03   5.3722956e+00   4.7044529e+00  -1.6919766e+07
   5.1950650e-10  -1.6946664e-03   5.3705401e+00   4.7070332e+00  -1.6809021e+07
   5.2017339e-10  -1.6834934e-03   5.3687953e+00   4.7095968e+00  -1.6698989e+07
   5.2084028e-10  -1.6723935e-03   5.3670611e+00   4.7121438e+00  -1.6589666e+07
   5.2150717e-10  -1.6613663e-03   5.3653374e+00   4.7146743e+00  -1.6481047e+07
   5.2217406e-10  -1.6504113e-03   5.3636242e+00   4.7171884e+00  -1.6373128e+07
   5.2284095e-10  -1.6395280e-03   5.3619215e+00   4.7196862e+00  -1.6265905e+07
   5.2350784e-10  -1.6287160e-03   5.3602292e+00   4.7221679e+00  -1.6159374e+07
   5.2417472e-10  -1.6179748e-03   5.3585471e+00   4.7246334e+00  -1.6053530e+07
   5.2484161e-10  -1.6073040e-03   5.3568754e+00   4.7270829e+00  -1.5948368e+07
   5.2550850e-10  -1.5967031e-03   5.3552139e+00   4.7295166e+00  -1.5843886e+07
   5.2617539e-10  -1.5861716e-03   5.3535625e+00   4.7319345e+00  -1.5740077e+07
   5.2684228e-10  -1.5757092e-03   5.3519213e+00   4.7343366e+00  -1.5636939e+07
   5.2750917e-10  -1.5653153e-03   5.3502901e+00   4.7367232e+00  -1.5534467e+07
   5.2817606e-10  -1.5549895e-03   5.3486689e+00   4.7390942e+00  -1.5432656e+07
   5.2884295e-10  -1.5447314e-03   5.3470577e+00   4.7414499e+00  -1.5331504e+07
   5.2950984e-10  -1.5345405e-03   5.3454563e+00   4.7437903e+00  -1.5231005e+07
   5.3017673e-10  -1.5244165e-03   5.3438648e+00   4.7461154e+00  -1.5131155e+07
   5.3084361e-10  -1.5143588e-03   5.3422831e+00   4.7484255e+00  -1.5031951e+07
   5.3151050e-10  -1.5043670e-03   5.3407110e+00   4.7507205e+00  -1.4933389e+07
   5.3217739e-10  -1.4944408e-03   5.3391487e+00   4.7530006e+00  -1.4835464e+07
   5.3284428e-10  -1.4845797e-03   5.3375960e+00   4.7552659e+00  -1.4738172e+07
   5.3351117e-10  -1.4747832e-03   5.3360528e+00   4.7575164e+00  -1.4641510e+07
   5.3417806e-10  -1.4650510e-03   5.3345192e+00   4.7597523e+00  -1.4545473e+07
   5.3484495e-10  -1.4553827e-03   5.3329950e+00   4.7619736e+00  -1.4450058e+07
   5.3551184e-10  -1.4457777e-03   5.3314802e+00   4.7641805e+00  -1.4355260e+07
   5.3617873e-10  -1.4362358e-03   5.3299747e+00   4.7663730e+00  -1.4261077e+07
   5.3684562e-10  -1.4267565e-03   5.3284786e+00   4.7685512e+00  -1.4167503e+07
   5.3751250e-10  -1.4173394e-03   5.3269917e+00   4.7707152e+00  -1.4074535e+07
   5.3817939e-10  -1.4079840e-03   5.3255141e+00   4.7728652e+00  -1.3982170e+07
   5.3884628e-10  -1.3986901e-03   5.3240455e+00   4.7750011e+00  -1.3890403e+07
   5.3951317e-10  -1.3894572e-03   5.3225861e+00   4.7771231e+00  -1.3799231e+07
   5.4018006e-10  -1.3802849e-03   5.3211357e+00   4.7792313e+00  -1.3708650e+07
   5.4084695e-10  -1.3711728e-03   5.3196943e+00   4.7813257e+00  -1.3618656e+07
   5.4151384e-10  -1.3621205e-03   5.3182618e+00   4.7834065e+00  -1.3529246e+07
   5.4218073e-10  -1.3531276e-03   5.3168382e+00   4.7854737e+00  -1.3440416e+07
   5.4284762e-10  -1.3441938e-03   5.3154235e+00   4.7875274e+00  -1.3352162e+07
   5.4351450e-10  -1.3353187e-03   5.3140175e+00   4.7895677e+00  -1.3264481e+07
   5.4418139e-10  -1.3265018e-03   5.3126203e+00   4.7915947e+00  -1.3177368e+07
   5.4484828e-10  -1.3177429e-03   5.3112318e+00   4.7936085e+00  -1.3090821e+07
   5.4551517e-10  -1.3090415e-03   5.3098519e+00   4.7956091e+00  -1.3004836e+07
   5.4618206e-10  -1.3003972e-03   5.3084806e+00   4.7975966e+00  -1.2919409e+07
   5.4684895e-10  -1.2918097e-03   5.3071179e+00   4.7995712e+00  -1.2834537e+07
   5.4751584e-10  -1.2832786e-03   5.3057636e+00   4.8015329e+00  -1.2750217e+07
   5.4818273e-10  -1.2748036e-03   5.3044178e+00   4.8034817e+00  -1.2666444e+07
   5.4884962e-10  -1.2663843e-03   5.3030804e+00   4.8054179e+00  -1.2583215e+07
   5.4951651e-10  -1.2580203e-03   5.3017513e+00   4.8073414e+00  -1.2500527e+07
   5.5018339e-10  -1.2497113e-03   5.3004305e+00   4.8092523e+00  -1.2418376e+07
   5.5085028e-10  -1.2414568e-03   5.2991180e+00   4.8111507e+00  -1.2336760e+07
   5.5151717e-10  -1.2332566e-03   5.2978137e+00   4.8130367e+00  -1.2255674e+07
   5.5218406e-10  -1.2251104e-03   5.2965175e+00   4.8149103e+00  -1.2175116e+07
   5.5285095e-10  -1.2170176e-03   5.2952295e+00   4.8167718e+00  -1.2095081e+07
   5.5351784e-10  -1.2089781e-03   5.2939495e+00   4.8186210e+00  -1.2015567e+07
   5.5418473e-10  -1.2009914e-03   5.2926775e+00   4.8204581e+00  -1.1936570e+07
   5.5485162e-10  -1.1930572e-03   5.2914135e+00   4.8222833e+00  -1.1858087e+07
   5.5551851e-10  -1.1851752e-03   5.2901574e+00   4.8240964e+00  -1.1780115e+07
   5.5618540e-10  -1.1773451e-03   5.2889092e+00   4.8258977e+00  -1.1702651e+07
   5.5685228e-10  -1.1695664e-03   5.2876689e+00   4.8276873e+00  -1.1625690e+07
   5.5751917e-10  -1.1618389e-03   5.2864363e+00   4.8294651e+00  -1.1549231e+07
   5.5818606e-10  -1.1541622e-03   5.2852114e+00   4.8312312e+00  -1.1473270e+07
   5.5885295e-10  -1.1465360e-03   5.2839942e+00   4.8329858e+00  -1.1397803e+07
   5.5951984e-10  -1.1389599e-03   5.2827847e+00   4.8347289e+00  -1.1322828e+07
   5.6018673e-10  -1.1314337e-03   5.2815828e+00   4.8364606e+00  -1.1248341e+07
   5.6085362e-10  -1.1239570e-03   5.2803885e+00   4.8381810e+00  -1.1174340e+07
   5.6152051e-10  -1.1165295e-03   5.2792016e+00   4.8398900e+00  -1.1100820e+07
   5.6218740e-10  -1.1091509e-03   5.2780223e+00   4.8415879e+00  -1.1027780e+07
   5.6285428e-10  -1.1018208e-03   5.2768503e+00   4.8432746e+00  -1.0955216e+07
   5.6352117e-10  -1.0945390e-03   5.2756858e+00   4.8449503e+00  -1.0883125e+07
   5.6418806e-10  -1.0873050e-03   5.2745286e+00   4.8466150e+00  -1.0811504e+07
   5.6485495e-10  -1.0801187e-03   5.2733786e+00   4.8482688e+00  -1.0740350e+07
   5.6552184e-10  -1.0729797e-03   5.2722360e+00   4.8499118e+00  -1.0669660e+07
   5.6618873e-10  -1.0658876e-03   5.2711005e+00   4.8515439e+00  -1.0599431e+07
   5.6685562e-10  -1.0588423e-03   5.2699722e+00   4.8531654e+00  -1.0529661e+07
   5.6752251e-10  -1.0518433e-03   5.2688511e+00   4.8547762e+00  -1.0460345e+07
   5.6818940e-10  -1.0448904e-03   5.2677370e+00   4.8563765e+00  -1.0391482e+07
   5.6885629e-10  -1.0379833e-03   5.2666299e+00   4.8579662e+00  -1.0323068e+07
   5.6952317e-10  -1.0311216e-03   5.2655299e+00   4.8595456e+00  -1.0255101e+07
   5.7019006e-10  -1.0243052e-03   5.2644368e+00   4.8611145e+00  -1.0187577e+07
   5.7085695e-10  -1.0175336e-03   5.2633506e+00   4.8626732e+00  -1.0120494e+07
   5.7152384e-10  -1.0108066e-03   5.2622713e+00   4.8642216e+00  -1.0053849e+07
   5.7219073e-10  -1.0041239e-03   5.2611989e+00   4.8657599e+00  -9.9876396e+06
   5.7285762e-10  -9.9748518e-04   5.2601332e+00   4.8672881e+00  -9.9218623e+06
   5.7352451e-10  -9.9089022e-04   5.2590743e+00   4.8688062e+00  -9.8565146e+06
   5.7419140e-10  -9.8433869e-04   5.2580221e+00   4.8703144e+00  -9.7915938e+06
   5.7485829e-10  -9.7783031e-04   5.2569765e+00   4.8718126e+00  -9.7270971e+06
   5.7552518e-10  -9.7136481e-04   5.2559376e+00   4.8733011e+00  -9.6630219e+06
   5.7619206e-10  -9.6494189e-04   5.2549053e+00   4.8747797e+00  -9.5993653e+06
   5.7685895e-10  -9.5856129e-04   5.2538796e+00   4.8762486e+00  -9.5361248e+06
   5.7752584e-10  -9.5222273e-04   5.2528603e+00   4.8777079e+00  -9.4732976e+06
   5.7819273e-10  -9.4592593e-04   5.2518475e+00   4.8791576e+00  -9.4108811e+06
   5.7885962e-10  -9.3967061e-04   5.2508412e+00   4.8805978e+00  -9.3488727e+06
   5.7952651e-10  -9.3345652e-04   5.2498412e+00   4.8820285e+00  -9.2872697e+06
   5.8019340e-10  -9.2728337e-04   5.2488476e+00   4.8834497e+00  -9.2260695e+06
   5.8086029e-10  -9.2115090e-04   5.2478604e+00   4.8848617e+00  -9.1652696e+06
   5.8152718e-10  -9.1505884e-04   5.2468794e+00   4.8862644e+00  -9.1048673e+06
   5.8219406e-10  -9.0900694e-04   5.2459046e+00   4.8876578e+00  -9.0448602e+06
   5.8286095e-10  -9.0299492e-04   5.2449361e+00   4.8890421e+00  -8.9852456e+06
   5.8352784e-10  -8.9702253e-04   5.2439737e+00   4.8904173e+00  -8.9260210e+06
   5.8419473e-10  -8.9108951e-04   5.2430175e+00   4.8917834e+00  -8.8671840e+06
   5.8486162e-10  -8.8519559e-04   5.2420673e+00   4.8931406e+00  -8.8087320e+06
   5.8552851e-10  -8.7934053e-04   5.2411232e+00   4.8944888e+00  -8.7506626e+06
   5.8619540e-10  -8.7352407e-04   5.2401851e+00   4.8958281e+00  -8.6929733e+06
   5.8686229e-10  -8.6774595e-04   5.2392530e+00   4.8971587e+00  -8.6356616e+06
   5.8752918e-10  -8.6200593e-04   5.2383269e+00   4.8984805e+00  -8.5787251e+06
   5.8819607e-10  -8.5630375e-04   5.2374066e+00   4.8997936e+00  -8.5221614e+06
   5.8886295e-10  -8.5063917e-04   5.2364922e+00   4.9010980e+00  -8.4659680e+06
   5.8952984e-10  -8.4501195e-04   5.2355837e+00   4.9023939e+00  -8.4101427e+06
   5.9019673e-10  -8.3942183e-04   5.2346810e+00   4.9036812e+00  -8.3546830e+06
   5.9086362e-10  -8.3386858e-04   5.2337840e+00   4.9049601e+00  -8.2995865e+06
   5.9153051e-10  -8.2835194e-04   5.2328928e+00   4.9062305e+00  -8.2448510e+06
   5.9219740e-10  -8.2287170e-04   5.2320073e+00   4.9074926e+00  -8.1904741e+06
   5.9286429e-10  -8.1742759e-04   5.2311274e+00   4.9087464e+00  -8.1364534e+06
   5.9353118e-10  -8.1201940e-04   5.2302531e+00   4.9099919e+00  -8.0827867e+06
   5.9419807e-10  -8.0664687e-04   5.2293845e+00   4.9112292e+00  -8.0294717e+06
   5.9486495e-10  -8.0130979e-04   5.2285214e+00   4.9124584e+00  -7.9765061e+06
   5.9553184e-10  -7.9600791e-04   5.2276638e+00   4.9136794e+00  -7.9238877e+06
   5.9619873e-10  -7.9074100e-04   5.2268118e+00   4.9148925e+00  -7.8716142e+06
   5.9686562e-10  -7.8550884e-04   5.2259651e+00   4.9160975e+00  -7.8196833e+06
   5.9753251e-10  -7.8031121e-04   5.2251239e+00   4.9172946e+00  -7.7680929e+06
   5.9819940e-10  -7.7514786e-04   5.2242881e+00   4.9184838e+00  -7.7168408e+06
   5.9886629e-10  -7.7001858e-04   5.2234577e+00   4.9196652e+00  -7.6659248e+06
   5.9953318e-10  -7.6492314e-04   5.2226326e+00   4.9208388e+00  -7.6153427e+06
   6.0020007e-10  -7.5986133e-04   5.2218127e+00   4.9220047e+00  -7.5650923e+06
   6.0086696e-10  -7.5483292e-04   5.2209982e+00   4.9231629e+00  -7.5151715e+06
   6.0153384e-10  -7.4983769e-04   5.2201888e+00   4.9243134e+00  -7.4655782e+06
   6.0220073e-10  -7.4487542e-04   5.2193846e+00   4.9254564e+00  -7.4163102e+06
   6.0286762e-10  -7.3994590e-04   5.2185857e+00   4.9265918e+00  -7.3673654e+06
   6.0353451e-10  -7.3504892e-04   5.2177918e+00   4.9277198e+00  -7.3187418e+06
   6.0420140e-10  -7.3018426e-04   5.2170030e+00   4.9288403e+00  -7.2704373e+06
   6.0486829e-10  -7.2535170e-04   5.2162193e+00   4.9299534e+00  -7.2224497e+06
   6.0553518e-10  -7.2055104e-04   5.2154407e+00   4.9310592e+00  -7.1747771e+06
   6.0620207e-10  -7.1578207e-04   5.2146670e+00   4.9321577e+00  -7.1274173e+06
   6.0686896e-10  -7.1104458e-04   5.2138983e+00   4.9332490e+00  -7.0803685e+06
   6.0753585e-10  -7.0633836e-04   5.2131346e+00   4.9343330e+00  -7.0336285e+06
   6.0820273e-10  -7.0166321e-04   5.2123757e+00   4.9354100e+00  -6.9871953e+06
   6.0886962e-10  -6.9701893e-04   5.2116218e+00   4.9364798e+00  -6.9410670e+06
   6.0953651e-10  -6.9240531e-04   5.2108727e+00   4.9375425e+00  -6.8952416e+06
   6.1020340e-10  -6.8782214e-04   5.2101284e+00   4.9385983e+00  -6.8497171e+06
   6.1087029e-10  -6.8326924e-04   5.2093889e+00   4.9396471e+00  -6.8044915e+06
   6.1153718e-10  -6.7874640e-04   5.2086542e+00   4.9406889e+00  -6.7595630e+06
   6.1220407e-10  -6.7425342e-04   5.2079242e+00   4.9417239e+00  -6.7149296e+06
   6.1287096e-10  -6.6979010e-04   5.2071989e+00   4.9427521e+00  -6.6705893e+06
   6.1353785e-10  -6.6535627e-04   5.2064783e+00   4.9437735e+00  -6.6265403e+06
   6.1420473e-10  -6.6095171e-04   5.2057623e+00   4.9447881e+00  -6.5827807e+06
   6.1487162e-10  -6.5657624e-04   5.2050510e+00   4.9457961e+00  -6.5393086e+06
   6.1553851e-10  -6.5222966e-04   5.2043442e+00   4.9467974e+00  -6.4961221e+06
   6.1620540e-10  -6.4791179e-04   5.2036420e+00   4.9477921e+00  -6.4532195e+06
   6.1687229e-10  -6.4362243e-04   5.2029443e+00   4.9487802e+00  -6.4105987e+06
   6.1753918e-10  -6.3936141e-04   5.2022511e+00   4.9497618e+00  -6.3682580e+06
   6.1820607e-10  -6.3512853e-04   5.2015624e+00   4.9507369e+00  -6.3261956e+06
   6.1887296e-10  -6.3092361e-04   5.2008781e+00   4.9517056e+00  -6.2844097e+06
   6.1953985e-10  -6.2674646e-04   5.2001983e+00   4.9526679e+00  -6.2428985e+06
   6.2020674e-10  -6.2259691e-04   5.1995228e+00   4.9536239e+00  -6.2016601e+06
   6.2087362e-10  -6.1847476e-04   5.1988517e+00   4.9545735e+00  -6.1606928e+06
   6.2154051e-10  -6.1437985e-04   5.1981850e+00   4.9555169e+00  -6.1199949e+06
   6.2220740e-10  -6.1031199e-04   5.1975225e+00   4.9564540e+00  -6.0795646e+06
   6.2287429e-10  -6.0627100e-04   5.1968643e+00   4.9573850e+00  -6.0394001e+06
   6.2354118e-10  -6.0225671e-04   5.1962104e+00   4.9583098e+00  -5.9994998e+06
   6.2420807e-10  -5.9826895e-04   5.1955607e+00   4.9592285e+00  -5.9598618e+06
   6.2487496e-10  -5.9430752e-04   5.1949152e+00   4.9601411e+00  -5.9204845e+06
   6.2554185e-10  -5.9037228e-04   5.1942739e+00   4.9610477e+00  -5.8813663e+06
   6.2620874e-10  -5.8646303e-04   5.1936367e+00   4.9619483e+00  -5.8425053e+06
   6.2687563e-10  -5.8257961e-04   5.1930037e+00   4.9628430e+00  -5.8039000e+06
   6.2754251e-10  -5.7872186e-04   5.1923747e+00   4.9637318e+00  -5.7655486e+06
   6.2820940e-10  -5.7488960e-04   5.1917498e+00   4.9646147e+00  -5.7274495e+06
   6.2887629e-10  -5.7108266e-04   5.1911290e+00   4.9654918e+00  -5.6896011e+06
   6.2954318e-10  -5.6730088e-04   5.1905122e+00   4.9663630e+00  -5.6520017e+06
   6.3021007e-10  -5.6354409e-04   5.1898993e+00   4.9672285e+00  -5.6146497e+06
   6.3087696e-10  -5.5981213e-04   5.1892905e+00   4.9680883e+00  -5.5775436e+06
   6.3154385e-10  -5.5610483e-04   5.1886856e+00   4.9689425e+00  -5.5406816e+06
   6.3221074e-10  -5.5242203e-04   5.1880846e+00   4.9697909e+00  -5.5040622e+06
   6.3287763e-10  -5.4876358e-04   5.1874875e+00   4.9706338e+00  -5.4676838e+06
   6.3354451e-10  -5.4512930e-04   5.1868942e+00   4.9714711e+00  -5.4315449e+06
   6.3421140e-10  -5.4151905e-04   5.1863048e+00   4.9723029e+00  -5.3956439e+06
   6.3487829e-10  -5.3793266e-04   5.1857193e+00   4.9731292e+00  -5.3599791e+06
   6.3554518e-10  -5.3436998e-04   5.1851375e+00   4.9739500e+00  -5.3245492e+06
   6.3621207e-10  -5.3083084e-04   5.1845595e+00   4.9747654e+00  -5.2893525e+06
   6.3687896e-10  -5.2731510e-04   5.1839852e+00   4.9755754e+00  -5.2543876e+06
   6.3754585e-10  -5.2382261e-04   5.1834147e+00   4.9763801e+00  -5.2196529e+06
   6.3821274e-10  -5.2035320e-04   5.1828479e+00   4.9771794e+00  -5.1851469e+06
   6.3887963e-10  -5.1690672e-04   5.1822847e+00   4.9779734e+00  -5.1508681e+06
   6.3954652e-10  -5.1348303e-04   5.1817253e+00   4.9787622e+00  -5.1168151e+06
   6.4021340e-10  -5.1008198e-04   5.1811694e+00   4.9795458e+00  -5.0829863e+06
   6.4088029e-10  -5.0670341e-04   5.1806171e+00   4.9803243e+00  -5.0493803e+06
   6.4154718e-10  -5.0334717e-04   5.1800685e+00   4.9810975e+00  -5.0159957e+06
   6.4221407e-10  -5.0001313e-04   5.1795234e+00   4.9818657e+00  -4.9828309e+06
   6.4288096e-10  -4.9670114e-04   5.1789818e+00   4.9826288e+00  -4.9498847e+06
   6.4354785e-10  -4.9341104e-04   5.1784438e+00   4.9833868e+00  -4.9171554e+06
   6.4421474e-10  -4.9014270e-04   5.1779092e+00   4.9841398e+00  -4.8846418e+06
   6.4488163e-10  -4.8689596e-04   5.1773781e+00   4.9848879e+00  -4.8523424e+06
   6.4554852e-10  -4.8367070e-04   5.1768505e+00   4.9856310e+00  -4.8202558e+06
   6.4621541e-10  -4.8046677e-04   5.1763263e+00   4.9863692e+00  -4.7883806e+06
   6.4688229e-10  -4.7728402e-04   5.1758055e+00   4.9871025e+00  -4.7567154e+06
   6.4754918e-10  -4.7412232e-04   5.1752881e+00   4.9878309e+00  -4.7252589e+06
   6.4821607e-10  -4.7098153e-04   5.1747741e+00   4.9885546e+00  -4.6940097e+06
   6.4888296e-10  -4.6786151e-04   5.1742634e+00   4.9892734e+00  -4.6629664e+06
   6.4954985e-10  -4.6476212e-04   5.1737561e+00   4.9899875e+00  -4.6321277e+06
   6.5021674e-10  -4.6168323e-04   5.1732520e+00   4.9906969e+00  -4.6014923e+06
   6.5088363e-10  -4.5862470e-04   5.1727512e+00   4.9914016e+00  -4.5710587e+06
   6.5155052e-10  -4.5558641e-04   5.1722537e+00   4.9921016e+00  -4.5408258e+06
   6.5221741e-10  -4.5256821e-04   5.1717594e+00   4.9927970e+00  -4.5107922e+06
   6.5288429e-10  -4.4956997e-04   5.1712683e+00   4.9934879e+00  -4.4809566e+06
   6.5355118e-10  -4.4659156e-04   5.1707804e+00   4.9941741e+00  -4.4513176e+06
   6.5421807e-10  -4.4363286e-04   5.1702957e+00   4.9948558e+00  -4.4218740e+06
   6.5488496e-10  -4.4069372e-04   5.1698142e+00   4.9955330e+00  -4.3926246e+06
   6.5555185e-10  -4.3777403e-04   5.1693358e+00   4.9962057e+00  -4.3635680e+06
   6.5621874e-10  -4.3487365e-04   5.1688605e+00   4.9968739e+00  -4.3347030e+06
   6.5688563e-10  -4.3199245e-04   5.1683883e+00   4.9975378e+00  -4.3060284e+06
   6.5755252e-10  -4.2913032e-04   5.1679192e+00   4.9981972e+00  -4.2775428e+06
   6.5821941e-10  -4.2628712e-04   5.1674531e+00   4.9988523e+00  -4.2492450e+06
   6.5888630e-10  -4.2346273e-04   5.1669901e+00   4.9995031e+00  -4.2211339e+06
   6.5955318e-10  -4.2065702e-04   5.1665301e+00   5.0001495e+00  -4.1932082e+06
   6.6022007e-10  -4.1786988e-04   5.1660731e+00   5.0007917e+00  -4.1654666e+06
   6.6088696e-10  -4.1510118e-04   5.1656190e+00   5.0014296e+00  -4.1379081e+06
   6.6155385e-10  -4.1235079e-04   5.1651680e+00   5.0020633e+00  -4.1105313e+06
   6.6222074e-10  -4.0961860e-04   5.1647198e+00   5.0026928e+00  -4.0833350e+06
   6.6288763e-10  -4.0690449e-04   5.1642746e+00   5.0033182e+00  -4.0563182e+06
   6.6355452e-10  -4.0420833e-04   5.1638323e+00   5.0039394e+00  -4.0294796e+06
   6.6422141e-10  -4.0153002e-04   5.1633929e+00   5.0045565e+00  -4.0028181e+06
   6.6488830e-10  -3.9886942e-04   5.1629564e+00   5.0051695e+00  -3.9763324e+06
   6.6555519e-10  -3.9622643e-04   5.1625227e+00   5.0057785e+00  -3.9500215e+06
   6.6622207e-10  -3.9360093e-04   5.1620918e+00   5.0063834e+00  -3.9238842e+06
   6.6688896e-10  -3.9099281e-04   5.1616637e+00   5.0069843e+00  -3.8979193e+06
   6.6755585e-10  -3.8840194e-04   5.1612385e+00   5.0075813e+00  -3.8721258e+06
   6.6822274e-10  -3.8582821e-04   5.1608160e+00   5.0081743e+00  -3.8465025e+06
   6.6888963e-10  -3.8327152e-04   5.1603962e+00   5.0087633e+00  -3.8210482e+06
   6.6955652e-10  -3.8073174e-04   5.1599793e+00   5.0093485e+00  -3.7957619e+06
   6.7022341e-10  -3.7820878e-04   5.1595650e+00   5.0099298e+00  -3.7706425e+06
   6.7089030e-10  -3.7570251e-04   5.1591534e+00   5.0105073e+00  -3.7456889e+06
   6.7155719e-10  -3.7321282e-04   5.1587446e+00   5.0110809e+00  -3.7208999e+06
   6.7222407e-10  -3.7073962e-04   5.1583384e+00   5.0116508e+00  -3.6962746e+06
   6.7289096e-10  -3.6828278e-04   5.1579348e+00   5.0122168e+00  -3.6718118e+06
   6.7355785e-10  -3.6584220e-04   5.1575339e+00   5.0127792e+00  -3.6475105e+06
   6.7422474e-10  -3.6341777e-04   5.1571356e+00   5.0133378e+00  -3.6233696e+06
   6.7489163e-10  -3.6100939e-04   5.1567399e+00   5.0138927e+00  -3.5993880e+06
   6.7555852e-10  -3.5861695e-04   5.1563468e+00   5.0144439e+00  -3.5755648e+06
   6.7622541e-10  -3.5624035e-04   5.1559563e+00   5.0149915e+00  -3.5518988e+06
   6.7689230e-10  -3.5387948e-04   5.1555683e+00   5.0155354e+00  -3.5283891e+06
   6.7755919e-10  -3.5153423e-04   5.1551829e+00   5.0160758e+00  -3.5050345e+06
   6.7822608e-10  -3.4920450e-04   5.1548000e+00   5.0166126e+00  -3.4818342e+06
   6.7889296e-10  -3.4689020e-04   5.1544195e+00   5.0171458e+00  -3.4587870e+06
   6.7955985e-10  -3.4459122e-04   5.1540416e+00   5.0176755e+00  -3.4358920e+06
   6.8022674e-10  -3.4230745e-04   5.1536662e+00   5.0182017e+00  -3.4131482e+06
   6.8089363e-10  -3.4003880e-04   5.1532932e+00   5.0187244e+00  -3.3905546e+06
   6.8156052e-10  -3.3778517e-04   5.1529226e+00   5.0192436e+00  -3.3681102e+06
   6.8222741e-10  -3.3554646e-04   5.1525545e+00   5.0197594e+00  -3.3458140e+06
   6.8289430e-10  -3.3332256e-04   5.1521887e+00   5.0202718e+00  -3.3236650e+06
   6.8356119e-10  -3.3111339e-04   5.1518254e+00   5.0207808e+00  -3.3016623e+06
   6.8422808e-10  -3.2891885e-04   5.1514644e+00   5.0212865e+00  -3.2798049e+06
   6.8489496e-10  -3.2673883e-04   5.1511058e+00   5.0217888e+00  -3.2580919e+06
   6.8556185e-10  -3.2457324e-04   5.1507496e+00   5.0222877e+00  -3.2365222e+06
   6.8622874e-10  -3.2242200e-04   5.1503957e+00   5.0227834e+00  -3.2150951e+06
   6.8689563e-10  -3.2028499e-04   5.1500441e+00   5.0232757e+00  -3.1938095e+06
   6.8756252e-10  -3.1816213e-04   5.1496948e+00   5.0237649e+00  -3.1726644e+06
   6.8822941e-10  -3.1605333e-04   5.1493478e+00   5.0242507e+00  -3.1516591e+06
   6.8889630e-10  -3.1395849e-04   5.1490030e+00   5.0247334e+00  -3.1307925e+06
   6.8956319e-10  -3.1187752e-04   5.1486606e+00   5.0252128e+00  -3.1100637e+06
   6.9023008e-10  -3.0981032e-04   5.1483203e+00   5.0256891e+00  -3.0894719e+06
   6.9089697e-10  -3.0775682e-04   5.1479823e+00   5.0261623e+00  -3.0690161e+06
   6.9156385e-10  -3.0571691e-04   5.1476465e+00   5.0266323e+00  -3.0486955e+06
   6.9223074e-10  -3.0369050e-04   5.1473130e+00   5.0270991e+00  -3.0285091e+06
   6.9289763e-10  -3.0167752e-04   5.1469815e+00   5.0275629e+00  -3.0084561e+06
   6.9356452e-10  -2.9967786e-04   5.1466523e+00   5.0280237e+00  -2.9885356e+06
   6.9423141e-10  -2.9769145e-04   5.1463252e+00   5.0284813e+00  -2.9687467e+06
   6.9489830e-10  -2.9571818e-04   5.1460003e+00   5.0289360e+00  -2.9490885e+06
   6.9556519e-10  -2.9375799e-04   5.1456775e+00   5.0293876e+00  -2.9295603e+06
   6.9623208e-10  -2.9181077e-04   5.1453568e+00   5.0298362e+00  -2.9101611e+06
   6.9689897e-10  -2.8987645e-04   5.1450382e+00   5.0302819e+00  -2.8908901e+06
   6.9756586e-10  -2.8795494e-04   5.1447217e+00   5.0307246e+00  -2.8717464e+06
   6.9823274e-10  -2.8604615e-04   5.1444073e+00   5.0311644e+00  -2.8527293e+06
   6.9889963e-10  -2.8415000e-04   5.1440950e+00   5.0316013e+00  -2.8338378e+06
   6.9956652e-10  -2.8226641e-04   5.1437847e+00   5.0320353e+00  -2.8150712e+06
   7.0023341e-10  -2.8039530e-04   5.1434764e+00   5.0324664e+00  -2.7964286e+06
   7.0090030e-10  -2.7853657e-04   5.1431701e+00   5.0328946e+00  -2.7779092e+06
   7.0156719e-10  -2.7669016e-04   5.1428659e+00   5.0333200e+00  -2.7595123e+06
   7.0223408e-10  -2.7485597e-04   5.1425636e+00   5.0337426e+00  -2.7412369e+06
   7.0290097e-10  -2.7303393e-04   5.1422634e+00   5.0341624e+00  -2.7230823e+06
   7.0356786e-10  -2.7122395e-04   5.1419651e+00   5.0345794e+00  -2.7050477e+06
   7.0423474e-10  -2.6942597e-04   5.1416688e+00   5.0349937e+00  -2.6871324e+06
   7.0490163e-10  -2.6763989e-04   5.1413744e+00   5.0354052e+00  -2.6693354e+06
   7.0556852e-10  -2.6586564e-04   5.1410819e+00   5.0358140e+00  -2.6516562e+06
   7.0623541e-10  -2.6410314e-04   5.1407914e+00   5.0362200e+00  -2.6340937e+06
   7.0690230e-10  -2.6235232e-04   5.1405027e+00   5.0366234e+00  -2.6166474e+06
   7.0756919e-10  -2.6061309e-04   5.1402160e+00   5.0370241e+00  -2.5993164e+06
   7.0823608e-10  -2.5888538e-04   5.1399311e+00   5.0374222e+00  -2.5821000e+06
   7.0890297e-10  -2.5716912e-04   5.1396481e+00   5.0378176e+00  -2.5649975e+06
   7.0956986e-10  -2.5546422e-04   5.1393670e+00   5.0382104e+00  -2.5480080e+06
   7.1023675e-10  -2.5377062e-04   5.1390877e+00   5.0386006e+00  -2.5311308e+06
   7.1090363e-10  -2.5208823e-04   5.1388103e+00   5.0389882e+00  -2.5143652e+06
   7.1157052e-10  -2.5041699e-04   5.1385347e+00   5.0393733e+00  -2.4977105e+06
   7.1223741e-10  -2.4875681e-04   5.1382608e+00   5.0397558e+00  -2.4811658e+06
   7.1290430e-10  -2.4710764e-04   5.1379888e+00   5.0401357e+00  -2.4647306e+06
   7.1357119e-10  -2.4546939e-04   5.1377186e+00   5.0405132e+00  -2.4484041e+06
   7.1423808e-10  -2.4384199e-04   5.1374501e+00   5.0408881e+00  -2.4321855e+06
   7.1490497e-10  -2.4222537e-04   5.1371835e+00   5.0412606e+00  -2.4160742e+06
   7.1557186e-10  -2.4061946e-04   5.1369185e+00   5.0416306e+00  -2.4000694e+06
   7.1623875e-10  -2.3902418e-04   5.1366553e+00   5.0419981e+00  -2.3841705e+06
   7.1690564e-10  -2.3743948e-04   5.1363938e+00   5.0423632e+00  -2.3683767e+06
   7.1757252e-10  -2.3586527e-04   5.1361341e+00   5.0427259e+00  -2.3526874e+06
   7.1823941e-10  -2.3430149e-04   5.1358760e+00   5.0430862e+00  -2.3371018e+06
   7.1890630e-10  -2.3274807e-04   5.1356197e+00   5.0434441e+00  -2.3216193e+06
   7.1957319e-10  -2.3120495e-04   5.1353650e+00   5.0437996e+00  -2.3062392e+06
   7.2024008e-10  -2.2967204e-04   5.1351120e+00   5.0441528e+00  -2.2909608e+06
   7.2090697e-10  -2.2814929e-04   5.1348607e+00   5.0445036e+00  -2.2757835e+06
   7.2157386e-10  -2.2663663e-04   5.1346110e+00   5.0448521e+00  -2.2607065e+06
   7.2224075e-10  -2.2513399e-04   5.1343630e+00   5.0451983e+00  -2.2457293e+06
   7.2290764e-10  -2.2364130e-04   5.1341166e+00   5.0455422e+00  -2.2308512e+06
   7.2357452e-10  -2.2215851e-04   5.1338718e+00   5.0458838e+00  -2.2160714e+06
   7.2424141e-10  -2.2068553e-04   5.1336287e+00   5.0462232e+00  -2.2013895e+06
   7.2490830e-10  -2.1922232e-04   5.1333871e+00   5.0465603e+00  -2.1868046e+06
   7.2557519e-10  -2.1776880e-04   5.1331471e+00   5.0468952e+00  -2.1723163e+06
   7.2624208e-10  -2.1632491e-04   5.1329087e+00   5.0472278e+00  -2.1579237e+06
   7.2690897e-10  -2.1489059e-04   5.1326718e+00   5.0475583e+00  -2.1436264e+06
   7.2757586e-10  -2.1346577e-04   5.1324366e+00   5.0478865e+00  -2.1294237e+06
   7.2824275e-10  -2.1205039e-04   5.1322028e+00   5.0482126e+00  -2.1153149e+06
   7.2890964e-10  -2.1064439e-04   5.1319706e+00   5.0485365e+00  -2.1012995e+06
   7.2957653e-10  -2.0924770e-04   5.1317400e+00   5.0488583e+00  -2.0873768e+06
   7.3024341e-10  -2.0786027e-04   5.1315108e+00   5.0491780e+00  -2.0735463e+06
   7.3091030e-10  -2.0648203e-04   5.1312832e+00   5.0494955e+00  -2.0598072e+06
   7.3157719e-10  -2.0511292e-04   5.1310570e+00   5.0498109e+00  -2.0461590e+06
   7.3224408e-10  -2.0375289e-04   5.1308324e+00   5.0501242e+00  -2.0326011e+06
   7.3291097e-10  -2.0240187e-04   5.1306092e+00   5.0504355e+00  -2.0191330e+06
   7.3357786e-10  -2.0105979e-04   5.1303875e+00   5.0507447e+00  -2.0057539e+06
   7.3424475e-10  -1.9972662e-04   5.1301672e+00   5.0510518e+00  -1.9924634e+06
   7.3491164e-10  -1.9840227e-04   5.1299484e+00   5.0513569e+00  -1.9792608e+06
   7.3557853e-10  -1.9708670e-04   5.1297311e+00   5.0516600e+00  -1.9661456e+06
   7.3624542e-10  -1.9577985e-04   5.1295151e+00   5.0519611e+00  -1.9531172e+06
   7.3691230e-10  -1.9448166e-04   5.1293006e+00   5.0522602e+00  -1.9401750e+06
   7.3757919e-10  -1.9319207e-04   5.1290875e+00   5.0525573e+00  -1.9273184e+06
   7.3824608e-10  -1.9191103e-04   5.1288758e+00   5.0528524e+00  -1.9145469e+06
   7.3891297e-10  -1.9063847e-04   5.1286655e+00   5.0531456e+00  -1.9018600e+06
   7.3957986e-10  -1.8937435e-04   5.1284566e+00   5.0534368e+00  -1.8892569e+06
   7.4024675e-10  -1.8811860e-04   5.1282491e+00   5.0537261e+00  -1.8767373e+06
   7.4091364e-10  -1.8687118e-04   5.1280429e+00   5.0540135e+00  -1.8643006e+06
   7.4158053e-10  -1.8563202e-04   5.1278381e+00   5.0542990e+00  -1.8519462e+06
   7.4224742e-10  -1.8440108e-04   5.1276346e+00   5.0545826e+00  -1.8396735e+06
   7.4291430e-10  -1.8317829e-04   5.1274325e+00   5.0548643e+00  -1.8274820e+06
   7.4358119e-10  -1.8196360e-04   5.1272317e+00   5.0551441e+00  -1.8153713e+06
   7.4424808e-10  -1.8075697e-04   5.1270322e+00   5.0554221e+00  -1.8033407e+06
   7.4491497e-10  -1.7955833e-04   5.1268341e+00   5.0556983e+00  -1.7913897e+06
   7.4558186e-10  -1.7836763e-04   5.1266372e+00   5.0559726e+00  -1.7795178e+06
   7.4624875e-10  -1.7718483e-04   5.1264417e+00   5.0562451e+00  -1.7677245e+06
   7.4691564e-10  -1.7600986e-04   5.1262474e+00   5.0565158e+00  -1.7560093e+06
   7.4758253e-10  -1.7484269e-04   5.1260544e+00   5.0567847e+00  -1.7443716e+06
   7.4824942e-10  -1.7368324e-04   5.1258627e+00   5.0570518e+00  -1.7328110e+06
   7.4891631e-10  -1.7253148e-04   5.1256722e+00   5.0573171e+00  -1.7213269e+06
   7.4958319e-10  -1.7138736e-04   5.1254830e+00   5.0575807e+00  -1.7099188e+06
   7.5025008e-10  -1.7025081e-04   5.1252951e+00   5.0578425e+00  -1.6985862e+06
   7.5091697e-10  -1.6912180e-04   5.1251084e+00   5.0581026e+00  -1.6873286e+06
   7.5158386e-10  -1.6800028e-04   5.1249229e+00   5.0583610e+00  -1.6761456e+06
   7.5225075e-10  -1.6688618e-04   5.1247386e+00   5.0586177e+00  -1.6650365e+06
   7.5291764e-10  -1.6577947e-04   5.1245556e+00   5.0588726e+00  -1.6540011e+06
   7.5358453e-10  -1.6468010e-04   5.1243737e+00   5.0591259e+00  -1.6430387e+06
   7.5425142e-10  -1.6358801e-04   5.1241931e+00   5.0593775e+00  -1.6321488e+06
   7.5491831e-10  -1.6250316e-04   5.1240137e+00   5.0596274e+00  -1.6213311e+06
   7.5558520e-10  -1.6142550e-04   5.1238354e+00   5.0598757e+00  -1.6105849e+06
   7.5625208e-10  -1.6035498e-04   5.1236583e+00   5.0601223e+00  -1.5999100e+06
   7.5691897e-10  -1.5929155e-04   5.1234824e+00   5.0603673e+00  -1.5893057e+06
   7.5758586e-10  -1.5823518e-04   5.1233076e+00   5.0606106e+00  -1.5787716e+06
   7.5825275e-10  -1.5718581e-04   5.1231340e+00   5.0608524e+00  -1.5683072e+06
   7.5891964e-10  -1.5614339e-04   5.1229615e+00   5.0610925e+00  -1.5579122e+06
   7.5958653e-10  -1.5510788e-04   5.1227902e+00   5.0613311e+00  -1.5475859e+06
   7.6025342e-10  -1.5407924e-04   5.1226200e+00   5.0615681e+00  -1.5373280e+06
   7.6092031e-10  -1.5305742e-04   5.1224509e+00   5.0618035e+00  -1.5271381e+06
   7.6158720e-10  -1.5204236e-04   5.1222830e+00   5.0620373e+00  -1.5170156e+06
   7.6225408e-10  -1.5103404e-04   5.1221161e+00   5.0622696e+00  -1.5069602e+06
   7.6292097e-10  -1.5003240e-04   5.1219503e+00   5.0625004e+00  -1.4969713e+06
   7.6358786e-10  -1.4903740e-04   5.1217857e+00   5.0627296e+00  -1.4870486e+06
   7.6425475e-10  -1.4804899e-04   5.1216221e+00   5.0629573e+00  -1.4771916e+06
   7.6492164e-10  -1.4706714e-04   5.1214596e+00   5.0631835e+00  -1.4673998e+06
   7.6558853e-10  -1.4609179e-04   5.1212982e+00   5.0634082e+00  -1.4576729e+06
   7.6625542e-10  -1.4512291e-04   5.1211378e+00   5.0636314e+00  -1.4480104e+06
   7.6692231e-10  -1.4416045e-04   5.1209785e+00   5.0638531e+00  -1.4384119e+06
   7.6758920e-10  -1.4320437e-04   5.1208203e+00   5.0640733e+00  -1.4288770e+06
   7.6825609e-10  -1.4225463e-04   5.1206631e+00   5.0642921e+00  -1.4194052e+06
   7.6892297e-10  -1.4131119e-04   5.1205069e+00   5.0645095e+00  -1.4099961e+06
   7.6958986e-10  -1.4037400e-04   5.1203517e+00   5.0647254e+00  -1.4006493e+06
   7.7025675e-10  -1.3944302e-04   5.1201976e+00   5.0649398e+00  -1.3913645e+06
   7.7092364e-10  -1.3851821e-04   5.1200445e+00   5.0651529e+00  -1.3821411e+06
   7.7159053e-10  -1.3759954e-04   5.1198924e+00   5.0653645e+00  -1.3729788e+06
   7.7225742e-10  -1.3668695e-04   5.1197413e+00   5.0655748e+00  -1.3638772e+06
   7.7292431e-10  -1.3578041e-04   5.1195913e+00   5.0657836e+00  -1.3548358e+06
   7.7359120e-10  -1.3487989e-04   5.1194422e+00   5.0659910e+00  -1.3458544e+06
   7.7425809e-10  -1.3398533e-04   5.1192940e+00   5.0661971e+00  -1.3369324e+06
   7.7492497e-10  -1.3309670e-04   5.1191469e+00   5.0664018e+00  -1.3280695e+06
   7.7559186e-10  -1.3221397e-04   5.1190007e+00   5.0666052e+00  -1.3192654e+06
   7.7625875e-10  -1.3133708e-04   5.1188555e+00   5.0668072e+00  -1.3105195e+06
   7.7692564e-10  -1.3046601e-04   5.1187113e+00   5.0670079e+00  -1.3018316e+06
   7.7759253e-10  -1.2960072e-04   5.1185680e+00   5.0672072e+00  -1.2932012e+06
   7.7825942e-10  -1.2874116e-04   5.1184257e+00   5.0674052e+00  -1.2846280e+06
   7.7892631e-10  -1.2788730e-04   5.1182843e+00   5.0676019e+00  -1.2761115e+06
   7.7959320e-10  -1.2703909e-04   5.1181438e+00   5.0677973e+00  -1.2676515e+06
   7.8026009e-10  -1.2619652e-04   5.1180042e+00   5.0679914e+00  -1.2592475e+06
   7.8092698e-10  -1.2535953e-04   5.1178656e+00   5.0681842e+00  -1.2508992e+06
   7.8159386e-10  -1.2452808e-04   5.1177279e+00   5.0683758e+00  -1.2426061e+06
   7.8226075e-10  -1.2370215e-04   5.1175911e+00   5.0685660e+00  -1.2343680e+06
   7.8292764e-10  -1.2288170e-04   5.1174552e+00   5.0687550e+00  -1.2261845e+06
   7.8359453e-10  -1.2206668e-04   5.1173202e+00   5.0689428e+00  -1.2180552e+06
   7.8426142e-10  -1.2125707e-04   5.1171861e+00   5.0691293e+00  -1.2099797e+06
   7.8492831e-10  -1.2045283e-04   5.1170529e+00   5.0693146e+00  -1.2019578e+06
   7.8559520e-10  -1.1965391e-04   5.1169205e+00   5.0694986e+00  -1.1939889e+06
   7.8626209e-10  -1.1886030e-04   5.1167891e+00   5.0696814e+00  -1.1860729e+06
   7.8692898e-10  -1.1807195e-04   5.1166585e+00   5.0698630e+00  -1.1782093e+06
   7.8759587e-10  -1.1728882e-04   5.1165287e+00   5.0700434e+00  -1.1703978e+06
   7.8826275e-10  -1.1651088e-04   5.1163999e+00   5.0702226e+00  -1.1626380e+06
   7.8892964e-10  -1.1573811e-04   5.1162718e+00   5.0704007e+00  -1.1549297e+06
   7.8959653e-10  -1.1497045e-04   5.1161446e+00   5.0705775e+00  -1.1472724e+06
   7.9026342e-10  -1.1420789e-04   5.1160183e+00   5.0707532e+00  -1.1396658e+06
   7.9093031e-10  -1.1345038e-04   5.1158928e+00   5.0709277e+00  -1.1321097e+06
   7.9159720e-10  -1.1269789e-04   5.1157681e+00   5.0711010e+00  -1.1246036e+06
   7.9226409e-10  -1.1195040e-04   5.1156443e+00   5.0712732e+00  -1.1171472e+06
   7.9293098e-10  -1.1120786e-04   5.1155212e+00   5.0714443e+00  -1.1097402e+06
   7.9359787e-10  -1.1047024e-04   5.1153990e+00   5.0716142e+00  -1.1023823e+06
   7.9426475e-10  -1.0973751e-04   5.1152776e+00   5.0717830e+00  -1.0950731e+06
   7.9493164e-10  -1.0900964e-04   5.1151570e+00   5.0719506e+00  -1.0878124e+06
   7.9559853e-10  -1.0828660e-04   5.1150371e+00   5.0721172e+00  -1.0805998e+06
   7.9626542e-10  -1.0756835e-04   5.1149181e+00   5.0722827e+00  -1.0734350e+06
   7.9693231e-10  -1.0685487e-04   5.1147999e+00   5.0724470e+00  -1.0663176e+06
   7.9759920e-10  -1.0614611e-04   5.1146824e+00   5.0726103e+00  -1.0592474e+06
   7.9826609e-10  -1.0544206e-04   5.1145657e+00   5.0727725e+00  -1.0522240e+06
   7.9893298e-10  -1.0474267e-04   5.1144498e+00   5.0729336e+00  -1.0452472e+06
   7.9959987e-10  -1.0404792e-04   5.1143347e+00   5.0730936e+00  -1.0383166e+06
   8.0026676e-10  -1.0335777e-04   5.1142203e+00   5.0732526e+00  -1.0314319e+06
   8.0093364e-10  -1.0267221e-04   5.1141066e+00   5.0734105e+00  -1.0245929e+06
   8.0160053e-10  -1.0199118e-04   5.1139938e+00   5.0735674e+00  -1.0177991e+06
   8.0226742e-10  -1.0131468e-04   5.1138816e+00   5.0737232e+00  -1.0110504e+06
   8.0293431e-10  -1.0064266e-04   5.1137702e+00   5.0738781e+00  -1.0043464e+06
   8.0360120e-10  -9.9975094e-05   5.1136596e+00   5.0740318e+00  -9.9768678e+05
   8.0426809e-10  -9.9311956e-05   5.1135497e+00   5.0741846e+00  -9.9107132e+05
   8.0493498e-10  -9.8653215e-05   5.1134405e+00   5.0743363e+00  -9.8449969e+05
   8.0560187e-10  -9.7998842e-05   5.1133320e+00   5.0744871e+00  -9.7797161e+05
   8.0626876e-10  -9.7348809e-05   5.1132242e+00   5.0746368e+00  -9.7148679e+05
   8.0693565e-10  -9.6703085e-05   5.1131172e+00   5.0747856e+00  -9.6504494e+05
   8.0760253e-10  -9.6061643e-05   5.1130108e+00   5.0749333e+00  -9.5864578e+05
   8.0826942e-10  -9.5424455e-05   5.1129052e+00   5.0750801e+00  -9.5228902e+05
   8.0893631e-10  -9.4791492e-05   5.1128003e+00   5.0752259e+00  -9.4597439e+05
   8.0960320e-10  -9.4162726e-05   5.1126960e+00   5.0753707e+00  -9.3970160e+05
   8.1027009e-10  -9.3538130e-05   5.1125925e+00   5.0755146e+00  -9.3347039e+05
   8.1093698e-10  -9.2917675e-05   5.1124896e+00   5.0756576e+00  -9.2728046e+05
   8.1160387e-10  -9.2301334e-05   5.1123874e+00   5.0757995e+00  -9.2113156e+05
   8.1227076e-10  -9.1689081e-05   5.1122859e+00   5.0759406e+00  -9.1502340e+05
   8.1293765e-10  -9.1080887e-05   5.1121850e+00   5.0760807e+00  -9.0895572e+05
   8.1360453e-10  -9.0476727e-05   5.1120849e+00   5.0762198e+00  -9.0292826e+05
   8.1427142e-10  -8.9876573e-05   5.1119853e+00   5.0763581e+00  -8.9694073e+05
   8.1493831e-10  -8.9280398e-05   5.1118865e+00   5.0764954e+00  -8.9099289e+05
   8.1560520e-10  -8.8688177e-05   5.1117883e+00   5.0766318e+00  -8.8508447e+05
   8.1627209e-10  -8.8099883e-05   5.1116907e+00   5.0767674e+00  -8.7921520e+05
   8.1693898e-10  -8.7515491e-05   5.1115938e+00   5.0769020e+00  -8.7338483e+05
   8.1760587e-10  -8.6934973e-05   5.1114975e+00   5.0770357e+00  -8.6759310e+05
   8.1827276e-10  -8.6358306e-05   5.1114019e+00   5.0771685e+00  -8.6183976e+05
   8.1893965e-10  -8.5785462e-05   5.1113069e+00   5.0773005e+00  -8.5612455e+05
   8.1960654e-10  -8.5216417e-05   5.1112125e+00   5.0774316e+00  -8.5044721e+05
   8.2027342e-10  -8.4651146e-05   5.1111188e+00   5.0775618e+00  -8.4480750e+05
   8.2094031e-10  -8.4089623e-05   5.1110257e+00   5.0776911e+00  -8.3920517e+05
   8.2160720e-10  -8.3531824e-05   5.1109331e+00   5.0778196e+00  -8.3363997e+05
   8.2227409e-10  -8.2977724e-05   5.1108412e+00   5.0779473e+00  -8.2811165e+05
   8.2294098e-10  -8.2427299e-05   5.1107500e+00   5.0780740e+00  -8.2261998e+05
   8.2360787e-10  -8.1880524e-05   5.1106593e+00   5.0782000e+00  -8.1716470e+05
   8.2427476e-10  -8.1337375e-05   5.1105692e+00   5.0783251e+00  -8.1174558e+05
   8.2494165e-10  -8.0797828e-05   5.1104797e+00   5.0784494e+00  -8.0636238e+05
   8.2560854e-10  -8.0261859e-05   5.1103908e+00   5.0785729e+00  -8.0101486e+05
   8.2627543e-10  -7.9729444e-05   5.1103025e+00   5.0786955e+00  -7.9570278e+05
   8.2694231e-10  -7.9200560e-05   5.1102147e+00   5.0788173e+00  -7.9042591e+05
   8.2760920e-10  -7.8675183e-05   5.1101276e+00   5.0789384e+00  -7.8518402e+05
   8.2827609e-10  -7.8153291e-05   5.1100410e+00   5.0790586e+00  -7.7997687e+05
   8.2894298e-10  -7.7634860e-05   5.1099550e+00   5.0791780e+00  -7.7480424e+05
   8.2960987e-10  -7.7119867e-05   5.1098696e+00   5.0792966e+00  -7.6966589e+05
   8.3027676e-10  -7.6608289e-05   5.1097847e+00   5.0794145e+00  -7.6456160e+05
   8.3094365e-10  -7.6100104e-05   5.1097004e+00   5.0795315e+00  -7.5949114e+05
   8.3161054e-10  -7.5595289e-05   5.1096167e+00   5.0796478e+00  -7.5445430e+05
   8.3227743e-10  -7.5093822e-05   5.1095335e+00   5.0797633e+00  -7.4945084e+05
   8.3294431e-10  -7.4595681e-05   5.1094508e+00   5.0798781e+00  -7.4448054e+05
   8.3361120e-10  -7.4100843e-05   5.1093687e+00   5.0799920e+00  -7.3954319e+05
   8.3427809e-10  -7.3609287e-05   5.1092872e+00   5.0801053e+00  -7.3463857e+05
   8.3494498e-10  -7.3120991e-05   5.1092062e+00   5.0802178e+00  -7.2976646e+05
   8.3561187e-10  -7.2635933e-05   5.1091257e+00   5.0803295e+00  -7.2492665e+05
   8.3627876e-10  -7.2154093e-05   5.1090458e+00   5.0804405e+00  -7.2011891e+05
   8.3694565e-10  -7.1675447e-05   5.1089663e+00   5.0805507e+00  -7.1534305e+05
   8.3761254e-10  -7.1199977e-05   5.1088874e+00   5.0806603e+00  -7.1059885e+05
   8.3827943e-10  -7.0727659e-05   5.1088091e+00   5.0807691e+00  -7.0588609e+05
   8.3894632e-10  -7.0258475e-05   5.1087312e+00   5.0808771e+00  -7.0120458e+05
   8.3961320e-10  -6.9792401e-05   5.1086539e+00   5.0809845e+00  -6.9655409e+05
   8.4028009e-10  -6.9329419e-05   5.1085771e+00   5.0810911e+00  -6.9193444e+05
   8.4094698e-10  -6.8869508e-05   5.1085008e+00   5.0811971e+00  -6.8734541e+05
   8.4161387e-10  -6.8412646e-05   5.1084249e+00   5.0813023e+00  -6.8278680e+05
   8.4228076e-10  -6.7958815e-05   5.1083496e+00   5.0814068e+00  -6.7825841e+05
   8.4294765e-10  -6.7507994e-05   5.1082748e+00   5.0815107e+00  -6.7376004e+05
   8.4361454e-10  -6.7060162e-05   5.1082005e+00   5.0816138e+00  -6.6929150e+05
   8.4428143e-10  -6.6615301e-05   5.1081267e+00   5.0817163e+00  -6.6485257e+05
   8.4494832e-10  -6.6173390e-05   5.1080534e+00   5.0818181e+00  -6.6044307e+05
   8.4561521e-10  -6.5734410e-05   5.1079805e+00   5.0819192e+00  -6.5606281e+05
   8.4628209e-10  -6.5298341e-05   5.1079081e+00   5.0820197e+00  -6.5171158e+05
   8.4694898e-10  -6.4865165e-05   5.1078363e+00   5.0821195e+00  -6.4738920e+05
   8.4761587e-10  -6.4434862e-05   5.1077648e+00   5.0822186e+00  -6.4309547e+05
   8.4828276e-10  -6.4007412e-05   5.1076939e+00   5.0823170e+00  -6.3883021e+05
   8.4894965e-10  -6.3582798e-05   5.1076234e+00   5.0824148e+00  -6.3459322e+05
   8.4961654e-10  -6.3160999e-05   5.1075534e+00   5.0825120e+00  -6.3038433e+05
   8.5028343e-10  -6.2741999e-05   5.1074839e+00   5.0826085e+00  -6.2620334e+05
   8.5095032e-10  -6.2325777e-05   5.1074148e+00   5.0827044e+00  -6.2205006e+05
   8.5161721e-10  -6.1912316e-05   5.1073462e+00   5.0827996e+00  -6.1792432e+05
   8.5228409e-10  -6.1501597e-05   5.1072780e+00   5.0828942e+00  -6.1382594e+05
   8.5295098e-10  -6.1093602e-05   5.1072103e+00   5.0829882e+00  -6.0975472e+05
   8.5361787e-10  -6.0688314e-05   5.1071430e+00   5.0830816e+00  -6.0571050e+05
   8.5428476e-10  -6.0285713e-05   5.1070762e+00   5.0831743e+00  -6.0169309e+05
   8.5495165e-10  -5.9885783e-05   5.1070098e+00   5.0832664e+00  -5.9770231e+05
   8.5561854e-10  -5.9488505e-05   5.1069439e+00   5.0833579e+00  -5.9373800e+05
   8.5628543e-10  -5.9093862e-05   5.1068784e+00   5.0834488e+00  -5.8979996e+05
   8.5695232e-10  -5.8701837e-05   5.1068133e+00   5.0835391e+00  -5.8588804e+05
   8.5761921e-10  -5.8312412e-05   5.1067487e+00   5.0836288e+00  -5.8200205e+05
   8.5828610e-10  -5.7925570e-05   5.1066845e+00   5.0837180e+00  -5.7814182e+05
   8.5895298e-10  -5.7541294e-05   5.1066207e+00   5.0838065e+00  -5.7430719e+05
   8.5961987e-10  -5.7159566e-05   5.1065573e+00   5.0838944e+00  -5.7049798e+05
   8.6028676e-10  -5.6780370e-05   5.1064944e+00   5.0839817e+00  -5.6671403e+05
   8.6095365e-10  -5.6403690e-05   5.1064318e+00   5.0840685e+00  -5.6295517e+05
   8.6162054e-10  -5.6029508e-05   5.1063697e+00   5.0841547e+00  -5.5922123e+05
   8.6228743e-10  -5.5657807e-05   5.1063080e+00   5.0842403e+00  -5.5551204e+05
   8.6295432e-10  -5.5288572e-05   5.1062467e+00   5.0843254e+00  -5.5182745e+05
   8.6362121e-10  -5.4921787e-05   5.1061858e+00   5.0844098e+00  -5.4816729e+05
   8.6428810e-10  -5.4557434e-05   5.1061253e+00   5.0844938e+00  -5.4453140e+05
   8.6495498e-10  -5.4195497e-05   5.1060652e+00   5.0845771e+00  -5.4091961e+05
   8.6562187e-10  -5.3835962e-05   5.1060056e+00   5.0846600e+00  -5.3733177e+05
   8.6628876e-10  -5.3478811e-05   5.1059463e+00   5.0847422e+00  -5.3376772e+05
   8.6695565e-10  -5.3124029e-05   5.1058874e+00   5.0848239e+00  -5.3022731e+05
   8.6762254e-10  -5.2771600e-05   5.1058289e+00   5.0849051e+00  -5.2671036e+05
   8.6828943e-10  -5.2421509e-05   5.1057707e+00   5.0849858e+00  -5.2321674e+05
   8.6895632e-10  -5.2073740e-05   5.1057130e+00   5.0850659e+00  -5.1974628e+05
   8.6962321e-10  -5.1728278e-05   5.1056556e+00   5.0851454e+00  -5.1629883e+05
   8.7029010e-10  -5.1385107e-05   5.1055987e+00   5.0852245e+00  -5.1287425e+05
   8.7095699e-10  -5.1044212e-05   5.1055421e+00   5.0853030e+00  -5.0947236e+05
   8.7162387e-10  -5.0705579e-05   5.1054858e+00   5.0853810e+00  -5.0609304e+05
   8.7229076e-10  -5.0369192e-05   5.1054300e+00   5.0854585e+00  -5.0273612e+05
   8.7295765e-10  -5.0035036e-05   5.1053745e+00   5.0855355e+00  -4.9940146e+05
   8.7362454e-10  -4.9703096e-05   5.1053194e+00   5.0856119e+00  -4.9608892e+05
   8.7429143e-10  -4.9373358e-05   5.1052646e+00   5.0856879e+00  -4.9279833e+05
   8.7495832e-10  -4.9045808e-05   5.1052103e+00   5.0857633e+00  -4.8952957e+05
   8.7562521e-10  -4.8720430e-05   5.1051562e+00   5.0858383e+00  -4.8628248e+05
   8.7629210e-10  -4.8397210e-05   5.1051026e+00   5.0859127e+00  -4.8305693e+05
   8.7695899e-10  -4.8076134e-05   5.1050492e+00   5.0859867e+00  -4.7985276e+05
   8.7762588e-10  -4.7757188e-05   5.1049963e+00   5.0860601e+00  -4.7666984e+05
   8.7829276e-10  -4.7440358e-05   5.1049437e+00   5.0861331e+00  -4.7350802e+05
   8.7895965e-10  -4.7125629e-05   5.1048914e+00   5.0862056e+00  -4.7036717e+05
   8.7962654e-10  -4.6812988e-05   5.1048395e+00   5.0862776e+00  -4.6724715e+05
   8.8029343e-10  -4.6502421e-05   5.1047879e+00   5.0863492e+00  -4.6414782e+05
   8.8096032e-10  -4.6193913e-05   5.1047367e+00   5.0864202e+00  -4.6106904e+05
   8.8162721e-10  -4.5887452e-05   5.1046858e+00   5.0864908e+00  -4.5801067e+05
   8.8229410e-10  -4.5583024e-05   5.1046353e+00   5.0865609e+00  -4.5497259e+05
   8.8296099e-10  -4.5280615e-05   5.1045850e+00   5.0866306e+00  -4.5195465e+05
   8.8362788e-10  -4.4980213e-05   5.1045351e+00   5.0866998e+00  -4.4895672e+05
   8.8429476e-10  -4.4681802e-05   5.1044856e+00   5.0867685e+00  -4.4597868e+05
   8.8496165e-10  -4.4385372e-05   5.1044364e+00   5.0868368e+00  -4.4302038e+05
   8.8562854e-10  -4.4090907e-05   5.1043875e+00   5.0869046e+00  -4.4008170e+05
   8.8629543e-10  -4.3798396e-05   5.1043389e+00   5.0869720e+00  -4.3716250e+05
   8.8696232e-10  -4.3507825e-05   5.1042906e+00   5.0870389e+00  -4.3426267e+05
   8.8762921e-10  -4.3219182e-05   5.1042427e+00   5.0871054e+00  -4.3138206e+05
   8.8829610e-10  -4.2932453e-05   5.1041951e+00   5.0871715e+00  -4.2852056e+05
   8.8896299e-10  -4.2647626e-05   5.1041478e+00   5.0872371e+00  -4.2567804e+05
   8.8962988e-10  -4.2364689e-05   5.1041008e+00   5.0873022e+00  -4.2285436e+05
   8.9029677e-10  -4.2083628e-05   5.1040541e+00   5.0873670e+00  -4.2004941e+05
   8.9096365e-10  -4.1804432e-05   5.1040077e+00   5.0874313e+00  -4.1726306e+05
   8.9163054e-10  -4.1527088e-05   5.1039617e+00   5.0874952e+00  -4.1449518e+05
   8.9229743e-10  -4.1251584e-05   5.1039159e+00   5.0875586e+00  -4.1174567e+05
   8.9296432e-10  -4.0977907e-05   5.1038705e+00   5.0876217e+00  -4.0901438e+05
   8.9363121e-10  -4.0706045e-05   5.1038253e+00   5.0876843e+00  -4.0630121e+05
   8.9429810e-10  -4.0435987e-05   5.1037805e+00   5.0877465e+00  -4.0360603e+05
   8.9496499e-10  -4.0167720e-05   5.1037359e+00   5.0878083e+00  -4.0092873e+05
   8.9563188e-10  -3.9901233e-05   5.1036916e+00   5.0878697e+00  -3.9826918e+05
   8.9629877e-10  -3.9636514e-05   5.1036477e+00   5.0879306e+00  -3.9562727e+05
   8.9696566e-10  -3.9373551e-05   5.1036040e+00   5.0879912e+00  -3.9300288e+05
   8.9763254e-10  -3.9112331e-05   5.1035606e+00   5.0880514e+00  -3.9039589e+05
   8.9829943e-10  -3.8852845e-05   5.1035175e+00   5.0881111e+00  -3.8780619e+05
   8.9896632e-10  -3.8595080e-05   5.1034747e+00   5.0881705e+00  -3.8523367e+05
   8.9963321e-10  -3.8339025e-05   5.1034322e+00   5.0882295e+00  -3.8267820e+05
   9.0030010e-10  -3.8084669e-05   5.1033899e+00   5.0882881e+00  -3.8013968e+05
   9.0096699e-10  -3.7832000e-05   5.1033479e+00   5.0883463e+00  -3.7761800e+05
   9.0163388e-10  -3.7581007e-05   5.1033062e+00   5.0884041e+00  -3.7511305e+05
   9.0230077e-10  -3.7331678e-05   5.1032648e+00   5.0884615e+00  -3.7262470e+05
   9.0296766e-10  -3.7084004e-05   5.1032237e+00   5.0885186e+00  -3.7015286e+05
   9.0363454e-10  -3.6837973e-05   5.1031828e+00   5.0885752e+00  -3.6769741e+05
   9.0430143e-10  -3.6593574e-05   5.1031422e+00   5.0886315e+00  -3.6525824e+05
   9.0496832e-10  -3.6350796e-05   5.1031019e+00   5.0886874e+00  -3.6283526e+05
   9.0563521e-10  -3.6109629e-05   5.1030618e+00   5.0887430e+00  -3.6042834e+05
   9.0630210e-10  -3.5870061e-05   5.1030220e+00   5.0887982e+00  -3.5803738e+05
   9.0696899e-10  -3.5632083e-05   5.1029825e+00   5.0888530e+00  -3.5566228e+05
   9.0763588e-10  -3.5395683e-05   5.1029432e+00   5.0889074e+00  -3.5330293e+05
   9.0830277e-10  -3.5160852e-05   5.1029042e+00   5.0889615e+00  -3.5095923e+05
   9.0896966e-10  -3.4927578e-05   5.1028655e+00   5.0890153e+00  -3.4863108e+05
   9.0963655e-10  -3.4695852e-05   5.1028270e+00   5.0890686e+00  -3.4631836e+05
   9.1030343e-10  -3.4465663e-05   5.1027887e+00   5.0891217e+00  -3.4402098e+05
   9.1097032e-10  -3.4237001e-05   5.1027508e+00   5.0891743e+00  -3.4173884e+05
   9.1163721e-10  -3.4009856e-05   5.1027130e+00   5.0892266e+00  -3.3947184e+05
   9.1230410e-10  -3.3784218e-05   5.1026755e+00   5.0892786e+00  -3.3721987e+05
   9.1297099e-10  -3.3560076e-05   5.1026383e+00   5.0893302e+00  -3.3498283e+05
   9.1363788e-10  -3.3337422e-05   5.1026013e+00   5.0893815e+00  -3.3276064e+05
   9.1430477e-10  -3.3116244e-05   5.1025646e+00   5.0894325e+00  -3.3055318e+05
   9.1497166e-10  -3.2896534e-05   5.1025281e+00   5.0894831e+00  -3.2836036e+05
   9.1563855e-10  -3.2678281e-05   5.1024918e+00   5.0895334e+00  -3.2618208e+05
   9.1630544e-10  -3.2461476e-05   5.1024558e+00   5.0895833e+00  -3.2401826e+05
   9.1697232e-10  -3.2246109e-05   5.1024200e+00   5.0896329e+00  -3.2186878e+05
   9.1763921e-10  -3.2032171e-05   5.1023845e+00   5.0896822e+00  -3.1973356e+05
   9.1830610e-10  -3.1819653e-05   5.1023492e+00   5.0897311e+00  -3.1761250e+05
   9.1897299e-10  -3.1608544e-05   5.1023141e+00   5.0897797e+00  -3.1550551e+05
   9.1963988e-10  -3.1398835e-05   5.1022793e+00   5.0898281e+00  -3.1341249e+05
   9.2030677e-10  -3.1190518e-05   5.1022446e+00   5.0898760e+00  -3.1133336e+05
   9.2097366e-10  -3.0983583e-05   5.1022103e+00   5.0899237e+00  -3.0926801e+05
   9.2164055e-10  -3.0778020e-05   5.1021761e+00   5.0899710e+00  -3.0721636e+05
   9.2230744e-10  -3.0573821e-05   5.1021422e+00   5.0900181e+00  -3.0517833e+05
   9.2297432e-10  -3.0370977e-05   5.1021085e+00   5.0900648e+00  -3.0315380e+05
   9.2364121e-10  -3.0169478e-05   5.1020750e+00   5.0901112e+00  -3.0114271e+05
   9.2430810e-10  -2.9969317e-05   5.1020417e+00   5.0901573e+00  -2.9914495e+05
   9.2497499e-10  -2.9770482e-05   5.1020087e+00   5.0902031e+00  -2.9716045e+05
   9.2564188e-10  -2.9572968e-05   5.1019759e+00   5.0902486e+00  -2.9518911e+05
   9.2630877e-10  -2.9376763e-05   5.1019433e+00   5.0902938e+00  -2.9323084e+05
   9.2697566e-10  -2.9181860e-05   5.1019109e+00   5.0903387e+00  -2.9128556e+05
   9.2764255e-10  -2.8988250e-05   5.1018787e+00   5.0903833e+00  -2.8935318e+05
   9.2830944e-10  -2.8795924e-05   5.1018468e+00   5.0904276e+00  -2.8743362e+05
   9.2897633e-10  -2.8604874e-05   5.1018150e+00   5.0904716e+00  -2.8552680e+05
   9.2964321e-10  -2.8415092e-05   5.1017835e+00   5.0905153e+00  -2.8363262e+05
   9.3031010e-10  -2.8226569e-05   5.1017522e+00   5.0905587e+00  -2.8175100e+05
   9.3097699e-10  -2.8039296e-05   5.1017211e+00   5.0906019e+00  -2.7988186e+05
   9.3164388e-10  -2.7853266e-05   5.1016902e+00   5.0906447e+00  -2.7802512e+05
   9.3231077e-10  -2.7668469e-05   5.1016595e+00   5.0906873e+00  -2.7618070e+05
   9.3297766e-10  -2.7484899e-05   5.1016290e+00   5.0907296e+00  -2.7434851e+05
   9.3364455e-10  -2.7302547e-05   5.1015987e+00   5.0907716e+00  -2.7252847e+05
   9.3431144e-10  -2.7121404e-05   5.1015686e+00   5.0908133e+00  -2.7072051e+05
   9.3497833e-10  -2.6941463e-05   5.1015387e+00   5.0908547e+00  -2.6892453e+05
   9.3564522e-10  -2.6762716e-05   5.1015090e+00   5.0908959e+00  -2.6714047e+05
   9.3631210e-10  -2.6585154e-05   5.1014795e+00   5.0909368e+00  -2.6536824e+05
   9.3697899e-10  -2.6408771e-05   5.1014501e+00   5.0909774e+00  -2.6360777e+05
   9.3764588e-10  -2.6233557e-05   5.1014210e+00   5.0910178e+00  -2.6185898e+05
   9.3831277e-10  -2.6059507e-05   5.1013921e+00   5.0910579e+00  -2.6012178e+05
   9.3897966e-10  -2.5886610e-05   5.1013634e+00   5.0910977e+00  -2.5839611e+05
   9.3964655e-10  -2.5714861e-05   5.1013348e+00   5.0911372e+00  -2.5668188e+05
   9.4031344e-10  -2.5544251e-05   5.1013065e+00   5.0911765e+00  -2.5497902e+05
   9.4098033e-10  -2.5374773e-05   5.1012783e+00   5.0912156e+00  -2.5328746e+05
   9.4164722e-10  -2.5206419e-05   5.1012503e+00   5.0912544e+00  -2.5160712e+05
   9.4231410e-10  -2.5039183e-05   5.1012226e+00   5.0912929e+00  -2.4993793e+05
   9.4298099e-10  -2.4873055e-05   5.1011950e+00   5.0913311e+00  -2.4827980e+05
   9.4364788e-10  -2.4708030e-05   5.1011675e+00   5.0913691e+00  -2.4663268e+05
   9.4431477e-10  -2.4544100e-05   5.1011403e+00   5.0914069e+00  -2.4499648e+05
   9.4498166e-10  -2.4381257e-05   5.1011132e+00   5.0914444e+00  -2.4337113e+05
   9.4564855e-10  -2.4219494e-05   5.1010863e+00   5.0914817e+00  -2.4175656e+05
   9.4631544e-10  -2.4058805e-05   5.1010596e+00   5.0915187e+00  -2.4015271e+05
   9.4698233e-10  -2.3899181e-05   5.1010331e+00   5.0915554e+00  -2.3855949e+05
   9.4764922e-10  -2.3740617e-05   5.1010068e+00   5.0915920e+00  -2.3697684e+05
   9.4831611e-10  -2.3583105e-05   5.1009806e+00   5.0916283e+00  -2.3540469e+05
   9.4898299e-10  -2.3426637e-05   5.1009546e+00   5.0916643e+00  -2.3384297e+05
   9.4964988e-10  -2.3271208e-05   5.1009288e+00   5.0917001e+00  -2.3229160e+05
   9.5031677e-10  -2.3116809e-05   5.1009031e+00   5.0917357e+00  -2.3075053e+05
   9.5098366e-10  -2.2963435e-05   5.1008776e+00   5.0917710e+00  -2.2921968e+05
   9.5165055e-10  -2.2811079e-05   5.1008523e+00   5.0918061e+00  -2.2769898e+05
   9.5231744e-10  -2.2659733e-05   5.1008271e+00   5.0918409e+00  -2.2618837e+05
   9.5298433e-10  -2.2509392e-05   5.1008022e+00   5.0918756e+00  -2.2468778e+05
   9.5365122e-10  -2.2360048e-05   5.1007773e+00   5.0919100e+00  -2.2319714e+05
   9.5431811e-10  -2.2211694e-05   5.1007527e+00   5.0919441e+00  -2.2171640e+05
   9.5498499e-10  -2.2064325e-05   5.1007282e+00   5.0919781e+00  -2.2024547e+05
   9.5565188e-10  -2.1917933e-05   5.1007039e+00   5.0920118e+00  -2.1878430e+05
   9.5631877e-10  -2.1772513e-05   5.1006797e+00   5.0920453e+00  -2.1733282e+05
   9.5698566e-10  -2.1628058e-05   5.1006557e+00   5.0920786e+00  -2.1589098e+05
   9.5765255e-10  -2.1484560e-05   5.1006318e+00   5.0921116e+00  -2.1445869e+05
   9.5831944e-10  -2.1342015e-05   5.1006081e+00   5.0921444e+00  -2.1303591e+05
   9.5898633e-10  -2.1200416e-05   5.1005846e+00   5.0921771e+00  -2.1162256e+05
   9.5965322e-10  -2.1059756e-05   5.1005612e+00   5.0922094e+00  -2.1021859e+05
   9.6032011e-10  -2.0920029e-05   5.1005380e+00   5.0922416e+00  -2.0882394e+05
   9.6098700e-10  -2.0781229e-05   5.1005149e+00   5.0922736e+00  -2.0743853e+05
   9.6165388e-10  -2.0643350e-05   5.1004920e+00   5.0923054e+00  -2.0606231e+05
   9.6232077e-10  -2.0506385e-05   5.1004693e+00   5.0923369e+00  -2.0469523e+05
   9.6298766e-10  -2.0370330e-05   5.1004467e+00   5.0923682e+00  -2.0333721e+05
   9.6365455e-10  -2.0235177e-05   5.1004242e+00   5.0923994e+00  -2.0198820e+05
   9.6432144e-10  -2.0100920e-05   5.1004019e+00   5.0924303e+00  -2.0064814e+05
   9.6498833e-10  -1.9967555e-05   5.1003797e+00   5.0924610e+00  -1.9931697e+05
   9.6565522e-10  -1.9835074e-05   5.1003577e+00   5.0924915e+00  -1.9799462e+05
   9.6632211e-10  -1.9703472e-05   5.1003358e+00   5.0925218e+00  -1.9668105e+05
   9.6698900e-10  -1.9572743e-05   5.1003141e+00   5.0925519e+00  -1.9537620e+05
   9.6765589e-10  -1.9442881e-05   5.1002925e+00   5.0925819e+00  -1.9408000e+05
   9.6832277e-10  -1.9313881e-05   5.1002711e+00   5.0926116e+00  -1.9279239e+05
   9.6898966e-10  -1.9185737e-05   5.1002498e+00   5.0926411e+00  -1.9151333e+05
   9.6965655e-10  -1.9058443e-05   5.1002286e+00   5.0926704e+00  -1.9024276e+05
   9.7032344e-10  -1.8931994e-05   5.1002076e+00   5.0926995e+00  -1.8898061e+05
   9.7099033e-10  -1.8806383e-05   5.1001867e+00   5.0927285e+00  -1.8772683e+05
   9.7165722e-10  -1.8681606e-05   5.1001660e+00   5.0927572e+00  -1.8648138e+05
   9.7232411e-10  -1.8557657e-05   5.1001454e+00   5.0927858e+00  -1.8524418e+05
   9.7299100e-10  -1.8434530e-05   5.1001249e+00   5.0928141e+00  -1.8401519e+05
   9.7365789e-10  -1.8312219e-05   5.1001046e+00   5.0928423e+00  -1.8279435e+05
   9.7432477e-10  -1.8190721e-05   5.1000844e+00   5.0928703e+00  -1.8158162e+05
   9.7499166e-10  -1.8070028e-05   5.1000643e+00   5.0928981e+00  -1.8037692e+05
