   0.0000000e+00  -1.1470915e-01   6.4022646e+00   8.5069694e-04  -5.2273222e+08
   6.6688896e-13  -1.1436085e-01   6.4023721e+00   8.7408315e-04  -5.2181124e+08
   1.3337779e-12  -1.1401317e-01   6.4024805e+00   8.9806947e-04  -5.2089027e+08
   2.0006669e-12  -1.1366610e-01   6.4025899e+00   9.2267007e-04  -5.1996933e+08
   2.6675559e-12  -1.1331964e-01   6.4027004e+00   9.4789940e-04  -5.1904840e+08
   3.3344448e-12  -1.1297380e-01   6.4028119e+00   9.7377221e-04  -5.1812749e+08
   4.0013338e-12  -1.1262858e-01   6.4029244e+00   1.0003036e-03  -5.1720660e+08
   4.6682227e-12  -1.1228396e-01   6.4030380e+00   1.0275089e-03  -5.1628573e+08
   5.3351117e-12  -1.1193997e-01   6.4031526e+00   1.0554038e-03  -5.1536489e+08
   6.0020007e-12  -1.1159658e-01   6.4032682e+00   1.0840044e-03  -5.1444406e+08
   6.6688896e-12  -1.1125381e-01   6.4033849e+00   1.1133270e-03  -5.1352325e+08
   7.3357786e-12  -1.1091166e-01   6.4035026e+00   1.1433884e-03  -5.1260246e+08
   8.0026676e-12  -1.1057011e-01   6.4036214e+00   1.1742055e-03  -5.1168169e+08
   8.6695565e-12  -1.1022919e-01   6.4037411e+00   1.2057958e-03  -5.1076094e+08
   9.3364455e-12  -1.0988887e-01   6.4038620e+00   1.2381771e-03  -5.0984021e+08
   1.0003334e-11  -1.0954917e-01   6.4039839e+00   1.2713674e-03  -5.0891951e+08
   1.0670223e-11  -1.0921009e-01   6.4041068e+00   1.3053852e-03  -5.0799882e+08
   1.1337112e-11  -1.0887162e-01   6.4042308e+00   1.3402494e-03  -5.0707816e+08
   1.2004001e-11  -1.0853376e-01   6.4043558e+00   1.3759793e-03  -5.0615751e+08
   1.2670890e-11  -1.0819652e-01   6.4044819e+00   1.4125944e-03  -5.0523689e+08
   1.3337779e-11  -1.0785989e-01   6.4046090e+00   1.4501148e-03  -5.0431629e+08
   1.4004668e-11  -1.0752387e-01   6.4047371e+00   1.4885609e-03  -5.0339572e+08
   1.4671557e-11  -1.0718847e-01   6.4048663e+00   1.5279536e-03  -5.0247516e+08
   1.5338446e-11  -1.0685368e-01   6.4049966e+00   1.5683141e-03  -5.0155463e+08
   1.6005335e-11  -1.0651951e-01   6.4051279e+00   1.6096641e-03  -5.0063412e+08
   1.6672224e-11  -1.0618595e-01   6.4052602e+00   1.6520256e-03  -4.9971364e+08
   1.7339113e-11  -1.0585300e-01   6.4053936e+00   1.6954213e-03  -4.9879317e+08
   1.8006002e-11  -1.0552067e-01   6.4055280e+00   1.7398740e-03  -4.9787274e+08
   1.8672891e-11  -1.0518895e-01   6.4056634e+00   1.7854073e-03  -4.9695232e+08
   1.9339780e-11  -1.0485785e-01   6.4057999e+00   1.8320450e-03  -4.9603193e+08
   2.0006669e-11  -1.0452735e-01   6.4059374e+00   1.8798114e-03  -4.9511156e+08
   2.0673558e-11  -1.0419748e-01   6.4060759e+00   1.9287315e-03  -4.9419122e+08
   2.1340447e-11  -1.0386821e-01   6.4062155e+00   1.9788304e-03  -4.9327090e+08
   2.2007336e-11  -1.0353956e-01   6.4063560e+00   2.0301340e-03  -4.9235061e+08
   2.2674225e-11  -1.0321153e-01   6.4064976e+00   2.0826686e-03  -4.9143034e+08
   2.3341114e-11  -1.0288411e-01   6.4066402e+00   2.1364610e-03  -4.9051010e+08
   2.4008003e-11  -1.0255730e-01   6.4067838e+00   2.1915384e-03  -4.8958989e+08
   2.4674892e-11  -1.0223110e-01   6.4069284e+00   2.2479287e-03  -4.8866970e+08
   2.5341781e-11  -1.0190552e-01   6.4070740e+00   2.3056602e-03  -4.8774953e+08
   2.6008670e-11  -1.0158056e-01   6.4072206e+00   2.3647618e-03  -4.8682940e+08
   2.6675559e-11  -1.0125620e-01   6.4073682e+00   2.4252630e-03  -4.8590929e+08
   2.7342447e-11  -1.0093246e-01   6.4075168e+00   2.4871936e-03  -4.8498921e+08
   2.8009336e-11  -1.0060934e-01   6.4076663e+00   2.5505843e-03  -4.8406915e+08
   2.8676225e-11  -1.0028682e-01   6.4078168e+00   2.6154662e-03  -4.8314913e+08
   2.9343114e-11  -9.9964923e-02   6.4079682e+00   2.6818708e-03  -4.8222913e+08
   3.0010003e-11  -9.9643637e-02   6.4081206e+00   2.7498305e-03  -4.8130916e+08
   3.0676892e-11  -9.9322965e-02   6.4082739e+00   2.8193782e-03  -4.8038922e+08
   3.1343781e-11  -9.9002906e-02   6.4084282e+00   2.8905473e-03  -4.7946930e+08
   3.2010670e-11  -9.8683461e-02   6.4085834e+00   2.9633718e-03  -4.7854942e+08
   3.2677559e-11  -9.8364629e-02   6.4087394e+00   3.0378865e-03  -4.7762957e+08
   3.3344448e-11  -9.8046411e-02   6.4088964e+00   3.1141266e-03  -4.7670975e+08
   3.4011337e-11  -9.7728806e-02   6.4090543e+00   3.1921282e-03  -4.7578995e+08
   3.4678226e-11  -9.7411814e-02   6.4092131e+00   3.2719277e-03  -4.7487019e+08
   3.5345115e-11  -9.7095436e-02   6.4093727e+00   3.3535626e-03  -4.7395046e+08
   3.6012004e-11  -9.6779672e-02   6.4095332e+00   3.4370707e-03  -4.7303077e+08
   3.6678893e-11  -9.6464520e-02   6.4096945e+00   3.5224905e-03  -4.7211110e+08
   3.7345782e-11  -9.6149982e-02   6.4098566e+00   3.6098614e-03  -4.7119147e+08
   3.8012671e-11  -9.5836057e-02   6.4100196e+00   3.6992234e-03  -4.7027187e+08
   3.8679560e-11  -9.5522746e-02   6.4101833e+00   3.7906171e-03  -4.6935230e+08
   3.9346449e-11  -9.5210047e-02   6.4103479e+00   3.8840839e-03  -4.6843277e+08
   4.0013338e-11  -9.4897962e-02   6.4105132e+00   3.9796659e-03  -4.6751327e+08
   4.0680227e-11  -9.4586491e-02   6.4106793e+00   4.0774060e-03  -4.6659380e+08
   4.1347116e-11  -9.4275632e-02   6.4108461e+00   4.1773477e-03  -4.6567437e+08
   4.2014005e-11  -9.3965386e-02   6.4110136e+00   4.2795354e-03  -4.6475497e+08
   4.2680894e-11  -9.3655754e-02   6.4111819e+00   4.3840141e-03  -4.6383562e+08
   4.3347783e-11  -9.3346735e-02   6.4113508e+00   4.4908298e-03  -4.6291629e+08
   4.4014672e-11  -9.3038329e-02   6.4115204e+00   4.6000290e-03  -4.6199701e+08
   4.4681561e-11  -9.2730536e-02   6.4116907e+00   4.7116592e-03  -4.6107776e+08
   4.5348449e-11  -9.2423356e-02   6.4118616e+00   4.8257686e-03  -4.6015855e+08
   4.6015338e-11  -9.2116789e-02   6.4120331e+00   4.9424062e-03  -4.5923937e+08
   4.6682227e-11  -9.1810835e-02   6.4122051e+00   5.0616220e-03  -4.5832024e+08
   4.7349116e-11  -9.1505494e-02   6.4123778e+00   5.1834666e-03  -4.5740114e+08
   4.8016005e-11  -9.1200766e-02   6.4125510e+00   5.3079915e-03  -4.5648209e+08
   4.8682894e-11  -9.0896651e-02   6.4127247e+00   5.4352492e-03  -4.5556307e+08
   4.9349783e-11  -9.0593148e-02   6.4128989e+00   5.5652928e-03  -4.5464410e+08
   5.0016672e-11  -9.0290259e-02   6.4130736e+00   5.6981766e-03  -4.5372516e+08
   5.0683561e-11  -8.9987982e-02   6.4132488e+00   5.8339554e-03  -4.5280627e+08
   5.1350450e-11  -8.9686319e-02   6.4134244e+00   5.9726851e-03  -4.5188742e+08
   5.2017339e-11  -8.9385268e-02   6.4136003e+00   6.1144227e-03  -4.5096862e+08
   5.2684228e-11  -8.9084830e-02   6.4137767e+00   6.2592257e-03  -4.5004986e+08
   5.3351117e-11  -8.8785004e-02   6.4139534e+00   6.4071528e-03  -4.4913114e+08
   5.4018006e-11  -8.8485791e-02   6.4141304e+00   6.5582636e-03  -4.4821246e+08
   5.4684895e-11  -8.8187191e-02   6.4143077e+00   6.7126185e-03  -4.4729384e+08
   5.5351784e-11  -8.7889204e-02   6.4144852e+00   6.8702791e-03  -4.4637525e+08
   5.6018673e-11  -8.7591829e-02   6.4146630e+00   7.0313077e-03  -4.4545672e+08
   5.6685562e-11  -8.7295066e-02   6.4148410e+00   7.1957679e-03  -4.4453823e+08
   5.7352451e-11  -8.6998917e-02   6.4150191e+00   7.3637238e-03  -4.4361979e+08
   5.8019340e-11  -8.6703379e-02   6.4151974e+00   7.5352410e-03  -4.4270140e+08
   5.8686229e-11  -8.6408455e-02   6.4153758e+00   7.7103858e-03  -4.4178306e+08
   5.9353118e-11  -8.6114142e-02   6.4155542e+00   7.8892257e-03  -4.4086477e+08
   6.0020007e-11  -8.5820442e-02   6.4157327e+00   8.0718291e-03  -4.3994653e+08
   6.0686896e-11  -8.5527355e-02   6.4159111e+00   8.2582654e-03  -4.3902834e+08
   6.1353785e-11  -8.5234879e-02   6.4160895e+00   8.4486053e-03  -4.3811020e+08
   6.2020674e-11  -8.4943016e-02   6.4162678e+00   8.6429202e-03  -4.3719212e+08
   6.2687563e-11  -8.4651766e-02   6.4164460e+00   8.8412829e-03  -4.3627409e+08
   6.3354451e-11  -8.4361127e-02   6.4166241e+00   9.0437671e-03  -4.3535611e+08
   6.4021340e-11  -8.4071101e-02   6.4168019e+00   9.2504477e-03  -4.3443819e+08
   6.4688229e-11  -8.3781687e-02   6.4169795e+00   9.4614005e-03  -4.3352033e+08
   6.5355118e-11  -8.3492885e-02   6.4171568e+00   9.6767026e-03  -4.3260252e+08
   6.6022007e-11  -8.3204695e-02   6.4173338e+00   9.8964322e-03  -4.3168477e+08
   6.6688896e-11  -8.2917117e-02   6.4175104e+00   1.0120669e-02  -4.3076708e+08
   6.7355785e-11  -8.2630152e-02   6.4176865e+00   1.0349492e-02  -4.2984945e+08
   6.8022674e-11  -8.2343798e-02   6.4178623e+00   1.0582985e-02  -4.2893188e+08
   6.8689563e-11  -8.2058056e-02   6.4180375e+00   1.0821229e-02  -4.2801438e+08
   6.9356452e-11  -8.1772926e-02   6.4182121e+00   1.1064309e-02  -4.2709693e+08
   7.0023341e-11  -8.1488408e-02   6.4183861e+00   1.1312309e-02  -4.2617955e+08
   7.0690230e-11  -8.1204501e-02   6.4185595e+00   1.1565316e-02  -4.2526223e+08
   7.1357119e-11  -8.0921207e-02   6.4187322e+00   1.1823418e-02  -4.2434498e+08
   7.2024008e-11  -8.0638524e-02   6.4189041e+00   1.2086703e-02  -4.2342779e+08
   7.2690897e-11  -8.0356452e-02   6.4190752e+00   1.2355261e-02  -4.2251067e+08
   7.3357786e-11  -8.0074993e-02   6.4192454e+00   1.2629184e-02  -4.2159362e+08
   7.4024675e-11  -7.9794145e-02   6.4194147e+00   1.2908564e-02  -4.2067664e+08
   7.4691564e-11  -7.9513908e-02   6.4195830e+00   1.3193494e-02  -4.1975973e+08
   7.5358453e-11  -7.9234283e-02   6.4197503e+00   1.3484069e-02  -4.1884289e+08
   7.6025342e-11  -7.8955270e-02   6.4199165e+00   1.3780386e-02  -4.1792612e+08
   7.6692231e-11  -7.8676867e-02   6.4200815e+00   1.4082542e-02  -4.1700943e+08
   7.7359120e-11  -7.8399077e-02   6.4202453e+00   1.4390636e-02  -4.1609281e+08
   7.8026009e-11  -7.8121897e-02   6.4204078e+00   1.4704768e-02  -4.1517627e+08
   7.8692898e-11  -7.7845329e-02   6.4205690e+00   1.5025040e-02  -4.1425980e+08
   7.9359787e-11  -7.7569371e-02   6.4207288e+00   1.5351553e-02  -4.1334342e+08
   8.0026676e-11  -7.7294025e-02   6.4208872e+00   1.5684412e-02  -4.1242711e+08
   8.0693565e-11  -7.7019291e-02   6.4210440e+00   1.6023723e-02  -4.1151088e+08
   8.1360453e-11  -7.6745167e-02   6.4211992e+00   1.6369592e-02  -4.1059474e+08
   8.2027342e-11  -7.6471654e-02   6.4213527e+00   1.6722127e-02  -4.0967868e+08
   8.2694231e-11  -7.6198752e-02   6.4215045e+00   1.7081438e-02  -4.0876270e+08
   8.3361120e-11  -7.5926461e-02   6.4216545e+00   1.7447635e-02  -4.0784681e+08
   8.4028009e-11  -7.5654780e-02   6.4218026e+00   1.7820830e-02  -4.0693101e+08
   8.4694898e-11  -7.5383711e-02   6.4219487e+00   1.8201137e-02  -4.0601530e+08
   8.5361787e-11  -7.5113252e-02   6.4220928e+00   1.8588671e-02  -4.0509967e+08
   8.6028676e-11  -7.4843403e-02   6.4222348e+00   1.8983548e-02  -4.0418414e+08
   8.6695565e-11  -7.4574166e-02   6.4223747e+00   1.9385886e-02  -4.0326870e+08
   8.7362454e-11  -7.4305538e-02   6.4225123e+00   1.9795803e-02  -4.0235335e+08
   8.8029343e-11  -7.4037522e-02   6.4226475e+00   2.0213420e-02  -4.0143811e+08
   8.8696232e-11  -7.3770115e-02   6.4227803e+00   2.0638860e-02  -4.0052295e+08
   8.9363121e-11  -7.3503319e-02   6.4229106e+00   2.1072245e-02  -3.9960790e+08
   9.0030010e-11  -7.3237133e-02   6.4230384e+00   2.1513700e-02  -3.9869295e+08
   9.0696899e-11  -7.2971557e-02   6.4231634e+00   2.1963351e-02  -3.9777810e+08
   9.1363788e-11  -7.2706592e-02   6.4232858e+00   2.2421327e-02  -3.9686335e+08
   9.2030677e-11  -7.2442236e-02   6.4234052e+00   2.2887755e-02  -3.9594871e+08
   9.2697566e-11  -7.2178491e-02   6.4235218e+00   2.3362767e-02  -3.9503418e+08
   9.3364455e-11  -7.1915355e-02   6.4236353e+00   2.3846494e-02  -3.9411975e+08
   9.4031344e-11  -7.1652829e-02   6.4237458e+00   2.4339070e-02  -3.9320544e+08
   9.4698233e-11  -7.1390913e-02   6.4238530e+00   2.4840630e-02  -3.9229124e+08
   9.5365122e-11  -7.1129606e-02   6.4239569e+00   2.5351309e-02  -3.9137715e+08
   9.6032011e-11  -7.0868910e-02   6.4240575e+00   2.5871247e-02  -3.9046317e+08
   9.6698900e-11  -7.0608822e-02   6.4241545e+00   2.6400582e-02  -3.8954932e+08
   9.7365789e-11  -7.0349344e-02   6.4242480e+00   2.6939454e-02  -3.8863558e+08
   9.8032678e-11  -7.0090476e-02   6.4243378e+00   2.7488006e-02  -3.8772197e+08
   9.8699567e-11  -6.9832216e-02   6.4244239e+00   2.8046382e-02  -3.8680848e+08
   9.9366455e-11  -6.9574566e-02   6.4245060e+00   2.8614726e-02  -3.8589511e+08
   1.0003334e-10  -6.9317525e-02   6.4245842e+00   2.9193186e-02  -3.8498187e+08
   1.0070023e-10  -6.9061093e-02   6.4246583e+00   2.9781910e-02  -3.8406876e+08
   1.0136712e-10  -6.8805270e-02   6.4247281e+00   3.0381046e-02  -3.8315578e+08
   1.0203401e-10  -6.8550056e-02   6.4247937e+00   3.0990747e-02  -3.8224294e+08
   1.0270090e-10  -6.8295451e-02   6.4248549e+00   3.1611164e-02  -3.8133023e+08
   1.0336779e-10  -6.8041454e-02   6.4249116e+00   3.2242451e-02  -3.8041766e+08
   1.0403468e-10  -6.7788066e-02   6.4249636e+00   3.2884765e-02  -3.7950522e+08
   1.0470157e-10  -6.7535286e-02   6.4250109e+00   3.3538262e-02  -3.7859293e+08
   1.0536846e-10  -6.7283115e-02   6.4250533e+00   3.4203100e-02  -3.7768078e+08
   1.0603535e-10  -6.7031552e-02   6.4250908e+00   3.4879439e-02  -3.7676878e+08
   1.0670223e-10  -6.6780597e-02   6.4251232e+00   3.5567441e-02  -3.7585693e+08
   1.0736912e-10  -6.6530250e-02   6.4251504e+00   3.6267268e-02  -3.7494523e+08
   1.0803601e-10  -6.6280512e-02   6.4251722e+00   3.6979085e-02  -3.7403368e+08
   1.0870290e-10  -6.6031381e-02   6.4251886e+00   3.7703057e-02  -3.7312229e+08
   1.0936979e-10  -6.5782858e-02   6.4251995e+00   3.8439352e-02  -3.7221105e+08
   1.1003668e-10  -6.5534942e-02   6.4252046e+00   3.9188138e-02  -3.7129998e+08
   1.1070357e-10  -6.5287634e-02   6.4252040e+00   3.9949585e-02  -3.7038907e+08
   1.1137046e-10  -6.5040934e-02   6.4251974e+00   4.0723864e-02  -3.6947832e+08
   1.1203735e-10  -6.4794841e-02   6.4251847e+00   4.1511150e-02  -3.6856775e+08
   1.1270423e-10  -6.4549355e-02   6.4251659e+00   4.2311615e-02  -3.6765734e+08
   1.1337112e-10  -6.4304477e-02   6.4251407e+00   4.3125435e-02  -3.6674710e+08
   1.1403801e-10  -6.4060205e-02   6.4251090e+00   4.3952789e-02  -3.6583705e+08
   1.1470490e-10  -6.3816540e-02   6.4250708e+00   4.4793853e-02  -3.6492717e+08
   1.1537179e-10  -6.3573482e-02   6.4250258e+00   4.5648809e-02  -3.6401747e+08
   1.1603868e-10  -6.3331031e-02   6.4249740e+00   4.6517837e-02  -3.6310796e+08
   1.1670557e-10  -6.3089186e-02   6.4249151e+00   4.7401120e-02  -3.6219863e+08
   1.1737246e-10  -6.2847947e-02   6.4248492e+00   4.8298842e-02  -3.6128949e+08
   1.1803935e-10  -6.2607315e-02   6.4247759e+00   4.9211189e-02  -3.6038055e+08
   1.1870624e-10  -6.2367289e-02   6.4246952e+00   5.0138347e-02  -3.5947180e+08
   1.1937312e-10  -6.2127869e-02   6.4246070e+00   5.1080503e-02  -3.5856325e+08
   1.2004001e-10  -6.1889055e-02   6.4245111e+00   5.2037848e-02  -3.5765490e+08
   1.2070690e-10  -6.1650847e-02   6.4244073e+00   5.3010572e-02  -3.5674676e+08
   1.2137379e-10  -6.1413244e-02   6.4242955e+00   5.3998867e-02  -3.5583882e+08
   1.2204068e-10  -6.1176246e-02   6.4241755e+00   5.5002925e-02  -3.5493110e+08
   1.2270757e-10  -6.0939854e-02   6.4240473e+00   5.6022942e-02  -3.5402359e+08
   1.2337446e-10  -6.0704067e-02   6.4239106e+00   5.7059113e-02  -3.5311630e+08
   1.2404135e-10  -6.0468886e-02   6.4237653e+00   5.8111634e-02  -3.5220922e+08
   1.2470824e-10  -6.0234309e-02   6.4236113e+00   5.9180704e-02  -3.5130237e+08
   1.2537513e-10  -6.0000336e-02   6.4234484e+00   6.0266522e-02  -3.5039575e+08
   1.2604201e-10  -5.9766969e-02   6.4232763e+00   6.1369288e-02  -3.4948936e+08
   1.2670890e-10  -5.9534205e-02   6.4230951e+00   6.2489204e-02  -3.4858321e+08
   1.2737579e-10  -5.9302046e-02   6.4229045e+00   6.3626472e-02  -3.4767729e+08
   1.2804268e-10  -5.9070491e-02   6.4227044e+00   6.4781296e-02  -3.4677161e+08
   1.2870957e-10  -5.8839540e-02   6.4224945e+00   6.5953881e-02  -3.4586617e+08
   1.2937646e-10  -5.8609193e-02   6.4222748e+00   6.7144433e-02  -3.4496099e+08
   1.3004335e-10  -5.8379450e-02   6.4220451e+00   6.8353158e-02  -3.4405605e+08
   1.3071024e-10  -5.8150309e-02   6.4218052e+00   6.9580265e-02  -3.4315138e+08
   1.3137713e-10  -5.7921773e-02   6.4215549e+00   7.0825962e-02  -3.4224696e+08
   1.3204401e-10  -5.7693839e-02   6.4212941e+00   7.2090460e-02  -3.4134280e+08
   1.3271090e-10  -5.7466508e-02   6.4210226e+00   7.3373968e-02  -3.4043891e+08
   1.3337779e-10  -5.7239780e-02   6.4207403e+00   7.4676699e-02  -3.3953529e+08
   1.3404468e-10  -5.7013654e-02   6.4204469e+00   7.5998866e-02  -3.3863194e+08
   1.3471157e-10  -5.6788131e-02   6.4201423e+00   7.7340681e-02  -3.3772888e+08
   1.3537846e-10  -5.6563210e-02   6.4198264e+00   7.8702360e-02  -3.3682609e+08
   1.3604535e-10  -5.6338891e-02   6.4194989e+00   8.0084117e-02  -3.3592360e+08
   1.3671224e-10  -5.6115174e-02   6.4191597e+00   8.1486168e-02  -3.3502139e+08
   1.3737913e-10  -5.5892058e-02   6.4188086e+00   8.2908730e-02  -3.3411948e+08
   1.3804602e-10  -5.5669544e-02   6.4184454e+00   8.4352020e-02  -3.3321786e+08
   1.3871290e-10  -5.5447631e-02   6.4180700e+00   8.5816256e-02  -3.3231655e+08
   1.3937979e-10  -5.5226319e-02   6.4176821e+00   8.7301657e-02  -3.3141555e+08
   1.4004668e-10  -5.5005607e-02   6.4172817e+00   8.8808442e-02  -3.3051486e+08
   1.4071357e-10  -5.4785497e-02   6.4168685e+00   9.0336832e-02  -3.2961448e+08
   1.4138046e-10  -5.4565987e-02   6.4164423e+00   9.1887045e-02  -3.2871443e+08
   1.4204735e-10  -5.4347076e-02   6.4160029e+00   9.3459305e-02  -3.2781470e+08
   1.4271424e-10  -5.4128766e-02   6.4155502e+00   9.5053832e-02  -3.2691529e+08
   1.4338113e-10  -5.3911056e-02   6.4150840e+00   9.6670847e-02  -3.2601623e+08
   1.4404802e-10  -5.3693945e-02   6.4146042e+00   9.8310574e-02  -3.2511750e+08
   1.4471490e-10  -5.3477433e-02   6.4141104e+00   9.9973235e-02  -3.2421911e+08
   1.4538179e-10  -5.3261520e-02   6.4136025e+00   1.0165905e-01  -3.2332108e+08
   1.4604868e-10  -5.3046206e-02   6.4130805e+00   1.0336825e-01  -3.2242339e+08
   1.4671557e-10  -5.2831491e-02   6.4125439e+00   1.0510105e-01  -3.2152606e+08
   1.4738246e-10  -5.2617374e-02   6.4119927e+00   1.0685768e-01  -3.2062910e+08
   1.4804935e-10  -5.2403855e-02   6.4114268e+00   1.0863837e-01  -3.1973250e+08
   1.4871624e-10  -5.2190934e-02   6.4108458e+00   1.1044332e-01  -3.1883627e+08
   1.4938313e-10  -5.1978610e-02   6.4102496e+00   1.1227278e-01  -3.1794042e+08
   1.5005002e-10  -5.1766884e-02   6.4096380e+00   1.1412696e-01  -3.1704496e+08
   1.5071691e-10  -5.1555755e-02   6.4090109e+00   1.1600610e-01  -3.1614988e+08
   1.5138379e-10  -5.1345223e-02   6.4083680e+00   1.1791040e-01  -3.1525519e+08
   1.5205068e-10  -5.1135287e-02   6.4077091e+00   1.1984010e-01  -3.1436090e+08
   1.5271757e-10  -5.0925947e-02   6.4070341e+00   1.2179543e-01  -3.1346701e+08
   1.5338446e-10  -5.0717204e-02   6.4063427e+00   1.2377660e-01  -3.1257353e+08
   1.5405135e-10  -5.0509056e-02   6.4056348e+00   1.2578384e-01  -3.1168047e+08
   1.5471824e-10  -5.0301504e-02   6.4049102e+00   1.2781737e-01  -3.1078782e+08
   1.5538513e-10  -5.0094546e-02   6.4041687e+00   1.2987742e-01  -3.0989560e+08
   1.5605202e-10  -4.9888184e-02   6.4034100e+00   1.3196420e-01  -3.0900380e+08
   1.5671891e-10  -4.9682416e-02   6.4026341e+00   1.3407795e-01  -3.0811245e+08
   1.5738580e-10  -4.9477243e-02   6.4018406e+00   1.3621888e-01  -3.0722153e+08
   1.5805268e-10  -4.9272664e-02   6.4010295e+00   1.3838722e-01  -3.0633106e+08
   1.5871957e-10  -4.9068678e-02   6.4002004e+00   1.4058318e-01  -3.0544104e+08
   1.5938646e-10  -4.8865286e-02   6.3993533e+00   1.4280698e-01  -3.0455148e+08
   1.6005335e-10  -4.8662486e-02   6.3984879e+00   1.4505885e-01  -3.0366238e+08
   1.6072024e-10  -4.8460280e-02   6.3976041e+00   1.4733901e-01  -3.0277375e+08
   1.6138713e-10  -4.8258666e-02   6.3967016e+00   1.4964767e-01  -3.0188560e+08
   1.6205402e-10  -4.8057644e-02   6.3957802e+00   1.5198505e-01  -3.0099793e+08
   1.6272091e-10  -4.7857214e-02   6.3948398e+00   1.5435137e-01  -3.0011074e+08
   1.6338780e-10  -4.7657376e-02   6.3938802e+00   1.5674683e-01  -2.9922405e+08
   1.6405468e-10  -4.7458128e-02   6.3929011e+00   1.5917167e-01  -2.9833786e+08
   1.6472157e-10  -4.7259472e-02   6.3919024e+00   1.6162608e-01  -2.9745217e+08
   1.6538846e-10  -4.7061406e-02   6.3908839e+00   1.6411029e-01  -2.9656700e+08
   1.6605535e-10  -4.6863930e-02   6.3898453e+00   1.6662451e-01  -2.9568234e+08
   1.6672224e-10  -4.6667044e-02   6.3887866e+00   1.6916894e-01  -2.9479821e+08
   1.6738913e-10  -4.6470747e-02   6.3877075e+00   1.7174379e-01  -2.9391461e+08
   1.6805602e-10  -4.6275039e-02   6.3866078e+00   1.7434927e-01  -2.9303154e+08
   1.6872291e-10  -4.6079921e-02   6.3854874e+00   1.7698560e-01  -2.9214902e+08
   1.6938980e-10  -4.5885390e-02   6.3843459e+00   1.7965296e-01  -2.9126705e+08
   1.7005669e-10  -4.5691448e-02   6.3831834e+00   1.8235157e-01  -2.9038563e+08
   1.7072357e-10  -4.5498093e-02   6.3819995e+00   1.8508164e-01  -2.8950477e+08
   1.7139046e-10  -4.5305325e-02   6.3807941e+00   1.8784335e-01  -2.8862449e+08
   1.7205735e-10  -4.5113144e-02   6.3795670e+00   1.9063690e-01  -2.8774478e+08
   1.7272424e-10  -4.4921550e-02   6.3783180e+00   1.9346251e-01  -2.8686565e+08
   1.7339113e-10  -4.4730541e-02   6.3770469e+00   1.9632035e-01  -2.8598712e+08
   1.7405802e-10  -4.4540119e-02   6.3757535e+00   1.9921063e-01  -2.8510918e+08
   1.7472491e-10  -4.4350281e-02   6.3744378e+00   2.0213353e-01  -2.8423184e+08
   1.7539180e-10  -4.4161029e-02   6.3730994e+00   2.0508925e-01  -2.8335511e+08
   1.7605869e-10  -4.3972361e-02   6.3717381e+00   2.0807797e-01  -2.8247900e+08
   1.7672558e-10  -4.3784277e-02   6.3703540e+00   2.1109987e-01  -2.8160351e+08
   1.7739246e-10  -4.3596777e-02   6.3689466e+00   2.1415515e-01  -2.8072866e+08
   1.7805935e-10  -4.3409860e-02   6.3675159e+00   2.1724399e-01  -2.7985444e+08
   1.7872624e-10  -4.3223525e-02   6.3660617e+00   2.2036656e-01  -2.7898087e+08
   1.7939313e-10  -4.3037773e-02   6.3645838e+00   2.2352303e-01  -2.7810795e+08
   1.8006002e-10  -4.2852603e-02   6.3630821e+00   2.2671359e-01  -2.7723568e+08
   1.8072691e-10  -4.2668014e-02   6.3615563e+00   2.2993841e-01  -2.7636409e+08
   1.8139380e-10  -4.2484007e-02   6.3600064e+00   2.3319766e-01  -2.7549317e+08
   1.8206069e-10  -4.2300580e-02   6.3584320e+00   2.3649149e-01  -2.7462293e+08
   1.8272758e-10  -4.2117732e-02   6.3568332e+00   2.3982009e-01  -2.7375338e+08
   1.8339446e-10  -4.1935465e-02   6.3552096e+00   2.4318361e-01  -2.7288452e+08
   1.8406135e-10  -4.1753777e-02   6.3535612e+00   2.4658220e-01  -2.7201637e+08
   1.8472824e-10  -4.1572667e-02   6.3518877e+00   2.5001603e-01  -2.7114893e+08
   1.8539513e-10  -4.1392136e-02   6.3501891e+00   2.5348525e-01  -2.7028221e+08
   1.8606202e-10  -4.1212183e-02   6.3484651e+00   2.5699002e-01  -2.6941621e+08
   1.8672891e-10  -4.1032806e-02   6.3467156e+00   2.6053047e-01  -2.6855095e+08
   1.8739580e-10  -4.0854007e-02   6.3449404e+00   2.6410675e-01  -2.6768643e+08
   1.8806269e-10  -4.0675783e-02   6.3431395e+00   2.6771902e-01  -2.6682265e+08
   1.8872958e-10  -4.0498136e-02   6.3413126e+00   2.7136739e-01  -2.6595964e+08
   1.8939647e-10  -4.0321063e-02   6.3394596e+00   2.7505202e-01  -2.6509739e+08
   1.9006335e-10  -4.0144566e-02   6.3375803e+00   2.7877303e-01  -2.6423591e+08
   1.9073024e-10  -3.9968642e-02   6.3356747e+00   2.8253056e-01  -2.6337521e+08
   1.9139713e-10  -3.9793293e-02   6.3337425e+00   2.8632472e-01  -2.6251530e+08
   1.9206402e-10  -3.9618516e-02   6.3317836e+00   2.9015564e-01  -2.6165618e+08
   1.9273091e-10  -3.9444312e-02   6.3297979e+00   2.9402345e-01  -2.6079787e+08
   1.9339780e-10  -3.9270681e-02   6.3277853e+00   2.9792825e-01  -2.5994037e+08
   1.9406469e-10  -3.9097620e-02   6.3257456e+00   3.0187017e-01  -2.5908370e+08
   1.9473158e-10  -3.8925131e-02   6.3236787e+00   3.0584930e-01  -2.5822784e+08
   1.9539847e-10  -3.8753212e-02   6.3215844e+00   3.0986575e-01  -2.5737283e+08
   1.9606536e-10  -3.8581863e-02   6.3194627e+00   3.1391963e-01  -2.5651866e+08
   1.9673224e-10  -3.8411083e-02   6.3173134e+00   3.1801103e-01  -2.5566534e+08
   1.9739913e-10  -3.8240872e-02   6.3151363e+00   3.2214005e-01  -2.5481288e+08
   1.9806602e-10  -3.8071230e-02   6.3129315e+00   3.2630677e-01  -2.5396129e+08
   1.9873291e-10  -3.7902154e-02   6.3106987e+00   3.3051129e-01  -2.5311058e+08
   1.9939980e-10  -3.7733646e-02   6.3084379e+00   3.3475369e-01  -2.5226075e+08
   2.0006669e-10  -3.7565704e-02   6.3061489e+00   3.3903404e-01  -2.5141182e+08
   2.0073358e-10  -3.7398328e-02   6.3038316e+00   3.4335241e-01  -2.5056378e+08
   2.0140047e-10  -3.7231517e-02   6.3014860e+00   3.4770889e-01  -2.4971666e+08
   2.0206736e-10  -3.7065271e-02   6.2991119e+00   3.5210353e-01  -2.4887046e+08
   2.0273424e-10  -3.6899589e-02   6.2967092e+00   3.5653640e-01  -2.4802518e+08
   2.0340113e-10  -3.6734470e-02   6.2942779e+00   3.6100756e-01  -2.4718084e+08
   2.0406802e-10  -3.6569913e-02   6.2918178e+00   3.6551706e-01  -2.4633744e+08
   2.0473491e-10  -3.6405919e-02   6.2893289e+00   3.7006495e-01  -2.4549499e+08
   2.0540180e-10  -3.6242486e-02   6.2868110e+00   3.7465127e-01  -2.4465351e+08
   2.0606869e-10  -3.6079614e-02   6.2842642e+00   3.7927607e-01  -2.4381299e+08
   2.0673558e-10  -3.5917302e-02   6.2816882e+00   3.8393939e-01  -2.4297345e+08
   2.0740247e-10  -3.5755550e-02   6.2790831e+00   3.8864125e-01  -2.4213490e+08
   2.0806936e-10  -3.5594357e-02   6.2764488e+00   3.9338168e-01  -2.4129734e+08
   2.0873625e-10  -3.5433721e-02   6.2737851e+00   3.9816071e-01  -2.4046079e+08
   2.0940313e-10  -3.5273643e-02   6.2710921e+00   4.0297836e-01  -2.3962525e+08
   2.1007002e-10  -3.5114122e-02   6.2683696e+00   4.0783464e-01  -2.3879072e+08
   2.1073691e-10  -3.4955157e-02   6.2656177e+00   4.1272956e-01  -2.3795723e+08
   2.1140380e-10  -3.4796748e-02   6.2628362e+00   4.1766313e-01  -2.3712478e+08
   2.1207069e-10  -3.4638893e-02   6.2600251e+00   4.2263534e-01  -2.3629337e+08
   2.1273758e-10  -3.4481592e-02   6.2571844e+00   4.2764620e-01  -2.3546302e+08
   2.1340447e-10  -3.4324845e-02   6.2543139e+00   4.3269569e-01  -2.3463373e+08
   2.1407136e-10  -3.4168650e-02   6.2514137e+00   4.3778380e-01  -2.3380551e+08
   2.1473825e-10  -3.4013007e-02   6.2484838e+00   4.4291052e-01  -2.3297837e+08
   2.1540514e-10  -3.3857915e-02   6.2455240e+00   4.4807582e-01  -2.3215233e+08
   2.1607202e-10  -3.3703374e-02   6.2425344e+00   4.5327968e-01  -2.3132738e+08
   2.1673891e-10  -3.3549382e-02   6.2395150e+00   4.5852205e-01  -2.3050354e+08
   2.1740580e-10  -3.3395939e-02   6.2364656e+00   4.6380292e-01  -2.2968082e+08
   2.1807269e-10  -3.3243045e-02   6.2333864e+00   4.6912222e-01  -2.2885922e+08
   2.1873958e-10  -3.3090698e-02   6.2302772e+00   4.7447993e-01  -2.2803875e+08
   2.1940647e-10  -3.2938898e-02   6.2271380e+00   4.7987598e-01  -2.2721943e+08
   2.2007336e-10  -3.2787643e-02   6.2239689e+00   4.8531032e-01  -2.2640126e+08
   2.2074025e-10  -3.2636934e-02   6.2207699e+00   4.9078290e-01  -2.2558425e+08
   2.2140714e-10  -3.2486769e-02   6.2175409e+00   4.9629364e-01  -2.2476840e+08
   2.2207402e-10  -3.2337148e-02   6.2142820e+00   5.0184247e-01  -2.2395374e+08
   2.2274091e-10  -3.2188070e-02   6.2109931e+00   5.0742932e-01  -2.2314026e+08
   2.2340780e-10  -3.2039534e-02   6.2076743e+00   5.1305411e-01  -2.2232797e+08
   2.2407469e-10  -3.1891538e-02   6.2043255e+00   5.1871675e-01  -2.2151689e+08
   2.2474158e-10  -3.1744084e-02   6.2009469e+00   5.2441716e-01  -2.2070702e+08
   2.2540847e-10  -3.1597169e-02   6.1975383e+00   5.3015523e-01  -2.1989837e+08
   2.2607536e-10  -3.1450792e-02   6.1941000e+00   5.3593088e-01  -2.1909095e+08
   2.2674225e-10  -3.1304954e-02   6.1906317e+00   5.4174399e-01  -2.1828477e+08
   2.2740914e-10  -3.1159653e-02   6.1871337e+00   5.4759446e-01  -2.1747984e+08
   2.2807603e-10  -3.1014888e-02   6.1836060e+00   5.5348217e-01  -2.1667616e+08
   2.2874291e-10  -3.0870658e-02   6.1800485e+00   5.5940700e-01  -2.1587375e+08
   2.2940980e-10  -3.0726963e-02   6.1764613e+00   5.6536883e-01  -2.1507261e+08
   2.3007669e-10  -3.0583802e-02   6.1728445e+00   5.7136753e-01  -2.1427275e+08
   2.3074358e-10  -3.0441174e-02   6.1691982e+00   5.7740297e-01  -2.1347418e+08
   2.3141047e-10  -3.0299078e-02   6.1655223e+00   5.8347501e-01  -2.1267691e+08
   2.3207736e-10  -3.0157513e-02   6.1618169e+00   5.8958350e-01  -2.1188095e+08
   2.3274425e-10  -3.0016478e-02   6.1580822e+00   5.9572831e-01  -2.1108631e+08
   2.3341114e-10  -2.9875973e-02   6.1543182e+00   6.0190927e-01  -2.1029299e+08
   2.3407803e-10  -2.9735996e-02   6.1505249e+00   6.0812623e-01  -2.0950100e+08
   2.3474491e-10  -2.9596547e-02   6.1467024e+00   6.1437903e-01  -2.0871036e+08
   2.3541180e-10  -2.9457625e-02   6.1428508e+00   6.2066749e-01  -2.0792107e+08
   2.3607869e-10  -2.9319228e-02   6.1389703e+00   6.2699146e-01  -2.0713313e+08
   2.3674558e-10  -2.9181356e-02   6.1350607e+00   6.3335076e-01  -2.0634657e+08
   2.3741247e-10  -2.9044009e-02   6.1311224e+00   6.3974520e-01  -2.0556138e+08
   2.3807936e-10  -2.8907184e-02   6.1271553e+00   6.4617459e-01  -2.0477757e+08
   2.3874625e-10  -2.8770882e-02   6.1231596e+00   6.5263876e-01  -2.0399516e+08
   2.3941314e-10  -2.8635101e-02   6.1191353e+00   6.5913750e-01  -2.0321415e+08
   2.4008003e-10  -2.8499840e-02   6.1150826e+00   6.6567062e-01  -2.0243455e+08
   2.4074692e-10  -2.8365098e-02   6.1110016e+00   6.7223792e-01  -2.0165636e+08
   2.4141380e-10  -2.8230875e-02   6.1068923e+00   6.7883918e-01  -2.0087960e+08
   2.4208069e-10  -2.8097169e-02   6.1027550e+00   6.8547420e-01  -2.0010428e+08
   2.4274758e-10  -2.7963980e-02   6.0985897e+00   6.9214276e-01  -1.9933040e+08
   2.4341447e-10  -2.7831307e-02   6.0943965e+00   6.9884463e-01  -1.9855797e+08
   2.4408136e-10  -2.7699147e-02   6.0901756e+00   7.0557961e-01  -1.9778700e+08
   2.4474825e-10  -2.7567502e-02   6.0859271e+00   7.1234744e-01  -1.9701749e+08
   2.4541514e-10  -2.7436369e-02   6.0816512e+00   7.1914792e-01  -1.9624947e+08
   2.4608203e-10  -2.7305748e-02   6.0773480e+00   7.2598079e-01  -1.9548292e+08
   2.4674892e-10  -2.7175637e-02   6.0730176e+00   7.3284581e-01  -1.9471787e+08
   2.4741581e-10  -2.7046036e-02   6.0686601e+00   7.3974275e-01  -1.9395431e+08
   2.4808269e-10  -2.6916943e-02   6.0642758e+00   7.4667134e-01  -1.9319227e+08
   2.4874958e-10  -2.6788358e-02   6.0598647e+00   7.5363135e-01  -1.9243173e+08
   2.4941647e-10  -2.6660280e-02   6.0554271e+00   7.6062250e-01  -1.9167272e+08
   2.5008336e-10  -2.6532707e-02   6.0509631e+00   7.6764455e-01  -1.9091525e+08
   2.5075025e-10  -2.6405639e-02   6.0464728e+00   7.7469722e-01  -1.9015931e+08
   2.5141714e-10  -2.6279075e-02   6.0419565e+00   7.8178025e-01  -1.8940491e+08
   2.5208403e-10  -2.6153013e-02   6.0374142e+00   7.8889336e-01  -1.8865207e+08
   2.5275092e-10  -2.6027452e-02   6.0328462e+00   7.9603628e-01  -1.8790080e+08
   2.5341781e-10  -2.5902392e-02   6.0282526e+00   8.0320874e-01  -1.8715109e+08
   2.5408469e-10  -2.5777831e-02   6.0236336e+00   8.1041044e-01  -1.8640295e+08
   2.5475158e-10  -2.5653768e-02   6.0189895e+00   8.1764110e-01  -1.8565641e+08
   2.5541847e-10  -2.5530203e-02   6.0143203e+00   8.2490044e-01  -1.8491145e+08
   2.5608536e-10  -2.5407134e-02   6.0096263e+00   8.3218815e-01  -1.8416809e+08
   2.5675225e-10  -2.5284560e-02   6.0049076e+00   8.3950395e-01  -1.8342634e+08
   2.5741914e-10  -2.5162480e-02   6.0001645e+00   8.4684753e-01  -1.8268620e+08
   2.5808603e-10  -2.5040893e-02   5.9953972e+00   8.5421859e-01  -1.8194769e+08
   2.5875292e-10  -2.4919798e-02   5.9906058e+00   8.6161682e-01  -1.8121080e+08
   2.5941981e-10  -2.4799194e-02   5.9857906e+00   8.6904192e-01  -1.8047554e+08
   2.6008670e-10  -2.4679079e-02   5.9809517e+00   8.7649358e-01  -1.7974193e+08
   2.6075358e-10  -2.4559453e-02   5.9760894e+00   8.8397147e-01  -1.7900997e+08
   2.6142047e-10  -2.4440315e-02   5.9712039e+00   8.9147529e-01  -1.7827966e+08
   2.6208736e-10  -2.4321663e-02   5.9662954e+00   8.9900471e-01  -1.7755102e+08
   2.6275425e-10  -2.4203496e-02   5.9613640e+00   9.0655941e-01  -1.7682405e+08
   2.6342114e-10  -2.4085813e-02   5.9564102e+00   9.1413906e-01  -1.7609875e+08
   2.6408803e-10  -2.3968614e-02   5.9514339e+00   9.2174333e-01  -1.7537514e+08
   2.6475492e-10  -2.3851896e-02   5.9464356e+00   9.2937191e-01  -1.7465321e+08
   2.6542181e-10  -2.3735659e-02   5.9414153e+00   9.3702444e-01  -1.7393299e+08
   2.6608870e-10  -2.3619902e-02   5.9363734e+00   9.4470060e-01  -1.7321446e+08
   2.6675559e-10  -2.3504624e-02   5.9313100e+00   9.5240004e-01  -1.7249765e+08
   2.6742247e-10  -2.3389823e-02   5.9262254e+00   9.6012244e-01  -1.7178255e+08
   2.6808936e-10  -2.3275498e-02   5.9211199e+00   9.6786744e-01  -1.7106917e+08
   2.6875625e-10  -2.3161648e-02   5.9159936e+00   9.7563470e-01  -1.7035752e+08
   2.6942314e-10  -2.3048272e-02   5.9108468e+00   9.8342388e-01  -1.6964761e+08
   2.7009003e-10  -2.2935369e-02   5.9056797e+00   9.9123463e-01  -1.6893943e+08
   2.7075692e-10  -2.2822937e-02   5.9004927e+00   9.9906659e-01  -1.6823300e+08
   2.7142381e-10  -2.2710976e-02   5.8952859e+00   1.0069194e+00  -1.6752833e+08
   2.7209070e-10  -2.2599485e-02   5.8900596e+00   1.0147928e+00  -1.6682541e+08
   2.7275759e-10  -2.2488461e-02   5.8848140e+00   1.0226862e+00  -1.6612426e+08
   2.7342447e-10  -2.2377904e-02   5.8795494e+00   1.0305995e+00  -1.6542488e+08
   2.7409136e-10  -2.2267813e-02   5.8742660e+00   1.0385323e+00  -1.6472728e+08
   2.7475825e-10  -2.2158187e-02   5.8689641e+00   1.0464841e+00  -1.6403145e+08
   2.7542514e-10  -2.2049024e-02   5.8636439e+00   1.0544546e+00  -1.6333742e+08
   2.7609203e-10  -2.1940323e-02   5.8583058e+00   1.0624435e+00  -1.6264517e+08
   2.7675892e-10  -2.1832084e-02   5.8529499e+00   1.0704504e+00  -1.6195473e+08
   2.7742581e-10  -2.1724304e-02   5.8475766e+00   1.0784749e+00  -1.6126608e+08
   2.7809270e-10  -2.1616982e-02   5.8421860e+00   1.0865167e+00  -1.6057925e+08
   2.7875959e-10  -2.1510118e-02   5.8367785e+00   1.0945754e+00  -1.5989423e+08
   2.7942648e-10  -2.1403710e-02   5.8313543e+00   1.1026506e+00  -1.5921103e+08
   2.8009336e-10  -2.1297757e-02   5.8259136e+00   1.1107419e+00  -1.5852965e+08
   2.8076025e-10  -2.1192258e-02   5.8204569e+00   1.1188491e+00  -1.5785010e+08
   2.8142714e-10  -2.1087212e-02   5.8149842e+00   1.1269716e+00  -1.5717238e+08
   2.8209403e-10  -2.0982616e-02   5.8094959e+00   1.1351093e+00  -1.5649651e+08
   2.8276092e-10  -2.0878471e-02   5.8039922e+00   1.1432615e+00  -1.5582247e+08
   2.8342781e-10  -2.0774775e-02   5.7984735e+00   1.1514281e+00  -1.5515029e+08
   2.8409470e-10  -2.0671526e-02   5.7929400e+00   1.1596087e+00  -1.5447995e+08
   2.8476159e-10  -2.0568723e-02   5.7873920e+00   1.1678027e+00  -1.5381147e+08
   2.8542848e-10  -2.0466366e-02   5.7818296e+00   1.1760100e+00  -1.5314486e+08
   2.8609537e-10  -2.0364453e-02   5.7762533e+00   1.1842301e+00  -1.5248011e+08
   2.8676225e-10  -2.0262982e-02   5.7706633e+00   1.1924626e+00  -1.5181723e+08
   2.8742914e-10  -2.0161952e-02   5.7650599e+00   1.2007072e+00  -1.5115622e+08
   2.8809603e-10  -2.0061363e-02   5.7594433e+00   1.2089635e+00  -1.5049710e+08
   2.8876292e-10  -1.9961213e-02   5.7538138e+00   1.2172310e+00  -1.4983985e+08
   2.8942981e-10  -1.9861500e-02   5.7481717e+00   1.2255096e+00  -1.4918449e+08
   2.9009670e-10  -1.9762224e-02   5.7425173e+00   1.2337987e+00  -1.4853102e+08
   2.9076359e-10  -1.9663383e-02   5.7368508e+00   1.2420980e+00  -1.4787945e+08
   2.9143048e-10  -1.9564975e-02   5.7311726e+00   1.2504071e+00  -1.4722977e+08
   2.9209737e-10  -1.9467001e-02   5.7254829e+00   1.2587256e+00  -1.4658199e+08
   2.9276425e-10  -1.9369457e-02   5.7197819e+00   1.2670533e+00  -1.4593612e+08
   2.9343114e-10  -1.9272344e-02   5.7140700e+00   1.2753896e+00  -1.4529215e+08
   2.9409803e-10  -1.9175659e-02   5.7083475e+00   1.2837343e+00  -1.4465010e+08
   2.9476492e-10  -1.9079402e-02   5.7026146e+00   1.2920870e+00  -1.4400996e+08
   2.9543181e-10  -1.8983571e-02   5.6968715e+00   1.3004472e+00  -1.4337174e+08
   2.9609870e-10  -1.8888166e-02   5.6911187e+00   1.3088147e+00  -1.4273544e+08
   2.9676559e-10  -1.8793183e-02   5.6853563e+00   1.3171890e+00  -1.4210106e+08
   2.9743248e-10  -1.8698623e-02   5.6795847e+00   1.3255698e+00  -1.4146862e+08
   2.9809937e-10  -1.8604485e-02   5.6738041e+00   1.3339567e+00  -1.4083810e+08
   2.9876626e-10  -1.8510766e-02   5.6680147e+00   1.3423494e+00  -1.4020951e+08
   2.9943314e-10  -1.8417465e-02   5.6622170e+00   1.3507475e+00  -1.3958286e+08
   3.0010003e-10  -1.8324582e-02   5.6564110e+00   1.3591506e+00  -1.3895814e+08
   3.0076692e-10  -1.8232115e-02   5.6505973e+00   1.3675584e+00  -1.3833537e+08
   3.0143381e-10  -1.8140062e-02   5.6447759e+00   1.3759705e+00  -1.3771454e+08
   3.0210070e-10  -1.8048423e-02   5.6389471e+00   1.3843865e+00  -1.3709566e+08
   3.0276759e-10  -1.7957196e-02   5.6331114e+00   1.3928061e+00  -1.3647872e+08
   3.0343448e-10  -1.7866380e-02   5.6272689e+00   1.4012289e+00  -1.3586373e+08
   3.0410137e-10  -1.7775973e-02   5.6214198e+00   1.4096547e+00  -1.3525069e+08
   3.0476826e-10  -1.7685974e-02   5.6155646e+00   1.4180829e+00  -1.3463961e+08
   3.0543515e-10  -1.7596382e-02   5.6097034e+00   1.4265133e+00  -1.3403048e+08
   3.0610203e-10  -1.7507196e-02   5.6038365e+00   1.4349455e+00  -1.3342332e+08
   3.0676892e-10  -1.7418413e-02   5.5979642e+00   1.4433791e+00  -1.3281811e+08
   3.0743581e-10  -1.7330034e-02   5.5920868e+00   1.4518139e+00  -1.3221486e+08
   3.0810270e-10  -1.7242057e-02   5.5862045e+00   1.4602495e+00  -1.3161357e+08
   3.0876959e-10  -1.7154479e-02   5.5803176e+00   1.4686854e+00  -1.3101425e+08
   3.0943648e-10  -1.7067301e-02   5.5744264e+00   1.4771215e+00  -1.3041690e+08
   3.1010337e-10  -1.6980521e-02   5.5685311e+00   1.4855573e+00  -1.2982151e+08
   3.1077026e-10  -1.6894136e-02   5.5626320e+00   1.4939925e+00  -1.2922809e+08
   3.1143715e-10  -1.6808147e-02   5.5567294e+00   1.5024267e+00  -1.2863664e+08
   3.1210403e-10  -1.6722552e-02   5.5508235e+00   1.5108597e+00  -1.2804716e+08
   3.1277092e-10  -1.6637349e-02   5.5449146e+00   1.5192911e+00  -1.2745966e+08
   3.1343781e-10  -1.6552537e-02   5.5390030e+00   1.5277205e+00  -1.2687413e+08
   3.1410470e-10  -1.6468115e-02   5.5330889e+00   1.5361477e+00  -1.2629057e+08
   3.1477159e-10  -1.6384082e-02   5.5271725e+00   1.5445722e+00  -1.2570898e+08
   3.1543848e-10  -1.6300436e-02   5.5212542e+00   1.5529939e+00  -1.2512937e+08
   3.1610537e-10  -1.6217175e-02   5.5153342e+00   1.5614123e+00  -1.2455174e+08
   3.1677226e-10  -1.6134300e-02   5.5094127e+00   1.5698271e+00  -1.2397608e+08
   3.1743915e-10  -1.6051807e-02   5.5034900e+00   1.5782381e+00  -1.2340240e+08
   3.1810604e-10  -1.5969696e-02   5.4975664e+00   1.5866448e+00  -1.2283070e+08
   3.1877292e-10  -1.5887966e-02   5.4916420e+00   1.5950470e+00  -1.2226098e+08
   3.1943981e-10  -1.5806616e-02   5.4857173e+00   1.6034445e+00  -1.2169323e+08
   3.2010670e-10  -1.5725643e-02   5.4797923e+00   1.6118367e+00  -1.2112747e+08
   3.2077359e-10  -1.5645047e-02   5.4738673e+00   1.6202235e+00  -1.2056368e+08
   3.2144048e-10  -1.5564826e-02   5.4679427e+00   1.6286046e+00  -1.2000187e+08
   3.2210737e-10  -1.5484979e-02   5.4620186e+00   1.6369796e+00  -1.1944204e+08
   3.2277426e-10  -1.5405505e-02   5.4560952e+00   1.6453483e+00  -1.1888419e+08
   3.2344115e-10  -1.5326402e-02   5.4501729e+00   1.6537104e+00  -1.1832832e+08
   3.2410804e-10  -1.5247669e-02   5.4442518e+00   1.6620654e+00  -1.1777442e+08
   3.2477492e-10  -1.5169305e-02   5.4383322e+00   1.6704133e+00  -1.1722250e+08
   3.2544181e-10  -1.5091309e-02   5.4324144e+00   1.6787536e+00  -1.1667256e+08
   3.2610870e-10  -1.5013678e-02   5.4264985e+00   1.6870861e+00  -1.1612460e+08
   3.2677559e-10  -1.4936412e-02   5.4205847e+00   1.6954105e+00  -1.1557861e+08
   3.2744248e-10  -1.4859510e-02   5.4146735e+00   1.7037266e+00  -1.1503460e+08
   3.2810937e-10  -1.4782970e-02   5.4087648e+00   1.7120340e+00  -1.1449257e+08
   3.2877626e-10  -1.4706791e-02   5.4028590e+00   1.7203324e+00  -1.1395250e+08
   3.2944315e-10  -1.4630971e-02   5.3969564e+00   1.7286216e+00  -1.1341442e+08
   3.3011004e-10  -1.4555509e-02   5.3910570e+00   1.7369014e+00  -1.1287830e+08
   3.3077693e-10  -1.4480404e-02   5.3851612e+00   1.7451714e+00  -1.1234416e+08
   3.3144381e-10  -1.4405655e-02   5.3792692e+00   1.7534314e+00  -1.1181198e+08
   3.3211070e-10  -1.4331260e-02   5.3733811e+00   1.7616811e+00  -1.1128178e+08
   3.3277759e-10  -1.4257218e-02   5.3674973e+00   1.7699203e+00  -1.1075354e+08
   3.3344448e-10  -1.4183528e-02   5.3616178e+00   1.7781487e+00  -1.1022727e+08
   3.3411137e-10  -1.4110188e-02   5.3557430e+00   1.7863660e+00  -1.0970297e+08
   3.3477826e-10  -1.4037197e-02   5.3498730e+00   1.7945721e+00  -1.0918063e+08
   3.3544515e-10  -1.3964554e-02   5.3440080e+00   1.8027666e+00  -1.0866026e+08
   3.3611204e-10  -1.3892257e-02   5.3381483e+00   1.8109492e+00  -1.0814184e+08
   3.3677893e-10  -1.3820305e-02   5.3322941e+00   1.8191199e+00  -1.0762539e+08
   3.3744582e-10  -1.3748697e-02   5.3264454e+00   1.8272782e+00  -1.0711089e+08
   3.3811270e-10  -1.3677431e-02   5.3206027e+00   1.8354241e+00  -1.0659835e+08
   3.3877959e-10  -1.3606507e-02   5.3147660e+00   1.8435572e+00  -1.0608776e+08
   3.3944648e-10  -1.3535922e-02   5.3089355e+00   1.8516773e+00  -1.0557913e+08
   3.4011337e-10  -1.3465676e-02   5.3031114e+00   1.8597841e+00  -1.0507245e+08
   3.4078026e-10  -1.3395768e-02   5.2972940e+00   1.8678776e+00  -1.0456771e+08
   3.4144715e-10  -1.3326195e-02   5.2914834e+00   1.8759573e+00  -1.0406493e+08
   3.4211404e-10  -1.3256957e-02   5.2856799e+00   1.8840232e+00  -1.0356409e+08
   3.4278093e-10  -1.3188052e-02   5.2798835e+00   1.8920750e+00  -1.0306519e+08
   3.4344782e-10  -1.3119480e-02   5.2740945e+00   1.9001124e+00  -1.0256823e+08
   3.4411470e-10  -1.3051238e-02   5.2683130e+00   1.9081354e+00  -1.0207321e+08
   3.4478159e-10  -1.2983325e-02   5.2625393e+00   1.9161435e+00  -1.0158012e+08
   3.4544848e-10  -1.2915741e-02   5.2567735e+00   1.9241367e+00  -1.0108897e+08
   3.4611537e-10  -1.2848484e-02   5.2510158e+00   1.9321148e+00  -1.0059975e+08
   3.4678226e-10  -1.2781552e-02   5.2452663e+00   1.9400775e+00  -1.0011246e+08
   3.4744915e-10  -1.2714945e-02   5.2395253e+00   1.9480247e+00  -9.9627095e+07
   3.4811604e-10  -1.2648661e-02   5.2337929e+00   1.9559561e+00  -9.9143653e+07
   3.4878293e-10  -1.2582699e-02   5.2280693e+00   1.9638715e+00  -9.8662131e+07
   3.4944982e-10  -1.2517057e-02   5.2223546e+00   1.9717708e+00  -9.8182528e+07
   3.5011671e-10  -1.2451734e-02   5.2166490e+00   1.9796538e+00  -9.7704839e+07
   3.5078359e-10  -1.2386729e-02   5.2109527e+00   1.9875203e+00  -9.7229063e+07
   3.5145048e-10  -1.2322041e-02   5.2052657e+00   1.9953702e+00  -9.6755197e+07
   3.5211737e-10  -1.2257669e-02   5.1995884e+00   2.0032031e+00  -9.6283237e+07
   3.5278426e-10  -1.2193610e-02   5.1939208e+00   2.0110190e+00  -9.5813180e+07
   3.5345115e-10  -1.2129865e-02   5.1882631e+00   2.0188177e+00  -9.5345024e+07
   3.5411804e-10  -1.2066430e-02   5.1826154e+00   2.0265991e+00  -9.4878766e+07
   3.5478493e-10  -1.2003307e-02   5.1769779e+00   2.0343628e+00  -9.4414402e+07
   3.5545182e-10  -1.1940492e-02   5.1713507e+00   2.0421089e+00  -9.3951929e+07
   3.5611871e-10  -1.1877985e-02   5.1657340e+00   2.0498371e+00  -9.3491344e+07
   3.5678560e-10  -1.1815785e-02   5.1601279e+00   2.0575472e+00  -9.3032643e+07
   3.5745248e-10  -1.1753890e-02   5.1545326e+00   2.0652392e+00  -9.2575824e+07
   3.5811937e-10  -1.1692299e-02   5.1489482e+00   2.0729128e+00  -9.2120882e+07
   3.5878626e-10  -1.1631011e-02   5.1433748e+00   2.0805679e+00  -9.1667815e+07
   3.5945315e-10  -1.1570024e-02   5.1378126e+00   2.0882044e+00  -9.1216620e+07
   3.6012004e-10  -1.1509338e-02   5.1322617e+00   2.0958221e+00  -9.0767291e+07
   3.6078693e-10  -1.1448951e-02   5.1267222e+00   2.1034208e+00  -9.0319827e+07
   3.6145382e-10  -1.1388861e-02   5.1211942e+00   2.1110005e+00  -8.9874223e+07
   3.6212071e-10  -1.1329068e-02   5.1156780e+00   2.1185610e+00  -8.9430475e+07
   3.6278760e-10  -1.1269571e-02   5.1101735e+00   2.1261021e+00  -8.8988581e+07
   3.6345448e-10  -1.1210368e-02   5.1046810e+00   2.1336237e+00  -8.8548536e+07
   3.6412137e-10  -1.1151457e-02   5.0992005e+00   2.1411258e+00  -8.8110337e+07
   3.6478826e-10  -1.1092838e-02   5.0937322e+00   2.1486081e+00  -8.7673979e+07
   3.6545515e-10  -1.1034510e-02   5.0882762e+00   2.1560705e+00  -8.7239459e+07
   3.6612204e-10  -1.0976470e-02   5.0828325e+00   2.1635130e+00  -8.6806773e+07
   3.6678893e-10  -1.0918719e-02   5.0774014e+00   2.1709354e+00  -8.6375917e+07
   3.6745582e-10  -1.0861254e-02   5.0719829e+00   2.1783376e+00  -8.5946887e+07
   3.6812271e-10  -1.0804075e-02   5.0665772e+00   2.1857194e+00  -8.5519680e+07
   3.6878960e-10  -1.0747181e-02   5.0611842e+00   2.1930808e+00  -8.5094290e+07
   3.6945649e-10  -1.0690569e-02   5.0558042e+00   2.2004216e+00  -8.4670714e+07
   3.7012337e-10  -1.0634239e-02   5.0504373e+00   2.2077418e+00  -8.4248949e+07
   3.7079026e-10  -1.0578190e-02   5.0450835e+00   2.2150412e+00  -8.3828989e+07
   3.7145715e-10  -1.0522421e-02   5.0397429e+00   2.2223198e+00  -8.3410830e+07
   3.7212404e-10  -1.0466929e-02   5.0344157e+00   2.2295774e+00  -8.2994469e+07
   3.7279093e-10  -1.0411715e-02   5.0291019e+00   2.2368139e+00  -8.2579901e+07
   3.7345782e-10  -1.0356777e-02   5.0238016e+00   2.2440293e+00  -8.2167121e+07
   3.7412471e-10  -1.0302113e-02   5.0185150e+00   2.2512235e+00  -8.1756127e+07
   3.7479160e-10  -1.0247723e-02   5.0132420e+00   2.2583963e+00  -8.1346912e+07
   3.7545849e-10  -1.0193606e-02   5.0079829e+00   2.2655476e+00  -8.0939473e+07
   3.7612538e-10  -1.0139759e-02   5.0027376e+00   2.2726775e+00  -8.0533806e+07
   3.7679226e-10  -1.0086183e-02   4.9975063e+00   2.2797858e+00  -8.0129905e+07
   3.7745915e-10  -1.0032875e-02   4.9922890e+00   2.2868724e+00  -7.9727767e+07
   3.7812604e-10  -9.9798347e-03   4.9870859e+00   2.2939373e+00  -7.9327386e+07
   3.7879293e-10  -9.9270610e-03   4.9818970e+00   2.3009803e+00  -7.8928760e+07
   3.7945982e-10  -9.8745526e-03   4.9767223e+00   2.3080014e+00  -7.8531882e+07
   3.8012671e-10  -9.8223083e-03   4.9715621e+00   2.3150006e+00  -7.8136748e+07
   3.8079360e-10  -9.7703270e-03   4.9664162e+00   2.3219777e+00  -7.7743354e+07
   3.8146049e-10  -9.7186074e-03   4.9612849e+00   2.3289327e+00  -7.7351696e+07
   3.8212738e-10  -9.6671485e-03   4.9561681e+00   2.3358656e+00  -7.6961767e+07
   3.8279426e-10  -9.6159491e-03   4.9510660e+00   2.3427762e+00  -7.6573564e+07
   3.8346115e-10  -9.5650081e-03   4.9459785e+00   2.3496645e+00  -7.6187083e+07
   3.8412804e-10  -9.5143242e-03   4.9409059e+00   2.3565304e+00  -7.5802317e+07
   3.8479493e-10  -9.4638964e-03   4.9358481e+00   2.3633739e+00  -7.5419264e+07
   3.8546182e-10  -9.4137235e-03   4.9308052e+00   2.3701950e+00  -7.5037917e+07
   3.8612871e-10  -9.3638044e-03   4.9257772e+00   2.3769935e+00  -7.4658272e+07
   3.8679560e-10  -9.3141379e-03   4.9207643e+00   2.3837695e+00  -7.4280324e+07
   3.8746249e-10  -9.2647229e-03   4.9157664e+00   2.3905229e+00  -7.3904068e+07
   3.8812938e-10  -9.2155583e-03   4.9107837e+00   2.3972535e+00  -7.3529500e+07
   3.8879627e-10  -9.1666430e-03   4.9058161e+00   2.4039615e+00  -7.3156614e+07
   3.8946315e-10  -9.1179758e-03   4.9008638e+00   2.4106467e+00  -7.2785406e+07
   3.9013004e-10  -9.0695556e-03   4.8959268e+00   2.4173091e+00  -7.2415871e+07
   3.9079693e-10  -9.0213813e-03   4.8910051e+00   2.4239487e+00  -7.2048004e+07
   3.9146382e-10  -8.9734519e-03   4.8860988e+00   2.4305654e+00  -7.1681799e+07
   3.9213071e-10  -8.9257661e-03   4.8812079e+00   2.4371592e+00  -7.1317253e+07
   3.9279760e-10  -8.8783229e-03   4.8763325e+00   2.4437301e+00  -7.0954359e+07
   3.9346449e-10  -8.8311212e-03   4.8714726e+00   2.4502780e+00  -7.0593113e+07
   3.9413138e-10  -8.7841599e-03   4.8666283e+00   2.4568029e+00  -7.0233510e+07
   3.9479827e-10  -8.7374379e-03   4.8617996e+00   2.4633047e+00  -6.9875545e+07
   3.9546516e-10  -8.6909541e-03   4.8569865e+00   2.4697835e+00  -6.9519212e+07
   3.9613204e-10  -8.6447074e-03   4.8521891e+00   2.4762392e+00  -6.9164507e+07
   3.9679893e-10  -8.5986967e-03   4.8474074e+00   2.4826719e+00  -6.8811425e+07
   3.9746582e-10  -8.5529210e-03   4.8426414e+00   2.4890813e+00  -6.8459960e+07
   3.9813271e-10  -8.5073792e-03   4.8378912e+00   2.4954677e+00  -6.8110108e+07
   3.9879960e-10  -8.4620702e-03   4.8331568e+00   2.5018308e+00  -6.7761863e+07
   3.9946649e-10  -8.4169929e-03   4.8284383e+00   2.5081708e+00  -6.7415220e+07
   4.0013338e-10  -8.3721463e-03   4.8237357e+00   2.5144876e+00  -6.7070173e+07
   4.0080027e-10  -8.3275292e-03   4.8190489e+00   2.5207812e+00  -6.6726719e+07
   4.0146716e-10  -8.2831407e-03   4.8143781e+00   2.5270516e+00  -6.6384851e+07
   4.0213404e-10  -8.2389797e-03   4.8097232e+00   2.5332987e+00  -6.6044565e+07
   4.0280093e-10  -8.1950452e-03   4.8050843e+00   2.5395226e+00  -6.5705855e+07
   4.0346782e-10  -8.1513360e-03   4.8004614e+00   2.5457233e+00  -6.5368716e+07
   4.0413471e-10  -8.1078512e-03   4.7958545e+00   2.5519007e+00  -6.5033142e+07
   4.0480160e-10  -8.0645896e-03   4.7912636e+00   2.5580548e+00  -6.4699130e+07
   4.0546849e-10  -8.0215503e-03   4.7866888e+00   2.5641857e+00  -6.4366672e+07
   4.0613538e-10  -7.9787322e-03   4.7821301e+00   2.5702934e+00  -6.4035765e+07
   4.0680227e-10  -7.9361343e-03   4.7775875e+00   2.5763777e+00  -6.3706402e+07
   4.0746916e-10  -7.8937556e-03   4.7730610e+00   2.5824389e+00  -6.3378579e+07
   4.0813605e-10  -7.8515950e-03   4.7685506e+00   2.5884767e+00  -6.3052291e+07
   4.0880293e-10  -7.8096515e-03   4.7640564e+00   2.5944913e+00  -6.2727531e+07
   4.0946982e-10  -7.7679241e-03   4.7595783e+00   2.6004827e+00  -6.2404296e+07
   4.1013671e-10  -7.7264118e-03   4.7551163e+00   2.6064508e+00  -6.2082578e+07
   4.1080360e-10  -7.6851136e-03   4.7506706e+00   2.6123957e+00  -6.1762374e+07
   4.1147049e-10  -7.6440284e-03   4.7462410e+00   2.6183174e+00  -6.1443678e+07
   4.1213738e-10  -7.6031553e-03   4.7418276e+00   2.6242159e+00  -6.1126484e+07
   4.1280427e-10  -7.5624932e-03   4.7374304e+00   2.6300912e+00  -6.0810788e+07
   4.1347116e-10  -7.5220412e-03   4.7330494e+00   2.6359433e+00  -6.0496584e+07
   4.1413805e-10  -7.4817983e-03   4.7286846e+00   2.6417722e+00  -6.0183866e+07
   4.1480493e-10  -7.4417634e-03   4.7243360e+00   2.6475780e+00  -5.9872630e+07
   4.1547182e-10  -7.4019356e-03   4.7200036e+00   2.6533607e+00  -5.9562870e+07
   4.1613871e-10  -7.3623140e-03   4.7156874e+00   2.6591202e+00  -5.9254580e+07
   4.1680560e-10  -7.3228975e-03   4.7113874e+00   2.6648566e+00  -5.8947756e+07
   4.1747249e-10  -7.2836851e-03   4.7071037e+00   2.6705700e+00  -5.8642392e+07
   4.1813938e-10  -7.2446759e-03   4.7028361e+00   2.6762603e+00  -5.8338482e+07
   4.1880627e-10  -7.2058689e-03   4.6985848e+00   2.6819276e+00  -5.8036022e+07
   4.1947316e-10  -7.1672632e-03   4.6943497e+00   2.6875718e+00  -5.7735006e+07
   4.2014005e-10  -7.1288577e-03   4.6901308e+00   2.6931931e+00  -5.7435429e+07
   4.2080694e-10  -7.0906516e-03   4.6859281e+00   2.6987914e+00  -5.7137285e+07
   4.2147382e-10  -7.0526438e-03   4.6817415e+00   2.7043668e+00  -5.6840569e+07
   4.2214071e-10  -7.0148335e-03   4.6775712e+00   2.7099193e+00  -5.6545276e+07
   4.2280760e-10  -6.9772197e-03   4.6734170e+00   2.7154489e+00  -5.6251400e+07
   4.2347449e-10  -6.9398014e-03   4.6692790e+00   2.7209557e+00  -5.5958937e+07
   4.2414138e-10  -6.9025776e-03   4.6651572e+00   2.7264396e+00  -5.5667880e+07
   4.2480827e-10  -6.8655476e-03   4.6610515e+00   2.7319008e+00  -5.5378224e+07
   4.2547516e-10  -6.8287102e-03   4.6569619e+00   2.7373392e+00  -5.5089965e+07
   4.2614205e-10  -6.7920647e-03   4.6528885e+00   2.7427549e+00  -5.4803096e+07
   4.2680894e-10  -6.7556100e-03   4.6488312e+00   2.7481479e+00  -5.4517613e+07
   4.2747583e-10  -6.7193453e-03   4.6447899e+00   2.7535183e+00  -5.4233509e+07
   4.2814271e-10  -6.6832696e-03   4.6407648e+00   2.7588660e+00  -5.3950781e+07
   4.2880960e-10  -6.6473820e-03   4.6367558e+00   2.7641912e+00  -5.3669422e+07
   4.2947649e-10  -6.6116816e-03   4.6327628e+00   2.7694938e+00  -5.3389427e+07
   4.3014338e-10  -6.5761675e-03   4.6287858e+00   2.7747740e+00  -5.3110791e+07
   4.3081027e-10  -6.5408388e-03   4.6248249e+00   2.7800317e+00  -5.2833508e+07
   4.3147716e-10  -6.5056946e-03   4.6208799e+00   2.7852669e+00  -5.2557574e+07
   4.3214405e-10  -6.4707339e-03   4.6169510e+00   2.7904798e+00  -5.2282983e+07
   4.3281094e-10  -6.4359560e-03   4.6130380e+00   2.7956704e+00  -5.2009729e+07
   4.3347783e-10  -6.4013598e-03   4.6091410e+00   2.8008387e+00  -5.1737807e+07
   4.3414471e-10  -6.3669446e-03   4.6052599e+00   2.8059847e+00  -5.1467213e+07
   4.3481160e-10  -6.3327095e-03   4.6013947e+00   2.8111085e+00  -5.1197940e+07
   4.3547849e-10  -6.2986534e-03   4.5975454e+00   2.8162101e+00  -5.0929984e+07
   4.3614538e-10  -6.2647757e-03   4.5937119e+00   2.8212896e+00  -5.0663339e+07
   4.3681227e-10  -6.2310753e-03   4.5898943e+00   2.8263471e+00  -5.0398000e+07
   4.3747916e-10  -6.1975515e-03   4.5860925e+00   2.8313825e+00  -5.0133962e+07
   4.3814605e-10  -6.1642034e-03   4.5823065e+00   2.8363960e+00  -4.9871219e+07
   4.3881294e-10  -6.1310301e-03   4.5785363e+00   2.8413875e+00  -4.9609767e+07
   4.3947983e-10  -6.0980307e-03   4.5747818e+00   2.8463572e+00  -4.9349599e+07
   4.4014672e-10  -6.0652044e-03   4.5710430e+00   2.8513050e+00  -4.9090711e+07
   4.4081360e-10  -6.0325504e-03   4.5673200e+00   2.8562310e+00  -4.8833098e+07
   4.4148049e-10  -6.0000677e-03   4.5636125e+00   2.8611353e+00  -4.8576754e+07
   4.4214738e-10  -5.9677556e-03   4.5599208e+00   2.8660180e+00  -4.8321674e+07
   4.4281427e-10  -5.9356133e-03   4.5562446e+00   2.8708790e+00  -4.8067853e+07
   4.4348116e-10  -5.9036397e-03   4.5525840e+00   2.8757184e+00  -4.7815285e+07
   4.4414805e-10  -5.8718343e-03   4.5489389e+00   2.8805363e+00  -4.7563967e+07
   4.4481494e-10  -5.8401960e-03   4.5453094e+00   2.8853327e+00  -4.7313891e+07
   4.4548183e-10  -5.8087241e-03   4.5416954e+00   2.8901077e+00  -4.7065054e+07
   4.4614872e-10  -5.7774177e-03   4.5380968e+00   2.8948614e+00  -4.6817449e+07
   4.4681561e-10  -5.7462761e-03   4.5345136e+00   2.8995937e+00  -4.6571073e+07
   4.4748249e-10  -5.7152984e-03   4.5309459e+00   2.9043048e+00  -4.6325919e+07
   4.4814938e-10  -5.6844838e-03   4.5273935e+00   2.9089947e+00  -4.6081983e+07
   4.4881627e-10  -5.6538315e-03   4.5238564e+00   2.9136635e+00  -4.5839259e+07
   4.4948316e-10  -5.6233407e-03   4.5203346e+00   2.9183111e+00  -4.5597743e+07
   4.5015005e-10  -5.5930105e-03   4.5168281e+00   2.9229378e+00  -4.5357429e+07
   4.5081694e-10  -5.5628403e-03   4.5133369e+00   2.9275434e+00  -4.5118312e+07
   4.5148383e-10  -5.5328291e-03   4.5098608e+00   2.9321282e+00  -4.4880387e+07
   4.5215072e-10  -5.5029762e-03   4.5063999e+00   2.9366921e+00  -4.4643649e+07
   4.5281761e-10  -5.4732808e-03   4.5029541e+00   2.9412352e+00  -4.4408093e+07
   4.5348449e-10  -5.4437421e-03   4.4995235e+00   2.9457576e+00  -4.4173714e+07
   4.5415138e-10  -5.4143594e-03   4.4961078e+00   2.9502593e+00  -4.3940507e+07
   4.5481827e-10  -5.3851318e-03   4.4927072e+00   2.9547403e+00  -4.3708466e+07
   4.5548516e-10  -5.3560585e-03   4.4893216e+00   2.9592008e+00  -4.3477588e+07
   4.5615205e-10  -5.3271389e-03   4.4859510e+00   2.9636409e+00  -4.3247866e+07
   4.5681894e-10  -5.2983721e-03   4.4825952e+00   2.9680604e+00  -4.3019296e+07
   4.5748583e-10  -5.2697574e-03   4.4792543e+00   2.9724596e+00  -4.2791872e+07
   4.5815272e-10  -5.2412939e-03   4.4759283e+00   2.9768385e+00  -4.2565591e+07
   4.5881961e-10  -5.2129811e-03   4.4726171e+00   2.9811971e+00  -4.2340446e+07
   4.5948650e-10  -5.1848179e-03   4.4693206e+00   2.9855356e+00  -4.2116433e+07
   4.6015338e-10  -5.1568039e-03   4.4660388e+00   2.9898539e+00  -4.1893547e+07
   4.6082027e-10  -5.1289381e-03   4.4627717e+00   2.9941521e+00  -4.1671783e+07
   4.6148716e-10  -5.1012198e-03   4.4595193e+00   2.9984303e+00  -4.1451136e+07
   4.6215405e-10  -5.0736483e-03   4.4562815e+00   3.0026886e+00  -4.1231602e+07
   4.6282094e-10  -5.0462229e-03   4.4530582e+00   3.0069270e+00  -4.1013174e+07
   4.6348783e-10  -5.0189428e-03   4.4498495e+00   3.0111456e+00  -4.0795849e+07
   4.6415472e-10  -4.9918072e-03   4.4466552e+00   3.0153445e+00  -4.0579622e+07
   4.6482161e-10  -4.9648155e-03   4.4434754e+00   3.0195236e+00  -4.0364487e+07
   4.6548850e-10  -4.9379670e-03   4.4403100e+00   3.0236832e+00  -4.0150440e+07
   4.6615539e-10  -4.9112608e-03   4.4371590e+00   3.0278231e+00  -3.9937476e+07
   4.6682227e-10  -4.8846963e-03   4.4340222e+00   3.0319436e+00  -3.9725590e+07
   4.6748916e-10  -4.8582728e-03   4.4308998e+00   3.0360447e+00  -3.9514777e+07
   4.6815605e-10  -4.8319895e-03   4.4277916e+00   3.0401264e+00  -3.9305034e+07
   4.6882294e-10  -4.8058458e-03   4.4246976e+00   3.0441887e+00  -3.9096353e+07
   4.6948983e-10  -4.7798408e-03   4.4216177e+00   3.0482319e+00  -3.8888732e+07
   4.7015672e-10  -4.7539740e-03   4.4185519e+00   3.0522559e+00  -3.8682166e+07
   4.7082361e-10  -4.7282446e-03   4.4155003e+00   3.0562607e+00  -3.8476648e+07
   4.7149050e-10  -4.7026520e-03   4.4124626e+00   3.0602466e+00  -3.8272176e+07
   4.7215739e-10  -4.6771953e-03   4.4094389e+00   3.0642135e+00  -3.8068743e+07
   4.7282427e-10  -4.6518740e-03   4.4064292e+00   3.0681614e+00  -3.7866346e+07
   4.7349116e-10  -4.6266874e-03   4.4034333e+00   3.0720905e+00  -3.7664980e+07
   4.7415805e-10  -4.6016347e-03   4.4004513e+00   3.0760009e+00  -3.7464639e+07
   4.7482494e-10  -4.5767153e-03   4.3974831e+00   3.0798925e+00  -3.7265320e+07
   4.7549183e-10  -4.5519284e-03   4.3945287e+00   3.0837655e+00  -3.7067018e+07
   4.7615872e-10  -4.5272735e-03   4.3915880e+00   3.0876199e+00  -3.6869728e+07
   4.7682561e-10  -4.5027499e-03   4.3886610e+00   3.0914559e+00  -3.6673445e+07
   4.7749250e-10  -4.4783568e-03   4.3857476e+00   3.0952733e+00  -3.6478165e+07
   4.7815939e-10  -4.4540936e-03   4.3828478e+00   3.0990724e+00  -3.6283883e+07
   4.7882628e-10  -4.4299597e-03   4.3799616e+00   3.1028532e+00  -3.6090595e+07
   4.7949316e-10  -4.4059543e-03   4.3770888e+00   3.1066158e+00  -3.5898296e+07
   4.8016005e-10  -4.3820769e-03   4.3742295e+00   3.1103602e+00  -3.5706982e+07
   4.8082694e-10  -4.3583267e-03   4.3713836e+00   3.1140864e+00  -3.5516648e+07
   4.8149383e-10  -4.3347032e-03   4.3685511e+00   3.1177947e+00  -3.5327289e+07
   4.8216072e-10  -4.3112056e-03   4.3657318e+00   3.1214849e+00  -3.5138901e+07
   4.8282761e-10  -4.2878334e-03   4.3629259e+00   3.1251573e+00  -3.4951480e+07
   4.8349450e-10  -4.2645858e-03   4.3601332e+00   3.1288118e+00  -3.4765021e+07
   4.8416139e-10  -4.2414623e-03   4.3573537e+00   3.1324486e+00  -3.4579519e+07
   4.8482828e-10  -4.2184622e-03   4.3545873e+00   3.1360677e+00  -3.4394970e+07
   4.8549517e-10  -4.1955848e-03   4.3518340e+00   3.1396691e+00  -3.4211370e+07
   4.8616205e-10  -4.1728296e-03   4.3490937e+00   3.1432529e+00  -3.4028715e+07
   4.8682894e-10  -4.1501958e-03   4.3463664e+00   3.1468193e+00  -3.3846999e+07
   4.8749583e-10  -4.1276830e-03   4.3436521e+00   3.1503682e+00  -3.3666219e+07
   4.8816272e-10  -4.1052904e-03   4.3409508e+00   3.1538998e+00  -3.3486370e+07
   4.8882961e-10  -4.0830175e-03   4.3382622e+00   3.1574140e+00  -3.3307447e+07
   4.8949650e-10  -4.0608636e-03   4.3355865e+00   3.1609111e+00  -3.3129447e+07
   4.9016339e-10  -4.0388281e-03   4.3329236e+00   3.1643909e+00  -3.2952365e+07
   4.9083028e-10  -4.0169104e-03   4.3302734e+00   3.1678537e+00  -3.2776197e+07
   4.9149717e-10  -3.9951099e-03   4.3276358e+00   3.1712994e+00  -3.2600938e+07
   4.9216405e-10  -3.9734259e-03   4.3250109e+00   3.1747282e+00  -3.2426584e+07
   4.9283094e-10  -3.9518580e-03   4.3223986e+00   3.1781401e+00  -3.2253131e+07
   4.9349783e-10  -3.9304054e-03   4.3197988e+00   3.1815352e+00  -3.2080575e+07
   4.9416472e-10  -3.9090677e-03   4.3172116e+00   3.1849135e+00  -3.1908911e+07
   4.9483161e-10  -3.8878441e-03   4.3146367e+00   3.1882751e+00  -3.1738135e+07
   4.9549850e-10  -3.8667341e-03   4.3120743e+00   3.1916201e+00  -3.1568244e+07
   4.9616539e-10  -3.8457372e-03   4.3095242e+00   3.1949486e+00  -3.1399232e+07
   4.9683228e-10  -3.8248526e-03   4.3069864e+00   3.1982605e+00  -3.1231095e+07
   4.9749917e-10  -3.8040799e-03   4.3044609e+00   3.2015560e+00  -3.1063830e+07
   4.9816606e-10  -3.7834185e-03   4.3019476e+00   3.2048352e+00  -3.0897432e+07
   4.9883294e-10  -3.7628678e-03   4.2994465e+00   3.2080981e+00  -3.0731898e+07
   4.9949983e-10  -3.7424272e-03   4.2969575e+00   3.2113448e+00  -3.0567222e+07
   5.0016672e-10  -3.7220961e-03   4.2944806e+00   3.2145753e+00  -3.0403401e+07
   5.0083361e-10  -3.7018740e-03   4.2920157e+00   3.2177897e+00  -3.0240431e+07
   5.0150050e-10  -3.6817603e-03   4.2895628e+00   3.2209881e+00  -3.0078307e+07
   5.0216739e-10  -3.6617545e-03   4.2871218e+00   3.2241705e+00  -2.9917027e+07
   5.0283428e-10  -3.6418559e-03   4.2846927e+00   3.2273371e+00  -2.9756585e+07
   5.0350117e-10  -3.6220641e-03   4.2822755e+00   3.2304878e+00  -2.9596977e+07
   5.0416806e-10  -3.6023784e-03   4.2798701e+00   3.2336228e+00  -2.9438200e+07
   5.0483494e-10  -3.5827984e-03   4.2774764e+00   3.2367421e+00  -2.9280249e+07
   5.0550183e-10  -3.5633234e-03   4.2750944e+00   3.2398458e+00  -2.9123121e+07
   5.0616872e-10  -3.5439529e-03   4.2727241e+00   3.2429339e+00  -2.8966812e+07
   5.0683561e-10  -3.5246865e-03   4.2703654e+00   3.2460065e+00  -2.8811317e+07
   5.0750250e-10  -3.5055234e-03   4.2680182e+00   3.2490637e+00  -2.8656633e+07
   5.0816939e-10  -3.4864633e-03   4.2656826e+00   3.2521055e+00  -2.8502756e+07
   5.0883628e-10  -3.4675055e-03   4.2633584e+00   3.2551321e+00  -2.8349682e+07
   5.0950317e-10  -3.4486495e-03   4.2610457e+00   3.2581434e+00  -2.8197406e+07
   5.1017006e-10  -3.4298949e-03   4.2587444e+00   3.2611395e+00  -2.8045926e+07
   5.1083695e-10  -3.4112410e-03   4.2564544e+00   3.2641206e+00  -2.7895237e+07
   5.1150383e-10  -3.3926873e-03   4.2541757e+00   3.2670866e+00  -2.7745335e+07
   5.1217072e-10  -3.3742333e-03   4.2519082e+00   3.2700376e+00  -2.7596216e+07
   5.1283761e-10  -3.3558786e-03   4.2496520e+00   3.2729738e+00  -2.7447878e+07
   5.1350450e-10  -3.3376225e-03   4.2474069e+00   3.2758951e+00  -2.7300315e+07
   5.1417139e-10  -3.3194646e-03   4.2451729e+00   3.2788016e+00  -2.7153525e+07
   5.1483828e-10  -3.3014043e-03   4.2429499e+00   3.2816934e+00  -2.7007502e+07
   5.1550517e-10  -3.2834411e-03   4.2407380e+00   3.2845706e+00  -2.6862245e+07
   5.1617206e-10  -3.2655746e-03   4.2385370e+00   3.2874332e+00  -2.6717748e+07
   5.1683895e-10  -3.2478042e-03   4.2363470e+00   3.2902813e+00  -2.6574008e+07
   5.1750584e-10  -3.2301294e-03   4.2341678e+00   3.2931149e+00  -2.6431022e+07
   5.1817272e-10  -3.2125497e-03   4.2319995e+00   3.2959341e+00  -2.6288785e+07
   5.1883961e-10  -3.1950646e-03   4.2298420e+00   3.2987390e+00  -2.6147294e+07
   5.1950650e-10  -3.1776737e-03   4.2276952e+00   3.3015297e+00  -2.6006546e+07
   5.2017339e-10  -3.1603763e-03   4.2255591e+00   3.3043061e+00  -2.5866536e+07
   5.2084028e-10  -3.1431721e-03   4.2234337e+00   3.3070685e+00  -2.5727262e+07
   5.2150717e-10  -3.1260606e-03   4.2213189e+00   3.3098167e+00  -2.5588718e+07
   5.2217406e-10  -3.1090412e-03   4.2192146e+00   3.3125509e+00  -2.5450903e+07
   5.2284095e-10  -3.0921134e-03   4.2171208e+00   3.3152712e+00  -2.5313812e+07
   5.2350784e-10  -3.0752769e-03   4.2150376e+00   3.3179776e+00  -2.5177441e+07
   5.2417472e-10  -3.0585311e-03   4.2129647e+00   3.3206702e+00  -2.5041787e+07
   5.2484161e-10  -3.0418755e-03   4.2109023e+00   3.3233490e+00  -2.4906847e+07
   5.2550850e-10  -3.0253096e-03   4.2088501e+00   3.3260142e+00  -2.4772617e+07
   5.2617539e-10  -3.0088331e-03   4.2068083e+00   3.3286657e+00  -2.4639094e+07
   5.2684228e-10  -2.9924453e-03   4.2047767e+00   3.3313036e+00  -2.4506273e+07
   5.2750917e-10  -2.9761459e-03   4.2027554e+00   3.3339280e+00  -2.4374152e+07
   5.2817606e-10  -2.9599344e-03   4.2007441e+00   3.3365389e+00  -2.4242726e+07
   5.2884295e-10  -2.9438104e-03   4.1987431e+00   3.3391365e+00  -2.4111993e+07
   5.2950984e-10  -2.9277732e-03   4.1967520e+00   3.3417207e+00  -2.3981950e+07
   5.3017673e-10  -2.9118226e-03   4.1947711e+00   3.3442917e+00  -2.3852591e+07
   5.3084361e-10  -2.8959580e-03   4.1928001e+00   3.3468495e+00  -2.3723916e+07
   5.3151050e-10  -2.8801791e-03   4.1908390e+00   3.3493941e+00  -2.3595918e+07
   5.3217739e-10  -2.8644852e-03   4.1888878e+00   3.3519256e+00  -2.3468597e+07
   5.3284428e-10  -2.8488761e-03   4.1869465e+00   3.3544441e+00  -2.3341947e+07
   5.3351117e-10  -2.8333511e-03   4.1850150e+00   3.3569497e+00  -2.3215966e+07
   5.3417806e-10  -2.8179100e-03   4.1830933e+00   3.3594423e+00  -2.3090650e+07
   5.3484495e-10  -2.8025523e-03   4.1811813e+00   3.3619221e+00  -2.2965996e+07
   5.3551184e-10  -2.7872774e-03   4.1792790e+00   3.3643891e+00  -2.2842001e+07
   5.3617873e-10  -2.7720851e-03   4.1773863e+00   3.3668434e+00  -2.2718662e+07
   5.3684562e-10  -2.7569747e-03   4.1755032e+00   3.3692850e+00  -2.2595974e+07
   5.3751250e-10  -2.7419460e-03   4.1736297e+00   3.3717140e+00  -2.2473935e+07
   5.3817939e-10  -2.7269985e-03   4.1717657e+00   3.3741305e+00  -2.2352542e+07
   5.3884628e-10  -2.7121317e-03   4.1699112e+00   3.3765344e+00  -2.2231791e+07
   5.3951317e-10  -2.6973452e-03   4.1680660e+00   3.3789260e+00  -2.2111679e+07
   5.4018006e-10  -2.6826386e-03   4.1662303e+00   3.3813051e+00  -2.1992203e+07
   5.4084695e-10  -2.6680115e-03   4.1644039e+00   3.3836720e+00  -2.1873360e+07
   5.4151384e-10  -2.6534635e-03   4.1625868e+00   3.3860265e+00  -2.1755146e+07
   5.4218073e-10  -2.6389940e-03   4.1607790e+00   3.3883689e+00  -2.1637558e+07
   5.4284762e-10  -2.6246028e-03   4.1589803e+00   3.3906992e+00  -2.1520593e+07
   5.4351450e-10  -2.6102894e-03   4.1571909e+00   3.3930173e+00  -2.1404249e+07
   5.4418139e-10  -2.5960534e-03   4.1554106e+00   3.3953234e+00  -2.1288521e+07
   5.4484828e-10  -2.5818943e-03   4.1536394e+00   3.3976176e+00  -2.1173407e+07
   5.4551517e-10  -2.5678118e-03   4.1518772e+00   3.3998998e+00  -2.1058903e+07
   5.4618206e-10  -2.5538055e-03   4.1501240e+00   3.4021702e+00  -2.0945007e+07
   5.4684895e-10  -2.5398750e-03   4.1483798e+00   3.4044288e+00  -2.0831716e+07
   5.4751584e-10  -2.5260197e-03   4.1466445e+00   3.4066756e+00  -2.0719025e+07
   5.4818273e-10  -2.5122395e-03   4.1449181e+00   3.4089107e+00  -2.0606933e+07
   5.4884962e-10  -2.4985338e-03   4.1432006e+00   3.4111343e+00  -2.0495437e+07
   5.4951651e-10  -2.4849023e-03   4.1414919e+00   3.4133462e+00  -2.0384532e+07
   5.5018339e-10  -2.4713445e-03   4.1397919e+00   3.4155466e+00  -2.0274217e+07
   5.5085028e-10  -2.4578601e-03   4.1381006e+00   3.4177355e+00  -2.0164488e+07
   5.5151717e-10  -2.4444487e-03   4.1364180e+00   3.4199130e+00  -2.0055343e+07
   5.5218406e-10  -2.4311099e-03   4.1347441e+00   3.4220792e+00  -1.9946777e+07
   5.5285095e-10  -2.4178433e-03   4.1330788e+00   3.4242341e+00  -1.9838789e+07
   5.5351784e-10  -2.4046486e-03   4.1314220e+00   3.4263777e+00  -1.9731376e+07
   5.5418473e-10  -2.3915253e-03   4.1297738e+00   3.4285101e+00  -1.9624534e+07
   5.5485162e-10  -2.3784730e-03   4.1281340e+00   3.4306314e+00  -1.9518260e+07
   5.5551851e-10  -2.3654915e-03   4.1265027e+00   3.4327415e+00  -1.9412552e+07
   5.5618540e-10  -2.3525802e-03   4.1248798e+00   3.4348407e+00  -1.9307407e+07
   5.5685228e-10  -2.3397389e-03   4.1232652e+00   3.4369289e+00  -1.9202821e+07
   5.5751917e-10  -2.3269672e-03   4.1216590e+00   3.4390061e+00  -1.9098793e+07
   5.5818606e-10  -2.3142646e-03   4.1200610e+00   3.4410725e+00  -1.8995319e+07
   5.5885295e-10  -2.3016309e-03   4.1184713e+00   3.4431280e+00  -1.8892396e+07
   5.5951984e-10  -2.2890656e-03   4.1168899e+00   3.4451728e+00  -1.8790022e+07
   5.6018673e-10  -2.2765684e-03   4.1153165e+00   3.4472069e+00  -1.8688193e+07
   5.6085362e-10  -2.2641390e-03   4.1137514e+00   3.4492303e+00  -1.8586907e+07
   5.6152051e-10  -2.2517769e-03   4.1121943e+00   3.4512431e+00  -1.8486161e+07
   5.6218740e-10  -2.2394818e-03   4.1106452e+00   3.4532453e+00  -1.8385953e+07
   5.6285428e-10  -2.2272534e-03   4.1091042e+00   3.4552370e+00  -1.8286279e+07
   5.6352117e-10  -2.2150913e-03   4.1075712e+00   3.4572183e+00  -1.8187137e+07
   5.6418806e-10  -2.2029951e-03   4.1060461e+00   3.4591891e+00  -1.8088525e+07
   5.6485495e-10  -2.1909646e-03   4.1045289e+00   3.4611496e+00  -1.7990438e+07
   5.6552184e-10  -2.1789992e-03   4.1030196e+00   3.4630998e+00  -1.7892875e+07
   5.6618873e-10  -2.1670988e-03   4.1015180e+00   3.4650397e+00  -1.7795834e+07
   5.6685562e-10  -2.1552629e-03   4.1000243e+00   3.4669695e+00  -1.7699310e+07
   5.6752251e-10  -2.1434912e-03   4.0985384e+00   3.4688891e+00  -1.7603302e+07
   5.6818940e-10  -2.1317833e-03   4.0970601e+00   3.4707985e+00  -1.7507807e+07
   5.6885629e-10  -2.1201390e-03   4.0955896e+00   3.4726980e+00  -1.7412823e+07
   5.6952317e-10  -2.1085578e-03   4.0941267e+00   3.4745874e+00  -1.7318346e+07
   5.7019006e-10  -2.0970395e-03   4.0926714e+00   3.4764669e+00  -1.7224374e+07
   5.7085695e-10  -2.0855837e-03   4.0912236e+00   3.4783364e+00  -1.7130904e+07
   5.7152384e-10  -2.0741901e-03   4.0897834e+00   3.4801961e+00  -1.7037935e+07
   5.7219073e-10  -2.0628583e-03   4.0883507e+00   3.4820460e+00  -1.6945462e+07
   5.7285762e-10  -2.0515880e-03   4.0869254e+00   3.4838862e+00  -1.6853485e+07
   5.7352451e-10  -2.0403789e-03   4.0855076e+00   3.4857166e+00  -1.6761999e+07
   5.7419140e-10  -2.0292306e-03   4.0840972e+00   3.4875374e+00  -1.6671003e+07
   5.7485829e-10  -2.0181429e-03   4.0826941e+00   3.4893485e+00  -1.6580495e+07
   5.7552518e-10  -2.0071154e-03   4.0812983e+00   3.4911501e+00  -1.6490470e+07
   5.7619206e-10  -1.9961477e-03   4.0799099e+00   3.4929422e+00  -1.6400928e+07
   5.7685895e-10  -1.9852396e-03   4.0785286e+00   3.4947248e+00  -1.6311865e+07
   5.7752584e-10  -1.9743907e-03   4.0771546e+00   3.4964980e+00  -1.6223280e+07
   5.7819273e-10  -1.9636008e-03   4.0757878e+00   3.4982618e+00  -1.6135168e+07
   5.7885962e-10  -1.9528694e-03   4.0744281e+00   3.5000162e+00  -1.6047529e+07
   5.7952651e-10  -1.9421964e-03   4.0730755e+00   3.5017614e+00  -1.5960360e+07
   5.8019340e-10  -1.9315813e-03   4.0717300e+00   3.5034974e+00  -1.5873658e+07
   5.8086029e-10  -1.9210239e-03   4.0703915e+00   3.5052241e+00  -1.5787421e+07
   5.8152718e-10  -1.9105239e-03   4.0690600e+00   3.5069418e+00  -1.5701646e+07
   5.8219406e-10  -1.9000809e-03   4.0677355e+00   3.5086503e+00  -1.5616331e+07
   5.8286095e-10  -1.8896946e-03   4.0664179e+00   3.5103497e+00  -1.5531473e+07
   5.8352784e-10  -1.8793648e-03   4.0651073e+00   3.5120402e+00  -1.5447071e+07
   5.8419473e-10  -1.8690912e-03   4.0638035e+00   3.5137217e+00  -1.5363121e+07
   5.8486162e-10  -1.8588733e-03   4.0625065e+00   3.5153943e+00  -1.5279622e+07
   5.8552851e-10  -1.8487110e-03   4.0612163e+00   3.5170580e+00  -1.5196571e+07
   5.8619540e-10  -1.8386040e-03   4.0599329e+00   3.5187129e+00  -1.5113966e+07
   5.8686229e-10  -1.8285519e-03   4.0586563e+00   3.5203590e+00  -1.5031805e+07
   5.8752918e-10  -1.8185544e-03   4.0573863e+00   3.5219963e+00  -1.4950084e+07
   5.8819607e-10  -1.8086113e-03   4.0561230e+00   3.5236250e+00  -1.4868802e+07
   5.8886295e-10  -1.7987223e-03   4.0548664e+00   3.5252450e+00  -1.4787957e+07
   5.8952984e-10  -1.7888870e-03   4.0536163e+00   3.5268564e+00  -1.4707546e+07
   5.9019673e-10  -1.7791052e-03   4.0523728e+00   3.5284592e+00  -1.4627567e+07
   5.9086362e-10  -1.7693766e-03   4.0511359e+00   3.5300536e+00  -1.4548018e+07
   5.9153051e-10  -1.7597009e-03   4.0499054e+00   3.5316394e+00  -1.4468897e+07
   5.9219740e-10  -1.7500778e-03   4.0486815e+00   3.5332168e+00  -1.4390200e+07
   5.9286429e-10  -1.7405071e-03   4.0474639e+00   3.5347858e+00  -1.4311927e+07
   5.9353118e-10  -1.7309885e-03   4.0462528e+00   3.5363465e+00  -1.4234074e+07
   5.9419807e-10  -1.7215216e-03   4.0450481e+00   3.5378989e+00  -1.4156640e+07
   5.9486495e-10  -1.7121062e-03   4.0438497e+00   3.5394430e+00  -1.4079623e+07
   5.9553184e-10  -1.7027421e-03   4.0426576e+00   3.5409789e+00  -1.4003020e+07
   5.9619873e-10  -1.6934289e-03   4.0414718e+00   3.5425066e+00  -1.3926828e+07
   5.9686562e-10  -1.6841663e-03   4.0402922e+00   3.5440261e+00  -1.3851047e+07
   5.9753251e-10  -1.6749542e-03   4.0391189e+00   3.5455376e+00  -1.3775674e+07
   5.9819940e-10  -1.6657922e-03   4.0379518e+00   3.5470410e+00  -1.3700706e+07
   5.9886629e-10  -1.6566801e-03   4.0367908e+00   3.5485364e+00  -1.3626141e+07
   5.9953318e-10  -1.6476176e-03   4.0356359e+00   3.5500239e+00  -1.3551978e+07
   6.0020007e-10  -1.6386044e-03   4.0344872e+00   3.5515034e+00  -1.3478214e+07
   6.0086696e-10  -1.6296402e-03   4.0333445e+00   3.5529750e+00  -1.3404848e+07
   6.0153384e-10  -1.6207249e-03   4.0322078e+00   3.5544387e+00  -1.3331876e+07
   6.0220073e-10  -1.6118581e-03   4.0310772e+00   3.5558946e+00  -1.3259298e+07
   6.0286762e-10  -1.6030396e-03   4.0299525e+00   3.5573428e+00  -1.3187110e+07
   6.0353451e-10  -1.5942690e-03   4.0288338e+00   3.5587832e+00  -1.3115311e+07
   6.0420140e-10  -1.5855463e-03   4.0277209e+00   3.5602160e+00  -1.3043900e+07
   6.0486829e-10  -1.5768710e-03   4.0266140e+00   3.5616411e+00  -1.2972873e+07
   6.0553518e-10  -1.5682430e-03   4.0255130e+00   3.5630586e+00  -1.2902228e+07
   6.0620207e-10  -1.5596619e-03   4.0244177e+00   3.5644685e+00  -1.2831965e+07
   6.0686896e-10  -1.5511276e-03   4.0233283e+00   3.5658708e+00  -1.2762080e+07
   6.0753585e-10  -1.5426398e-03   4.0222446e+00   3.5672657e+00  -1.2692572e+07
   6.0820273e-10  -1.5341982e-03   4.0211666e+00   3.5686531e+00  -1.2623439e+07
   6.0886962e-10  -1.5258025e-03   4.0200944e+00   3.5700331e+00  -1.2554679e+07
   6.0953651e-10  -1.5174527e-03   4.0190279e+00   3.5714057e+00  -1.2486289e+07
   6.1020340e-10  -1.5091483e-03   4.0179670e+00   3.5727710e+00  -1.2418268e+07
   6.1087029e-10  -1.5008891e-03   4.0169117e+00   3.5741290e+00  -1.2350615e+07
   6.1153718e-10  -1.4926749e-03   4.0158620e+00   3.5754797e+00  -1.2283326e+07
   6.1220407e-10  -1.4845055e-03   4.0148179e+00   3.5768232e+00  -1.2216400e+07
   6.1287096e-10  -1.4763806e-03   4.0137794e+00   3.5781594e+00  -1.2149836e+07
   6.1353785e-10  -1.4683000e-03   4.0127463e+00   3.5794886e+00  -1.2083630e+07
   6.1420473e-10  -1.4602634e-03   4.0117188e+00   3.5808106e+00  -1.2017783e+07
   6.1487162e-10  -1.4522706e-03   4.0106966e+00   3.5821255e+00  -1.1952290e+07
   6.1553851e-10  -1.4443214e-03   4.0096800e+00   3.5834334e+00  -1.1887151e+07
   6.1620540e-10  -1.4364155e-03   4.0086687e+00   3.5847342e+00  -1.1822364e+07
   6.1687229e-10  -1.4285527e-03   4.0076628e+00   3.5860281e+00  -1.1757927e+07
   6.1753918e-10  -1.4207327e-03   4.0066622e+00   3.5873151e+00  -1.1693837e+07
   6.1820607e-10  -1.4129554e-03   4.0056670e+00   3.5885951e+00  -1.1630094e+07
   6.1887296e-10  -1.4052205e-03   4.0046770e+00   3.5898683e+00  -1.1566696e+07
   6.1953985e-10  -1.3975277e-03   4.0036923e+00   3.5911347e+00  -1.1503639e+07
   6.2020674e-10  -1.3898769e-03   4.0027128e+00   3.5923943e+00  -1.1440924e+07
   6.2087362e-10  -1.3822677e-03   4.0017386e+00   3.5936471e+00  -1.1378547e+07
   6.2154051e-10  -1.3747001e-03   4.0007695e+00   3.5948932e+00  -1.1316507e+07
   6.2220740e-10  -1.3671737e-03   3.9998056e+00   3.5961326e+00  -1.1254803e+07
   6.2287429e-10  -1.3596884e-03   3.9988469e+00   3.5973653e+00  -1.1193432e+07
   6.2354118e-10  -1.3522439e-03   3.9978932e+00   3.5985914e+00  -1.1132393e+07
   6.2420807e-10  -1.3448400e-03   3.9969446e+00   3.5998110e+00  -1.1071684e+07
   6.2487496e-10  -1.3374765e-03   3.9960011e+00   3.6010240e+00  -1.1011303e+07
   6.2554185e-10  -1.3301531e-03   3.9950626e+00   3.6022304e+00  -1.0951249e+07
   6.2620874e-10  -1.3228696e-03   3.9941291e+00   3.6034304e+00  -1.0891520e+07
   6.2687563e-10  -1.3156259e-03   3.9932006e+00   3.6046240e+00  -1.0832113e+07
   6.2754251e-10  -1.3084217e-03   3.9922770e+00   3.6058111e+00  -1.0773028e+07
   6.2820940e-10  -1.3012568e-03   3.9913583e+00   3.6069919e+00  -1.0714263e+07
   6.2887629e-10  -1.2941310e-03   3.9904446e+00   3.6081663e+00  -1.0655815e+07
   6.2954318e-10  -1.2870441e-03   3.9895357e+00   3.6093344e+00  -1.0597684e+07
   6.3021007e-10  -1.2799958e-03   3.9886317e+00   3.6104962e+00  -1.0539867e+07
   6.3087696e-10  -1.2729860e-03   3.9877325e+00   3.6116517e+00  -1.0482364e+07
   6.3154385e-10  -1.2660144e-03   3.9868381e+00   3.6128011e+00  -1.0425171e+07
   6.3221074e-10  -1.2590809e-03   3.9859485e+00   3.6139442e+00  -1.0368288e+07
   6.3287763e-10  -1.2521852e-03   3.9850636e+00   3.6150812e+00  -1.0311713e+07
   6.3354451e-10  -1.2453271e-03   3.9841834e+00   3.6162121e+00  -1.0255444e+07
   6.3421140e-10  -1.2385064e-03   3.9833080e+00   3.6173369e+00  -1.0199480e+07
   6.3487829e-10  -1.2317230e-03   3.9824372e+00   3.6184557e+00  -1.0143819e+07
   6.3554518e-10  -1.2249766e-03   3.9815711e+00   3.6195684e+00  -1.0088459e+07
   6.3621207e-10  -1.2182670e-03   3.9807096e+00   3.6206751e+00  -1.0033400e+07
   6.3687896e-10  -1.2115940e-03   3.9798528e+00   3.6217759e+00  -9.9786381e+06
   6.3754585e-10  -1.2049575e-03   3.9790005e+00   3.6228707e+00  -9.9241731e+06
   6.3821274e-10  -1.1983571e-03   3.9781527e+00   3.6239597e+00  -9.8700032e+06
   6.3887963e-10  -1.1917928e-03   3.9773095e+00   3.6250427e+00  -9.8161268e+06
   6.3954652e-10  -1.1852644e-03   3.9764708e+00   3.6261200e+00  -9.7625423e+06
   6.4021340e-10  -1.1787716e-03   3.9756366e+00   3.6271914e+00  -9.7092482e+06
   6.4088029e-10  -1.1723142e-03   3.9748069e+00   3.6282571e+00  -9.6562429e+06
   6.4154718e-10  -1.1658920e-03   3.9739816e+00   3.6293170e+00  -9.6035248e+06
   6.4221407e-10  -1.1595050e-03   3.9731607e+00   3.6303712e+00  -9.5510925e+06
   6.4288096e-10  -1.1531528e-03   3.9723442e+00   3.6314197e+00  -9.4989445e+06
   6.4354785e-10  -1.1468353e-03   3.9715321e+00   3.6324625e+00  -9.4470791e+06
   6.4421474e-10  -1.1405523e-03   3.9707243e+00   3.6334998e+00  -9.3954949e+06
   6.4488163e-10  -1.1343036e-03   3.9699209e+00   3.6345314e+00  -9.3441904e+06
   6.4554852e-10  -1.1280890e-03   3.9691218e+00   3.6355575e+00  -9.2931641e+06
   6.4621541e-10  -1.1219083e-03   3.9683269e+00   3.6365780e+00  -9.2424146e+06
   6.4688229e-10  -1.1157615e-03   3.9675363e+00   3.6375930e+00  -9.1919402e+06
   6.4754918e-10  -1.1096481e-03   3.9667500e+00   3.6386026e+00  -9.1417397e+06
   6.4821607e-10  -1.1035682e-03   3.9659678e+00   3.6396067e+00  -9.0918114e+06
   6.4888296e-10  -1.0975215e-03   3.9651899e+00   3.6406054e+00  -9.0421540e+06
   6.4954985e-10  -1.0915078e-03   3.9644161e+00   3.6415987e+00  -8.9927659e+06
   6.5021674e-10  -1.0855269e-03   3.9636465e+00   3.6425866e+00  -8.9436459e+06
   6.5088363e-10  -1.0795787e-03   3.9628810e+00   3.6435692e+00  -8.8947923e+06
   6.5155052e-10  -1.0736631e-03   3.9621197e+00   3.6445464e+00  -8.8462039e+06
   6.5221741e-10  -1.0677797e-03   3.9613624e+00   3.6455184e+00  -8.7978792e+06
   6.5288429e-10  -1.0619284e-03   3.9606091e+00   3.6464852e+00  -8.7498167e+06
   6.5355118e-10  -1.0561092e-03   3.9598600e+00   3.6474467e+00  -8.7020151e+06
   6.5421807e-10  -1.0503217e-03   3.9591148e+00   3.6484031e+00  -8.6544729e+06
   6.5488496e-10  -1.0445659e-03   3.9583736e+00   3.6493542e+00  -8.6071889e+06
   6.5555185e-10  -1.0388414e-03   3.9576365e+00   3.6503002e+00  -8.5601615e+06
   6.5621874e-10  -1.0331483e-03   3.9569033e+00   3.6512411e+00  -8.5133895e+06
   6.5688563e-10  -1.0274863e-03   3.9561740e+00   3.6521770e+00  -8.4668714e+06
   6.5755252e-10  -1.0218552e-03   3.9554486e+00   3.6531077e+00  -8.4206060e+06
   6.5821941e-10  -1.0162549e-03   3.9547272e+00   3.6540334e+00  -8.3745917e+06
   6.5888630e-10  -1.0106852e-03   3.9540096e+00   3.6549542e+00  -8.3288274e+06
   6.5955318e-10  -1.0051459e-03   3.9532959e+00   3.6558699e+00  -8.2833117e+06
   6.6022007e-10  -9.9963692e-04   3.9525860e+00   3.6567807e+00  -8.2380431e+06
   6.6088696e-10  -9.9415803e-04   3.9518799e+00   3.6576866e+00  -8.1930205e+06
   6.6155385e-10  -9.8870909e-04   3.9511776e+00   3.6585875e+00  -8.1482425e+06
   6.6222074e-10  -9.8328992e-04   3.9504791e+00   3.6594836e+00  -8.1037077e+06
   6.6288763e-10  -9.7790037e-04   3.9497844e+00   3.6603748e+00  -8.0594149e+06
   6.6355452e-10  -9.7254029e-04   3.9490934e+00   3.6612612e+00  -8.0153628e+06
   6.6422141e-10  -9.6720950e-04   3.9484061e+00   3.6621428e+00  -7.9715501e+06
   6.6488830e-10  -9.6190785e-04   3.9477225e+00   3.6630197e+00  -7.9279754e+06
   6.6555519e-10  -9.5663518e-04   3.9470426e+00   3.6638918e+00  -7.8846376e+06
   6.6622207e-10  -9.5139134e-04   3.9463664e+00   3.6647592e+00  -7.8415353e+06
   6.6688896e-10  -9.4617616e-04   3.9456938e+00   3.6656218e+00  -7.7986674e+06
   6.6755585e-10  -9.4098949e-04   3.9450248e+00   3.6664798e+00  -7.7560324e+06
   6.6822274e-10  -9.3583118e-04   3.9443594e+00   3.6673332e+00  -7.7136292e+06
   6.6888963e-10  -9.3070107e-04   3.9436976e+00   3.6681819e+00  -7.6714565e+06
   6.6955652e-10  -9.2559901e-04   3.9430394e+00   3.6690261e+00  -7.6295132e+06
   6.7022341e-10  -9.2052484e-04   3.9423847e+00   3.6698656e+00  -7.5877978e+06
   6.7089030e-10  -9.1547842e-04   3.9417336e+00   3.6707006e+00  -7.5463094e+06
   6.7155719e-10  -9.1045960e-04   3.9410859e+00   3.6715311e+00  -7.5050465e+06
   6.7222407e-10  -9.0546821e-04   3.9404418e+00   3.6723571e+00  -7.4640080e+06
   6.7289096e-10  -9.0050412e-04   3.9398011e+00   3.6731786e+00  -7.4231928e+06
   6.7355785e-10  -8.9556718e-04   3.9391639e+00   3.6739957e+00  -7.3825995e+06
   6.7422474e-10  -8.9065723e-04   3.9385301e+00   3.6748083e+00  -7.3422270e+06
   6.7489163e-10  -8.8577414e-04   3.9378997e+00   3.6756165e+00  -7.3020742e+06
   6.7555852e-10  -8.8091775e-04   3.9372727e+00   3.6764204e+00  -7.2621397e+06
   6.7622541e-10  -8.7608792e-04   3.9366491e+00   3.6772199e+00  -7.2224226e+06
   6.7689230e-10  -8.7128451e-04   3.9360289e+00   3.6780150e+00  -7.1829215e+06
   6.7755919e-10  -8.6650736e-04   3.9354120e+00   3.6788058e+00  -7.1436354e+06
   6.7822608e-10  -8.6175635e-04   3.9347984e+00   3.6795924e+00  -7.1045630e+06
   6.7889296e-10  -8.5703132e-04   3.9341882e+00   3.6803747e+00  -7.0657033e+06
   6.7955985e-10  -8.5233214e-04   3.9335813e+00   3.6811527e+00  -7.0270550e+06
   6.8022674e-10  -8.4765866e-04   3.9329776e+00   3.6819265e+00  -6.9886170e+06
   6.8089363e-10  -8.4301075e-04   3.9323772e+00   3.6826961e+00  -6.9503883e+06
   6.8156052e-10  -8.3838826e-04   3.9317800e+00   3.6834616e+00  -6.9123677e+06
   6.8222741e-10  -8.3379105e-04   3.9311860e+00   3.6842229e+00  -6.8745540e+06
   6.8289430e-10  -8.2921900e-04   3.9305953e+00   3.6849800e+00  -6.8369461e+06
   6.8356119e-10  -8.2467196e-04   3.9300077e+00   3.6857331e+00  -6.7995430e+06
   6.8422808e-10  -8.2014980e-04   3.9294234e+00   3.6864820e+00  -6.7623435e+06
   6.8489496e-10  -8.1565238e-04   3.9288421e+00   3.6872269e+00  -6.7253466e+06
   6.8556185e-10  -8.1117956e-04   3.9282640e+00   3.6879678e+00  -6.6885511e+06
   6.8622874e-10  -8.0673121e-04   3.9276891e+00   3.6887046e+00  -6.6519559e+06
   6.8689563e-10  -8.0230721e-04   3.9271172e+00   3.6894374e+00  -6.6155601e+06
   6.8756252e-10  -7.9790741e-04   3.9265485e+00   3.6901663e+00  -6.5793624e+06
   6.8822941e-10  -7.9353168e-04   3.9259828e+00   3.6908912e+00  -6.5433619e+06
   6.8889630e-10  -7.8917990e-04   3.9254201e+00   3.6916121e+00  -6.5075574e+06
   6.8956319e-10  -7.8485193e-04   3.9248606e+00   3.6923292e+00  -6.4719480e+06
   6.9023008e-10  -7.8054764e-04   3.9243040e+00   3.6930423e+00  -6.4365325e+06
   6.9089697e-10  -7.7626691e-04   3.9237504e+00   3.6937516e+00  -6.4013099e+06
   6.9156385e-10  -7.7200961e-04   3.9231999e+00   3.6944570e+00  -6.3662793e+06
   6.9223074e-10  -7.6777560e-04   3.9226523e+00   3.6951586e+00  -6.3314394e+06
   6.9289763e-10  -7.6356476e-04   3.9221077e+00   3.6958564e+00  -6.2967894e+06
   6.9356452e-10  -7.5937697e-04   3.9215660e+00   3.6965503e+00  -6.2623281e+06
   6.9423141e-10  -7.5521210e-04   3.9210272e+00   3.6972406e+00  -6.2280547e+06
   6.9489830e-10  -7.5107002e-04   3.9204914e+00   3.6979270e+00  -6.1939679e+06
   6.9556519e-10  -7.4695061e-04   3.9199585e+00   3.6986097e+00  -6.1600670e+06
   6.9623208e-10  -7.4285375e-04   3.9194284e+00   3.6992888e+00  -6.1263507e+06
   6.9689897e-10  -7.3877932e-04   3.9189012e+00   3.6999641e+00  -6.0928182e+06
   6.9756586e-10  -7.3472718e-04   3.9183769e+00   3.7006357e+00  -6.0594685e+06
   6.9823274e-10  -7.3069723e-04   3.9178554e+00   3.7013037e+00  -6.0263005e+06
   6.9889963e-10  -7.2668934e-04   3.9173367e+00   3.7019681e+00  -5.9933134e+06
   6.9956652e-10  -7.2270338e-04   3.9168209e+00   3.7026289e+00  -5.9605060e+06
   7.0023341e-10  -7.1873924e-04   3.9163078e+00   3.7032860e+00  -5.9278775e+06
   7.0090030e-10  -7.1479681e-04   3.9157975e+00   3.7039396e+00  -5.8954268e+06
   7.0156719e-10  -7.1087596e-04   3.9152900e+00   3.7045897e+00  -5.8631530e+06
   7.0223408e-10  -7.0697657e-04   3.9147852e+00   3.7052362e+00  -5.8310552e+06
   7.0290097e-10  -7.0309853e-04   3.9142832e+00   3.7058792e+00  -5.7991325e+06
   7.0356786e-10  -6.9924172e-04   3.9137839e+00   3.7065186e+00  -5.7673837e+06
   7.0423474e-10  -6.9540602e-04   3.9132872e+00   3.7071547e+00  -5.7358081e+06
   7.0490163e-10  -6.9159133e-04   3.9127933e+00   3.7077872e+00  -5.7044046e+06
   7.0556852e-10  -6.8779752e-04   3.9123021e+00   3.7084163e+00  -5.6731725e+06
   7.0623541e-10  -6.8402448e-04   3.9118135e+00   3.7090420e+00  -5.6421106e+06
   7.0690230e-10  -6.8027211e-04   3.9113275e+00   3.7096643e+00  -5.6112181e+06
   7.0756919e-10  -6.7654027e-04   3.9108442e+00   3.7102832e+00  -5.5804941e+06
   7.0823608e-10  -6.7282888e-04   3.9103635e+00   3.7108987e+00  -5.5499377e+06
   7.0890297e-10  -6.6913780e-04   3.9098855e+00   3.7115109e+00  -5.5195480e+06
   7.0956986e-10  -6.6546694e-04   3.9094100e+00   3.7121197e+00  -5.4893240e+06
   7.1023675e-10  -6.6181617e-04   3.9089370e+00   3.7127252e+00  -5.4592649e+06
   7.1090363e-10  -6.5818540e-04   3.9084667e+00   3.7133275e+00  -5.4293698e+06
   7.1157052e-10  -6.5457451e-04   3.9079989e+00   3.7139264e+00  -5.3996378e+06
   7.1223741e-10  -6.5098340e-04   3.9075336e+00   3.7145221e+00  -5.3700679e+06
   7.1290430e-10  -6.4741195e-04   3.9070709e+00   3.7151146e+00  -5.3406594e+06
   7.1357119e-10  -6.4386006e-04   3.9066107e+00   3.7157038e+00  -5.3114114e+06
   7.1423808e-10  -6.4032762e-04   3.9061529e+00   3.7162898e+00  -5.2823229e+06
   7.1490497e-10  -6.3681453e-04   3.9056977e+00   3.7168727e+00  -5.2533932e+06
   7.1557186e-10  -6.3332068e-04   3.9052449e+00   3.7174523e+00  -5.2246213e+06
   7.1623875e-10  -6.2984597e-04   3.9047946e+00   3.7180288e+00  -5.1960065e+06
   7.1690564e-10  -6.2639028e-04   3.9043467e+00   3.7186022e+00  -5.1675478e+06
   7.1757252e-10  -6.2295353e-04   3.9039013e+00   3.7191724e+00  -5.1392444e+06
   7.1823941e-10  -6.1953559e-04   3.9034582e+00   3.7197395e+00  -5.1110955e+06
   7.1890630e-10  -6.1613638e-04   3.9030176e+00   3.7203036e+00  -5.0831002e+06
   7.1957319e-10  -6.1275579e-04   3.9025794e+00   3.7208645e+00  -5.0552577e+06
   7.2024008e-10  -6.0939371e-04   3.9021435e+00   3.7214224e+00  -5.0275672e+06
   7.2090697e-10  -6.0605005e-04   3.9017100e+00   3.7219773e+00  -5.0000279e+06
   7.2157386e-10  -6.0272471e-04   3.9012789e+00   3.7225291e+00  -4.9726389e+06
   7.2224075e-10  -5.9941758e-04   3.9008501e+00   3.7230780e+00  -4.9453994e+06
   7.2290764e-10  -5.9612857e-04   3.9004236e+00   3.7236238e+00  -4.9183086e+06
   7.2357452e-10  -5.9285758e-04   3.8999994e+00   3.7241667e+00  -4.8913657e+06
   7.2424141e-10  -5.8960450e-04   3.8995776e+00   3.7247066e+00  -4.8645699e+06
   7.2490830e-10  -5.8636925e-04   3.8991580e+00   3.7252436e+00  -4.8379204e+06
   7.2557519e-10  -5.8315172e-04   3.8987408e+00   3.7257776e+00  -4.8114164e+06
   7.2624208e-10  -5.7995182e-04   3.8983257e+00   3.7263088e+00  -4.7850572e+06
   7.2690897e-10  -5.7676944e-04   3.8979130e+00   3.7268370e+00  -4.7588419e+06
   7.2757586e-10  -5.7360451e-04   3.8975025e+00   3.7273624e+00  -4.7327697e+06
   7.2824275e-10  -5.7045691e-04   3.8970942e+00   3.7278849e+00  -4.7068399e+06
   7.2890964e-10  -5.6732656e-04   3.8966881e+00   3.7284045e+00  -4.6810517e+06
   7.2957653e-10  -5.6421336e-04   3.8962842e+00   3.7289213e+00  -4.6554044e+06
   7.3024341e-10  -5.6111722e-04   3.8958826e+00   3.7294353e+00  -4.6298971e+06
   7.3091030e-10  -5.5803804e-04   3.8954831e+00   3.7299465e+00  -4.6045291e+06
   7.3157719e-10  -5.5497573e-04   3.8950858e+00   3.7304549e+00  -4.5792997e+06
   7.3224408e-10  -5.5193020e-04   3.8946906e+00   3.7309606e+00  -4.5542081e+06
   7.3291097e-10  -5.4890136e-04   3.8942976e+00   3.7314635e+00  -4.5292536e+06
   7.3357786e-10  -5.4588912e-04   3.8939067e+00   3.7319636e+00  -4.5044354e+06
   7.3424475e-10  -5.4289338e-04   3.8935180e+00   3.7324610e+00  -4.4797527e+06
   7.3491164e-10  -5.3991406e-04   3.8931314e+00   3.7329557e+00  -4.4552049e+06
   7.3557853e-10  -5.3695106e-04   3.8927468e+00   3.7334477e+00  -4.4307912e+06
   7.3624542e-10  -5.3400430e-04   3.8923644e+00   3.7339370e+00  -4.4065109e+06
   7.3691230e-10  -5.3107369e-04   3.8919840e+00   3.7344237e+00  -4.3823633e+06
   7.3757919e-10  -5.2815914e-04   3.8916057e+00   3.7349076e+00  -4.3583475e+06
   7.3824608e-10  -5.2526056e-04   3.8912295e+00   3.7353890e+00  -4.3344630e+06
   7.3891297e-10  -5.2237787e-04   3.8908553e+00   3.7358677e+00  -4.3107090e+06
   7.3957986e-10  -5.1951097e-04   3.8904832e+00   3.7363438e+00  -4.2870848e+06
   7.4024675e-10  -5.1665979e-04   3.8901130e+00   3.7368173e+00  -4.2635897e+06
   7.4091364e-10  -5.1382423e-04   3.8897449e+00   3.7372883e+00  -4.2402230e+06
   7.4158053e-10  -5.1100422e-04   3.8893788e+00   3.7377566e+00  -4.2169839e+06
   7.4224742e-10  -5.0819965e-04   3.8890147e+00   3.7382224e+00  -4.1938719e+06
   7.4291430e-10  -5.0541046e-04   3.8886526e+00   3.7386857e+00  -4.1708862e+06
   7.4358119e-10  -5.0263656e-04   3.8882924e+00   3.7391464e+00  -4.1480261e+06
   7.4424808e-10  -4.9987786e-04   3.8879342e+00   3.7396047e+00  -4.1252909e+06
   7.4491497e-10  -4.9713428e-04   3.8875779e+00   3.7400604e+00  -4.1026800e+06
   7.4558186e-10  -4.9440574e-04   3.8872236e+00   3.7405136e+00  -4.0801927e+06
   7.4624875e-10  -4.9169216e-04   3.8868712e+00   3.7409644e+00  -4.0578284e+06
   7.4691564e-10  -4.8899344e-04   3.8865207e+00   3.7414127e+00  -4.0355862e+06
   7.4758253e-10  -4.8630953e-04   3.8861722e+00   3.7418585e+00  -4.0134657e+06
   7.4824942e-10  -4.8364032e-04   3.8858255e+00   3.7423019e+00  -3.9914660e+06
   7.4891631e-10  -4.8098574e-04   3.8854807e+00   3.7427429e+00  -3.9695867e+06
   7.4958319e-10  -4.7834572e-04   3.8851378e+00   3.7431815e+00  -3.9478269e+06
   7.5025008e-10  -4.7572016e-04   3.8847968e+00   3.7436177e+00  -3.9261861e+06
   7.5091697e-10  -4.7310900e-04   3.8844576e+00   3.7440515e+00  -3.9046636e+06
   7.5158386e-10  -4.7051216e-04   3.8841202e+00   3.7444830e+00  -3.8832588e+06
   7.5225075e-10  -4.6792955e-04   3.8837847e+00   3.7449120e+00  -3.8619710e+06
   7.5291764e-10  -4.6536110e-04   3.8834511e+00   3.7453388e+00  -3.8407996e+06
   7.5358453e-10  -4.6280672e-04   3.8831192e+00   3.7457632e+00  -3.8197440e+06
   7.5425142e-10  -4.6026635e-04   3.8827892e+00   3.7461853e+00  -3.7988035e+06
   7.5491831e-10  -4.5773991e-04   3.8824609e+00   3.7466051e+00  -3.7779776e+06
   7.5558520e-10  -4.5522732e-04   3.8821344e+00   3.7470226e+00  -3.7572655e+06
   7.5625208e-10  -4.5272851e-04   3.8818098e+00   3.7474378e+00  -3.7366666e+06
   7.5691897e-10  -4.5024339e-04   3.8814868e+00   3.7478508e+00  -3.7161804e+06
   7.5758586e-10  -4.4777190e-04   3.8811657e+00   3.7482614e+00  -3.6958063e+06
   7.5825275e-10  -4.4531396e-04   3.8808463e+00   3.7486699e+00  -3.6755435e+06
   7.5891964e-10  -4.4286949e-04   3.8805286e+00   3.7490761e+00  -3.6553916e+06
   7.5958653e-10  -4.4043843e-04   3.8802127e+00   3.7494801e+00  -3.6353499e+06
   7.6025342e-10  -4.3802070e-04   3.8798985e+00   3.7498819e+00  -3.6154179e+06
   7.6092031e-10  -4.3561622e-04   3.8795860e+00   3.7502815e+00  -3.5955948e+06
   7.6158720e-10  -4.3322492e-04   3.8792752e+00   3.7506789e+00  -3.5758802e+06
   7.6225408e-10  -4.3084674e-04   3.8789661e+00   3.7510742e+00  -3.5562734e+06
   7.6292097e-10  -4.2848160e-04   3.8786586e+00   3.7514673e+00  -3.5367738e+06
   7.6358786e-10  -4.2612943e-04   3.8783529e+00   3.7518582e+00  -3.5173810e+06
   7.6425475e-10  -4.2379015e-04   3.8780488e+00   3.7522470e+00  -3.4980942e+06
   7.6492164e-10  -4.2146370e-04   3.8777464e+00   3.7526337e+00  -3.4789129e+06
   7.6558853e-10  -4.1915001e-04   3.8774456e+00   3.7530182e+00  -3.4598365e+06
   7.6625542e-10  -4.1684900e-04   3.8771465e+00   3.7534007e+00  -3.4408646e+06
   7.6692231e-10  -4.1456062e-04   3.8768490e+00   3.7537811e+00  -3.4219964e+06
   7.6758920e-10  -4.1228478e-04   3.8765531e+00   3.7541594e+00  -3.4032314e+06
   7.6825609e-10  -4.1002142e-04   3.8762588e+00   3.7545356e+00  -3.3845691e+06
   7.6892297e-10  -4.0777047e-04   3.8759662e+00   3.7549098e+00  -3.3660089e+06
   7.6958986e-10  -4.0553187e-04   3.8756751e+00   3.7552819e+00  -3.3475503e+06
   7.7025675e-10  -4.0330554e-04   3.8753856e+00   3.7556520e+00  -3.3291926e+06
   7.7092364e-10  -4.0109142e-04   3.8750977e+00   3.7560200e+00  -3.3109354e+06
   7.7159053e-10  -3.9888945e-04   3.8748114e+00   3.7563861e+00  -3.2927781e+06
   7.7225742e-10  -3.9669955e-04   3.8745266e+00   3.7567502e+00  -3.2747202e+06
   7.7292431e-10  -3.9452166e-04   3.8742434e+00   3.7571122e+00  -3.2567611e+06
   7.7359120e-10  -3.9235571e-04   3.8739617e+00   3.7574723e+00  -3.2389002e+06
   7.7425809e-10  -3.9020164e-04   3.8736816e+00   3.7578304e+00  -3.2211371e+06
   7.7492497e-10  -3.8805939e-04   3.8734030e+00   3.7581866e+00  -3.2034713e+06
   7.7559186e-10  -3.8592889e-04   3.8731259e+00   3.7585408e+00  -3.1859020e+06
   7.7625875e-10  -3.8381007e-04   3.8728503e+00   3.7588931e+00  -3.1684290e+06
   7.7692564e-10  -3.8170287e-04   3.8725762e+00   3.7592434e+00  -3.1510516e+06
   7.7759253e-10  -3.7960723e-04   3.8723036e+00   3.7595919e+00  -3.1337692e+06
   7.7825942e-10  -3.7752308e-04   3.8720325e+00   3.7599384e+00  -3.1165815e+06
   7.7892631e-10  -3.7545036e-04   3.8717629e+00   3.7602830e+00  -3.0994879e+06
   7.7959320e-10  -3.7338901e-04   3.8714948e+00   3.7606258e+00  -3.0824878e+06
   7.8026009e-10  -3.7133897e-04   3.8712281e+00   3.7609666e+00  -3.0655807e+06
   7.8092698e-10  -3.6930017e-04   3.8709629e+00   3.7613057e+00  -3.0487662e+06
   7.8159386e-10  -3.6727256e-04   3.8706991e+00   3.7616428e+00  -3.0320438e+06
   7.8226075e-10  -3.6525606e-04   3.8704368e+00   3.7619781e+00  -3.0154129e+06
   7.8292764e-10  -3.6325063e-04   3.8701759e+00   3.7623116e+00  -2.9988730e+06
   7.8359453e-10  -3.6125620e-04   3.8699164e+00   3.7626433e+00  -2.9824236e+06
   7.8426142e-10  -3.5927270e-04   3.8696583e+00   3.7629731e+00  -2.9660644e+06
   7.8492831e-10  -3.5730009e-04   3.8694017e+00   3.7633011e+00  -2.9497946e+06
   7.8559520e-10  -3.5533830e-04   3.8691464e+00   3.7636274e+00  -2.9336140e+06
   7.8626209e-10  -3.5338727e-04   3.8688925e+00   3.7639518e+00  -2.9175219e+06
   7.8692898e-10  -3.5144694e-04   3.8686401e+00   3.7642745e+00  -2.9015179e+06
   7.8759587e-10  -3.4951725e-04   3.8683890e+00   3.7645954e+00  -2.8856016e+06
   7.8826275e-10  -3.4759815e-04   3.8681392e+00   3.7649146e+00  -2.8697724e+06
   7.8892964e-10  -3.4568958e-04   3.8678909e+00   3.7652320e+00  -2.8540298e+06
   7.8959653e-10  -3.4379148e-04   3.8676439e+00   3.7655477e+00  -2.8383735e+06
   7.9026342e-10  -3.4190379e-04   3.8673982e+00   3.7658617e+00  -2.8228029e+06
   7.9093031e-10  -3.4002645e-04   3.8671539e+00   3.7661739e+00  -2.8073175e+06
   7.9159720e-10  -3.3815942e-04   3.8669109e+00   3.7664844e+00  -2.7919170e+06
   7.9226409e-10  -3.3630262e-04   3.8666692e+00   3.7667932e+00  -2.7766007e+06
   7.9293098e-10  -3.3445602e-04   3.8664289e+00   3.7671004e+00  -2.7613684e+06
   7.9359787e-10  -3.3261954e-04   3.8661899e+00   3.7674058e+00  -2.7462194e+06
   7.9426475e-10  -3.3079314e-04   3.8659521e+00   3.7677096e+00  -2.7311534e+06
   7.9493164e-10  -3.2897676e-04   3.8657157e+00   3.7680118e+00  -2.7161699e+06
   7.9559853e-10  -3.2717034e-04   3.8654806e+00   3.7683122e+00  -2.7012685e+06
   7.9626542e-10  -3.2537383e-04   3.8652467e+00   3.7686111e+00  -2.6864486e+06
   7.9693231e-10  -3.2358718e-04   3.8650142e+00   3.7689082e+00  -2.6717100e+06
   7.9759920e-10  -3.2181033e-04   3.8647829e+00   3.7692038e+00  -2.6570520e+06
   7.9826609e-10  -3.2004324e-04   3.8645528e+00   3.7694978e+00  -2.6424743e+06
   7.9893298e-10  -3.1828583e-04   3.8643240e+00   3.7697901e+00  -2.6279765e+06
   7.9959987e-10  -3.1653807e-04   3.8640965e+00   3.7700808e+00  -2.6135581e+06
   8.0026676e-10  -3.1479990e-04   3.8638702e+00   3.7703700e+00  -2.5992186e+06
   8.0093364e-10  -3.1307126e-04   3.8636452e+00   3.7706576e+00  -2.5849577e+06
   8.0160053e-10  -3.1135211e-04   3.8634214e+00   3.7709436e+00  -2.5707749e+06
   8.0226742e-10  -3.0964239e-04   3.8631988e+00   3.7712280e+00  -2.5566698e+06
   8.0293431e-10  -3.0794205e-04   3.8629774e+00   3.7715108e+00  -2.5426419e+06
   8.0360120e-10  -3.0625104e-04   3.8627572e+00   3.7717922e+00  -2.5286909e+06
   8.0426809e-10  -3.0456931e-04   3.8625382e+00   3.7720720e+00  -2.5148163e+06
   8.0493498e-10  -3.0289681e-04   3.8623204e+00   3.7723502e+00  -2.5010177e+06
   8.0560187e-10  -3.0123348e-04   3.8621039e+00   3.7726269e+00  -2.4872947e+06
   8.0626876e-10  -2.9957928e-04   3.8618885e+00   3.7729021e+00  -2.4736469e+06
   8.0693565e-10  -2.9793416e-04   3.8616742e+00   3.7731758e+00  -2.4600738e+06
   8.0760253e-10  -2.9629806e-04   3.8614612e+00   3.7734481e+00  -2.4465751e+06
   8.0826942e-10  -2.9467094e-04   3.8612493e+00   3.7737188e+00  -2.4331503e+06
   8.0893631e-10  -2.9305275e-04   3.8610386e+00   3.7739880e+00  -2.4197991e+06
   8.0960320e-10  -2.9144344e-04   3.8608290e+00   3.7742558e+00  -2.4065211e+06
   8.1027009e-10  -2.8984296e-04   3.8606206e+00   3.7745221e+00  -2.3933157e+06
   8.1093698e-10  -2.8825126e-04   3.8604133e+00   3.7747869e+00  -2.3801828e+06
   8.1160387e-10  -2.8666830e-04   3.8602071e+00   3.7750503e+00  -2.3671217e+06
   8.1227076e-10  -2.8509402e-04   3.8600021e+00   3.7753122e+00  -2.3541323e+06
   8.1293765e-10  -2.8352839e-04   3.8597981e+00   3.7755727e+00  -2.3412140e+06
   8.1360453e-10  -2.8197134e-04   3.8595953e+00   3.7758318e+00  -2.3283665e+06
   8.1427142e-10  -2.8042284e-04   3.8593937e+00   3.7760895e+00  -2.3155894e+06
   8.1493831e-10  -2.7888283e-04   3.8591931e+00   3.7763458e+00  -2.3028822e+06
   8.1560520e-10  -2.7735128e-04   3.8589936e+00   3.7766006e+00  -2.2902448e+06
   8.1627209e-10  -2.7582813e-04   3.8587952e+00   3.7768541e+00  -2.2776765e+06
   8.1693898e-10  -2.7431334e-04   3.8585979e+00   3.7771061e+00  -2.2651772e+06
   8.1760587e-10  -2.7280686e-04   3.8584016e+00   3.7773568e+00  -2.2527463e+06
   8.1827276e-10  -2.7130865e-04   3.8582065e+00   3.7776061e+00  -2.2403835e+06
   8.1893965e-10  -2.6981866e-04   3.8580124e+00   3.7778541e+00  -2.2280885e+06
   8.1960654e-10  -2.6833685e-04   3.8578193e+00   3.7781007e+00  -2.2158609e+06
   8.2027342e-10  -2.6686317e-04   3.8576273e+00   3.7783459e+00  -2.2037003e+06
   8.2094031e-10  -2.6539758e-04   3.8574364e+00   3.7785898e+00  -2.1916063e+06
   8.2160720e-10  -2.6394004e-04   3.8572465e+00   3.7788324e+00  -2.1795786e+06
   8.2227409e-10  -2.6249049e-04   3.8570577e+00   3.7790736e+00  -2.1676168e+06
   8.2294098e-10  -2.6104889e-04   3.8568699e+00   3.7793135e+00  -2.1557206e+06
   8.2360787e-10  -2.5961521e-04   3.8566831e+00   3.7795521e+00  -2.1438895e+06
   8.2427476e-10  -2.5818940e-04   3.8564973e+00   3.7797894e+00  -2.1321233e+06
   8.2494165e-10  -2.5677141e-04   3.8563126e+00   3.7800254e+00  -2.1204216e+06
   8.2560854e-10  -2.5536121e-04   3.8561288e+00   3.7802601e+00  -2.1087840e+06
   8.2627543e-10  -2.5395874e-04   3.8559461e+00   3.7804935e+00  -2.0972102e+06
   8.2694231e-10  -2.5256397e-04   3.8557643e+00   3.7807257e+00  -2.0856999e+06
   8.2760920e-10  -2.5117686e-04   3.8555836e+00   3.7809565e+00  -2.0742526e+06
   8.2827609e-10  -2.4979736e-04   3.8554038e+00   3.7811861e+00  -2.0628681e+06
   8.2894298e-10  -2.4842543e-04   3.8552251e+00   3.7814145e+00  -2.0515460e+06
   8.2960987e-10  -2.4706103e-04   3.8550473e+00   3.7816415e+00  -2.0402859e+06
   8.3027676e-10  -2.4570412e-04   3.8548705e+00   3.7818674e+00  -2.0290875e+06
   8.3094365e-10  -2.4435466e-04   3.8546946e+00   3.7820920e+00  -2.0179506e+06
   8.3161054e-10  -2.4301260e-04   3.8545197e+00   3.7823154e+00  -2.0068747e+06
   8.3227743e-10  -2.4167791e-04   3.8543458e+00   3.7825375e+00  -1.9958595e+06
   8.3294431e-10  -2.4035055e-04   3.8541728e+00   3.7827585e+00  -1.9849046e+06
   8.3361120e-10  -2.3903047e-04   3.8540008e+00   3.7829782e+00  -1.9740099e+06
   8.3427809e-10  -2.3771764e-04   3.8538297e+00   3.7831967e+00  -1.9631748e+06
   8.3494498e-10  -2.3641201e-04   3.8536595e+00   3.7834140e+00  -1.9523992e+06
   8.3561187e-10  -2.3511355e-04   3.8534903e+00   3.7836302e+00  -1.9416826e+06
   8.3627876e-10  -2.3382222e-04   3.8533220e+00   3.7838451e+00  -1.9310247e+06
   8.3694565e-10  -2.3253797e-04   3.8531546e+00   3.7840589e+00  -1.9204253e+06
   8.3761254e-10  -2.3126078e-04   3.8529881e+00   3.7842715e+00  -1.9098840e+06
   8.3827943e-10  -2.2999059e-04   3.8528226e+00   3.7844829e+00  -1.8994005e+06
   8.3894632e-10  -2.2872738e-04   3.8526579e+00   3.7846932e+00  -1.8889745e+06
   8.3961320e-10  -2.2747110e-04   3.8524942e+00   3.7849024e+00  -1.8786056e+06
   8.4028009e-10  -2.2622172e-04   3.8523313e+00   3.7851103e+00  -1.8682936e+06
   8.4094698e-10  -2.2497919e-04   3.8521694e+00   3.7853172e+00  -1.8580381e+06
   8.4161387e-10  -2.2374349e-04   3.8520083e+00   3.7855229e+00  -1.8478388e+06
   8.4228076e-10  -2.2251457e-04   3.8518481e+00   3.7857275e+00  -1.8376955e+06
   8.4294765e-10  -2.2129239e-04   3.8516888e+00   3.7859309e+00  -1.8276078e+06
   8.4361454e-10  -2.2007693e-04   3.8515304e+00   3.7861333e+00  -1.8175754e+06
   8.4428143e-10  -2.1886813e-04   3.8513728e+00   3.7863345e+00  -1.8075979e+06
   8.4494832e-10  -2.1766598e-04   3.8512161e+00   3.7865346e+00  -1.7976752e+06
   8.4561521e-10  -2.1647042e-04   3.8510602e+00   3.7867337e+00  -1.7878069e+06
   8.4628209e-10  -2.1528142e-04   3.8509052e+00   3.7869316e+00  -1.7779927e+06
   8.4694898e-10  -2.1409895e-04   3.8507510e+00   3.7871285e+00  -1.7682324e+06
   8.4761587e-10  -2.1292297e-04   3.8505977e+00   3.7873242e+00  -1.7585255e+06
   8.4828276e-10  -2.1175345e-04   3.8504453e+00   3.7875190e+00  -1.7488719e+06
   8.4894965e-10  -2.1059035e-04   3.8502936e+00   3.7877126e+00  -1.7392712e+06
   8.4961654e-10  -2.0943363e-04   3.8501428e+00   3.7879052e+00  -1.7297231e+06
   8.5028343e-10  -2.0828327e-04   3.8499928e+00   3.7880967e+00  -1.7202274e+06
   8.5095032e-10  -2.0713922e-04   3.8498437e+00   3.7882872e+00  -1.7107838e+06
   8.5161721e-10  -2.0600145e-04   3.8496953e+00   3.7884766e+00  -1.7013920e+06
   8.5228409e-10  -2.0486992e-04   3.8495478e+00   3.7886650e+00  -1.6920516e+06
   8.5295098e-10  -2.0374461e-04   3.8494011e+00   3.7888523e+00  -1.6827625e+06
   8.5361787e-10  -2.0262547e-04   3.8492552e+00   3.7890387e+00  -1.6735243e+06
   8.5428476e-10  -2.0151248e-04   3.8491100e+00   3.7892240e+00  -1.6643368e+06
   8.5495165e-10  -2.0040560e-04   3.8489657e+00   3.7894083e+00  -1.6551997e+06
   8.5561854e-10  -1.9930480e-04   3.8488222e+00   3.7895916e+00  -1.6461127e+06
   8.5628543e-10  -1.9821004e-04   3.8486794e+00   3.7897738e+00  -1.6370755e+06
   8.5695232e-10  -1.9712129e-04   3.8485375e+00   3.7899551e+00  -1.6280879e+06
   8.5761921e-10  -1.9603851e-04   3.8483963e+00   3.7901354e+00  -1.6191496e+06
   8.5828610e-10  -1.9496169e-04   3.8482559e+00   3.7903147e+00  -1.6102602e+06
   8.5895298e-10  -1.9389077e-04   3.8481162e+00   3.7904930e+00  -1.6014197e+06
   8.5961987e-10  -1.9282573e-04   3.8479773e+00   3.7906704e+00  -1.5926276e+06
   8.6028676e-10  -1.9176654e-04   3.8478392e+00   3.7908467e+00  -1.5838838e+06
   8.6095365e-10  -1.9071317e-04   3.8477018e+00   3.7910221e+00  -1.5751879e+06
   8.6162054e-10  -1.8966558e-04   3.8475652e+00   3.7911966e+00  -1.5665397e+06
   8.6228743e-10  -1.8862374e-04   3.8474293e+00   3.7913700e+00  -1.5579389e+06
   8.6295432e-10  -1.8758762e-04   3.8472942e+00   3.7915426e+00  -1.5493853e+06
   8.6362121e-10  -1.8655719e-04   3.8471598e+00   3.7917142e+00  -1.5408786e+06
   8.6428810e-10  -1.8553241e-04   3.8470262e+00   3.7918848e+00  -1.5324186e+06
   8.6495498e-10  -1.8451327e-04   3.8468933e+00   3.7920545e+00  -1.5240050e+06
   8.6562187e-10  -1.8349971e-04   3.8467611e+00   3.7922233e+00  -1.5156375e+06
   8.6628876e-10  -1.8249173e-04   3.8466296e+00   3.7923911e+00  -1.5073160e+06
   8.6695565e-10  -1.8148928e-04   3.8464989e+00   3.7925581e+00  -1.4990400e+06
   8.6762254e-10  -1.8049233e-04   3.8463688e+00   3.7927241e+00  -1.4908095e+06
   8.6828943e-10  -1.7950085e-04   3.8462395e+00   3.7928892e+00  -1.4826241e+06
   8.6895632e-10  -1.7851482e-04   3.8461109e+00   3.7930534e+00  -1.4744837e+06
   8.6962321e-10  -1.7753421e-04   3.8459830e+00   3.7932167e+00  -1.4663878e+06
   8.7029010e-10  -1.7655897e-04   3.8458558e+00   3.7933791e+00  -1.4583364e+06
   8.7095699e-10  -1.7558910e-04   3.8457293e+00   3.7935406e+00  -1.4503292e+06
   8.7162387e-10  -1.7462454e-04   3.8456035e+00   3.7937012e+00  -1.4423658e+06
   8.7229076e-10  -1.7366529e-04   3.8454784e+00   3.7938610e+00  -1.4344462e+06
   8.7295765e-10  -1.7271130e-04   3.8453539e+00   3.7940198e+00  -1.4265700e+06
   8.7362454e-10  -1.7176255e-04   3.8452302e+00   3.7941778e+00  -1.4187370e+06
   8.7429143e-10  -1.7081900e-04   3.8451071e+00   3.7943350e+00  -1.4109470e+06
   8.7495832e-10  -1.6988064e-04   3.8449847e+00   3.7944912e+00  -1.4031997e+06
   8.7562521e-10  -1.6894743e-04   3.8448630e+00   3.7946467e+00  -1.3954949e+06
   8.7629210e-10  -1.6801935e-04   3.8447419e+00   3.7948012e+00  -1.3878324e+06
   8.7695899e-10  -1.6709636e-04   3.8446215e+00   3.7949549e+00  -1.3802119e+06
   8.7762588e-10  -1.6617844e-04   3.8445018e+00   3.7951078e+00  -1.3726332e+06
   8.7829276e-10  -1.6526556e-04   3.8443827e+00   3.7952598e+00  -1.3650961e+06
   8.7895965e-10  -1.6435769e-04   3.8442642e+00   3.7954110e+00  -1.3576004e+06
   8.7962654e-10  -1.6345481e-04   3.8441465e+00   3.7955614e+00  -1.3501457e+06
   8.8029343e-10  -1.6255689e-04   3.8440293e+00   3.7957110e+00  -1.3427320e+06
   8.8096032e-10  -1.6166389e-04   3.8439128e+00   3.7958597e+00  -1.3353589e+06
   8.8162721e-10  -1.6077580e-04   3.8437970e+00   3.7960076e+00  -1.3280263e+06
   8.8229410e-10  -1.5989259e-04   3.8436817e+00   3.7961547e+00  -1.3207340e+06
   8.8296099e-10  -1.5901423e-04   3.8435671e+00   3.7963010e+00  -1.3134816e+06
   8.8362788e-10  -1.5814068e-04   3.8434532e+00   3.7964465e+00  -1.3062690e+06
   8.8429476e-10  -1.5727194e-04   3.8433398e+00   3.7965912e+00  -1.2990960e+06
   8.8496165e-10  -1.5640797e-04   3.8432271e+00   3.7967351e+00  -1.2919624e+06
   8.8562854e-10  -1.5554874e-04   3.8431150e+00   3.7968782e+00  -1.2848679e+06
   8.8629543e-10  -1.5469423e-04   3.8430035e+00   3.7970205e+00  -1.2778123e+06
   8.8696232e-10  -1.5384441e-04   3.8428926e+00   3.7971620e+00  -1.2707955e+06
   8.8762921e-10  -1.5299926e-04   3.8427824e+00   3.7973028e+00  -1.2638171e+06
   8.8829610e-10  -1.5215875e-04   3.8426727e+00   3.7974428e+00  -1.2568770e+06
   8.8896299e-10  -1.5132285e-04   3.8425636e+00   3.7975820e+00  -1.2499750e+06
   8.8962988e-10  -1.5049155e-04   3.8424552e+00   3.7977205e+00  -1.2431109e+06
   8.9029677e-10  -1.4966481e-04   3.8423473e+00   3.7978582e+00  -1.2362844e+06
   8.9096365e-10  -1.4884261e-04   3.8422400e+00   3.7979951e+00  -1.2294954e+06
   8.9163054e-10  -1.4802492e-04   3.8421333e+00   3.7981313e+00  -1.2227437e+06
   8.9229743e-10  -1.4721173e-04   3.8420272e+00   3.7982668e+00  -1.2160290e+06
   8.9296432e-10  -1.4640300e-04   3.8419217e+00   3.7984015e+00  -1.2093511e+06
   8.9363121e-10  -1.4559871e-04   3.8418168e+00   3.7985355e+00  -1.2027099e+06
   8.9429810e-10  -1.4479884e-04   3.8417124e+00   3.7986687e+00  -1.1961051e+06
   8.9496499e-10  -1.4400336e-04   3.8416086e+00   3.7988012e+00  -1.1895366e+06
   8.9563188e-10  -1.4321225e-04   3.8415053e+00   3.7989330e+00  -1.1830041e+06
   8.9629877e-10  -1.4242549e-04   3.8414027e+00   3.7990640e+00  -1.1765075e+06
   8.9696566e-10  -1.4164304e-04   3.8413006e+00   3.7991943e+00  -1.1700465e+06
   8.9763254e-10  -1.4086489e-04   3.8411990e+00   3.7993240e+00  -1.1636210e+06
   8.9829943e-10  -1.4009102e-04   3.8410980e+00   3.7994529e+00  -1.1572307e+06
   8.9896632e-10  -1.3932140e-04   3.8409976e+00   3.7995811e+00  -1.1508755e+06
   8.9963321e-10  -1.3855600e-04   3.8408977e+00   3.7997086e+00  -1.1445552e+06
   9.0030010e-10  -1.3779480e-04   3.8407984e+00   3.7998354e+00  -1.1382695e+06
   9.0096699e-10  -1.3703779e-04   3.8406996e+00   3.7999615e+00  -1.1320184e+06
   9.0163388e-10  -1.3628493e-04   3.8406014e+00   3.8000869e+00  -1.1258015e+06
   9.0230077e-10  -1.3553621e-04   3.8405036e+00   3.8002116e+00  -1.1196188e+06
   9.0296766e-10  -1.3479160e-04   3.8404065e+00   3.8003356e+00  -1.1134700e+06
   9.0363454e-10  -1.3405108e-04   3.8403098e+00   3.8004590e+00  -1.1073550e+06
   9.0430143e-10  -1.3331462e-04   3.8402137e+00   3.8005817e+00  -1.1012735e+06
   9.0496832e-10  -1.3258222e-04   3.8401181e+00   3.8007037e+00  -1.0952254e+06
   9.0563521e-10  -1.3185383e-04   3.8400231e+00   3.8008250e+00  -1.0892104e+06
   9.0630210e-10  -1.3112944e-04   3.8399285e+00   3.8009457e+00  -1.0832285e+06
   9.0696899e-10  -1.3040903e-04   3.8398345e+00   3.8010657e+00  -1.0772795e+06
   9.0763588e-10  -1.2969258e-04   3.8397410e+00   3.8011850e+00  -1.0713630e+06
   9.0830277e-10  -1.2898006e-04   3.8396480e+00   3.8013037e+00  -1.0654791e+06
   9.0896966e-10  -1.2827146e-04   3.8395555e+00   3.8014218e+00  -1.0596274e+06
   9.0963655e-10  -1.2756675e-04   3.8394635e+00   3.8015392e+00  -1.0538078e+06
   9.1030343e-10  -1.2686590e-04   3.8393721e+00   3.8016559e+00  -1.0480202e+06
   9.1097032e-10  -1.2616891e-04   3.8392811e+00   3.8017720e+00  -1.0422644e+06
   9.1163721e-10  -1.2547575e-04   3.8391906e+00   3.8018875e+00  -1.0365401e+06
   9.1230410e-10  -1.2478639e-04   3.8391006e+00   3.8020024e+00  -1.0308473e+06
   9.1297099e-10  -1.2410082e-04   3.8390112e+00   3.8021166e+00  -1.0251857e+06
   9.1363788e-10  -1.2341901e-04   3.8389222e+00   3.8022302e+00  -1.0195552e+06
   9.1430477e-10  -1.2274095e-04   3.8388337e+00   3.8023431e+00  -1.0139556e+06
   9.1497166e-10  -1.2206661e-04   3.8387456e+00   3.8024555e+00  -1.0083867e+06
   9.1563855e-10  -1.2139597e-04   3.8386581e+00   3.8025672e+00  -1.0028484e+06
   9.1630544e-10  -1.2072902e-04   3.8385711e+00   3.8026783e+00  -9.9734044e+05
   9.1697232e-10  -1.2006574e-04   3.8384845e+00   3.8027888e+00  -9.9186276e+05
   9.1763921e-10  -1.1940609e-04   3.8383984e+00   3.8028987e+00  -9.8641514e+05
   9.1830610e-10  -1.1875007e-04   3.8383127e+00   3.8030080e+00  -9.8099742e+05
   9.1897299e-10  -1.1809765e-04   3.8382276e+00   3.8031167e+00  -9.7560944e+05
   9.1963988e-10  -1.1744881e-04   3.8381429e+00   3.8032248e+00  -9.7025104e+05
   9.2030677e-10  -1.1680354e-04   3.8380587e+00   3.8033323e+00  -9.6492205e+05
   9.2097366e-10  -1.1616181e-04   3.8379749e+00   3.8034392e+00  -9.5962230e+05
   9.2164055e-10  -1.1552361e-04   3.8378916e+00   3.8035455e+00  -9.5435165e+05
   9.2230744e-10  -1.1488891e-04   3.8378087e+00   3.8036513e+00  -9.4910993e+05
   9.2297432e-10  -1.1425770e-04   3.8377263e+00   3.8037564e+00  -9.4389699e+05
   9.2364121e-10  -1.1362996e-04   3.8376444e+00   3.8038610e+00  -9.3871265e+05
   9.2430810e-10  -1.1300566e-04   3.8375629e+00   3.8039650e+00  -9.3355678e+05
   9.2497499e-10  -1.1238479e-04   3.8374818e+00   3.8040685e+00  -9.2842921e+05
   9.2564188e-10  -1.1176733e-04   3.8374012e+00   3.8041713e+00  -9.2332978e+05
   9.2630877e-10  -1.1115327e-04   3.8373211e+00   3.8042736e+00  -9.1825834e+05
   9.2697566e-10  -1.1054257e-04   3.8372413e+00   3.8043754e+00  -9.1321475e+05
   9.2764255e-10  -1.0993523e-04   3.8371621e+00   3.8044766e+00  -9.0819884e+05
   9.2830944e-10  -1.0933123e-04   3.8370832e+00   3.8045772e+00  -9.0321047e+05
   9.2897633e-10  -1.0873054e-04   3.8370048e+00   3.8046773e+00  -8.9824947e+05
   9.2964321e-10  -1.0813316e-04   3.8369268e+00   3.8047768e+00  -8.9331572e+05
   9.3031010e-10  -1.0753905e-04   3.8368492e+00   3.8048758e+00  -8.8840904e+05
   9.3097699e-10  -1.0694821e-04   3.8367721e+00   3.8049743e+00  -8.8352930e+05
   9.3164388e-10  -1.0636061e-04   3.8366954e+00   3.8050722e+00  -8.7867635e+05
   9.3231077e-10  -1.0577624e-04   3.8366191e+00   3.8051695e+00  -8.7385004e+05
   9.3297766e-10  -1.0519508e-04   3.8365432e+00   3.8052663e+00  -8.6905023e+05
   9.3364455e-10  -1.0461712e-04   3.8364678e+00   3.8053626e+00  -8.6427676e+05
   9.3431144e-10  -1.0404232e-04   3.8363927e+00   3.8054584e+00  -8.5952950e+05
   9.3497833e-10  -1.0347069e-04   3.8363181e+00   3.8055537e+00  -8.5480830e+05
   9.3564522e-10  -1.0290219e-04   3.8362439e+00   3.8056484e+00  -8.5011302e+05
   9.3631210e-10  -1.0233682e-04   3.8361700e+00   3.8057426e+00  -8.4544352e+05
   9.3697899e-10  -1.0177455e-04   3.8360966e+00   3.8058363e+00  -8.4079965e+05
   9.3764588e-10  -1.0121537e-04   3.8360236e+00   3.8059294e+00  -8.3618127e+05
   9.3831277e-10  -1.0065926e-04   3.8359510e+00   3.8060221e+00  -8.3158825e+05
   9.3897966e-10  -1.0010621e-04   3.8358788e+00   3.8061142e+00  -8.2702045e+05
   9.3964655e-10  -9.9556196e-05   3.8358070e+00   3.8062059e+00  -8.2247772e+05
   9.4031344e-10  -9.9009201e-05   3.8357356e+00   3.8062970e+00  -8.1795993e+05
   9.4098033e-10  -9.8465212e-05   3.8356646e+00   3.8063877e+00  -8.1346695e+05
   9.4164722e-10  -9.7924211e-05   3.8355939e+00   3.8064778e+00  -8.0899863e+05
   9.4231410e-10  -9.7386181e-05   3.8355237e+00   3.8065675e+00  -8.0455484e+05
   9.4298099e-10  -9.6851107e-05   3.8354538e+00   3.8066566e+00  -8.0013545e+05
   9.4364788e-10  -9.6318971e-05   3.8353843e+00   3.8067453e+00  -7.9574033e+05
   9.4431477e-10  -9.5789759e-05   3.8353152e+00   3.8068335e+00  -7.9136933e+05
   9.4498166e-10  -9.5263454e-05   3.8352465e+00   3.8069212e+00  -7.8702234e+05
   9.4564855e-10  -9.4740040e-05   3.8351782e+00   3.8070084e+00  -7.8269920e+05
   9.4631544e-10  -9.4219501e-05   3.8351102e+00   3.8070951e+00  -7.7839981e+05
   9.4698233e-10  -9.3701821e-05   3.8350426e+00   3.8071814e+00  -7.7412402e+05
   9.4764922e-10  -9.3186985e-05   3.8349754e+00   3.8072672e+00  -7.6987170e+05
   9.4831611e-10  -9.2674977e-05   3.8349085e+00   3.8073525e+00  -7.6564273e+05
   9.4898299e-10  -9.2165782e-05   3.8348420e+00   3.8074373e+00  -7.6143698e+05
   9.4964988e-10  -9.1659383e-05   3.8347759e+00   3.8075217e+00  -7.5725432e+05
   9.5031677e-10  -9.1155767e-05   3.8347101e+00   3.8076056e+00  -7.5309463e+05
   9.5098366e-10  -9.0654916e-05   3.8346447e+00   3.8076891e+00  -7.4895777e+05
   9.5165055e-10  -9.0156817e-05   3.8345797e+00   3.8077721e+00  -7.4484363e+05
   9.5231744e-10  -8.9661454e-05   3.8345150e+00   3.8078546e+00  -7.4075208e+05
   9.5298433e-10  -8.9168812e-05   3.8344507e+00   3.8079367e+00  -7.3668299e+05
   9.5365122e-10  -8.8678877e-05   3.8343867e+00   3.8080184e+00  -7.3263625e+05
   9.5431811e-10  -8.8191633e-05   3.8343231e+00   3.8080996e+00  -7.2861172e+05
   9.5498499e-10  -8.7707065e-05   3.8342598e+00   3.8081803e+00  -7.2460929e+05
   9.5565188e-10  -8.7225159e-05   3.8341969e+00   3.8082606e+00  -7.2062884e+05
   9.5631877e-10  -8.6745900e-05   3.8341343e+00   3.8083405e+00  -7.1667024e+05
   9.5698566e-10  -8.6269274e-05   3.8340720e+00   3.8084199e+00  -7.1273338e+05
   9.5765255e-10  -8.5795267e-05   3.8340101e+00   3.8084989e+00  -7.0881814e+05
   9.5831944e-10  -8.5323863e-05   3.8339486e+00   3.8085774e+00  -7.0492439e+05
   9.5898633e-10  -8.4855048e-05   3.8338873e+00   3.8086556e+00  -7.0105203e+05
   9.5965322e-10  -8.4388809e-05   3.8338265e+00   3.8087333e+00  -6.9720092e+05
   9.6032011e-10  -8.3925132e-05   3.8337659e+00   3.8088105e+00  -6.9337096e+05
   9.6098700e-10  -8.3464001e-05   3.8337057e+00   3.8088874e+00  -6.8956203e+05
   9.6165388e-10  -8.3005404e-05   3.8336458e+00   3.8089638e+00  -6.8577402e+05
   9.6232077e-10  -8.2549325e-05   3.8335862e+00   3.8090398e+00  -6.8200681e+05
   9.6298766e-10  -8.2095753e-05   3.8335270e+00   3.8091154e+00  -6.7826028e+05
   9.6365455e-10  -8.1644672e-05   3.8334681e+00   3.8091905e+00  -6.7453433e+05
   9.6432144e-10  -8.1196068e-05   3.8334095e+00   3.8092653e+00  -6.7082883e+05
   9.6498833e-10  -8.0749930e-05   3.8333512e+00   3.8093396e+00  -6.6714368e+05
   9.6565522e-10  -8.0306242e-05   3.8332933e+00   3.8094136e+00  -6.6347877e+05
   9.6632211e-10  -7.9864991e-05   3.8332357e+00   3.8094871e+00  -6.5983398e+05
   9.6698900e-10  -7.9426164e-05   3.8331784e+00   3.8095602e+00  -6.5620921e+05
   9.6765589e-10  -7.8989749e-05   3.8331214e+00   3.8096330e+00  -6.5260434e+05
   9.6832277e-10  -7.8555730e-05   3.8330647e+00   3.8097053e+00  -6.4901926e+05
   9.6898966e-10  -7.8124096e-05   3.8330083e+00   3.8097772e+00  -6.4545388e+05
   9.6965655e-10  -7.7694833e-05   3.8329522e+00   3.8098488e+00  -6.4190807e+05
   9.7032344e-10  -7.7267928e-05   3.8328965e+00   3.8099199e+00  -6.3838173e+05
   9.7099033e-10  -7.6843368e-05   3.8328410e+00   3.8099907e+00  -6.3487475e+05
   9.7165722e-10  -7.6421141e-05   3.8327859e+00   3.8100610e+00  -6.3138704e+05
   9.7232411e-10  -7.6001233e-05   3.8327311e+00   3.8101310e+00  -6.2791847e+05
   9.7299100e-10  -7.5583633e-05   3.8326765e+00   3.8102006e+00  -6.2446896e+05
   9.7365789e-10  -7.5168326e-05   3.8326223e+00   3.8102698e+00  -6.2103838e+05
   9.7432477e-10  -7.4755300e-05   3.8325683e+00   3.8103386e+00  -6.1762665e+05
   9.7499166e-10  -7.4344544e-05   3.8325147e+00   3.8104071e+00  -6.1423365e+05
