   0.0000000e+00  -1.2877552e-01   6.3098195e+00   2.8060117e-04  -5.2022644e+08
   1.0003334e-12  -1.2825584e-01   6.3081243e+00   2.9210252e-04  -5.1882104e+08
   2.0006669e-12  -1.2773756e-01   6.3063999e+00   3.0404058e-04  -5.1741547e+08
   3.0010003e-12  -1.2722069e-01   6.3046459e+00   3.1643042e-04  -5.1600974e+08
   4.0013338e-12  -1.2670523e-01   6.3028620e+00   3.2928752e-04  -5.1460384e+08
   5.0016672e-12  -1.2619117e-01   6.3010479e+00   3.4262785e-04  -5.1319778e+08
   6.0020007e-12  -1.2567852e-01   6.2992031e+00   3.5646785e-04  -5.1179156e+08
   7.0023341e-12  -1.2516728e-01   6.2973272e+00   3.7082444e-04  -5.1038518e+08
   8.0026676e-12  -1.2465744e-01   6.2954198e+00   3.8571504e-04  -5.0897865e+08
   9.0030010e-12  -1.2414901e-01   6.2934806e+00   4.0115758e-04  -5.0757197e+08
   1.0003334e-11  -1.2364199e-01   6.2915092e+00   4.1717052e-04  -5.0616514e+08
   1.1003668e-11  -1.2313637e-01   6.2895051e+00   4.3377284e-04  -5.0475817e+08
   1.2004001e-11  -1.2263216e-01   6.2874680e+00   4.5098408e-04  -5.0335106e+08
   1.3004335e-11  -1.2212936e-01   6.2853975e+00   4.6882433e-04  -5.0194381e+08
   1.4004668e-11  -1.2162797e-01   6.2832932e+00   4.8731424e-04  -5.0053643e+08
   1.5005002e-11  -1.2112799e-01   6.2811546e+00   5.0647507e-04  -4.9912892e+08
   1.6005335e-11  -1.2062941e-01   6.2789815e+00   5.2632865e-04  -4.9772128e+08
   1.7005669e-11  -1.2013224e-01   6.2767733e+00   5.4689743e-04  -4.9631353e+08
   1.8006002e-11  -1.1963648e-01   6.2745297e+00   5.6820448e-04  -4.9490566e+08
   1.9006335e-11  -1.1914213e-01   6.2722503e+00   5.9027351e-04  -4.9349768e+08
   2.0006669e-11  -1.1864919e-01   6.2699346e+00   6.1312887e-04  -4.9208960e+08
   2.1007002e-11  -1.1815765e-01   6.2675823e+00   6.3679557e-04  -4.9068142e+08
   2.2007336e-11  -1.1766753e-01   6.2651930e+00   6.6129930e-04  -4.8927314e+08
   2.3007669e-11  -1.1717881e-01   6.2627662e+00   6.8666644e-04  -4.8786477e+08
   2.4008003e-11  -1.1669151e-01   6.2603016e+00   7.1292407e-04  -4.8645632e+08
   2.5008336e-11  -1.1620561e-01   6.2577987e+00   7.4009998e-04  -4.8504779e+08
   2.6008670e-11  -1.1572112e-01   6.2552571e+00   7.6822270e-04  -4.8363919e+08
   2.7009003e-11  -1.1523804e-01   6.2526765e+00   7.9732150e-04  -4.8223052e+08
   2.8009336e-11  -1.1475637e-01   6.2500564e+00   8.2742639e-04  -4.8082180e+08
   2.9009670e-11  -1.1427610e-01   6.2473964e+00   8.5856818e-04  -4.7941302e+08
   3.0010003e-11  -1.1379725e-01   6.2446961e+00   8.9077844e-04  -4.7800419e+08
   3.1010337e-11  -1.1331981e-01   6.2419551e+00   9.2408957e-04  -4.7659533e+08
   3.2010670e-11  -1.1284378e-01   6.2391730e+00   9.5853476e-04  -4.7518644e+08
   3.3011004e-11  -1.1236915e-01   6.2363493e+00   9.9414802e-04  -4.7377752e+08
   3.4011337e-11  -1.1189594e-01   6.2334838e+00   1.0309642e-03  -4.7236858e+08
   3.5011671e-11  -1.1142413e-01   6.2305759e+00   1.0690191e-03  -4.7095964e+08
   3.6012004e-11  -1.1095373e-01   6.2276253e+00   1.1083493e-03  -4.6955070e+08
   3.7012337e-11  -1.1048475e-01   6.2246316e+00   1.1489922e-03  -4.6814176e+08
   3.8012671e-11  -1.1001717e-01   6.2215943e+00   1.1909862e-03  -4.6673284e+08
   3.9013004e-11  -1.0955100e-01   6.2185131e+00   1.2343706e-03  -4.6532395e+08
   4.0013338e-11  -1.0908624e-01   6.2153876e+00   1.2791857e-03  -4.6391509e+08
   4.1013671e-11  -1.0862289e-01   6.2122173e+00   1.3254726e-03  -4.6250627e+08
   4.2014005e-11  -1.0816095e-01   6.2090019e+00   1.3732735e-03  -4.6109751e+08
   4.3014338e-11  -1.0770042e-01   6.2057409e+00   1.4226313e-03  -4.5968881e+08
   4.4014672e-11  -1.0724130e-01   6.2024341e+00   1.4735903e-03  -4.5828018e+08
   4.5015005e-11  -1.0678359e-01   6.1990810e+00   1.5261954e-03  -4.5687163e+08
   4.6015338e-11  -1.0632729e-01   6.1956811e+00   1.5804928e-03  -4.5546318e+08
   4.7015672e-11  -1.0587239e-01   6.1922342e+00   1.6365295e-03  -4.5405483e+08
   4.8016005e-11  -1.0541891e-01   6.1887398e+00   1.6943538e-03  -4.5264660e+08
   4.9016339e-11  -1.0496683e-01   6.1851975e+00   1.7540148e-03  -4.5123849e+08
   5.0016672e-11  -1.0451616e-01   6.1816071e+00   1.8155628e-03  -4.4983051e+08
   5.1017006e-11  -1.0406690e-01   6.1779680e+00   1.8790492e-03  -4.4842269e+08
   5.2017339e-11  -1.0361905e-01   6.1742800e+00   1.9445263e-03  -4.4701503e+08
   5.3017673e-11  -1.0317260e-01   6.1705426e+00   2.0120478e-03  -4.4560754e+08
   5.4018006e-11  -1.0272757e-01   6.1667555e+00   2.0816683e-03  -4.4420023e+08
   5.5018339e-11  -1.0228394e-01   6.1629184e+00   2.1534436e-03  -4.4279312e+08
   5.6018673e-11  -1.0184172e-01   6.1590308e+00   2.2274305e-03  -4.4138622e+08
   5.7019006e-11  -1.0140091e-01   6.1550924e+00   2.3036873e-03  -4.3997954e+08
   5.8019340e-11  -1.0096150e-01   6.1511029e+00   2.3822732e-03  -4.3857310e+08
   5.9019673e-11  -1.0052350e-01   6.1470620e+00   2.4632485e-03  -4.3716692e+08
   6.0020007e-11  -1.0008690e-01   6.1429692e+00   2.5466749e-03  -4.3576099e+08
   6.1020340e-11  -9.9651718e-02   6.1388242e+00   2.6326151e-03  -4.3435534e+08
   6.2020674e-11  -9.9217937e-02   6.1346267e+00   2.7211333e-03  -4.3294999e+08
   6.3021007e-11  -9.8785561e-02   6.1303764e+00   2.8122946e-03  -4.3154494e+08
   6.4021340e-11  -9.8354591e-02   6.1260730e+00   2.9061655e-03  -4.3014022e+08
   6.5021674e-11  -9.7925025e-02   6.1217161e+00   3.0028136e-03  -4.2873583e+08
   6.6022007e-11  -9.7496865e-02   6.1173054e+00   3.1023079e-03  -4.2733180e+08
   6.7022341e-11  -9.7070109e-02   6.1128406e+00   3.2047186e-03  -4.2592813e+08
   6.8022674e-11  -9.6644756e-02   6.1083214e+00   3.3101171e-03  -4.2452485e+08
   6.9023008e-11  -9.6220807e-02   6.1037474e+00   3.4185761e-03  -4.2312198e+08
   7.0023341e-11  -9.5798261e-02   6.0991186e+00   3.5301696e-03  -4.2171951e+08
   7.1023675e-11  -9.5377118e-02   6.0944344e+00   3.6449729e-03  -4.2031749e+08
   7.2024008e-11  -9.4957378e-02   6.0896946e+00   3.7630624e-03  -4.1891591e+08
   7.3024341e-11  -9.4539039e-02   6.0848991e+00   3.8845160e-03  -4.1751480e+08
   7.4024675e-11  -9.4122101e-02   6.0800474e+00   4.0094128e-03  -4.1611418e+08
   7.5025008e-11  -9.3706564e-02   6.0751393e+00   4.1378333e-03  -4.1471406e+08
   7.6025342e-11  -9.3292427e-02   6.0701747e+00   4.2698592e-03  -4.1331447e+08
   7.7025675e-11  -9.2879690e-02   6.0651531e+00   4.4055735e-03  -4.1191541e+08
   7.8026009e-11  -9.2468353e-02   6.0600745e+00   4.5450605e-03  -4.1051691e+08
   7.9026342e-11  -9.2058413e-02   6.0549385e+00   4.6884058e-03  -4.0911900e+08
   8.0026676e-11  -9.1649872e-02   6.0497449e+00   4.8356965e-03  -4.0772167e+08
   8.1027009e-11  -9.1242729e-02   6.0444935e+00   4.9870208e-03  -4.0632497e+08
   8.2027342e-11  -9.0836982e-02   6.0391842e+00   5.1424682e-03  -4.0492890e+08
   8.3027676e-11  -9.0432631e-02   6.0338166e+00   5.3021297e-03  -4.0353349e+08
   8.4028009e-11  -9.0029676e-02   6.0283906e+00   5.4660974e-03  -4.0213875e+08
   8.5028343e-11  -8.9628116e-02   6.0229059e+00   5.6344648e-03  -4.0074471e+08
   8.6028676e-11  -8.9227950e-02   6.0173625e+00   5.8073266e-03  -3.9935139e+08
   8.7029010e-11  -8.8829177e-02   6.0117602e+00   5.9847791e-03  -3.9795881e+08
   8.8029343e-11  -8.8431797e-02   6.0060987e+00   6.1669195e-03  -3.9656698e+08
   8.9029677e-11  -8.8035808e-02   6.0003779e+00   6.3538465e-03  -3.9517594e+08
   9.0030010e-11  -8.7641211e-02   5.9945977e+00   6.5456601e-03  -3.9378570e+08
   9.1030343e-11  -8.7248004e-02   5.9887580e+00   6.7424615e-03  -3.9239628e+08
   9.2030677e-11  -8.6856186e-02   5.9828585e+00   6.9443532e-03  -3.9100771e+08
   9.3031010e-11  -8.6465757e-02   5.9768992e+00   7.1514388e-03  -3.8962001e+08
   9.4031344e-11  -8.6076715e-02   5.9708799e+00   7.3638235e-03  -3.8823320e+08
   9.5031677e-11  -8.5689060e-02   5.9648006e+00   7.5816134e-03  -3.8684731e+08
   9.6032011e-11  -8.5302792e-02   5.9586612e+00   7.8049159e-03  -3.8546235e+08
   9.7032344e-11  -8.4917907e-02   5.9524615e+00   8.0338398e-03  -3.8407836e+08
   9.8032678e-11  -8.4534407e-02   5.9462015e+00   8.2684948e-03  -3.8269534e+08
   9.9033011e-11  -8.4152290e-02   5.9398812e+00   8.5089922e-03  -3.8131334e+08
   1.0003334e-10  -8.3771555e-02   5.9335004e+00   8.7554439e-03  -3.7993237e+08
   1.0103368e-10  -8.3392200e-02   5.9270591e+00   9.0079636e-03  -3.7855245e+08
   1.0203401e-10  -8.3014225e-02   5.9205573e+00   9.2666656e-03  -3.7717362e+08
   1.0303434e-10  -8.2637629e-02   5.9139950e+00   9.5316655e-03  -3.7579589e+08
   1.0403468e-10  -8.2262411e-02   5.9073721e+00   9.8030803e-03  -3.7441929e+08
   1.0503501e-10  -8.1888568e-02   5.9006886e+00   1.0081028e-02  -3.7304384e+08
   1.0603535e-10  -8.1516102e-02   5.8939445e+00   1.0365626e-02  -3.7166958e+08
   1.0703568e-10  -8.1145009e-02   5.8871399e+00   1.0656997e-02  -3.7029652e+08
   1.0803601e-10  -8.0775289e-02   5.8802747e+00   1.0955259e-02  -3.6892469e+08
   1.0903635e-10  -8.0406940e-02   5.8733489e+00   1.1260536e-02  -3.6755412e+08
   1.1003668e-10  -8.0039962e-02   5.8663627e+00   1.1572950e-02  -3.6618483e+08
   1.1103701e-10  -7.9674353e-02   5.8593161e+00   1.1892626e-02  -3.6481685e+08
   1.1203735e-10  -7.9310111e-02   5.8522091e+00   1.2219687e-02  -3.6345020e+08
   1.1303768e-10  -7.8947236e-02   5.8450419e+00   1.2554260e-02  -3.6208492e+08
   1.1403801e-10  -7.8585726e-02   5.8378144e+00   1.2896471e-02  -3.6072102e+08
   1.1503835e-10  -7.8225580e-02   5.8305268e+00   1.3246448e-02  -3.5935854e+08
   1.1603868e-10  -7.7866795e-02   5.8231792e+00   1.3604319e-02  -3.5799750e+08
   1.1703901e-10  -7.7509371e-02   5.8157716e+00   1.3970212e-02  -3.5663793e+08
   1.1803935e-10  -7.7153307e-02   5.8083043e+00   1.4344259e-02  -3.5527985e+08
   1.1903968e-10  -7.6798600e-02   5.8007774e+00   1.4726589e-02  -3.5392330e+08
   1.2004001e-10  -7.6445249e-02   5.7931909e+00   1.5117333e-02  -3.5256829e+08
   1.2104035e-10  -7.6093253e-02   5.7855452e+00   1.5516623e-02  -3.5121487e+08
   1.2204068e-10  -7.5742610e-02   5.7778402e+00   1.5924593e-02  -3.4986304e+08
   1.2304101e-10  -7.5393318e-02   5.7700763e+00   1.6341374e-02  -3.4851285e+08
   1.2404135e-10  -7.5045376e-02   5.7622535e+00   1.6767100e-02  -3.4716432e+08
   1.2504168e-10  -7.4698782e-02   5.7543721e+00   1.7201906e-02  -3.4581748e+08
   1.2604201e-10  -7.4353535e-02   5.7464324e+00   1.7645926e-02  -3.4447236e+08
   1.2704235e-10  -7.4009631e-02   5.7384344e+00   1.8099296e-02  -3.4312898e+08
   1.2804268e-10  -7.3667071e-02   5.7303785e+00   1.8562150e-02  -3.4178737e+08
   1.2904301e-10  -7.3325852e-02   5.7222649e+00   1.9034625e-02  -3.4044756e+08
   1.3004335e-10  -7.2985972e-02   5.7140938e+00   1.9516856e-02  -3.3910958e+08
   1.3104368e-10  -7.2647430e-02   5.7058655e+00   2.0008980e-02  -3.3777346e+08
   1.3204401e-10  -7.2310223e-02   5.6975803e+00   2.0511134e-02  -3.3643922e+08
   1.3304435e-10  -7.1974350e-02   5.6892384e+00   2.1023455e-02  -3.3510690e+08
   1.3404468e-10  -7.1639808e-02   5.6808402e+00   2.1546079e-02  -3.3377652e+08
   1.3504502e-10  -7.1306596e-02   5.6723859e+00   2.2079144e-02  -3.3244811e+08
   1.3604535e-10  -7.0974712e-02   5.6638759e+00   2.2622787e-02  -3.3112170e+08
   1.3704568e-10  -7.0644154e-02   5.6553104e+00   2.3177145e-02  -3.2979731e+08
   1.3804602e-10  -7.0314919e-02   5.6466899e+00   2.3742356e-02  -3.2847499e+08
   1.3904635e-10  -6.9987006e-02   5.6380146e+00   2.4318556e-02  -3.2715474e+08
   1.4004668e-10  -6.9660413e-02   5.6292850e+00   2.4905883e-02  -3.2583661e+08
   1.4104702e-10  -6.9335137e-02   5.6205012e+00   2.5504473e-02  -3.2452062e+08
   1.4204735e-10  -6.9011176e-02   5.6116639e+00   2.6114463e-02  -3.2320680e+08
   1.4304768e-10  -6.8688528e-02   5.6027732e+00   2.6735990e-02  -3.2189518e+08
   1.4404802e-10  -6.8367191e-02   5.5938297e+00   2.7369190e-02  -3.2058578e+08
   1.4504835e-10  -6.8047163e-02   5.5848336e+00   2.8014199e-02  -3.1927864e+08
   1.4604868e-10  -6.7728441e-02   5.5757855e+00   2.8671151e-02  -3.1797378e+08
   1.4704902e-10  -6.7411023e-02   5.5666857e+00   2.9340182e-02  -3.1667123e+08
   1.4804935e-10  -6.7094907e-02   5.5575347e+00   3.0021427e-02  -3.1537102e+08
   1.4904968e-10  -6.6780091e-02   5.5483329e+00   3.0715019e-02  -3.1407318e+08
   1.5005002e-10  -6.6466571e-02   5.5390807e+00   3.1421091e-02  -3.1277774e+08
   1.5105035e-10  -6.6154346e-02   5.5297786e+00   3.2139778e-02  -3.1148471e+08
   1.5205068e-10  -6.5843413e-02   5.5204271e+00   3.2871210e-02  -3.1019414e+08
   1.5305102e-10  -6.5533769e-02   5.5110266e+00   3.3615518e-02  -3.0890605e+08
   1.5405135e-10  -6.5225413e-02   5.5015776e+00   3.4372835e-02  -3.0762046e+08
   1.5505168e-10  -6.4918341e-02   5.4920806e+00   3.5143288e-02  -3.0633741e+08
   1.5605202e-10  -6.4612552e-02   5.4825361e+00   3.5927008e-02  -3.0505692e+08
   1.5705235e-10  -6.4308042e-02   5.4729446e+00   3.6724121e-02  -3.0377901e+08
   1.5805268e-10  -6.4004809e-02   5.4633066e+00   3.7534756e-02  -3.0250372e+08
   1.5905302e-10  -6.3702850e-02   5.4536226e+00   3.8359037e-02  -3.0123108e+08
   1.6005335e-10  -6.3402163e-02   5.4438932e+00   3.9197090e-02  -2.9996110e+08
   1.6105368e-10  -6.3102745e-02   5.4341188e+00   4.0049039e-02  -2.9869382e+08
   1.6205402e-10  -6.2804594e-02   5.4243001e+00   4.0915006e-02  -2.9742926e+08
   1.6305435e-10  -6.2507705e-02   5.4144375e+00   4.1795113e-02  -2.9616745e+08
   1.6405468e-10  -6.2212078e-02   5.4045317e+00   4.2689480e-02  -2.9490842e+08
   1.6505502e-10  -6.1917708e-02   5.3945831e+00   4.3598225e-02  -2.9365218e+08
   1.6605535e-10  -6.1624594e-02   5.3845924e+00   4.4521466e-02  -2.9239877e+08
   1.6705569e-10  -6.1332732e-02   5.3745600e+00   4.5459320e-02  -2.9114822e+08
   1.6805602e-10  -6.1042119e-02   5.3644867e+00   4.6411900e-02  -2.8990054e+08
   1.6905635e-10  -6.0752753e-02   5.3543730e+00   4.7379320e-02  -2.8865576e+08
   1.7005669e-10  -6.0464631e-02   5.3442194e+00   4.8361692e-02  -2.8741392e+08
   1.7105702e-10  -6.0177749e-02   5.3340266e+00   4.9359126e-02  -2.8617502e+08
   1.7205735e-10  -5.9892105e-02   5.3237952e+00   5.0371731e-02  -2.8493910e+08
   1.7305769e-10  -5.9607696e-02   5.3135258e+00   5.1399612e-02  -2.8370619e+08
   1.7405802e-10  -5.9324518e-02   5.3032189e+00   5.2442875e-02  -2.8247629e+08
   1.7505835e-10  -5.9042570e-02   5.2928752e+00   5.3501625e-02  -2.8124945e+08
   1.7605869e-10  -5.8761846e-02   5.2824954e+00   5.4575961e-02  -2.8002568e+08
   1.7705902e-10  -5.8482346e-02   5.2720800e+00   5.5665984e-02  -2.7880501e+08
   1.7805935e-10  -5.8204065e-02   5.2616297e+00   5.6771792e-02  -2.7758745e+08
   1.7905969e-10  -5.7927000e-02   5.2511452e+00   5.7893480e-02  -2.7637304e+08
   1.8006002e-10  -5.7651148e-02   5.2406269e+00   5.9031144e-02  -2.7516179e+08
   1.8106035e-10  -5.7376506e-02   5.2300757e+00   6.0184874e-02  -2.7395373e+08
   1.8206069e-10  -5.7103071e-02   5.2194921e+00   6.1354762e-02  -2.7274887e+08
   1.8306102e-10  -5.6830840e-02   5.2088768e+00   6.2540894e-02  -2.7154725e+08
   1.8406135e-10  -5.6559809e-02   5.1982305e+00   6.3743358e-02  -2.7034888e+08
   1.8506169e-10  -5.6289975e-02   5.1875537e+00   6.4962236e-02  -2.6915378e+08
   1.8606202e-10  -5.6021335e-02   5.1768472e+00   6.6197611e-02  -2.6796198e+08
   1.8706235e-10  -5.5753885e-02   5.1661116e+00   6.7449562e-02  -2.6677349e+08
   1.8806269e-10  -5.5487622e-02   5.1553476e+00   6.8718166e-02  -2.6558833e+08
   1.8906302e-10  -5.5222544e-02   5.1445558e+00   7.0003498e-02  -2.6440653e+08
   1.9006335e-10  -5.4958645e-02   5.1337369e+00   7.1305631e-02  -2.6322811e+08
   1.9106369e-10  -5.4695924e-02   5.1228916e+00   7.2624636e-02  -2.6205307e+08
   1.9206402e-10  -5.4434376e-02   5.1120206e+00   7.3960581e-02  -2.6088145e+08
   1.9306435e-10  -5.4173999e-02   5.1011245e+00   7.5313531e-02  -2.5971326e+08
   1.9406469e-10  -5.3914788e-02   5.0902039e+00   7.6683551e-02  -2.5854852e+08
   1.9506502e-10  -5.3656741e-02   5.0792596e+00   7.8070700e-02  -2.5738725e+08
   1.9606536e-10  -5.3399853e-02   5.0682923e+00   7.9475038e-02  -2.5622946e+08
   1.9706569e-10  -5.3144122e-02   5.0573026e+00   8.0896621e-02  -2.5507518e+08
   1.9806602e-10  -5.2889544e-02   5.0462912e+00   8.2335502e-02  -2.5392441e+08
   1.9906636e-10  -5.2636115e-02   5.0352587e+00   8.3791733e-02  -2.5277718e+08
   2.0006669e-10  -5.2383832e-02   5.0242059e+00   8.5265362e-02  -2.5163351e+08
   2.0106702e-10  -5.2132691e-02   5.0131335e+00   8.6756436e-02  -2.5049340e+08
   2.0206736e-10  -5.1882689e-02   5.0020420e+00   8.8264999e-02  -2.4935688e+08
   2.0306769e-10  -5.1633821e-02   4.9909322e+00   8.9791091e-02  -2.4822395e+08
   2.0406802e-10  -5.1386086e-02   4.9798047e+00   9.1334750e-02  -2.4709464e+08
   2.0506836e-10  -5.1139477e-02   4.9686603e+00   9.2896014e-02  -2.4596896e+08
   2.0606869e-10  -5.0893994e-02   4.9574996e+00   9.4474915e-02  -2.4484693e+08
   2.0706902e-10  -5.0649630e-02   4.9463233e+00   9.6071484e-02  -2.4372855e+08
   2.0806936e-10  -5.0406384e-02   4.9351320e+00   9.7685750e-02  -2.4261384e+08
   2.0906969e-10  -5.0164250e-02   4.9239265e+00   9.9317737e-02  -2.4150281e+08
   2.1007002e-10  -4.9923227e-02   4.9127073e+00   1.0096747e-01  -2.4039548e+08
   2.1107036e-10  -4.9683309e-02   4.9014752e+00   1.0263497e-01  -2.3929187e+08
   2.1207069e-10  -4.9444493e-02   4.8902308e+00   1.0432025e-01  -2.3819197e+08
   2.1307102e-10  -4.9206775e-02   4.8789748e+00   1.0602332e-01  -2.3709581e+08
   2.1407136e-10  -4.8970152e-02   4.8677079e+00   1.0774421e-01  -2.3600339e+08
   2.1507169e-10  -4.8734620e-02   4.8564307e+00   1.0948292e-01  -2.3491472e+08
   2.1607202e-10  -4.8500175e-02   4.8451439e+00   1.1123945e-01  -2.3382983e+08
   2.1707236e-10  -4.8266813e-02   4.8338481e+00   1.1301382e-01  -2.3274871e+08
   2.1807269e-10  -4.8034531e-02   4.8225440e+00   1.1480602e-01  -2.3167138e+08
   2.1907302e-10  -4.7803324e-02   4.8112322e+00   1.1661605e-01  -2.3059784e+08
   2.2007336e-10  -4.7573190e-02   4.7999134e+00   1.1844391e-01  -2.2952811e+08
   2.2107369e-10  -4.7344123e-02   4.7885882e+00   1.2028959e-01  -2.2846219e+08
   2.2207402e-10  -4.7116121e-02   4.7772572e+00   1.2215309e-01  -2.2740010e+08
   2.2307436e-10  -4.6889179e-02   4.7659212e+00   1.2403438e-01  -2.2634184e+08
   2.2407469e-10  -4.6663294e-02   4.7545807e+00   1.2593347e-01  -2.2528742e+08
   2.2507503e-10  -4.6438462e-02   4.7432364e+00   1.2785033e-01  -2.2423684e+08
   2.2607536e-10  -4.6214679e-02   4.7318889e+00   1.2978494e-01  -2.2319012e+08
   2.2707569e-10  -4.5991941e-02   4.7205388e+00   1.3173728e-01  -2.2214726e+08
   2.2807603e-10  -4.5770244e-02   4.7091868e+00   1.3370733e-01  -2.2110826e+08
   2.2907636e-10  -4.5549584e-02   4.6978334e+00   1.3569506e-01  -2.2007314e+08
   2.3007669e-10  -4.5329958e-02   4.6864792e+00   1.3770043e-01  -2.1904190e+08
   2.3107703e-10  -4.5111362e-02   4.6751250e+00   1.3972343e-01  -2.1801454e+08
   2.3207736e-10  -4.4893791e-02   4.6637712e+00   1.4176401e-01  -2.1699108e+08
   2.3307769e-10  -4.4677242e-02   4.6524185e+00   1.4382213e-01  -2.1597150e+08
   2.3407803e-10  -4.4461711e-02   4.6410674e+00   1.4589776e-01  -2.1495583e+08
   2.3507836e-10  -4.4247194e-02   4.6297187e+00   1.4799085e-01  -2.1394405e+08
   2.3607869e-10  -4.4033687e-02   4.6183727e+00   1.5010137e-01  -2.1293618e+08
   2.3707903e-10  -4.3821187e-02   4.6070302e+00   1.5222926e-01  -2.1193223e+08
   2.3807936e-10  -4.3609688e-02   4.5956917e+00   1.5437447e-01  -2.1093218e+08
   2.3907969e-10  -4.3399188e-02   4.5843578e+00   1.5653695e-01  -2.0993605e+08
   2.4008003e-10  -4.3189683e-02   4.5730290e+00   1.5871665e-01  -2.0894384e+08
   2.4108036e-10  -4.2981168e-02   4.5617059e+00   1.6091351e-01  -2.0795555e+08
   2.4208069e-10  -4.2773639e-02   4.5503891e+00   1.6312748e-01  -2.0697117e+08
   2.4308103e-10  -4.2567094e-02   4.5390791e+00   1.6535848e-01  -2.0599072e+08
   2.4408136e-10  -4.2361527e-02   4.5277764e+00   1.6760647e-01  -2.0501420e+08
   2.4508169e-10  -4.2156935e-02   4.5164816e+00   1.6987136e-01  -2.0404160e+08
   2.4608203e-10  -4.1953314e-02   4.5051953e+00   1.7215310e-01  -2.0307292e+08
   2.4708236e-10  -4.1750659e-02   4.4939179e+00   1.7445161e-01  -2.0210817e+08
   2.4808269e-10  -4.1548968e-02   4.4826500e+00   1.7676683e-01  -2.0114735e+08
   2.4908303e-10  -4.1348237e-02   4.4713920e+00   1.7909867e-01  -2.0019045e+08
   2.5008336e-10  -4.1148460e-02   4.4601446e+00   1.8144706e-01  -1.9923747e+08
   2.5108369e-10  -4.0949635e-02   4.4489082e+00   1.8381193e-01  -1.9828842e+08
   2.5208403e-10  -4.0751757e-02   4.4376834e+00   1.8619318e-01  -1.9734329e+08
   2.5308436e-10  -4.0554822e-02   4.4264705e+00   1.8859075e-01  -1.9640207e+08
   2.5408469e-10  -4.0358827e-02   4.4152701e+00   1.9100453e-01  -1.9546478e+08
   2.5508503e-10  -4.0163768e-02   4.4040828e+00   1.9343446e-01  -1.9453140e+08
   2.5608536e-10  -3.9969640e-02   4.3929089e+00   1.9588043e-01  -1.9360194e+08
   2.5708570e-10  -3.9776440e-02   4.3817489e+00   1.9834235e-01  -1.9267638e+08
   2.5808603e-10  -3.9584164e-02   4.3706034e+00   2.0082015e-01  -1.9175474e+08
   2.5908636e-10  -3.9392808e-02   4.3594727e+00   2.0331371e-01  -1.9083699e+08
   2.6008670e-10  -3.9202368e-02   4.3483573e+00   2.0582294e-01  -1.8992315e+08
   2.6108703e-10  -3.9012840e-02   4.3372577e+00   2.0834775e-01  -1.8901321e+08
   2.6208736e-10  -3.8824221e-02   4.3261744e+00   2.1088804e-01  -1.8810716e+08
   2.6308770e-10  -3.8636506e-02   4.3151077e+00   2.1344370e-01  -1.8720499e+08
   2.6408803e-10  -3.8449691e-02   4.3040580e+00   2.1601463e-01  -1.8630672e+08
   2.6508836e-10  -3.8263773e-02   4.2930259e+00   2.1860072e-01  -1.8541232e+08
   2.6608870e-10  -3.8078747e-02   4.2820117e+00   2.2120187e-01  -1.8452179e+08
   2.6708903e-10  -3.7894611e-02   4.2710158e+00   2.2381798e-01  -1.8363514e+08
   2.6808936e-10  -3.7711359e-02   4.2600387e+00   2.2644892e-01  -1.8275234e+08
   2.6908970e-10  -3.7528989e-02   4.2490808e+00   2.2909460e-01  -1.8187341e+08
   2.7009003e-10  -3.7347496e-02   4.2381424e+00   2.3175489e-01  -1.8099833e+08
   2.7109036e-10  -3.7166876e-02   4.2272239e+00   2.3442968e-01  -1.8012709e+08
   2.7209070e-10  -3.6987126e-02   4.2163257e+00   2.3711886e-01  -1.7925969e+08
   2.7309103e-10  -3.6808242e-02   4.2054483e+00   2.3982230e-01  -1.7839613e+08
   2.7409136e-10  -3.6630220e-02   4.1945919e+00   2.4253990e-01  -1.7753639e+08
   2.7509170e-10  -3.6453055e-02   4.1837569e+00   2.4527153e-01  -1.7668047e+08
   2.7609203e-10  -3.6276745e-02   4.1729437e+00   2.4801707e-01  -1.7582836e+08
   2.7709236e-10  -3.6101286e-02   4.1621527e+00   2.5077639e-01  -1.7498006e+08
   2.7809270e-10  -3.5926673e-02   4.1513842e+00   2.5354938e-01  -1.7413555e+08
   2.7909303e-10  -3.5752903e-02   4.1406385e+00   2.5633590e-01  -1.7329483e+08
   2.8009336e-10  -3.5579972e-02   4.1299159e+00   2.5913584e-01  -1.7245789e+08
   2.8109370e-10  -3.5407876e-02   4.1192169e+00   2.6194907e-01  -1.7162472e+08
   2.8209403e-10  -3.5236612e-02   4.1085417e+00   2.6477544e-01  -1.7079532e+08
   2.8309436e-10  -3.5066176e-02   4.0978906e+00   2.6761485e-01  -1.6996968e+08
   2.8409470e-10  -3.4896563e-02   4.0872640e+00   2.7046715e-01  -1.6914778e+08
   2.8509503e-10  -3.4727771e-02   4.0766621e+00   2.7333222e-01  -1.6832961e+08
   2.8609537e-10  -3.4559796e-02   4.0660853e+00   2.7620992e-01  -1.6751518e+08
   2.8709570e-10  -3.4392633e-02   4.0555338e+00   2.7910012e-01  -1.6670447e+08
   2.8809603e-10  -3.4226279e-02   4.0450080e+00   2.8200269e-01  -1.6589746e+08
   2.8909637e-10  -3.4060731e-02   4.0345081e+00   2.8491749e-01  -1.6509416e+08
   2.9009670e-10  -3.3895985e-02   4.0240344e+00   2.8784438e-01  -1.6429455e+08
   2.9109703e-10  -3.3732036e-02   4.0135872e+00   2.9078323e-01  -1.6349862e+08
   2.9209737e-10  -3.3568882e-02   4.0031667e+00   2.9373390e-01  -1.6270636e+08
   2.9309770e-10  -3.3406519e-02   3.9927732e+00   2.9669625e-01  -1.6191776e+08
   2.9409803e-10  -3.3244942e-02   3.9824070e+00   2.9967015e-01  -1.6113281e+08
   2.9509837e-10  -3.3084149e-02   3.9720683e+00   3.0265544e-01  -1.6035150e+08
   2.9609870e-10  -3.2924136e-02   3.9617573e+00   3.0565201e-01  -1.5957383e+08
   2.9709903e-10  -3.2764899e-02   3.9514743e+00   3.0865969e-01  -1.5879977e+08
   2.9809937e-10  -3.2606434e-02   3.9412195e+00   3.1167836e-01  -1.5802932e+08
   2.9909970e-10  -3.2448738e-02   3.9309932e+00   3.1470786e-01  -1.5726247e+08
   3.0010003e-10  -3.2291808e-02   3.9207955e+00   3.1774807e-01  -1.5649920e+08
   3.0110037e-10  -3.2135639e-02   3.9106268e+00   3.2079882e-01  -1.5573951e+08
   3.0210070e-10  -3.1980228e-02   3.9004871e+00   3.2385999e-01  -1.5498339e+08
   3.0310103e-10  -3.1825572e-02   3.8903768e+00   3.2693142e-01  -1.5423082e+08
   3.0410137e-10  -3.1671667e-02   3.8802959e+00   3.3001298e-01  -1.5348179e+08
   3.0510170e-10  -3.1518509e-02   3.8702448e+00   3.3310452e-01  -1.5273628e+08
   3.0610203e-10  -3.1366096e-02   3.8602235e+00   3.3620588e-01  -1.5199430e+08
   3.0710237e-10  -3.1214423e-02   3.8502323e+00   3.3931694e-01  -1.5125583e+08
   3.0810270e-10  -3.1063486e-02   3.8402714e+00   3.4243754e-01  -1.5052085e+08
   3.0910303e-10  -3.0913284e-02   3.8303410e+00   3.4556753e-01  -1.4978935e+08
   3.1010337e-10  -3.0763811e-02   3.8204411e+00   3.4870678e-01  -1.4906132e+08
   3.1110370e-10  -3.0615065e-02   3.8105720e+00   3.5185513e-01  -1.4833675e+08
   3.1210403e-10  -3.0467042e-02   3.8007339e+00   3.5501244e-01  -1.4761563e+08
   3.1310437e-10  -3.0319738e-02   3.7909269e+00   3.5817856e-01  -1.4689795e+08
   3.1410470e-10  -3.0173151e-02   3.7811511e+00   3.6135335e-01  -1.4618368e+08
   3.1510504e-10  -3.0027276e-02   3.7714067e+00   3.6453666e-01  -1.4547283e+08
   3.1610537e-10  -2.9882111e-02   3.7616938e+00   3.6772834e-01  -1.4476538e+08
   3.1710570e-10  -2.9737652e-02   3.7520126e+00   3.7092824e-01  -1.4406131e+08
   3.1810604e-10  -2.9593895e-02   3.7423633e+00   3.7413622e-01  -1.4336061e+08
   3.1910637e-10  -2.9450838e-02   3.7327458e+00   3.7735214e-01  -1.4266327e+08
   3.2010670e-10  -2.9308476e-02   3.7231605e+00   3.8057584e-01  -1.4196928e+08
   3.2110704e-10  -2.9166807e-02   3.7136073e+00   3.8380717e-01  -1.4127862e+08
   3.2210737e-10  -2.9025827e-02   3.7040864e+00   3.8704601e-01  -1.4059129e+08
   3.2310770e-10  -2.8885534e-02   3.6945980e+00   3.9029218e-01  -1.3990727e+08
   3.2410804e-10  -2.8745922e-02   3.6851420e+00   3.9354556e-01  -1.3922654e+08
   3.2510837e-10  -2.8606990e-02   3.6757187e+00   3.9680599e-01  -1.3854909e+08
   3.2610870e-10  -2.8468734e-02   3.6663282e+00   4.0007333e-01  -1.3787492e+08
   3.2710904e-10  -2.8331151e-02   3.6569704e+00   4.0334742e-01  -1.3720400e+08
   3.2810937e-10  -2.8194237e-02   3.6476456e+00   4.0662814e-01  -1.3653633e+08
   3.2910970e-10  -2.8057990e-02   3.6383537e+00   4.0991533e-01  -1.3587189e+08
   3.3011004e-10  -2.7922405e-02   3.6290950e+00   4.1320884e-01  -1.3521067e+08
   3.3111037e-10  -2.7787481e-02   3.6198694e+00   4.1650853e-01  -1.3455265e+08
   3.3211070e-10  -2.7653213e-02   3.6106770e+00   4.1981426e-01  -1.3389783e+08
   3.3311104e-10  -2.7519598e-02   3.6015180e+00   4.2312588e-01  -1.3324618e+08
   3.3411137e-10  -2.7386634e-02   3.5923923e+00   4.2644326e-01  -1.3259770e+08
   3.3511170e-10  -2.7254317e-02   3.5833001e+00   4.2976623e-01  -1.3195238e+08
   3.3611204e-10  -2.7122644e-02   3.5742414e+00   4.3309467e-01  -1.3131019e+08
   3.3711237e-10  -2.6991611e-02   3.5652163e+00   4.3642843e-01  -1.3067113e+08
   3.3811270e-10  -2.6861217e-02   3.5562247e+00   4.3976737e-01  -1.3003518e+08
   3.3911304e-10  -2.6731456e-02   3.5472669e+00   4.4311135e-01  -1.2940234e+08
   3.4011337e-10  -2.6602328e-02   3.5383427e+00   4.4646022e-01  -1.2877258e+08
   3.4111370e-10  -2.6473828e-02   3.5294523e+00   4.4981384e-01  -1.2814589e+08
   3.4211404e-10  -2.6345953e-02   3.5205957e+00   4.5317207e-01  -1.2752226e+08
   3.4311437e-10  -2.6218700e-02   3.5117730e+00   4.5653478e-01  -1.2690168e+08
   3.4411470e-10  -2.6092067e-02   3.5029841e+00   4.5990183e-01  -1.2628414e+08
   3.4511504e-10  -2.5966050e-02   3.4942291e+00   4.6327307e-01  -1.2566961e+08
   3.4611537e-10  -2.5840646e-02   3.4855081e+00   4.6664837e-01  -1.2505809e+08
   3.4711571e-10  -2.5715852e-02   3.4768209e+00   4.7002758e-01  -1.2444957e+08
   3.4811604e-10  -2.5591666e-02   3.4681678e+00   4.7341058e-01  -1.2384402e+08
   3.4911637e-10  -2.5468084e-02   3.4595487e+00   4.7679723e-01  -1.2324144e+08
   3.5011671e-10  -2.5345103e-02   3.4509635e+00   4.8018739e-01  -1.2264182e+08
   3.5111704e-10  -2.5222720e-02   3.4424124e+00   4.8358092e-01  -1.2204514e+08
   3.5211737e-10  -2.5100933e-02   3.4338953e+00   4.8697769e-01  -1.2145138e+08
   3.5311771e-10  -2.4979739e-02   3.4254122e+00   4.9037757e-01  -1.2086054e+08
   3.5411804e-10  -2.4859134e-02   3.4169632e+00   4.9378042e-01  -1.2027260e+08
   3.5511837e-10  -2.4739115e-02   3.4085482e+00   4.9718611e-01  -1.1968755e+08
   3.5611871e-10  -2.4619680e-02   3.4001672e+00   5.0059451e-01  -1.1910537e+08
   3.5711904e-10  -2.4500827e-02   3.3918203e+00   5.0400548e-01  -1.1852605e+08
   3.5811937e-10  -2.4382551e-02   3.3835074e+00   5.0741890e-01  -1.1794959e+08
   3.5911971e-10  -2.4264851e-02   3.3752286e+00   5.1083464e-01  -1.1737595e+08
   3.6012004e-10  -2.4147723e-02   3.3669837e+00   5.1425257e-01  -1.1680514e+08
   3.6112037e-10  -2.4031164e-02   3.3587728e+00   5.1767255e-01  -1.1623714e+08
   3.6212071e-10  -2.3915173e-02   3.3505959e+00   5.2109447e-01  -1.1567193e+08
   3.6312104e-10  -2.3799745e-02   3.3424529e+00   5.2451819e-01  -1.1510951e+08
   3.6412137e-10  -2.3684879e-02   3.3343439e+00   5.2794358e-01  -1.1454986e+08
   3.6512171e-10  -2.3570571e-02   3.3262688e+00   5.3137053e-01  -1.1399296e+08
   3.6612204e-10  -2.3456818e-02   3.3182275e+00   5.3479891e-01  -1.1343881e+08
   3.6712237e-10  -2.3343619e-02   3.3102201e+00   5.3822859e-01  -1.1288738e+08
   3.6812271e-10  -2.3230970e-02   3.3022466e+00   5.4165945e-01  -1.1233868e+08
   3.6912304e-10  -2.3118868e-02   3.2943068e+00   5.4509137e-01  -1.1179268e+08
   3.7012337e-10  -2.3007312e-02   3.2864008e+00   5.4852423e-01  -1.1124937e+08
   3.7112371e-10  -2.2896297e-02   3.2785285e+00   5.5195790e-01  -1.1070874e+08
   3.7212404e-10  -2.2785822e-02   3.2706899e+00   5.5539227e-01  -1.1017078e+08
   3.7312437e-10  -2.2675884e-02   3.2628849e+00   5.5882721e-01  -1.0963547e+08
   3.7412471e-10  -2.2566479e-02   3.2551135e+00   5.6226262e-01  -1.0910281e+08
   3.7512504e-10  -2.2457607e-02   3.2473757e+00   5.6569837e-01  -1.0857277e+08
   3.7612538e-10  -2.2349263e-02   3.2396714e+00   5.6913434e-01  -1.0804534e+08
   3.7712571e-10  -2.2241445e-02   3.2320005e+00   5.7257042e-01  -1.0752052e+08
   3.7812604e-10  -2.2134152e-02   3.2243630e+00   5.7600650e-01  -1.0699829e+08
   3.7912638e-10  -2.2027379e-02   3.2167589e+00   5.7944246e-01  -1.0647864e+08
   3.8012671e-10  -2.1921125e-02   3.2091881e+00   5.8287819e-01  -1.0596155e+08
   3.8112704e-10  -2.1815387e-02   3.2016506e+00   5.8631357e-01  -1.0544702e+08
   3.8212738e-10  -2.1710162e-02   3.1941462e+00   5.8974850e-01  -1.0493503e+08
   3.8312771e-10  -2.1605448e-02   3.1866750e+00   5.9318286e-01  -1.0442556e+08
   3.8412804e-10  -2.1501242e-02   3.1792368e+00   5.9661654e-01  -1.0391861e+08
   3.8512838e-10  -2.1397543e-02   3.1718316e+00   6.0004944e-01  -1.0341416e+08
   3.8612871e-10  -2.1294346e-02   3.1644594e+00   6.0348145e-01  -1.0291220e+08
   3.8712904e-10  -2.1191651e-02   3.1571201e+00   6.0691246e-01  -1.0241273e+08
   3.8812938e-10  -2.1089454e-02   3.1498135e+00   6.1034237e-01  -1.0191572e+08
   3.8912971e-10  -2.0987753e-02   3.1425397e+00   6.1377107e-01  -1.0142116e+08
   3.9013004e-10  -2.0886545e-02   3.1352986e+00   6.1719845e-01  -1.0092904e+08
   3.9113038e-10  -2.0785829e-02   3.1280901e+00   6.2062441e-01  -1.0043936e+08
   3.9213071e-10  -2.0685601e-02   3.1209142e+00   6.2404886e-01  -9.9952091e+07
   3.9313104e-10  -2.0585859e-02   3.1137707e+00   6.2747168e-01  -9.9467231e+07
   3.9413138e-10  -2.0486601e-02   3.1066596e+00   6.3089278e-01  -9.8984764e+07
   3.9513171e-10  -2.0387824e-02   3.0995808e+00   6.3431206e-01  -9.8504680e+07
   3.9613204e-10  -2.0289527e-02   3.0925342e+00   6.3772942e-01  -9.8026966e+07
   3.9713238e-10  -2.0191706e-02   3.0855198e+00   6.4114476e-01  -9.7551611e+07
   3.9813271e-10  -2.0094360e-02   3.0785374e+00   6.4455799e-01  -9.7078602e+07
   3.9913304e-10  -1.9997485e-02   3.0715871e+00   6.4796901e-01  -9.6607929e+07
   4.0013338e-10  -1.9901081e-02   3.0646687e+00   6.5137772e-01  -9.6139579e+07
   4.0113371e-10  -1.9805143e-02   3.0577821e+00   6.5478403e-01  -9.5673541e+07
   4.0213404e-10  -1.9709671e-02   3.0509273e+00   6.5818784e-01  -9.5209804e+07
   4.0313438e-10  -1.9614661e-02   3.0441041e+00   6.6158907e-01  -9.4748355e+07
   4.0413471e-10  -1.9520112e-02   3.0373125e+00   6.6498762e-01  -9.4289183e+07
   4.0513505e-10  -1.9426021e-02   3.0305524e+00   6.6838341e-01  -9.3832277e+07
   4.0613538e-10  -1.9332386e-02   3.0238238e+00   6.7177634e-01  -9.3377626e+07
   4.0713571e-10  -1.9239204e-02   3.0171264e+00   6.7516632e-01  -9.2925217e+07
   4.0813605e-10  -1.9146474e-02   3.0104603e+00   6.7855326e-01  -9.2475041e+07
   4.0913638e-10  -1.9054194e-02   3.0038253e+00   6.8193709e-01  -9.2027085e+07
   4.1013671e-10  -1.8962360e-02   2.9972213e+00   6.8531771e-01  -9.1581339e+07
   4.1113705e-10  -1.8870971e-02   2.9906484e+00   6.8869504e-01  -9.1137791e+07
   4.1213738e-10  -1.8780024e-02   2.9841062e+00   6.9206899e-01  -9.0696430e+07
   4.1313771e-10  -1.8689518e-02   2.9775949e+00   6.9543948e-01  -9.0257245e+07
   4.1413805e-10  -1.8599450e-02   2.9711142e+00   6.9880643e-01  -8.9820225e+07
   4.1513838e-10  -1.8509819e-02   2.9646642e+00   7.0216976e-01  -8.9385360e+07
   4.1613871e-10  -1.8420621e-02   2.9582446e+00   7.0552938e-01  -8.8952638e+07
   4.1713905e-10  -1.8331855e-02   2.9518554e+00   7.0888522e-01  -8.8522048e+07
   4.1813938e-10  -1.8243519e-02   2.9454965e+00   7.1223720e-01  -8.8093580e+07
   4.1913971e-10  -1.8155610e-02   2.9391678e+00   7.1558524e-01  -8.7667223e+07
   4.2014005e-10  -1.8068127e-02   2.9328692e+00   7.1892926e-01  -8.7242966e+07
   4.2114038e-10  -1.7981067e-02   2.9266006e+00   7.2226919e-01  -8.6820799e+07
   4.2214071e-10  -1.7894428e-02   2.9203620e+00   7.2560496e-01  -8.6400711e+07
   4.2314105e-10  -1.7808208e-02   2.9141531e+00   7.2893647e-01  -8.5982691e+07
   4.2414138e-10  -1.7722406e-02   2.9079739e+00   7.3226368e-01  -8.5566729e+07
   4.2514171e-10  -1.7637018e-02   2.9018244e+00   7.3558649e-01  -8.5152815e+07
   4.2614205e-10  -1.7552044e-02   2.8957043e+00   7.3890485e-01  -8.4740938e+07
   4.2714238e-10  -1.7467481e-02   2.8896137e+00   7.4221867e-01  -8.4331088e+07
   4.2814271e-10  -1.7383326e-02   2.8835523e+00   7.4552790e-01  -8.3923254e+07
   4.2914305e-10  -1.7299579e-02   2.8775202e+00   7.4883245e-01  -8.3517426e+07
   4.3014338e-10  -1.7216236e-02   2.8715171e+00   7.5213227e-01  -8.3113595e+07
   4.3114371e-10  -1.7133297e-02   2.8655430e+00   7.5542728e-01  -8.2711749e+07
   4.3214405e-10  -1.7050758e-02   2.8595979e+00   7.5871742e-01  -8.2311879e+07
   4.3314438e-10  -1.6968619e-02   2.8536815e+00   7.6200262e-01  -8.1913975e+07
   4.3414471e-10  -1.6886877e-02   2.8477938e+00   7.6528282e-01  -8.1518027e+07
   4.3514505e-10  -1.6805529e-02   2.8419347e+00   7.6855796e-01  -8.1124024e+07
   4.3614538e-10  -1.6724575e-02   2.8361040e+00   7.7182796e-01  -8.0731957e+07
   4.3714572e-10  -1.6644012e-02   2.8303017e+00   7.7509278e-01  -8.0341817e+07
   4.3814605e-10  -1.6563838e-02   2.8245277e+00   7.7835234e-01  -7.9953592e+07
   4.3914638e-10  -1.6484052e-02   2.8187818e+00   7.8160659e-01  -7.9567274e+07
   4.4014672e-10  -1.6404651e-02   2.8130640e+00   7.8485547e-01  -7.9182853e+07
   4.4114705e-10  -1.6325634e-02   2.8073741e+00   7.8809891e-01  -7.8800319e+07
   4.4214738e-10  -1.6246999e-02   2.8017121e+00   7.9133686e-01  -7.8419663e+07
   4.4314772e-10  -1.6168743e-02   2.7960778e+00   7.9456927e-01  -7.8040874e+07
   4.4414805e-10  -1.6090865e-02   2.7904711e+00   7.9779608e-01  -7.7663944e+07
   4.4514838e-10  -1.6013364e-02   2.7848919e+00   8.0101722e-01  -7.7288863e+07
   4.4614872e-10  -1.5936237e-02   2.7793402e+00   8.0423265e-01  -7.6915621e+07
   4.4714905e-10  -1.5859482e-02   2.7738157e+00   8.0744231e-01  -7.6544210e+07
   4.4814938e-10  -1.5783098e-02   2.7683184e+00   8.1064616e-01  -7.6174620e+07
   4.4914972e-10  -1.5707082e-02   2.7628483e+00   8.1384412e-01  -7.5806841e+07
   4.5015005e-10  -1.5631434e-02   2.7574051e+00   8.1703616e-01  -7.5440865e+07
   4.5115038e-10  -1.5556151e-02   2.7519887e+00   8.2022223e-01  -7.5076682e+07
   4.5215072e-10  -1.5481231e-02   2.7465992e+00   8.2340227e-01  -7.4714283e+07
   4.5315105e-10  -1.5406673e-02   2.7412363e+00   8.2657623e-01  -7.4353659e+07
   4.5415138e-10  -1.5332474e-02   2.7358999e+00   8.2974407e-01  -7.3994801e+07
   4.5515172e-10  -1.5258634e-02   2.7305900e+00   8.3290573e-01  -7.3637700e+07
   4.5615205e-10  -1.5185150e-02   2.7253064e+00   8.3606118e-01  -7.3282347e+07
   4.5715238e-10  -1.5112021e-02   2.7200490e+00   8.3921036e-01  -7.2928733e+07
   4.5815272e-10  -1.5039244e-02   2.7148178e+00   8.4235323e-01  -7.2576850e+07
   4.5915305e-10  -1.4966819e-02   2.7096125e+00   8.4548974e-01  -7.2226688e+07
   4.6015338e-10  -1.4894743e-02   2.7044332e+00   8.4861985e-01  -7.1878240e+07
   4.6115372e-10  -1.4823015e-02   2.6992796e+00   8.5174352e-01  -7.1531495e+07
   4.6215405e-10  -1.4751633e-02   2.6941517e+00   8.5486070e-01  -7.1186445e+07
   4.6315438e-10  -1.4680595e-02   2.6890494e+00   8.5797135e-01  -7.0843083e+07
   4.6415472e-10  -1.4609900e-02   2.6839726e+00   8.6107543e-01  -7.0501399e+07
   4.6515505e-10  -1.4539546e-02   2.6789211e+00   8.6417291e-01  -7.0161384e+07
   4.6615539e-10  -1.4469531e-02   2.6738949e+00   8.6726373e-01  -6.9823031e+07
   4.6715572e-10  -1.4399853e-02   2.6688938e+00   8.7034786e-01  -6.9486330e+07
   4.6815605e-10  -1.4330512e-02   2.6639177e+00   8.7342527e-01  -6.9151274e+07
   4.6915639e-10  -1.4261505e-02   2.6589666e+00   8.7649591e-01  -6.8817855e+07
   4.7015672e-10  -1.4192831e-02   2.6540402e+00   8.7955975e-01  -6.8486062e+07
   4.7115705e-10  -1.4124487e-02   2.6491386e+00   8.8261675e-01  -6.8155890e+07
   4.7215739e-10  -1.4056474e-02   2.6442616e+00   8.8566688e-01  -6.7827329e+07
   4.7315772e-10  -1.3988788e-02   2.6394091e+00   8.8871010e-01  -6.7500371e+07
   4.7415805e-10  -1.3921428e-02   2.6345810e+00   8.9174637e-01  -6.7175008e+07
   4.7515839e-10  -1.3854393e-02   2.6297771e+00   8.9477567e-01  -6.6851231e+07
   4.7615872e-10  -1.3787681e-02   2.6249974e+00   8.9779796e-01  -6.6529034e+07
   4.7715905e-10  -1.3721291e-02   2.6202418e+00   9.0081320e-01  -6.6208408e+07
   4.7815939e-10  -1.3655221e-02   2.6155101e+00   9.0382137e-01  -6.5889345e+07
   4.7915972e-10  -1.3589469e-02   2.6108023e+00   9.0682244e-01  -6.5571837e+07
   4.8016005e-10  -1.3524033e-02   2.6061182e+00   9.0981637e-01  -6.5255876e+07
   4.8116039e-10  -1.3458914e-02   2.6014578e+00   9.1280313e-01  -6.4941454e+07
   4.8216072e-10  -1.3394107e-02   2.5968209e+00   9.1578270e-01  -6.4628564e+07
   4.8316105e-10  -1.3329614e-02   2.5922074e+00   9.1875505e-01  -6.4317198e+07
   4.8416139e-10  -1.3265430e-02   2.5876173e+00   9.2172014e-01  -6.4007348e+07
   4.8516172e-10  -1.3201556e-02   2.5830503e+00   9.2467796e-01  -6.3699006e+07
   4.8616205e-10  -1.3137990e-02   2.5785065e+00   9.2762847e-01  -6.3392166e+07
   4.8716239e-10  -1.3074730e-02   2.5739857e+00   9.3057166e-01  -6.3086818e+07
   4.8816272e-10  -1.3011775e-02   2.5694877e+00   9.3350748e-01  -6.2782957e+07
   4.8916305e-10  -1.2949122e-02   2.5650126e+00   9.3643592e-01  -6.2480573e+07
   4.9016339e-10  -1.2886772e-02   2.5605601e+00   9.3935696e-01  -6.2179661e+07
   4.9116372e-10  -1.2824722e-02   2.5561302e+00   9.4227057e-01  -6.1880212e+07
   4.9216405e-10  -1.2762970e-02   2.5517229e+00   9.4517672e-01  -6.1582219e+07
   4.9316439e-10  -1.2701516e-02   2.5473378e+00   9.4807540e-01  -6.1285675e+07
   4.9416472e-10  -1.2640358e-02   2.5429751e+00   9.5096659e-01  -6.0990572e+07
   4.9516506e-10  -1.2579495e-02   2.5386345e+00   9.5385025e-01  -6.0696903e+07
   4.9616539e-10  -1.2518924e-02   2.5343160e+00   9.5672637e-01  -6.0404661e+07
   4.9716572e-10  -1.2458645e-02   2.5300195e+00   9.5959494e-01  -6.0113839e+07
   4.9816606e-10  -1.2398656e-02   2.5257448e+00   9.6245592e-01  -5.9824430e+07
   4.9916639e-10  -1.2338956e-02   2.5214918e+00   9.6530930e-01  -5.9536426e+07
   5.0016672e-10  -1.2279544e-02   2.5172605e+00   9.6815507e-01  -5.9249820e+07
   5.0116706e-10  -1.2220417e-02   2.5130508e+00   9.7099319e-01  -5.8964606e+07
   5.0216739e-10  -1.2161576e-02   2.5088625e+00   9.7382367e-01  -5.8680777e+07
   5.0316772e-10  -1.2103017e-02   2.5046956e+00   9.7664647e-01  -5.8398325e+07
   5.0416806e-10  -1.2044740e-02   2.5005499e+00   9.7946159e-01  -5.8117243e+07
   5.0516839e-10  -1.1986744e-02   2.4964254e+00   9.8226900e-01  -5.7837525e+07
   5.0616872e-10  -1.1929026e-02   2.4923219e+00   9.8506869e-01  -5.7559164e+07
   5.0716906e-10  -1.1871587e-02   2.4882394e+00   9.8786064e-01  -5.7282154e+07
   5.0816939e-10  -1.1814424e-02   2.4841777e+00   9.9064485e-01  -5.7006486e+07
   5.0916972e-10  -1.1757536e-02   2.4801367e+00   9.9342129e-01  -5.6732155e+07
   5.1017006e-10  -1.1700922e-02   2.4761164e+00   9.9618996e-01  -5.6459154e+07
   5.1117039e-10  -1.1644580e-02   2.4721167e+00   9.9895083e-01  -5.6187477e+07
   5.1217072e-10  -1.1588510e-02   2.4681374e+00   1.0017039e+00  -5.5917116e+07
   5.1317106e-10  -1.1532709e-02   2.4641784e+00   1.0044492e+00  -5.5648065e+07
   5.1417139e-10  -1.1477176e-02   2.4602397e+00   1.0071866e+00  -5.5380317e+07
   5.1517172e-10  -1.1421911e-02   2.4563211e+00   1.0099162e+00  -5.5113866e+07
   5.1617206e-10  -1.1366912e-02   2.4524227e+00   1.0126379e+00  -5.4848706e+07
   5.1717239e-10  -1.1312177e-02   2.4485441e+00   1.0153518e+00  -5.4584830e+07
   5.1817272e-10  -1.1257706e-02   2.4446855e+00   1.0180578e+00  -5.4322232e+07
   5.1917306e-10  -1.1203497e-02   2.4408465e+00   1.0207559e+00  -5.4060905e+07
   5.2017339e-10  -1.1149548e-02   2.4370273e+00   1.0234462e+00  -5.3800843e+07
   5.2117372e-10  -1.1095859e-02   2.4332277e+00   1.0261285e+00  -5.3542040e+07
   5.2217406e-10  -1.1042428e-02   2.4294475e+00   1.0288029e+00  -5.3284489e+07
   5.2317439e-10  -1.0989254e-02   2.4256867e+00   1.0314695e+00  -5.3028184e+07
   5.2417472e-10  -1.0936336e-02   2.4219452e+00   1.0341281e+00  -5.2773119e+07
   5.2517506e-10  -1.0883673e-02   2.4182228e+00   1.0367787e+00  -5.2519288e+07
   5.2617539e-10  -1.0831263e-02   2.4145196e+00   1.0394215e+00  -5.2266684e+07
   5.2717573e-10  -1.0779105e-02   2.4108354e+00   1.0420563e+00  -5.2015302e+07
   5.2817606e-10  -1.0727198e-02   2.4071701e+00   1.0446831e+00  -5.1765135e+07
   5.2917639e-10  -1.0675540e-02   2.4035236e+00   1.0473020e+00  -5.1516178e+07
   5.3017673e-10  -1.0624131e-02   2.3998958e+00   1.0499130e+00  -5.1268424e+07
   5.3117706e-10  -1.0572969e-02   2.3962867e+00   1.0525159e+00  -5.1021868e+07
   5.3217739e-10  -1.0522053e-02   2.3926961e+00   1.0551110e+00  -5.0776503e+07
   5.3317773e-10  -1.0471382e-02   2.3891240e+00   1.0576980e+00  -5.0532324e+07
   5.3417806e-10  -1.0420955e-02   2.3855702e+00   1.0602771e+00  -5.0289324e+07
   5.3517839e-10  -1.0370770e-02   2.3820347e+00   1.0628482e+00  -5.0047498e+07
   5.3617873e-10  -1.0320826e-02   2.3785173e+00   1.0654113e+00  -4.9806840e+07
   5.3717906e-10  -1.0271123e-02   2.3750180e+00   1.0679665e+00  -4.9567345e+07
   5.3817939e-10  -1.0221658e-02   2.3715368e+00   1.0705136e+00  -4.9329006e+07
   5.3917973e-10  -1.0172432e-02   2.3680734e+00   1.0730528e+00  -4.9091817e+07
   5.4018006e-10  -1.0123442e-02   2.3646278e+00   1.0755840e+00  -4.8855774e+07
   5.4118039e-10  -1.0074688e-02   2.3612000e+00   1.0781072e+00  -4.8620870e+07
   5.4218073e-10  -1.0026168e-02   2.3577898e+00   1.0806224e+00  -4.8387100e+07
   5.4318106e-10  -9.9778812e-03   2.3543971e+00   1.0831296e+00  -4.8154458e+07
   5.4418139e-10  -9.9298268e-03   2.3510220e+00   1.0856289e+00  -4.7922939e+07
   5.4518173e-10  -9.8820033e-03   2.3476641e+00   1.0881201e+00  -4.7692537e+07
   5.4618206e-10  -9.8344098e-03   2.3443236e+00   1.0906034e+00  -4.7463246e+07
   5.4718239e-10  -9.7870451e-03   2.3410003e+00   1.0930787e+00  -4.7235061e+07
   5.4818273e-10  -9.7399081e-03   2.3376940e+00   1.0955460e+00  -4.7007977e+07
   5.4918306e-10  -9.6929977e-03   2.3344048e+00   1.0980053e+00  -4.6781988e+07
   5.5018339e-10  -9.6463129e-03   2.3311326e+00   1.1004566e+00  -4.6557088e+07
   5.5118373e-10  -9.5998525e-03   2.3278771e+00   1.1029000e+00  -4.6333273e+07
   5.5218406e-10  -9.5536154e-03   2.3246385e+00   1.1053353e+00  -4.6110538e+07
   5.5318439e-10  -9.5076005e-03   2.3214165e+00   1.1077628e+00  -4.5888875e+07
   5.5418473e-10  -9.4618069e-03   2.3182111e+00   1.1101822e+00  -4.5668282e+07
   5.5518506e-10  -9.4162334e-03   2.3150223e+00   1.1125937e+00  -4.5448751e+07
   5.5618540e-10  -9.3708790e-03   2.3118499e+00   1.1149972e+00  -4.5230278e+07
   5.5718573e-10  -9.3257426e-03   2.3086938e+00   1.1173928e+00  -4.5012858e+07
   5.5818606e-10  -9.2808232e-03   2.3055540e+00   1.1197804e+00  -4.4796486e+07
   5.5918640e-10  -9.2361197e-03   2.3024303e+00   1.1221600e+00  -4.4581156e+07
   5.6018673e-10  -9.1916311e-03   2.2993228e+00   1.1245317e+00  -4.4366863e+07
   5.6118706e-10  -9.1473563e-03   2.2962312e+00   1.1268955e+00  -4.4153603e+07
   5.6218740e-10  -9.1032943e-03   2.2931557e+00   1.1292514e+00  -4.3941370e+07
   5.6318773e-10  -9.0594441e-03   2.2900959e+00   1.1315993e+00  -4.3730158e+07
   5.6418806e-10  -9.0158047e-03   2.2870519e+00   1.1339393e+00  -4.3519964e+07
   5.6518840e-10  -8.9723751e-03   2.2840237e+00   1.1362714e+00  -4.3310782e+07
   5.6618873e-10  -8.9291542e-03   2.2810110e+00   1.1385955e+00  -4.3102607e+07
   5.6718906e-10  -8.8861410e-03   2.2780138e+00   1.1409118e+00  -4.2895434e+07
   5.6818940e-10  -8.8433346e-03   2.2750322e+00   1.1432202e+00  -4.2689259e+07
   5.6918973e-10  -8.8007339e-03   2.2720658e+00   1.1455207e+00  -4.2484075e+07
   5.7019006e-10  -8.7583380e-03   2.2691148e+00   1.1478133e+00  -4.2279880e+07
   5.7119040e-10  -8.7161459e-03   2.2661790e+00   1.1500980e+00  -4.2076667e+07
   5.7219073e-10  -8.6741565e-03   2.2632583e+00   1.1523749e+00  -4.1874432e+07
   5.7319106e-10  -8.6323690e-03   2.2603527e+00   1.1546439e+00  -4.1673170e+07
   5.7419140e-10  -8.5907823e-03   2.2574621e+00   1.1569051e+00  -4.1472876e+07
   5.7519173e-10  -8.5493954e-03   2.2545864e+00   1.1591584e+00  -4.1273546e+07
   5.7619206e-10  -8.5082075e-03   2.2517255e+00   1.1614039e+00  -4.1075175e+07
   5.7719240e-10  -8.4672176e-03   2.2488793e+00   1.1636416e+00  -4.0877758e+07
   5.7819273e-10  -8.4264246e-03   2.2460478e+00   1.1658715e+00  -4.0681290e+07
   5.7919306e-10  -8.3858277e-03   2.2432309e+00   1.1680936e+00  -4.0485767e+07
   5.8019340e-10  -8.3454260e-03   2.2404286e+00   1.1703078e+00  -4.0291185e+07
   5.8119373e-10  -8.3052184e-03   2.2376407e+00   1.1725143e+00  -4.0097538e+07
   5.8219406e-10  -8.2652040e-03   2.2348672e+00   1.1747131e+00  -3.9904823e+07
   5.8319440e-10  -8.2253820e-03   2.2321079e+00   1.1769040e+00  -3.9713034e+07
   5.8419473e-10  -8.1857514e-03   2.2293629e+00   1.1790872e+00  -3.9522167e+07
   5.8519507e-10  -8.1463112e-03   2.2266321e+00   1.1812627e+00  -3.9332218e+07
   5.8619540e-10  -8.1070606e-03   2.2239153e+00   1.1834304e+00  -3.9143181e+07
   5.8719573e-10  -8.0679986e-03   2.2212125e+00   1.1855904e+00  -3.8955054e+07
   5.8819607e-10  -8.0291243e-03   2.2185237e+00   1.1877428e+00  -3.8767830e+07
   5.8919640e-10  -7.9904369e-03   2.2158487e+00   1.1898874e+00  -3.8581507e+07
   5.9019673e-10  -7.9519355e-03   2.2131875e+00   1.1920243e+00  -3.8396079e+07
   5.9119707e-10  -7.9136190e-03   2.2105401e+00   1.1941535e+00  -3.8211542e+07
   5.9219740e-10  -7.8754868e-03   2.2079062e+00   1.1962751e+00  -3.8027891e+07
   5.9319773e-10  -7.8375378e-03   2.2052860e+00   1.1983891e+00  -3.7845123e+07
   5.9419807e-10  -7.7997711e-03   2.2026793e+00   1.2004954e+00  -3.7663234e+07
   5.9519840e-10  -7.7621860e-03   2.2000860e+00   1.2025941e+00  -3.7482218e+07
   5.9619873e-10  -7.7247816e-03   2.1975060e+00   1.2046852e+00  -3.7302071e+07
   5.9719907e-10  -7.6875569e-03   2.1949394e+00   1.2067686e+00  -3.7122790e+07
   5.9819940e-10  -7.6505111e-03   2.1923860e+00   1.2088445e+00  -3.6944371e+07
   5.9919973e-10  -7.6136434e-03   2.1898457e+00   1.2109128e+00  -3.6766808e+07
   6.0020007e-10  -7.5769528e-03   2.1873185e+00   1.2129736e+00  -3.6590098e+07
   6.0120040e-10  -7.5404386e-03   2.1848044e+00   1.2150268e+00  -3.6414237e+07
   6.0220073e-10  -7.5040999e-03   2.1823032e+00   1.2170725e+00  -3.6239220e+07
   6.0320107e-10  -7.4679359e-03   2.1798149e+00   1.2191106e+00  -3.6065044e+07
   6.0420140e-10  -7.4319456e-03   2.1773394e+00   1.2211413e+00  -3.5891704e+07
   6.0520173e-10  -7.3961284e-03   2.1748767e+00   1.2231645e+00  -3.5719196e+07
   6.0620207e-10  -7.3604833e-03   2.1724266e+00   1.2251801e+00  -3.5547517e+07
   6.0720240e-10  -7.3250095e-03   2.1699892e+00   1.2271884e+00  -3.5376662e+07
   6.0820273e-10  -7.2897062e-03   2.1675643e+00   1.2291891e+00  -3.5206628e+07
   6.0920307e-10  -7.2545726e-03   2.1651519e+00   1.2311825e+00  -3.5037409e+07
   6.1020340e-10  -7.2196079e-03   2.1627520e+00   1.2331684e+00  -3.4869003e+07
   6.1120373e-10  -7.1848112e-03   2.1603644e+00   1.2351469e+00  -3.4701406e+07
   6.1220407e-10  -7.1501818e-03   2.1579891e+00   1.2371180e+00  -3.4534613e+07
   6.1320440e-10  -7.1157188e-03   2.1556260e+00   1.2390818e+00  -3.4368620e+07
   6.1420473e-10  -7.0814215e-03   2.1532751e+00   1.2410382e+00  -3.4203425e+07
   6.1520507e-10  -7.0472890e-03   2.1509362e+00   1.2429872e+00  -3.4039022e+07
   6.1620540e-10  -7.0133206e-03   2.1486095e+00   1.2449290e+00  -3.3875408e+07
   6.1720574e-10  -6.9795154e-03   2.1462947e+00   1.2468634e+00  -3.3712580e+07
   6.1820607e-10  -6.9458728e-03   2.1439918e+00   1.2487905e+00  -3.3550533e+07
   6.1920640e-10  -6.9123918e-03   2.1417007e+00   1.2507103e+00  -3.3389263e+07
   6.2020674e-10  -6.8790718e-03   2.1394215e+00   1.2526228e+00  -3.3228767e+07
   6.2120707e-10  -6.8459120e-03   2.1371540e+00   1.2545282e+00  -3.3069042e+07
   6.2220740e-10  -6.8129115e-03   2.1348981e+00   1.2564262e+00  -3.2910083e+07
   6.2320774e-10  -6.7800697e-03   2.1326539e+00   1.2583171e+00  -3.2751887e+07
   6.2420807e-10  -6.7473858e-03   2.1304212e+00   1.2602007e+00  -3.2594449e+07
   6.2520840e-10  -6.7148589e-03   2.1281999e+00   1.2620772e+00  -3.2437768e+07
   6.2620874e-10  -6.6824884e-03   2.1259901e+00   1.2639465e+00  -3.2281837e+07
   6.2720907e-10  -6.6502736e-03   2.1237917e+00   1.2658086e+00  -3.2126655e+07
   6.2820940e-10  -6.6182136e-03   2.1216046e+00   1.2676637e+00  -3.1972218e+07
   6.2920974e-10  -6.5863077e-03   2.1194287e+00   1.2695115e+00  -3.1818521e+07
   6.3021007e-10  -6.5545551e-03   2.1172640e+00   1.2713523e+00  -3.1665562e+07
   6.3121040e-10  -6.5229553e-03   2.1151104e+00   1.2731860e+00  -3.1513336e+07
   6.3221074e-10  -6.4915073e-03   2.1129679e+00   1.2750126e+00  -3.1361841e+07
   6.3321107e-10  -6.4602105e-03   2.1108364e+00   1.2768322e+00  -3.1211072e+07
   6.3421140e-10  -6.4290642e-03   2.1087159e+00   1.2786448e+00  -3.1061026e+07
   6.3521174e-10  -6.3980676e-03   2.1066062e+00   1.2804503e+00  -3.0911701e+07
   6.3621207e-10  -6.3672200e-03   2.1045074e+00   1.2822488e+00  -3.0763091e+07
   6.3721240e-10  -6.3365207e-03   2.1024194e+00   1.2840403e+00  -3.0615194e+07
   6.3821274e-10  -6.3059690e-03   2.1003421e+00   1.2858249e+00  -3.0468007e+07
   6.3921307e-10  -6.2755642e-03   2.0982754e+00   1.2876025e+00  -3.0321525e+07
   6.4021340e-10  -6.2453056e-03   2.0962194e+00   1.2893732e+00  -3.0175746e+07
   6.4121374e-10  -6.2151925e-03   2.0941740e+00   1.2911370e+00  -3.0030666e+07
   6.4221407e-10  -6.1852241e-03   2.0921390e+00   1.2928939e+00  -2.9886282e+07
   6.4321440e-10  -6.1553998e-03   2.0901145e+00   1.2946439e+00  -2.9742590e+07
   6.4421474e-10  -6.1257189e-03   2.0881004e+00   1.2963870e+00  -2.9599588e+07
   6.4521507e-10  -6.0961807e-03   2.0860966e+00   1.2981233e+00  -2.9457271e+07
   6.4621541e-10  -6.0667846e-03   2.0841031e+00   1.2998527e+00  -2.9315637e+07
   6.4721574e-10  -6.0375298e-03   2.0821198e+00   1.3015754e+00  -2.9174681e+07
   6.4821607e-10  -6.0084156e-03   2.0801467e+00   1.3032913e+00  -2.9034402e+07
   6.4921641e-10  -5.9794414e-03   2.0781837e+00   1.3050004e+00  -2.8894796e+07
   6.5021674e-10  -5.9506066e-03   2.0762308e+00   1.3067027e+00  -2.8755858e+07
   6.5121707e-10  -5.9219104e-03   2.0742879e+00   1.3083983e+00  -2.8617588e+07
   6.5221741e-10  -5.8933522e-03   2.0723550e+00   1.3100872e+00  -2.8479980e+07
   6.5321774e-10  -5.8649313e-03   2.0704320e+00   1.3117694e+00  -2.8343031e+07
   6.5421807e-10  -5.8366471e-03   2.0685188e+00   1.3134449e+00  -2.8206740e+07
   6.5521841e-10  -5.8084988e-03   2.0666155e+00   1.3151138e+00  -2.8071102e+07
   6.5621874e-10  -5.7804860e-03   2.0647219e+00   1.3167760e+00  -2.7936114e+07
   6.5721907e-10  -5.7526078e-03   2.0628380e+00   1.3184316e+00  -2.7801774e+07
   6.5821941e-10  -5.7248637e-03   2.0609638e+00   1.3200805e+00  -2.7668078e+07
   6.5921974e-10  -5.6972531e-03   2.0590991e+00   1.3217229e+00  -2.7535023e+07
   6.6022007e-10  -5.6697752e-03   2.0572440e+00   1.3233587e+00  -2.7402605e+07
   6.6122041e-10  -5.6424294e-03   2.0553985e+00   1.3249880e+00  -2.7270823e+07
   6.6222074e-10  -5.6152152e-03   2.0535623e+00   1.3266107e+00  -2.7139672e+07
   6.6322107e-10  -5.5881318e-03   2.0517356e+00   1.3282269e+00  -2.7009150e+07
   6.6422141e-10  -5.5611787e-03   2.0499182e+00   1.3298366e+00  -2.6879254e+07
   6.6522174e-10  -5.5343552e-03   2.0481102e+00   1.3314399e+00  -2.6749981e+07
   6.6622207e-10  -5.5076608e-03   2.0463114e+00   1.3330366e+00  -2.6621328e+07
   6.6722241e-10  -5.4810947e-03   2.0445218e+00   1.3346270e+00  -2.6493291e+07
   6.6822274e-10  -5.4546563e-03   2.0427413e+00   1.3362109e+00  -2.6365868e+07
   6.6922307e-10  -5.4283452e-03   2.0409700e+00   1.3377884e+00  -2.6239056e+07
   6.7022341e-10  -5.4021606e-03   2.0392077e+00   1.3393596e+00  -2.6112852e+07
   6.7122374e-10  -5.3761019e-03   2.0374545e+00   1.3409243e+00  -2.5987253e+07
   6.7222407e-10  -5.3501686e-03   2.0357102e+00   1.3424827e+00  -2.5862257e+07
   6.7322441e-10  -5.3243600e-03   2.0339748e+00   1.3440348e+00  -2.5737859e+07
   6.7422474e-10  -5.2986756e-03   2.0322483e+00   1.3455806e+00  -2.5614058e+07
   6.7522508e-10  -5.2731147e-03   2.0305306e+00   1.3471201e+00  -2.5490850e+07
   6.7622541e-10  -5.2476767e-03   2.0288217e+00   1.3486534e+00  -2.5368233e+07
   6.7722574e-10  -5.2223611e-03   2.0271216e+00   1.3501803e+00  -2.5246204e+07
   6.7822608e-10  -5.1971673e-03   2.0254301e+00   1.3517011e+00  -2.5124760e+07
   6.7922641e-10  -5.1720947e-03   2.0237473e+00   1.3532156e+00  -2.5003898e+07
   6.8022674e-10  -5.1471427e-03   2.0220731e+00   1.3547240e+00  -2.4883616e+07
   6.8122708e-10  -5.1223107e-03   2.0204074e+00   1.3562261e+00  -2.4763910e+07
   6.8222741e-10  -5.0975982e-03   2.0187502e+00   1.3577221e+00  -2.4644778e+07
   6.8322774e-10  -5.0730046e-03   2.0171015e+00   1.3592120e+00  -2.4526218e+07
   6.8422808e-10  -5.0485293e-03   2.0154613e+00   1.3606957e+00  -2.4408225e+07
   6.8522841e-10  -5.0241717e-03   2.0138293e+00   1.3621734e+00  -2.4290799e+07
   6.8622874e-10  -4.9999313e-03   2.0122058e+00   1.3636450e+00  -2.4173935e+07
   6.8722908e-10  -4.9758075e-03   2.0105905e+00   1.3651105e+00  -2.4057632e+07
   6.8822941e-10  -4.9517998e-03   2.0089834e+00   1.3665700e+00  -2.3941886e+07
   6.8922974e-10  -4.9279077e-03   2.0073846e+00   1.3680234e+00  -2.3826695e+07
   6.9023008e-10  -4.9041304e-03   2.0057939e+00   1.3694709e+00  -2.3712056e+07
   6.9123041e-10  -4.8804676e-03   2.0042113e+00   1.3709123e+00  -2.3597967e+07
   6.9223074e-10  -4.8569186e-03   2.0026368e+00   1.3723478e+00  -2.3484425e+07
   6.9323108e-10  -4.8334829e-03   2.0010704e+00   1.3737774e+00  -2.3371428e+07
   6.9423141e-10  -4.8101600e-03   1.9995119e+00   1.3752010e+00  -2.3258972e+07
   6.9523174e-10  -4.7869493e-03   1.9979613e+00   1.3766187e+00  -2.3147055e+07
   6.9623208e-10  -4.7638503e-03   1.9964187e+00   1.3780305e+00  -2.3035675e+07
   6.9723241e-10  -4.7408625e-03   1.9948839e+00   1.3794365e+00  -2.2924828e+07
   6.9823274e-10  -4.7179852e-03   1.9933570e+00   1.3808366e+00  -2.2814514e+07
   6.9923308e-10  -4.6952181e-03   1.9918378e+00   1.3822308e+00  -2.2704728e+07
   7.0023341e-10  -4.6725605e-03   1.9903264e+00   1.3836193e+00  -2.2595468e+07
   7.0123374e-10  -4.6500119e-03   1.9888226e+00   1.3850020e+00  -2.2486733e+07
   7.0223408e-10  -4.6275719e-03   1.9873266e+00   1.3863789e+00  -2.2378519e+07
   7.0323441e-10  -4.6052398e-03   1.9858381e+00   1.3877500e+00  -2.2270823e+07
   7.0423474e-10  -4.5830152e-03   1.9843572e+00   1.3891154e+00  -2.2163644e+07
   7.0523508e-10  -4.5608976e-03   1.9828839e+00   1.3904751e+00  -2.2056979e+07
   7.0623541e-10  -4.5388864e-03   1.9814180e+00   1.3918291e+00  -2.1950825e+07
   7.0723575e-10  -4.5169812e-03   1.9799597e+00   1.3931774e+00  -2.1845181e+07
   7.0823608e-10  -4.4951813e-03   1.9785087e+00   1.3945200e+00  -2.1740043e+07
   7.0923641e-10  -4.4734864e-03   1.9770651e+00   1.3958570e+00  -2.1635409e+07
   7.1023675e-10  -4.4518960e-03   1.9756289e+00   1.3971884e+00  -2.1531276e+07
   7.1123708e-10  -4.4304094e-03   1.9742000e+00   1.3985142e+00  -2.1427643e+07
   7.1223741e-10  -4.4090262e-03   1.9727783e+00   1.3998344e+00  -2.1324507e+07
   7.1323775e-10  -4.3877460e-03   1.9713639e+00   1.4011490e+00  -2.1221866e+07
   7.1423808e-10  -4.3665682e-03   1.9699567e+00   1.4024581e+00  -2.1119717e+07
   7.1523841e-10  -4.3454924e-03   1.9685566e+00   1.4037617e+00  -2.1018057e+07
   7.1623875e-10  -4.3245179e-03   1.9671636e+00   1.4050597e+00  -2.0916885e+07
   7.1723908e-10  -4.3036445e-03   1.9657777e+00   1.4063523e+00  -2.0816198e+07
   7.1823941e-10  -4.2828715e-03   1.9643989e+00   1.4076394e+00  -2.0715995e+07
   7.1923975e-10  -4.2621986e-03   1.9630270e+00   1.4089210e+00  -2.0616271e+07
   7.2024008e-10  -4.2416251e-03   1.9616621e+00   1.4101972e+00  -2.0517026e+07
   7.2124041e-10  -4.2211507e-03   1.9603042e+00   1.4114680e+00  -2.0418257e+07
   7.2224075e-10  -4.2007748e-03   1.9589532e+00   1.4127334e+00  -2.0319961e+07
   7.2324108e-10  -4.1804971e-03   1.9576090e+00   1.4139934e+00  -2.0222137e+07
   7.2424141e-10  -4.1603169e-03   1.9562716e+00   1.4152481e+00  -2.0124782e+07
   7.2524175e-10  -4.1402340e-03   1.9549410e+00   1.4164974e+00  -2.0027894e+07
   7.2624208e-10  -4.1202477e-03   1.9536172e+00   1.4177414e+00  -1.9931471e+07
   7.2724241e-10  -4.1003576e-03   1.9523001e+00   1.4189801e+00  -1.9835510e+07
   7.2824275e-10  -4.0805633e-03   1.9509897e+00   1.4202135e+00  -1.9740009e+07
   7.2924308e-10  -4.0608643e-03   1.9496859e+00   1.4214417e+00  -1.9644966e+07
   7.3024341e-10  -4.0412601e-03   1.9483887e+00   1.4226646e+00  -1.9550380e+07
   7.3124375e-10  -4.0217503e-03   1.9470982e+00   1.4238823e+00  -1.9456247e+07
   7.3224408e-10  -4.0023345e-03   1.9458141e+00   1.4250947e+00  -1.9362565e+07
   7.3324441e-10  -3.9830122e-03   1.9445366e+00   1.4263020e+00  -1.9269333e+07
   7.3424475e-10  -3.9637829e-03   1.9432655e+00   1.4275041e+00  -1.9176548e+07
   7.3524508e-10  -3.9446461e-03   1.9420009e+00   1.4287011e+00  -1.9084208e+07
   7.3624542e-10  -3.9256016e-03   1.9407427e+00   1.4298929e+00  -1.8992311e+07
   7.3724575e-10  -3.9066487e-03   1.9394909e+00   1.4310796e+00  -1.8900855e+07
   7.3824608e-10  -3.8877871e-03   1.9382454e+00   1.4322613e+00  -1.8809837e+07
   7.3924642e-10  -3.8690164e-03   1.9370062e+00   1.4334378e+00  -1.8719256e+07
   7.4024675e-10  -3.8503360e-03   1.9357733e+00   1.4346093e+00  -1.8629110e+07
   7.4124708e-10  -3.8317456e-03   1.9345467e+00   1.4357757e+00  -1.8539396e+07
   7.4224742e-10  -3.8132447e-03   1.9333262e+00   1.4369371e+00  -1.8450112e+07
   7.4324775e-10  -3.7948329e-03   1.9321119e+00   1.4380935e+00  -1.8361257e+07
   7.4424808e-10  -3.7765098e-03   1.9309038e+00   1.4392449e+00  -1.8272828e+07
   7.4524842e-10  -3.7582750e-03   1.9297018e+00   1.4403914e+00  -1.8184824e+07
   7.4624875e-10  -3.7401279e-03   1.9285059e+00   1.4415329e+00  -1.8097241e+07
   7.4724908e-10  -3.7220683e-03   1.9273160e+00   1.4426694e+00  -1.8010079e+07
   7.4824942e-10  -3.7040956e-03   1.9261322e+00   1.4438011e+00  -1.7923335e+07
   7.4924975e-10  -3.6862095e-03   1.9249543e+00   1.4449278e+00  -1.7837007e+07
   7.5025008e-10  -3.6684096e-03   1.9237824e+00   1.4460497e+00  -1.7751094e+07
   7.5125042e-10  -3.6506954e-03   1.9226164e+00   1.4471667e+00  -1.7665592e+07
   7.5225075e-10  -3.6330665e-03   1.9214563e+00   1.4482789e+00  -1.7580501e+07
   7.5325108e-10  -3.6155225e-03   1.9203021e+00   1.4493862e+00  -1.7495818e+07
   7.5425142e-10  -3.5980631e-03   1.9191537e+00   1.4504888e+00  -1.7411542e+07
   7.5525175e-10  -3.5806877e-03   1.9180111e+00   1.4515865e+00  -1.7327670e+07
   7.5625208e-10  -3.5633961e-03   1.9168743e+00   1.4526795e+00  -1.7244200e+07
   7.5725242e-10  -3.5461877e-03   1.9157432e+00   1.4537677e+00  -1.7161131e+07
   7.5825275e-10  -3.5290622e-03   1.9146178e+00   1.4548512e+00  -1.7078461e+07
   7.5925308e-10  -3.5120193e-03   1.9134982e+00   1.4559300e+00  -1.6996187e+07
   7.6025342e-10  -3.4950584e-03   1.9123841e+00   1.4570040e+00  -1.6914308e+07
   7.6125375e-10  -3.4781793e-03   1.9112757e+00   1.4580734e+00  -1.6832822e+07
   7.6225408e-10  -3.4613814e-03   1.9101729e+00   1.4591382e+00  -1.6751727e+07
   7.6325442e-10  -3.4446645e-03   1.9090757e+00   1.4601982e+00  -1.6671022e+07
   7.6425475e-10  -3.4280281e-03   1.9079840e+00   1.4612537e+00  -1.6590703e+07
   7.6525509e-10  -3.4114719e-03   1.9068978e+00   1.4623045e+00  -1.6510770e+07
   7.6625542e-10  -3.3949955e-03   1.9058171e+00   1.4633508e+00  -1.6431221e+07
   7.6725575e-10  -3.3785984e-03   1.9047418e+00   1.4643924e+00  -1.6352054e+07
   7.6825609e-10  -3.3622803e-03   1.9036720e+00   1.4654295e+00  -1.6273267e+07
   7.6925642e-10  -3.3460409e-03   1.9026076e+00   1.4664621e+00  -1.6194857e+07
   7.7025675e-10  -3.3298797e-03   1.9015485e+00   1.4674901e+00  -1.6116825e+07
   7.7125709e-10  -3.3137964e-03   1.9004948e+00   1.4685137e+00  -1.6039166e+07
   7.7225742e-10  -3.2977906e-03   1.8994464e+00   1.4695327e+00  -1.5961881e+07
   7.7325775e-10  -3.2818619e-03   1.8984032e+00   1.4705473e+00  -1.5884966e+07
   7.7425809e-10  -3.2660099e-03   1.8973653e+00   1.4715574e+00  -1.5808421e+07
   7.7525842e-10  -3.2502344e-03   1.8963327e+00   1.4725631e+00  -1.5732243e+07
   7.7625875e-10  -3.2345348e-03   1.8953052e+00   1.4735643e+00  -1.5656431e+07
   7.7725909e-10  -3.2189109e-03   1.8942830e+00   1.4745612e+00  -1.5580983e+07
   7.7825942e-10  -3.2033624e-03   1.8932659e+00   1.4755536e+00  -1.5505897e+07
   7.7925975e-10  -3.1878887e-03   1.8922539e+00   1.4765417e+00  -1.5431172e+07
   7.8026009e-10  -3.1724896e-03   1.8912470e+00   1.4775255e+00  -1.5356805e+07
   7.8126042e-10  -3.1571647e-03   1.8902451e+00   1.4785049e+00  -1.5282796e+07
   7.8226075e-10  -3.1419137e-03   1.8892483e+00   1.4794799e+00  -1.5209142e+07
   7.8326109e-10  -3.1267362e-03   1.8882566e+00   1.4804507e+00  -1.5135841e+07
   7.8426142e-10  -3.1116318e-03   1.8872698e+00   1.4814172e+00  -1.5062892e+07
   7.8526175e-10  -3.0966003e-03   1.8862880e+00   1.4823794e+00  -1.4990294e+07
   7.8626209e-10  -3.0816411e-03   1.8853111e+00   1.4833374e+00  -1.4918044e+07
   7.8726242e-10  -3.0667541e-03   1.8843391e+00   1.4842911e+00  -1.4846142e+07
   7.8826275e-10  -3.0519388e-03   1.8833721e+00   1.4852407e+00  -1.4774584e+07
   7.8926309e-10  -3.0371950e-03   1.8824098e+00   1.4861860e+00  -1.4703370e+07
   7.9026342e-10  -3.0225222e-03   1.8814525e+00   1.4871271e+00  -1.4632498e+07
   7.9126375e-10  -3.0079201e-03   1.8804999e+00   1.4880640e+00  -1.4561967e+07
   7.9226409e-10  -2.9933884e-03   1.8795521e+00   1.4889968e+00  -1.4491774e+07
   7.9326442e-10  -2.9789268e-03   1.8786091e+00   1.4899255e+00  -1.4421918e+07
   7.9426475e-10  -2.9645349e-03   1.8776709e+00   1.4908500e+00  -1.4352398e+07
   7.9526509e-10  -2.9502123e-03   1.8767373e+00   1.4917705e+00  -1.4283212e+07
   7.9626542e-10  -2.9359588e-03   1.8758085e+00   1.4926868e+00  -1.4214358e+07
   7.9726576e-10  -2.9217740e-03   1.8748843e+00   1.4935991e+00  -1.4145834e+07
   7.9826609e-10  -2.9076576e-03   1.8739647e+00   1.4945073e+00  -1.4077640e+07
   7.9926642e-10  -2.8936092e-03   1.8730498e+00   1.4954115e+00  -1.4009774e+07
   8.0026676e-10  -2.8796286e-03   1.8721394e+00   1.4963117e+00  -1.3942233e+07
   8.0126709e-10  -2.8657154e-03   1.8712337e+00   1.4972078e+00  -1.3875017e+07
   8.0226742e-10  -2.8518692e-03   1.8703324e+00   1.4981000e+00  -1.3808124e+07
   8.0326776e-10  -2.8380898e-03   1.8694357e+00   1.4989882e+00  -1.3741552e+07
   8.0426809e-10  -2.8243769e-03   1.8685435e+00   1.4998724e+00  -1.3675300e+07
   8.0526842e-10  -2.8107300e-03   1.8676558e+00   1.5007527e+00  -1.3609366e+07
   8.0626876e-10  -2.7971489e-03   1.8667725e+00   1.5016290e+00  -1.3543749e+07
   8.0726909e-10  -2.7836334e-03   1.8658937e+00   1.5025015e+00  -1.3478447e+07
   8.0826942e-10  -2.7701830e-03   1.8650193e+00   1.5033700e+00  -1.3413458e+07
   8.0926976e-10  -2.7567974e-03   1.8641492e+00   1.5042347e+00  -1.3348783e+07
   8.1027009e-10  -2.7434764e-03   1.8632836e+00   1.5050955e+00  -1.3284417e+07
   8.1127042e-10  -2.7302196e-03   1.8624222e+00   1.5059524e+00  -1.3220361e+07
   8.1227076e-10  -2.7170268e-03   1.8615652e+00   1.5068055e+00  -1.3156613e+07
   8.1327109e-10  -2.7038975e-03   1.8607125e+00   1.5076548e+00  -1.3093171e+07
   8.1427142e-10  -2.6908316e-03   1.8598640e+00   1.5085003e+00  -1.3030034e+07
   8.1527176e-10  -2.6778287e-03   1.8590198e+00   1.5093420e+00  -1.2967201e+07
   8.1627209e-10  -2.6648884e-03   1.8581799e+00   1.5101799e+00  -1.2904669e+07
   8.1727242e-10  -2.6520106e-03   1.8573441e+00   1.5110141e+00  -1.2842438e+07
   8.1827276e-10  -2.6391949e-03   1.8565125e+00   1.5118445e+00  -1.2780506e+07
   8.1927309e-10  -2.6264410e-03   1.8556851e+00   1.5126713e+00  -1.2718871e+07
   8.2027342e-10  -2.6137486e-03   1.8548618e+00   1.5134942e+00  -1.2657533e+07
   8.2127376e-10  -2.6011174e-03   1.8540427e+00   1.5143135e+00  -1.2596490e+07
   8.2227409e-10  -2.5885471e-03   1.8532277e+00   1.5151292e+00  -1.2535739e+07
   8.2327442e-10  -2.5760374e-03   1.8524167e+00   1.5159411e+00  -1.2475281e+07
   8.2427476e-10  -2.5635881e-03   1.8516098e+00   1.5167494e+00  -1.2415114e+07
   8.2527509e-10  -2.5511988e-03   1.8508069e+00   1.5175541e+00  -1.2355235e+07
   8.2627543e-10  -2.5388693e-03   1.8500081e+00   1.5183551e+00  -1.2295645e+07
   8.2727576e-10  -2.5265993e-03   1.8492133e+00   1.5191525e+00  -1.2236340e+07
   8.2827609e-10  -2.5143884e-03   1.8484224e+00   1.5199464e+00  -1.2177321e+07
   8.2927643e-10  -2.5022364e-03   1.8476355e+00   1.5207367e+00  -1.2118586e+07
   8.3027676e-10  -2.4901430e-03   1.8468525e+00   1.5215234e+00  -1.2060133e+07
   8.3127709e-10  -2.4781080e-03   1.8460734e+00   1.5223065e+00  -1.2001961e+07
   8.3227743e-10  -2.4661310e-03   1.8452983e+00   1.5230861e+00  -1.1944068e+07
   8.3327776e-10  -2.4542118e-03   1.8445270e+00   1.5238622e+00  -1.1886454e+07
   8.3427809e-10  -2.4423501e-03   1.8437595e+00   1.5246348e+00  -1.1829117e+07
   8.3527843e-10  -2.4305456e-03   1.8429959e+00   1.5254040e+00  -1.1772055e+07
   8.3627876e-10  -2.4187981e-03   1.8422362e+00   1.5261696e+00  -1.1715268e+07
   8.3727909e-10  -2.4071072e-03   1.8414802e+00   1.5269318e+00  -1.1658754e+07
   8.3827943e-10  -2.3954727e-03   1.8407280e+00   1.5276905e+00  -1.1602512e+07
   8.3927976e-10  -2.3838943e-03   1.8399795e+00   1.5284458e+00  -1.1546539e+07
   8.4028009e-10  -2.3723718e-03   1.8392348e+00   1.5291977e+00  -1.1490837e+07
   8.4128043e-10  -2.3609049e-03   1.8384938e+00   1.5299462e+00  -1.1435401e+07
   8.4228076e-10  -2.3494933e-03   1.8377565e+00   1.5306913e+00  -1.1380233e+07
   8.4328109e-10  -2.3381368e-03   1.8370229e+00   1.5314330e+00  -1.1325330e+07
   8.4428143e-10  -2.3268350e-03   1.8362930e+00   1.5321713e+00  -1.1270690e+07
   8.4528176e-10  -2.3155878e-03   1.8355667e+00   1.5329063e+00  -1.1216314e+07
   8.4628209e-10  -2.3043948e-03   1.8348440e+00   1.5336380e+00  -1.1162199e+07
   8.4728243e-10  -2.2932558e-03   1.8341249e+00   1.5343664e+00  -1.1108344e+07
   8.4828276e-10  -2.2821706e-03   1.8334094e+00   1.5350914e+00  -1.1054748e+07
   8.4928309e-10  -2.2711389e-03   1.8326975e+00   1.5358132e+00  -1.1001410e+07
   8.5028343e-10  -2.2601604e-03   1.8319892e+00   1.5365316e+00  -1.0948329e+07
   8.5128376e-10  -2.2492348e-03   1.8312844e+00   1.5372469e+00  -1.0895503e+07
   8.5228409e-10  -2.2383620e-03   1.8305831e+00   1.5379588e+00  -1.0842930e+07
   8.5328443e-10  -2.2275417e-03   1.8298852e+00   1.5386676e+00  -1.0790611e+07
   8.5428476e-10  -2.2167735e-03   1.8291909e+00   1.5393731e+00  -1.0738543e+07
   8.5528510e-10  -2.2060573e-03   1.8285000e+00   1.5400754e+00  -1.0686726e+07
   8.5628543e-10  -2.1953929e-03   1.8278126e+00   1.5407745e+00  -1.0635158e+07
   8.5728576e-10  -2.1847799e-03   1.8271286e+00   1.5414704e+00  -1.0583838e+07
   8.5828610e-10  -2.1742180e-03   1.8264480e+00   1.5421632e+00  -1.0532765e+07
   8.5928643e-10  -2.1637072e-03   1.8257709e+00   1.5428528e+00  -1.0481938e+07
   8.6028676e-10  -2.1532471e-03   1.8250970e+00   1.5435392e+00  -1.0431355e+07
   8.6128710e-10  -2.1428375e-03   1.8244266e+00   1.5442225e+00  -1.0381015e+07
   8.6228743e-10  -2.1324781e-03   1.8237595e+00   1.5449027e+00  -1.0330918e+07
   8.6328776e-10  -2.1221687e-03   1.8230957e+00   1.5455799e+00  -1.0281062e+07
   8.6428810e-10  -2.1119090e-03   1.8224352e+00   1.5462539e+00  -1.0231445e+07
   8.6528843e-10  -2.1016989e-03   1.8217780e+00   1.5469248e+00  -1.0182067e+07
   8.6628876e-10  -2.0915380e-03   1.8211241e+00   1.5475927e+00  -1.0132927e+07
   8.6728910e-10  -2.0814262e-03   1.8204734e+00   1.5482575e+00  -1.0084023e+07
   8.6828943e-10  -2.0713632e-03   1.8198260e+00   1.5489193e+00  -1.0035355e+07
   8.6928976e-10  -2.0613487e-03   1.8191817e+00   1.5495781e+00  -9.9869206e+06
   8.7029010e-10  -2.0513826e-03   1.8185407e+00   1.5502339e+00  -9.9387193e+06
   8.7129043e-10  -2.0414646e-03   1.8179029e+00   1.5508866e+00  -9.8907500e+06
   8.7229076e-10  -2.0315944e-03   1.8172683e+00   1.5515364e+00  -9.8430114e+06
   8.7329110e-10  -2.0217719e-03   1.8166368e+00   1.5521832e+00  -9.7955026e+06
   8.7429143e-10  -2.0119968e-03   1.8160085e+00   1.5528271e+00  -9.7482224e+06
   8.7529176e-10  -2.0022689e-03   1.8153833e+00   1.5534680e+00  -9.7011697e+06
   8.7629210e-10  -1.9925879e-03   1.8147612e+00   1.5541059e+00  -9.6543435e+06
   8.7729243e-10  -1.9829537e-03   1.8141422e+00   1.5547410e+00  -9.6077426e+06
   8.7829276e-10  -1.9733659e-03   1.8135263e+00   1.5553731e+00  -9.5613660e+06
   8.7929310e-10  -1.9638245e-03   1.8129134e+00   1.5560023e+00  -9.5152126e+06
   8.8029343e-10  -1.9543291e-03   1.8123036e+00   1.5566287e+00  -9.4692813e+06
   8.8129376e-10  -1.9448795e-03   1.8116968e+00   1.5572521e+00  -9.4235710e+06
   8.8229410e-10  -1.9354756e-03   1.8110930e+00   1.5578728e+00  -9.3780808e+06
   8.8329443e-10  -1.9261171e-03   1.8104923e+00   1.5584905e+00  -9.3328095e+06
   8.8429476e-10  -1.9168037e-03   1.8098945e+00   1.5591055e+00  -9.2877561e+06
   8.8529510e-10  -1.9075353e-03   1.8092997e+00   1.5597176e+00  -9.2429196e+06
   8.8629543e-10  -1.8983116e-03   1.8087078e+00   1.5603269e+00  -9.1982989e+06
   8.8729577e-10  -1.8891325e-03   1.8081189e+00   1.5609334e+00  -9.1538930e+06
   8.8829610e-10  -1.8799976e-03   1.8075329e+00   1.5615371e+00  -9.1097008e+06
   8.8929643e-10  -1.8709069e-03   1.8069499e+00   1.5621380e+00  -9.0657214e+06
   8.9029677e-10  -1.8618601e-03   1.8063697e+00   1.5627362e+00  -9.0219537e+06
   8.9129710e-10  -1.8528569e-03   1.8057924e+00   1.5633316e+00  -8.9783967e+06
   8.9229743e-10  -1.8438972e-03   1.8052180e+00   1.5639243e+00  -8.9350494e+06
   8.9329777e-10  -1.8349808e-03   1.8046464e+00   1.5645143e+00  -8.8919107e+06
   8.9429810e-10  -1.8261074e-03   1.8040777e+00   1.5651015e+00  -8.8489798e+06
   8.9529843e-10  -1.8172769e-03   1.8035117e+00   1.5656861e+00  -8.8062555e+06
   8.9629877e-10  -1.8084890e-03   1.8029486e+00   1.5662679e+00  -8.7637369e+06
   8.9729910e-10  -1.7997435e-03   1.8023883e+00   1.5668471e+00  -8.7214231e+06
   8.9829943e-10  -1.7910402e-03   1.8018308e+00   1.5674236e+00  -8.6793130e+06
   8.9929977e-10  -1.7823790e-03   1.8012760e+00   1.5679974e+00  -8.6374056e+06
   9.0030010e-10  -1.7737596e-03   1.8007240e+00   1.5685686e+00  -8.5957000e+06
   9.0130043e-10  -1.7651818e-03   1.8001748e+00   1.5691372e+00  -8.5541952e+06
   9.0230077e-10  -1.7566454e-03   1.7996282e+00   1.5697031e+00  -8.5128903e+06
   9.0330110e-10  -1.7481503e-03   1.7990844e+00   1.5702665e+00  -8.4717843e+06
   9.0430143e-10  -1.7396961e-03   1.7985432e+00   1.5708272e+00  -8.4308763e+06
   9.0530177e-10  -1.7312828e-03   1.7980048e+00   1.5713853e+00  -8.3901652e+06
   9.0630210e-10  -1.7229102e-03   1.7974690e+00   1.5719409e+00  -8.3496502e+06
   9.0730243e-10  -1.7145779e-03   1.7969359e+00   1.5724939e+00  -8.3093303e+06
   9.0830277e-10  -1.7062859e-03   1.7964054e+00   1.5730443e+00  -8.2692045e+06
   9.0930310e-10  -1.6980339e-03   1.7958775e+00   1.5735923e+00  -8.2292721e+06
   9.1030343e-10  -1.6898218e-03   1.7953523e+00   1.5741376e+00  -8.1895319e+06
   9.1130377e-10  -1.6816493e-03   1.7948297e+00   1.5746805e+00  -8.1499831e+06
   9.1230410e-10  -1.6735163e-03   1.7943096e+00   1.5752208e+00  -8.1106248e+06
   9.1330443e-10  -1.6654226e-03   1.7937922e+00   1.5757587e+00  -8.0714561e+06
   9.1430477e-10  -1.6573680e-03   1.7932773e+00   1.5762940e+00  -8.0324760e+06
   9.1530510e-10  -1.6493522e-03   1.7927649e+00   1.5768269e+00  -7.9936837e+06
   9.1630544e-10  -1.6413752e-03   1.7922551e+00   1.5773573e+00  -7.9550783e+06
   9.1730577e-10  -1.6334367e-03   1.7917478e+00   1.5778852e+00  -7.9166587e+06
   9.1830610e-10  -1.6255366e-03   1.7912430e+00   1.5784108e+00  -7.8784243e+06
   9.1930644e-10  -1.6176745e-03   1.7907408e+00   1.5789338e+00  -7.8403740e+06
   9.2030677e-10  -1.6098505e-03   1.7902410e+00   1.5794545e+00  -7.8025071e+06
   9.2130710e-10  -1.6020643e-03   1.7897437e+00   1.5799727e+00  -7.7648225e+06
   9.2230744e-10  -1.5943156e-03   1.7892488e+00   1.5804886e+00  -7.7273195e+06
   9.2330777e-10  -1.5866044e-03   1.7887564e+00   1.5810020e+00  -7.6899972e+06
   9.2430810e-10  -1.5789304e-03   1.7882665e+00   1.5815131e+00  -7.6528546e+06
   9.2530844e-10  -1.5712935e-03   1.7877789e+00   1.5820218e+00  -7.6158910e+06
   9.2630877e-10  -1.5636935e-03   1.7872938e+00   1.5825281e+00  -7.5791055e+06
   9.2730910e-10  -1.5561302e-03   1.7868111e+00   1.5830321e+00  -7.5424972e+06
   9.2830944e-10  -1.5486034e-03   1.7863308e+00   1.5835337e+00  -7.5060653e+06
   9.2930977e-10  -1.5411130e-03   1.7858528e+00   1.5840331e+00  -7.4698089e+06
   9.3031010e-10  -1.5336588e-03   1.7853772e+00   1.5845301e+00  -7.4337272e+06
   9.3131044e-10  -1.5262406e-03   1.7849040e+00   1.5850248e+00  -7.3978194e+06
   9.3231077e-10  -1.5188582e-03   1.7844331e+00   1.5855171e+00  -7.3620846e+06
   9.3331110e-10  -1.5115114e-03   1.7839645e+00   1.5860073e+00  -7.3265219e+06
   9.3431144e-10  -1.5042002e-03   1.7834983e+00   1.5864951e+00  -7.2911307e+06
   9.3531177e-10  -1.4969242e-03   1.7830343e+00   1.5869806e+00  -7.2559099e+06
   9.3631210e-10  -1.4896835e-03   1.7825727e+00   1.5874639e+00  -7.2208589e+06
   9.3731244e-10  -1.4824776e-03   1.7821133e+00   1.5879450e+00  -7.1859768e+06
   9.3831277e-10  -1.4753067e-03   1.7816562e+00   1.5884238e+00  -7.1512628e+06
   9.3931310e-10  -1.4681703e-03   1.7812014e+00   1.5889004e+00  -7.1167161e+06
   9.4031344e-10  -1.4610684e-03   1.7807488e+00   1.5893748e+00  -7.0823359e+06
   9.4131377e-10  -1.4540008e-03   1.7802984e+00   1.5898470e+00  -7.0481213e+06
   9.4231410e-10  -1.4469674e-03   1.7798503e+00   1.5903169e+00  -7.0140717e+06
   9.4331444e-10  -1.4399680e-03   1.7794044e+00   1.5907847e+00  -6.9801861e+06
   9.4431477e-10  -1.4330023e-03   1.7789607e+00   1.5912503e+00  -6.9464639e+06
   9.4531511e-10  -1.4260704e-03   1.7785192e+00   1.5917137e+00  -6.9129042e+06
   9.4631544e-10  -1.4191719e-03   1.7780799e+00   1.5921750e+00  -6.8795062e+06
   9.4731577e-10  -1.4123067e-03   1.7776427e+00   1.5926341e+00  -6.8462693e+06
   9.4831611e-10  -1.4054747e-03   1.7772077e+00   1.5930911e+00  -6.8131925e+06
   9.4931644e-10  -1.3986757e-03   1.7767748e+00   1.5935460e+00  -6.7802751e+06
   9.5031677e-10  -1.3919096e-03   1.7763441e+00   1.5939987e+00  -6.7475165e+06
   9.5131711e-10  -1.3851761e-03   1.7759155e+00   1.5944493e+00  -6.7149157e+06
   9.5231744e-10  -1.3784752e-03   1.7754891e+00   1.5948979e+00  -6.6824721e+06
   9.5331777e-10  -1.3718067e-03   1.7750647e+00   1.5953443e+00  -6.6501849e+06
   9.5431811e-10  -1.3651704e-03   1.7746424e+00   1.5957886e+00  -6.6180533e+06
   9.5531844e-10  -1.3585661e-03   1.7742222e+00   1.5962309e+00  -6.5860766e+06
   9.5631877e-10  -1.3519938e-03   1.7738041e+00   1.5966711e+00  -6.5542540e+06
   9.5731911e-10  -1.3454532e-03   1.7733881e+00   1.5971093e+00  -6.5225849e+06
   9.5831944e-10  -1.3389442e-03   1.7729741e+00   1.5975454e+00  -6.4910684e+06
   9.5931977e-10  -1.3324667e-03   1.7725621e+00   1.5979794e+00  -6.4597039e+06
   9.6032011e-10  -1.3260204e-03   1.7721522e+00   1.5984115e+00  -6.4284906e+06
   9.6132044e-10  -1.3196053e-03   1.7717443e+00   1.5988415e+00  -6.3974278e+06
   9.6232077e-10  -1.3132213e-03   1.7713384e+00   1.5992695e+00  -6.3665148e+06
   9.6332111e-10  -1.3068680e-03   1.7709346e+00   1.5996955e+00  -6.3357508e+06
   9.6432144e-10  -1.3005455e-03   1.7705327e+00   1.6001195e+00  -6.3051351e+06
   9.6532177e-10  -1.2942535e-03   1.7701328e+00   1.6005416e+00  -6.2746670e+06
   9.6632211e-10  -1.2879919e-03   1.7697348e+00   1.6009616e+00  -6.2443459e+06
   9.6732244e-10  -1.2817606e-03   1.7693389e+00   1.6013797e+00  -6.2141709e+06
   9.6832277e-10  -1.2755594e-03   1.7689448e+00   1.6017959e+00  -6.1841414e+06
   9.6932311e-10  -1.2693881e-03   1.7685528e+00   1.6022101e+00  -6.1542568e+06
   9.7032344e-10  -1.2632467e-03   1.7681626e+00   1.6026223e+00  -6.1245162e+06
   9.7132377e-10  -1.2571350e-03   1.7677744e+00   1.6030327e+00  -6.0949191e+06
   9.7232411e-10  -1.2510528e-03   1.7673881e+00   1.6034411e+00  -6.0654647e+06
   9.7332444e-10  -1.2449999e-03   1.7670037e+00   1.6038476e+00  -6.0361523e+06
   9.7432477e-10  -1.2389764e-03   1.7666212e+00   1.6042522e+00  -6.0069813e+06
   9.7532511e-10  -1.2329819e-03   1.7662406e+00   1.6046548e+00  -5.9779509e+06
   9.7632544e-10  -1.2270164e-03   1.7658618e+00   1.6050557e+00  -5.9490606e+06
   9.7732578e-10  -1.2210798e-03   1.7654850e+00   1.6054546e+00  -5.9203096e+06
   9.7832611e-10  -1.2151718e-03   1.7651100e+00   1.6058517e+00  -5.8916972e+06
   9.7932644e-10  -1.2092924e-03   1.7647368e+00   1.6062469e+00  -5.8632229e+06
   9.8032678e-10  -1.2034414e-03   1.7643655e+00   1.6066402e+00  -5.8348858e+06
   9.8132711e-10  -1.1976187e-03   1.7639960e+00   1.6070317e+00  -5.8066855e+06
   9.8232744e-10  -1.1918241e-03   1.7636283e+00   1.6074214e+00  -5.7786211e+06
   9.8332778e-10  -1.1860576e-03   1.7632624e+00   1.6078092e+00  -5.7506921e+06
   9.8432811e-10  -1.1803189e-03   1.7628983e+00   1.6081952e+00  -5.7228979e+06
   9.8532844e-10  -1.1746079e-03   1.7625361e+00   1.6085794e+00  -5.6952377e+06
   9.8632878e-10  -1.1689246e-03   1.7621756e+00   1.6089618e+00  -5.6677109e+06
   9.8732911e-10  -1.1632687e-03   1.7618169e+00   1.6093425e+00  -5.6403168e+06
   9.8832944e-10  -1.1576401e-03   1.7614599e+00   1.6097213e+00  -5.6130549e+06
   9.8932978e-10  -1.1520388e-03   1.7611047e+00   1.6100983e+00  -5.5859246e+06
   9.9033011e-10  -1.1464645e-03   1.7607513e+00   1.6104736e+00  -5.5589251e+06
   9.9133044e-10  -1.1409172e-03   1.7603996e+00   1.6108471e+00  -5.5320558e+06
   9.9233078e-10  -1.1353967e-03   1.7600496e+00   1.6112189e+00  -5.5053161e+06
   9.9333111e-10  -1.1299028e-03   1.7597013e+00   1.6115889e+00  -5.4787055e+06
   9.9433144e-10  -1.1244355e-03   1.7593548e+00   1.6119572e+00  -5.4522232e+06
   9.9533178e-10  -1.1189947e-03   1.7590100e+00   1.6123237e+00  -5.4258687e+06
   9.9633211e-10  -1.1135801e-03   1.7586669e+00   1.6126885e+00  -5.3996413e+06
   9.9733244e-10  -1.1081918e-03   1.7583254e+00   1.6130516e+00  -5.3735404e+06
   9.9833278e-10  -1.1028294e-03   1.7579856e+00   1.6134130e+00  -5.3475655e+06
   9.9933311e-10  -1.0974930e-03   1.7576476e+00   1.6137727e+00  -5.3217159e+06
   1.0003334e-09  -1.0921824e-03   1.7573111e+00   1.6141307e+00  -5.2959910e+06
   1.0013338e-09  -1.0868975e-03   1.7569764e+00   1.6144870e+00  -5.2703902e+06
   1.0023341e-09  -1.0816381e-03   1.7566432e+00   1.6148417e+00  -5.2449129e+06
   1.0033344e-09  -1.0764041e-03   1.7563117e+00   1.6151947e+00  -5.2195586e+06
   1.0043348e-09  -1.0711954e-03   1.7559819e+00   1.6155460e+00  -5.1943266e+06
   1.0053351e-09  -1.0660120e-03   1.7556537e+00   1.6158957e+00  -5.1692163e+06
   1.0063354e-09  -1.0608535e-03   1.7553270e+00   1.6162437e+00  -5.1442272e+06
   1.0073358e-09  -1.0557200e-03   1.7550020e+00   1.6165900e+00  -5.1193587e+06
   1.0083361e-09  -1.0506114e-03   1.7546786e+00   1.6169348e+00  -5.0946102e+06
   1.0093364e-09  -1.0455274e-03   1.7543568e+00   1.6172779e+00  -5.0699811e+06
   1.0103368e-09  -1.0404680e-03   1.7540365e+00   1.6176194e+00  -5.0454708e+06
   1.0113371e-09  -1.0354330e-03   1.7537179e+00   1.6179593e+00  -5.0210788e+06
   1.0123374e-09  -1.0304224e-03   1.7534008e+00   1.6182976e+00  -4.9968045e+06
   1.0133378e-09  -1.0254360e-03   1.7530852e+00   1.6186343e+00  -4.9726474e+06
   1.0143381e-09  -1.0204738e-03   1.7527712e+00   1.6189694e+00  -4.9486068e+06
   1.0153384e-09  -1.0155355e-03   1.7524588e+00   1.6193030e+00  -4.9246823e+06
   1.0163388e-09  -1.0106211e-03   1.7521479e+00   1.6196350e+00  -4.9008732e+06
   1.0173391e-09  -1.0057304e-03   1.7518385e+00   1.6199654e+00  -4.8771790e+06
   1.0183394e-09  -1.0008634e-03   1.7515306e+00   1.6202942e+00  -4.8535992e+06
   1.0193398e-09  -9.9601996e-04   1.7512243e+00   1.6206215e+00  -4.8301331e+06
   1.0203401e-09  -9.9119991e-04   1.7509194e+00   1.6209472e+00  -4.8067803e+06
   1.0213404e-09  -9.8640316e-04   1.7506161e+00   1.6212714e+00  -4.7835402e+06
   1.0223408e-09  -9.8162960e-04   1.7503142e+00   1.6215941e+00  -4.7604123e+06
   1.0233411e-09  -9.7687912e-04   1.7500138e+00   1.6219153e+00  -4.7373960e+06
   1.0243414e-09  -9.7215161e-04   1.7497149e+00   1.6222349e+00  -4.7144908e+06
   1.0253418e-09  -9.6744696e-04   1.7494175e+00   1.6225531e+00  -4.6916962e+06
   1.0263421e-09  -9.6276506e-04   1.7491215e+00   1.6228697e+00  -4.6690116e+06
   1.0273424e-09  -9.5810579e-04   1.7488270e+00   1.6231848e+00  -4.6464364e+06
   1.0283428e-09  -9.5346905e-04   1.7485340e+00   1.6234985e+00  -4.6239703e+06
   1.0293431e-09  -9.4885473e-04   1.7482423e+00   1.6238107e+00  -4.6016126e+06
   1.0303434e-09  -9.4426272e-04   1.7479521e+00   1.6241214e+00  -4.5793627e+06
   1.0313438e-09  -9.3969291e-04   1.7476633e+00   1.6244306e+00  -4.5572203e+06
   1.0323441e-09  -9.3514520e-04   1.7473760e+00   1.6247384e+00  -4.5351848e+06
   1.0333444e-09  -9.3061948e-04   1.7470900e+00   1.6250447e+00  -4.5132557e+06
   1.0343448e-09  -9.2611564e-04   1.7468055e+00   1.6253495e+00  -4.4914324e+06
   1.0353451e-09  -9.2163359e-04   1.7465224e+00   1.6256530e+00  -4.4697144e+06
   1.0363454e-09  -9.1717320e-04   1.7462406e+00   1.6259549e+00  -4.4481013e+06
   1.0373458e-09  -9.1273438e-04   1.7459602e+00   1.6262555e+00  -4.4265926e+06
   1.0383461e-09  -9.0831703e-04   1.7456812e+00   1.6265547e+00  -4.4051876e+06
   1.0393464e-09  -9.0392103e-04   1.7454036e+00   1.6268524e+00  -4.3838861e+06
   1.0403468e-09  -8.9954630e-04   1.7451273e+00   1.6271487e+00  -4.3626873e+06
   1.0413471e-09  -8.9519271e-04   1.7448524e+00   1.6274436e+00  -4.3415909e+06
   1.0423474e-09  -8.9086019e-04   1.7445789e+00   1.6277371e+00  -4.3205963e+06
   1.0433478e-09  -8.8654861e-04   1.7443067e+00   1.6280293e+00  -4.2997031e+06
   1.0443481e-09  -8.8225788e-04   1.7440358e+00   1.6283200e+00  -4.2789108e+06
   1.0453484e-09  -8.7798790e-04   1.7437662e+00   1.6286094e+00  -4.2582188e+06
   1.0463488e-09  -8.7373857e-04   1.7434980e+00   1.6288974e+00  -4.2376268e+06
   1.0473491e-09  -8.6950978e-04   1.7432311e+00   1.6291841e+00  -4.2171342e+06
   1.0483494e-09  -8.6530145e-04   1.7429655e+00   1.6294694e+00  -4.1967405e+06
   1.0493498e-09  -8.6111347e-04   1.7427012e+00   1.6297533e+00  -4.1764453e+06
   1.0503501e-09  -8.5694574e-04   1.7424382e+00   1.6300359e+00  -4.1562481e+06
   1.0513505e-09  -8.5279817e-04   1.7421764e+00   1.6303171e+00  -4.1361484e+06
   1.0523508e-09  -8.4867066e-04   1.7419160e+00   1.6305971e+00  -4.1161457e+06
   1.0533511e-09  -8.4456310e-04   1.7416569e+00   1.6308757e+00  -4.0962397e+06
   1.0543515e-09  -8.4047541e-04   1.7413990e+00   1.6311530e+00  -4.0764297e+06
   1.0553518e-09  -8.3640749e-04   1.7411423e+00   1.6314289e+00  -4.0567154e+06
   1.0563521e-09  -8.3235924e-04   1.7408870e+00   1.6317036e+00  -4.0370963e+06
   1.0573525e-09  -8.2833058e-04   1.7406329e+00   1.6319769e+00  -4.0175720e+06
   1.0583528e-09  -8.2432139e-04   1.7403800e+00   1.6322490e+00  -3.9981419e+06
   1.0593531e-09  -8.2033159e-04   1.7401284e+00   1.6325198e+00  -3.9788057e+06
   1.0603535e-09  -8.1636109e-04   1.7398780e+00   1.6327893e+00  -3.9595628e+06
   1.0613538e-09  -8.1240980e-04   1.7396288e+00   1.6330575e+00  -3.9404129e+06
   1.0623541e-09  -8.0847761e-04   1.7393809e+00   1.6333244e+00  -3.9213554e+06
   1.0633545e-09  -8.0456444e-04   1.7391342e+00   1.6335901e+00  -3.9023900e+06
   1.0643548e-09  -8.0067020e-04   1.7388886e+00   1.6338545e+00  -3.8835162e+06
   1.0653551e-09  -7.9679479e-04   1.7386443e+00   1.6341177e+00  -3.8647335e+06
   1.0663555e-09  -7.9293812e-04   1.7384012e+00   1.6343796e+00  -3.8460415e+06
   1.0673558e-09  -7.8910011e-04   1.7381593e+00   1.6346402e+00  -3.8274398e+06
   1.0683561e-09  -7.8528066e-04   1.7379185e+00   1.6348997e+00  -3.8089279e+06
   1.0693565e-09  -7.8147968e-04   1.7376790e+00   1.6351579e+00  -3.7905055e+06
   1.0703568e-09  -7.7769709e-04   1.7374406e+00   1.6354149e+00  -3.7721720e+06
   1.0713571e-09  -7.7393279e-04   1.7372034e+00   1.6356706e+00  -3.7539271e+06
   1.0723575e-09  -7.7018670e-04   1.7369673e+00   1.6359252e+00  -3.7357702e+06
   1.0733578e-09  -7.6645873e-04   1.7367324e+00   1.6361785e+00  -3.7177011e+06
   1.0743581e-09  -7.6274879e-04   1.7364987e+00   1.6364306e+00  -3.6997193e+06
   1.0753585e-09  -7.5905680e-04   1.7362660e+00   1.6366816e+00  -3.6818243e+06
   1.0763588e-09  -7.5538266e-04   1.7360346e+00   1.6369313e+00  -3.6640157e+06
   1.0773591e-09  -7.5172629e-04   1.7358042e+00   1.6371799e+00  -3.6462932e+06
   1.0783595e-09  -7.4808761e-04   1.7355750e+00   1.6374273e+00  -3.6286562e+06
   1.0793598e-09  -7.4446653e-04   1.7353470e+00   1.6376735e+00  -3.6111045e+06
   1.0803601e-09  -7.4086297e-04   1.7351200e+00   1.6379185e+00  -3.5936375e+06
   1.0813605e-09  -7.3727683e-04   1.7348941e+00   1.6381624e+00  -3.5762549e+06
   1.0823608e-09  -7.3370804e-04   1.7346694e+00   1.6384051e+00  -3.5589563e+06
   1.0833611e-09  -7.3015652e-04   1.7344457e+00   1.6386466e+00  -3.5417412e+06
   1.0843615e-09  -7.2662217e-04   1.7342232e+00   1.6388871e+00  -3.5246093e+06
   1.0853618e-09  -7.2310492e-04   1.7340017e+00   1.6391263e+00  -3.5075602e+06
   1.0863621e-09  -7.1960468e-04   1.7337813e+00   1.6393645e+00  -3.4905934e+06
   1.0873625e-09  -7.1612138e-04   1.7335620e+00   1.6396015e+00  -3.4737086e+06
   1.0883628e-09  -7.1265492e-04   1.7333438e+00   1.6398373e+00  -3.4569053e+06
   1.0893631e-09  -7.0920523e-04   1.7331266e+00   1.6400721e+00  -3.4401832e+06
   1.0903635e-09  -7.0577223e-04   1.7329105e+00   1.6403057e+00  -3.4235419e+06
   1.0913638e-09  -7.0235584e-04   1.7326955e+00   1.6405382e+00  -3.4069810e+06
   1.0923641e-09  -6.9895597e-04   1.7324815e+00   1.6407697e+00  -3.3905001e+06
   1.0933645e-09  -6.9557255e-04   1.7322686e+00   1.6410000e+00  -3.3740988e+06
   1.0943648e-09  -6.9220550e-04   1.7320567e+00   1.6412292e+00  -3.3577768e+06
   1.0953651e-09  -6.8885473e-04   1.7318458e+00   1.6414573e+00  -3.3415336e+06
   1.0963655e-09  -6.8552018e-04   1.7316360e+00   1.6416844e+00  -3.3253689e+06
   1.0973658e-09  -6.8220175e-04   1.7314272e+00   1.6419104e+00  -3.3092822e+06
   1.0983661e-09  -6.7889938e-04   1.7312194e+00   1.6421353e+00  -3.2932733e+06
   1.0993665e-09  -6.7561298e-04   1.7310126e+00   1.6423591e+00  -3.2773418e+06
   1.1003668e-09  -6.7234248e-04   1.7308069e+00   1.6425818e+00  -3.2614872e+06
   1.1013671e-09  -6.6908781e-04   1.7306021e+00   1.6428035e+00  -3.2457092e+06
   1.1023675e-09  -6.6584888e-04   1.7303984e+00   1.6430242e+00  -3.2300075e+06
   1.1033678e-09  -6.6262561e-04   1.7301957e+00   1.6432438e+00  -3.2143816e+06
   1.1043681e-09  -6.5941794e-04   1.7299939e+00   1.6434623e+00  -3.1988312e+06
   1.1053685e-09  -6.5622579e-04   1.7297931e+00   1.6436798e+00  -3.1833560e+06
   1.1063688e-09  -6.5304908e-04   1.7295933e+00   1.6438963e+00  -3.1679555e+06
   1.1073691e-09  -6.4988774e-04   1.7293945e+00   1.6441118e+00  -3.1526295e+06
   1.1083695e-09  -6.4674170e-04   1.7291967e+00   1.6443262e+00  -3.1373775e+06
   1.1093698e-09  -6.4361087e-04   1.7289998e+00   1.6445396e+00  -3.1221992e+06
   1.1103701e-09  -6.4049519e-04   1.7288039e+00   1.6447519e+00  -3.1070942e+06
   1.1113705e-09  -6.3739459e-04   1.7286090e+00   1.6449633e+00  -3.0920623e+06
   1.1123708e-09  -6.3430898e-04   1.7284150e+00   1.6451737e+00  -3.0771029e+06
   1.1133711e-09  -6.3123830e-04   1.7282219e+00   1.6453830e+00  -3.0622159e+06
   1.1143715e-09  -6.2818248e-04   1.7280298e+00   1.6455914e+00  -3.0474008e+06
   1.1153718e-09  -6.2514145e-04   1.7278387e+00   1.6457988e+00  -3.0326573e+06
   1.1163721e-09  -6.2211512e-04   1.7276484e+00   1.6460051e+00  -3.0179850e+06
   1.1173725e-09  -6.1910344e-04   1.7274591e+00   1.6462105e+00  -3.0033836e+06
   1.1183728e-09  -6.1610633e-04   1.7272707e+00   1.6464150e+00  -2.9888528e+06
   1.1193731e-09  -6.1312372e-04   1.7270833e+00   1.6466184e+00  -2.9743922e+06
   1.1203735e-09  -6.1015554e-04   1.7268967e+00   1.6468209e+00  -2.9600015e+06
   1.1213738e-09  -6.0720172e-04   1.7267111e+00   1.6470224e+00  -2.9456804e+06
   1.1223741e-09  -6.0426219e-04   1.7265264e+00   1.6472229e+00  -2.9314284e+06
   1.1233745e-09  -6.0133688e-04   1.7263426e+00   1.6474225e+00  -2.9172453e+06
   1.1243748e-09  -5.9842573e-04   1.7261597e+00   1.6476212e+00  -2.9031308e+06
   1.1253751e-09  -5.9552866e-04   1.7259776e+00   1.6478188e+00  -2.8890845e+06
   1.1263755e-09  -5.9264561e-04   1.7257965e+00   1.6480156e+00  -2.8751061e+06
   1.1273758e-09  -5.8977651e-04   1.7256163e+00   1.6482114e+00  -2.8611952e+06
   1.1283761e-09  -5.8692129e-04   1.7254369e+00   1.6484063e+00  -2.8473516e+06
   1.1293765e-09  -5.8407988e-04   1.7252584e+00   1.6486002e+00  -2.8335748e+06
   1.1303768e-09  -5.8125223e-04   1.7250808e+00   1.6487933e+00  -2.8198647e+06
   1.1313771e-09  -5.7843825e-04   1.7249040e+00   1.6489854e+00  -2.8062208e+06
   1.1323775e-09  -5.7563789e-04   1.7247281e+00   1.6491765e+00  -2.7926428e+06
   1.1333778e-09  -5.7285108e-04   1.7245531e+00   1.6493668e+00  -2.7791305e+06
   1.1343781e-09  -5.7007776e-04   1.7243789e+00   1.6495562e+00  -2.7656835e+06
   1.1353785e-09  -5.6731785e-04   1.7242056e+00   1.6497446e+00  -2.7523015e+06
   1.1363788e-09  -5.6457130e-04   1.7240331e+00   1.6499322e+00  -2.7389841e+06
   1.1373791e-09  -5.6183803e-04   1.7238615e+00   1.6501189e+00  -2.7257312e+06
   1.1383795e-09  -5.5911799e-04   1.7236907e+00   1.6503047e+00  -2.7125423e+06
   1.1393798e-09  -5.5641112e-04   1.7235207e+00   1.6504895e+00  -2.6994171e+06
   1.1403801e-09  -5.5371734e-04   1.7233516e+00   1.6506735e+00  -2.6863554e+06
   1.1413805e-09  -5.5103659e-04   1.7231833e+00   1.6508567e+00  -2.6733568e+06
   1.1423808e-09  -5.4836882e-04   1.7230158e+00   1.6510389e+00  -2.6604210e+06
   1.1433811e-09  -5.4571396e-04   1.7228491e+00   1.6512203e+00  -2.6475478e+06
   1.1443815e-09  -5.4307194e-04   1.7226833e+00   1.6514008e+00  -2.6347368e+06
   1.1453818e-09  -5.4044270e-04   1.7225182e+00   1.6515805e+00  -2.6219877e+06
   1.1463821e-09  -5.3782619e-04   1.7223540e+00   1.6517593e+00  -2.6093003e+06
   1.1473825e-09  -5.3522234e-04   1.7221906e+00   1.6519372e+00  -2.5966742e+06
   1.1483828e-09  -5.3263109e-04   1.7220279e+00   1.6521143e+00  -2.5841091e+06
   1.1493831e-09  -5.3005238e-04   1.7218661e+00   1.6522906e+00  -2.5716048e+06
   1.1503835e-09  -5.2748615e-04   1.7217050e+00   1.6524660e+00  -2.5591609e+06
   1.1513838e-09  -5.2493233e-04   1.7215448e+00   1.6526405e+00  -2.5467771e+06
   1.1523841e-09  -5.2239088e-04   1.7213853e+00   1.6528143e+00  -2.5344532e+06
   1.1533845e-09  -5.1986172e-04   1.7212266e+00   1.6529872e+00  -2.5221889e+06
   1.1543848e-09  -5.1734480e-04   1.7210687e+00   1.6531593e+00  -2.5099839e+06
   1.1553851e-09  -5.1484005e-04   1.7209115e+00   1.6533305e+00  -2.4978379e+06
   1.1563855e-09  -5.1234743e-04   1.7207551e+00   1.6535009e+00  -2.4857506e+06
   1.1573858e-09  -5.0986688e-04   1.7205995e+00   1.6536706e+00  -2.4737218e+06
   1.1583861e-09  -5.0739832e-04   1.7204446e+00   1.6538394e+00  -2.4617511e+06
   1.1593865e-09  -5.0494171e-04   1.7202905e+00   1.6540074e+00  -2.4498382e+06
   1.1603868e-09  -5.0249699e-04   1.7201371e+00   1.6541746e+00  -2.4379830e+06
   1.1613871e-09  -5.0006410e-04   1.7199845e+00   1.6543410e+00  -2.4261851e+06
   1.1623875e-09  -4.9764298e-04   1.7198326e+00   1.6545066e+00  -2.4144442e+06
   1.1633878e-09  -4.9523358e-04   1.7196815e+00   1.6546714e+00  -2.4027601e+06
   1.1643881e-09  -4.9283584e-04   1.7195311e+00   1.6548354e+00  -2.3911324e+06
   1.1653885e-09  -4.9044971e-04   1.7193815e+00   1.6549987e+00  -2.3795610e+06
   1.1663888e-09  -4.8807512e-04   1.7192325e+00   1.6551611e+00  -2.3680455e+06
   1.1673891e-09  -4.8571202e-04   1.7190843e+00   1.6553228e+00  -2.3565857e+06
   1.1683895e-09  -4.8336035e-04   1.7189369e+00   1.6554837e+00  -2.3451813e+06
   1.1693898e-09  -4.8102007e-04   1.7187901e+00   1.6556439e+00  -2.3338321e+06
   1.1703901e-09  -4.7869111e-04   1.7186441e+00   1.6558032e+00  -2.3225377e+06
   1.1713905e-09  -4.7637343e-04   1.7184987e+00   1.6559619e+00  -2.3112979e+06
   1.1723908e-09  -4.7406696e-04   1.7183541e+00   1.6561197e+00  -2.3001125e+06
   1.1733911e-09  -4.7177165e-04   1.7182102e+00   1.6562768e+00  -2.2889811e+06
   1.1743915e-09  -4.6948745e-04   1.7180670e+00   1.6564332e+00  -2.2779036e+06
   1.1753918e-09  -4.6721431e-04   1.7179245e+00   1.6565888e+00  -2.2668796e+06
   1.1763921e-09  -4.6495216e-04   1.7177827e+00   1.6567436e+00  -2.2559090e+06
   1.1773925e-09  -4.6270097e-04   1.7176415e+00   1.6568977e+00  -2.2449914e+06
   1.1783928e-09  -4.6046067e-04   1.7175011e+00   1.6570511e+00  -2.2341265e+06
   1.1793931e-09  -4.5823121e-04   1.7173613e+00   1.6572037e+00  -2.2233142e+06
   1.1803935e-09  -4.5601254e-04   1.7172223e+00   1.6573557e+00  -2.2125542e+06
   1.1813938e-09  -4.5380460e-04   1.7170839e+00   1.6575068e+00  -2.2018463e+06
   1.1823941e-09  -4.5160736e-04   1.7169462e+00   1.6576573e+00  -2.1911900e+06
   1.1833945e-09  -4.4942075e-04   1.7168091e+00   1.6578070e+00  -2.1805854e+06
   1.1843948e-09  -4.4724472e-04   1.7166727e+00   1.6579561e+00  -2.1700320e+06
   1.1853951e-09  -4.4507922e-04   1.7165370e+00   1.6581044e+00  -2.1595296e+06
   1.1863955e-09  -4.4292420e-04   1.7164020e+00   1.6582520e+00  -2.1490780e+06
   1.1873958e-09  -4.4077961e-04   1.7162676e+00   1.6583989e+00  -2.1386770e+06
   1.1883961e-09  -4.3864540e-04   1.7161338e+00   1.6585451e+00  -2.1283262e+06
   1.1893965e-09  -4.3652152e-04   1.7160007e+00   1.6586905e+00  -2.1180255e+06
   1.1903968e-09  -4.3440792e-04   1.7158683e+00   1.6588353e+00  -2.1077746e+06
   1.1913971e-09  -4.3230455e-04   1.7157365e+00   1.6589794e+00  -2.0975733e+06
   1.1923975e-09  -4.3021136e-04   1.7156054e+00   1.6591228e+00  -2.0874214e+06
   1.1933978e-09  -4.2812830e-04   1.7154749e+00   1.6592656e+00  -2.0773185e+06
   1.1943981e-09  -4.2605532e-04   1.7153450e+00   1.6594076e+00  -2.0672644e+06
   1.1953985e-09  -4.2399238e-04   1.7152157e+00   1.6595490e+00  -2.0572590e+06
   1.1963988e-09  -4.2193942e-04   1.7150871e+00   1.6596896e+00  -2.0473020e+06
   1.1973991e-09  -4.1989639e-04   1.7149592e+00   1.6598296e+00  -2.0373931e+06
   1.1983995e-09  -4.1786325e-04   1.7148318e+00   1.6599690e+00  -2.0275322e+06
   1.1993998e-09  -4.1583996e-04   1.7147051e+00   1.6601076e+00  -2.0177189e+06
   1.2004001e-09  -4.1382646e-04   1.7145789e+00   1.6602457e+00  -2.0079531e+06
   1.2014005e-09  -4.1182270e-04   1.7144534e+00   1.6603830e+00  -1.9982345e+06
   1.2024008e-09  -4.0982864e-04   1.7143285e+00   1.6605197e+00  -1.9885629e+06
   1.2034011e-09  -4.0784423e-04   1.7142042e+00   1.6606557e+00  -1.9789381e+06
   1.2044015e-09  -4.0586943e-04   1.7140806e+00   1.6607911e+00  -1.9693599e+06
   1.2054018e-09  -4.0390418e-04   1.7139575e+00   1.6609258e+00  -1.9598279e+06
   1.2064021e-09  -4.0194845e-04   1.7138350e+00   1.6610599e+00  -1.9503421e+06
   1.2074025e-09  -4.0000218e-04   1.7137131e+00   1.6611933e+00  -1.9409022e+06
   1.2084028e-09  -3.9806533e-04   1.7135918e+00   1.6613261e+00  -1.9315079e+06
   1.2094031e-09  -3.9613786e-04   1.7134712e+00   1.6614583e+00  -1.9221590e+06
   1.2104035e-09  -3.9421972e-04   1.7133510e+00   1.6615898e+00  -1.9128553e+06
   1.2114038e-09  -3.9231086e-04   1.7132315e+00   1.6617207e+00  -1.9035967e+06
   1.2124041e-09  -3.9041124e-04   1.7131126e+00   1.6618510e+00  -1.8943828e+06
   1.2134045e-09  -3.8852082e-04   1.7129942e+00   1.6619806e+00  -1.8852135e+06
   1.2144048e-09  -3.8663954e-04   1.7128764e+00   1.6621097e+00  -1.8760885e+06
   1.2154051e-09  -3.8476737e-04   1.7127592e+00   1.6622381e+00  -1.8670077e+06
   1.2164055e-09  -3.8290427e-04   1.7126426e+00   1.6623659e+00  -1.8579708e+06
   1.2174058e-09  -3.8105018e-04   1.7125265e+00   1.6624930e+00  -1.8489776e+06
   1.2184061e-09  -3.7920506e-04   1.7124110e+00   1.6626196e+00  -1.8400279e+06
   1.2194065e-09  -3.7736888e-04   1.7122961e+00   1.6627456e+00  -1.8311215e+06
   1.2204068e-09  -3.7554158e-04   1.7121817e+00   1.6628709e+00  -1.8222582e+06
   1.2214071e-09  -3.7372313e-04   1.7120679e+00   1.6629957e+00  -1.8134377e+06
   1.2224075e-09  -3.7191349e-04   1.7119546e+00   1.6631198e+00  -1.8046599e+06
   1.2234078e-09  -3.7011260e-04   1.7118419e+00   1.6632434e+00  -1.7959246e+06
   1.2244081e-09  -3.6832042e-04   1.7117297e+00   1.6633664e+00  -1.7872315e+06
   1.2254085e-09  -3.6653693e-04   1.7116181e+00   1.6634887e+00  -1.7785804e+06
   1.2264088e-09  -3.6476206e-04   1.7115070e+00   1.6636105e+00  -1.7699712e+06
   1.2274091e-09  -3.6299579e-04   1.7113965e+00   1.6637317e+00  -1.7614037e+06
   1.2284095e-09  -3.6123807e-04   1.7112865e+00   1.6638524e+00  -1.7528776e+06
   1.2294098e-09  -3.5948885e-04   1.7111770e+00   1.6639724e+00  -1.7443927e+06
   1.2304101e-09  -3.5774811e-04   1.7110681e+00   1.6640919e+00  -1.7359489e+06
   1.2314105e-09  -3.5601578e-04   1.7109597e+00   1.6642108e+00  -1.7275459e+06
   1.2324108e-09  -3.5429185e-04   1.7108518e+00   1.6643291e+00  -1.7191835e+06
   1.2334111e-09  -3.5257626e-04   1.7107444e+00   1.6644469e+00  -1.7108616e+06
   1.2344115e-09  -3.5086897e-04   1.7106376e+00   1.6645641e+00  -1.7025800e+06
   1.2354118e-09  -3.4916995e-04   1.7105313e+00   1.6646807e+00  -1.6943384e+06
   1.2364121e-09  -3.4747915e-04   1.7104255e+00   1.6647968e+00  -1.6861367e+06
   1.2374125e-09  -3.4579654e-04   1.7103202e+00   1.6649123e+00  -1.6779747e+06
   1.2384128e-09  -3.4412207e-04   1.7102155e+00   1.6650272e+00  -1.6698522e+06
   1.2394131e-09  -3.4245571e-04   1.7101112e+00   1.6651416e+00  -1.6617689e+06
   1.2404135e-09  -3.4079741e-04   1.7100075e+00   1.6652555e+00  -1.6537248e+06
   1.2414138e-09  -3.3914714e-04   1.7099043e+00   1.6653688e+00  -1.6457195e+06
   1.2424141e-09  -3.3750486e-04   1.7098015e+00   1.6654816e+00  -1.6377530e+06
   1.2434145e-09  -3.3587053e-04   1.7096993e+00   1.6655938e+00  -1.6298250e+06
   1.2444148e-09  -3.3424411e-04   1.7095976e+00   1.6657055e+00  -1.6219354e+06
   1.2454151e-09  -3.3262556e-04   1.7094963e+00   1.6658166e+00  -1.6140840e+06
   1.2464155e-09  -3.3101485e-04   1.7093956e+00   1.6659272e+00  -1.6062705e+06
   1.2474158e-09  -3.2941194e-04   1.7092953e+00   1.6660373e+00  -1.5984948e+06
   1.2484161e-09  -3.2781678e-04   1.7091955e+00   1.6661469e+00  -1.5907568e+06
   1.2494165e-09  -3.2622935e-04   1.7090963e+00   1.6662559e+00  -1.5830561e+06
   1.2504168e-09  -3.2464960e-04   1.7089974e+00   1.6663644e+00  -1.5753928e+06
   1.2514171e-09  -3.2307750e-04   1.7088991e+00   1.6664724e+00  -1.5677665e+06
   1.2524175e-09  -3.2151301e-04   1.7088013e+00   1.6665799e+00  -1.5601771e+06
   1.2534178e-09  -3.1995610e-04   1.7087039e+00   1.6666868e+00  -1.5526244e+06
   1.2544181e-09  -3.1840672e-04   1.7086070e+00   1.6667933e+00  -1.5451082e+06
   1.2554185e-09  -3.1686484e-04   1.7085106e+00   1.6668992e+00  -1.5376285e+06
   1.2564188e-09  -3.1533042e-04   1.7084147e+00   1.6670046e+00  -1.5301849e+06
   1.2574191e-09  -3.1380344e-04   1.7083192e+00   1.6671095e+00  -1.5227773e+06
   1.2584195e-09  -3.1228384e-04   1.7082242e+00   1.6672139e+00  -1.5154055e+06
   1.2594198e-09  -3.1077160e-04   1.7081296e+00   1.6673178e+00  -1.5080695e+06
   1.2604201e-09  -3.0926668e-04   1.7080355e+00   1.6674212e+00  -1.5007689e+06
   1.2614205e-09  -3.0776905e-04   1.7079419e+00   1.6675241e+00  -1.4935036e+06
   1.2624208e-09  -3.0627867e-04   1.7078487e+00   1.6676265e+00  -1.4862735e+06
   1.2634211e-09  -3.0479550e-04   1.7077560e+00   1.6677285e+00  -1.4790783e+06
   1.2644215e-09  -3.0331951e-04   1.7076637e+00   1.6678299e+00  -1.4719180e+06
   1.2654218e-09  -3.0185067e-04   1.7075719e+00   1.6679308e+00  -1.4647923e+06
   1.2664221e-09  -3.0038894e-04   1.7074805e+00   1.6680313e+00  -1.4577011e+06
   1.2674225e-09  -2.9893429e-04   1.7073895e+00   1.6681313e+00  -1.4506442e+06
   1.2684228e-09  -2.9748667e-04   1.7072990e+00   1.6682308e+00  -1.4436215e+06
   1.2694231e-09  -2.9604607e-04   1.7072090e+00   1.6683298e+00  -1.4366327e+06
   1.2704235e-09  -2.9461244e-04   1.7071194e+00   1.6684283e+00  -1.4296777e+06
   1.2714238e-09  -2.9318575e-04   1.7070302e+00   1.6685264e+00  -1.4227564e+06
   1.2724241e-09  -2.9176597e-04   1.7069414e+00   1.6686240e+00  -1.4158686e+06
   1.2734245e-09  -2.9035306e-04   1.7068531e+00   1.6687211e+00  -1.4090141e+06
   1.2744248e-09  -2.8894699e-04   1.7067652e+00   1.6688178e+00  -1.4021927e+06
   1.2754251e-09  -2.8754772e-04   1.7066778e+00   1.6689140e+00  -1.3954044e+06
   1.2764255e-09  -2.8615524e-04   1.7065908e+00   1.6690097e+00  -1.3886489e+06
   1.2774258e-09  -2.8476949e-04   1.7065041e+00   1.6691050e+00  -1.3819261e+06
   1.2784261e-09  -2.8339045e-04   1.7064180e+00   1.6691998e+00  -1.3752359e+06
   1.2794265e-09  -2.8201809e-04   1.7063322e+00   1.6692942e+00  -1.3685780e+06
   1.2804268e-09  -2.8065237e-04   1.7062468e+00   1.6693881e+00  -1.3619523e+06
   1.2814271e-09  -2.7929327e-04   1.7061619e+00   1.6694815e+00  -1.3553586e+06
   1.2824275e-09  -2.7794074e-04   1.7060774e+00   1.6695745e+00  -1.3487969e+06
   1.2834278e-09  -2.7659476e-04   1.7059933e+00   1.6696671e+00  -1.3422670e+06
   1.2844281e-09  -2.7525530e-04   1.7059096e+00   1.6697592e+00  -1.3357686e+06
   1.2854285e-09  -2.7392232e-04   1.7058263e+00   1.6698508e+00  -1.3293016e+06
   1.2864288e-09  -2.7259580e-04   1.7057434e+00   1.6699421e+00  -1.3228660e+06
   1.2874291e-09  -2.7127570e-04   1.7056609e+00   1.6700329e+00  -1.3164615e+06
   1.2884295e-09  -2.6996199e-04   1.7055788e+00   1.6701232e+00  -1.3100880e+06
   1.2894298e-09  -2.6865464e-04   1.7054971e+00   1.6702131e+00  -1.3037453e+06
   1.2904301e-09  -2.6735362e-04   1.7054158e+00   1.6703026e+00  -1.2974333e+06
   1.2914305e-09  -2.6605890e-04   1.7053349e+00   1.6703917e+00  -1.2911519e+06
   1.2924308e-09  -2.6477044e-04   1.7052544e+00   1.6704803e+00  -1.2849009e+06
   1.2934311e-09  -2.6348823e-04   1.7051743e+00   1.6705685e+00  -1.2786801e+06
   1.2944315e-09  -2.6221222e-04   1.7050946e+00   1.6706563e+00  -1.2724894e+06
   1.2954318e-09  -2.6094239e-04   1.7050153e+00   1.6707436e+00  -1.2663287e+06
   1.2964321e-09  -2.5967871e-04   1.7049363e+00   1.6708306e+00  -1.2601977e+06
   1.2974325e-09  -2.5842115e-04   1.7048578e+00   1.6709171e+00  -1.2540965e+06
   1.2984328e-09  -2.5716967e-04   1.7047796e+00   1.6710032e+00  -1.2480248e+06
   1.2994331e-09  -2.5592425e-04   1.7047018e+00   1.6710888e+00  -1.2419824e+06
   1.3004335e-09  -2.5468487e-04   1.7046244e+00   1.6711741e+00  -1.2359693e+06
   1.3014338e-09  -2.5345148e-04   1.7045473e+00   1.6712590e+00  -1.2299853e+06
   1.3024341e-09  -2.5222407e-04   1.7044707e+00   1.6713434e+00  -1.2240302e+06
   1.3034345e-09  -2.5100259e-04   1.7043944e+00   1.6714275e+00  -1.2181040e+06
   1.3044348e-09  -2.4978704e-04   1.7043184e+00   1.6715111e+00  -1.2122064e+06
   1.3054351e-09  -2.4857736e-04   1.7042429e+00   1.6715944e+00  -1.2063374e+06
   1.3064355e-09  -2.4737355e-04   1.7041677e+00   1.6716772e+00  -1.2004968e+06
   1.3074358e-09  -2.4617556e-04   1.7040929e+00   1.6717596e+00  -1.1946844e+06
   1.3084361e-09  -2.4498337e-04   1.7040184e+00   1.6718417e+00  -1.1889002e+06
   1.3094365e-09  -2.4379696e-04   1.7039443e+00   1.6719233e+00  -1.1831440e+06
   1.3104368e-09  -2.4261629e-04   1.7038706e+00   1.6720046e+00  -1.1774156e+06
   1.3114371e-09  -2.4144133e-04   1.7037972e+00   1.6720854e+00  -1.1717150e+06
   1.3124375e-09  -2.4027207e-04   1.7037242e+00   1.6721659e+00  -1.1660419e+06
   1.3134378e-09  -2.3910846e-04   1.7036515e+00   1.6722460e+00  -1.1603963e+06
   1.3144381e-09  -2.3795049e-04   1.7035792e+00   1.6723257e+00  -1.1547780e+06
   1.3154385e-09  -2.3679813e-04   1.7035072e+00   1.6724050e+00  -1.1491869e+06
   1.3164388e-09  -2.3565134e-04   1.7034356e+00   1.6724840e+00  -1.1436228e+06
   1.3174391e-09  -2.3451011e-04   1.7033643e+00   1.6725625e+00  -1.1380857e+06
   1.3184395e-09  -2.3337440e-04   1.7032934e+00   1.6726407e+00  -1.1325754e+06
   1.3194398e-09  -2.3224419e-04   1.7032229e+00   1.6727185e+00  -1.1270917e+06
   1.3204401e-09  -2.3111946e-04   1.7031526e+00   1.6727959e+00  -1.1216346e+06
   1.3214405e-09  -2.3000017e-04   1.7030827e+00   1.6728730e+00  -1.1162039e+06
   1.3224408e-09  -2.2888630e-04   1.7030132e+00   1.6729497e+00  -1.1107995e+06
   1.3234411e-09  -2.2777782e-04   1.7029440e+00   1.6730260e+00  -1.1054212e+06
   1.3244415e-09  -2.2667471e-04   1.7028751e+00   1.6731019e+00  -1.1000690e+06
   1.3254418e-09  -2.2557694e-04   1.7028066e+00   1.6731775e+00  -1.0947426e+06
   1.3264421e-09  -2.2448448e-04   1.7027384e+00   1.6732527e+00  -1.0894421e+06
   1.3274425e-09  -2.2339732e-04   1.7026705e+00   1.6733276e+00  -1.0841671e+06
   1.3284428e-09  -2.2231542e-04   1.7026029e+00   1.6734021e+00  -1.0789178e+06
   1.3294431e-09  -2.2123876e-04   1.7025357e+00   1.6734762e+00  -1.0736938e+06
   1.3304435e-09  -2.2016731e-04   1.7024688e+00   1.6735500e+00  -1.0684951e+06
   1.3314438e-09  -2.1910104e-04   1.7024023e+00   1.6736234e+00  -1.0633216e+06
   1.3324441e-09  -2.1803995e-04   1.7023360e+00   1.6736965e+00  -1.0581731e+06
   1.3334445e-09  -2.1698398e-04   1.7022701e+00   1.6737692e+00  -1.0530495e+06
   1.3344448e-09  -2.1593314e-04   1.7022045e+00   1.6738415e+00  -1.0479507e+06
   1.3354451e-09  -2.1488738e-04   1.7021392e+00   1.6739136e+00  -1.0428766e+06
   1.3364455e-09  -2.1384668e-04   1.7020743e+00   1.6739852e+00  -1.0378271e+06
   1.3374458e-09  -2.1281102e-04   1.7020096e+00   1.6740566e+00  -1.0328020e+06
   1.3384461e-09  -2.1178038e-04   1.7019453e+00   1.6741275e+00  -1.0278012e+06
   1.3394465e-09  -2.1075473e-04   1.7018812e+00   1.6741982e+00  -1.0228246e+06
   1.3404468e-09  -2.0973404e-04   1.7018175e+00   1.6742685e+00  -1.0178721e+06
   1.3414471e-09  -2.0871829e-04   1.7017541e+00   1.6743384e+00  -1.0129436e+06
   1.3424475e-09  -2.0770747e-04   1.7016910e+00   1.6744081e+00  -1.0080389e+06
   1.3434478e-09  -2.0670154e-04   1.7016283e+00   1.6744774e+00  -1.0031580e+06
   1.3444481e-09  -2.0570048e-04   1.7015658e+00   1.6745463e+00  -9.9830070e+05
   1.3454485e-09  -2.0470426e-04   1.7015036e+00   1.6746149e+00  -9.9346691e+05
   1.3464488e-09  -2.0371287e-04   1.7014417e+00   1.6746832e+00  -9.8865650e+05
   1.3474491e-09  -2.0272628e-04   1.7013802e+00   1.6747512e+00  -9.8386939e+05
   1.3484495e-09  -2.0174447e-04   1.7013189e+00   1.6748188e+00  -9.7910544e+05
   1.3494498e-09  -2.0076741e-04   1.7012579e+00   1.6748861e+00  -9.7436455e+05
   1.3504502e-09  -1.9979508e-04   1.7011972e+00   1.6749531e+00  -9.6964660e+05
   1.3514505e-09  -1.9882746e-04   1.7011368e+00   1.6750198e+00  -9.6495149e+05
   1.3524508e-09  -1.9786453e-04   1.7010767e+00   1.6750861e+00  -9.6027911e+05
   1.3534512e-09  -1.9690626e-04   1.7010169e+00   1.6751521e+00  -9.5562934e+05
   1.3544515e-09  -1.9595262e-04   1.7009574e+00   1.6752178e+00  -9.5100208e+05
   1.3554518e-09  -1.9500361e-04   1.7008982e+00   1.6752832e+00  -9.4639721e+05
   1.3564522e-09  -1.9405919e-04   1.7008393e+00   1.6753483e+00  -9.4181464e+05
   1.3574525e-09  -1.9311935e-04   1.7007806e+00   1.6754131e+00  -9.3725424e+05
   1.3584528e-09  -1.9218405e-04   1.7007223e+00   1.6754775e+00  -9.3271592e+05
   1.3594532e-09  -1.9125328e-04   1.7006642e+00   1.6755416e+00  -9.2819956e+05
   1.3604535e-09  -1.9032702e-04   1.7006064e+00   1.6756055e+00  -9.2370507e+05
   1.3614538e-09  -1.8940525e-04   1.7005489e+00   1.6756690e+00  -9.1923233e+05
   1.3624542e-09  -1.8848794e-04   1.7004916e+00   1.6757322e+00  -9.1478124e+05
   1.3634545e-09  -1.8757507e-04   1.7004347e+00   1.6757951e+00  -9.1035169e+05
   1.3644548e-09  -1.8666662e-04   1.7003780e+00   1.6758577e+00  -9.0594358e+05
   1.3654552e-09  -1.8576257e-04   1.7003216e+00   1.6759200e+00  -9.0155682e+05
   1.3664555e-09  -1.8486290e-04   1.7002655e+00   1.6759820e+00  -8.9719128e+05
   1.3674558e-09  -1.8396758e-04   1.7002096e+00   1.6760437e+00  -8.9284688e+05
   1.3684562e-09  -1.8307660e-04   1.7001540e+00   1.6761051e+00  -8.8852350e+05
   1.3694565e-09  -1.8218994e-04   1.7000987e+00   1.6761662e+00  -8.8422106e+05
   1.3704568e-09  -1.8130757e-04   1.7000436e+00   1.6762270e+00  -8.7993943e+05
   1.3714572e-09  -1.8042947e-04   1.6999889e+00   1.6762876e+00  -8.7567854e+05
   1.3724575e-09  -1.7955562e-04   1.6999343e+00   1.6763478e+00  -8.7143827e+05
   1.3734578e-09  -1.7868600e-04   1.6998801e+00   1.6764077e+00  -8.6721852e+05
   1.3744582e-09  -1.7782060e-04   1.6998261e+00   1.6764674e+00  -8.6301920e+05
   1.3754585e-09  -1.7695938e-04   1.6997724e+00   1.6765267e+00  -8.5884021e+05
   1.3764588e-09  -1.7610234e-04   1.6997189e+00   1.6765858e+00  -8.5468144e+05
   1.3774592e-09  -1.7524944e-04   1.6996657e+00   1.6766446e+00  -8.5054281e+05
   1.3784595e-09  -1.7440068e-04   1.6996128e+00   1.6767031e+00  -8.4642421e+05
   1.3794598e-09  -1.7355602e-04   1.6995601e+00   1.6767613e+00  -8.4232554e+05
   1.3804602e-09  -1.7271546e-04   1.6995076e+00   1.6768193e+00  -8.3824672e+05
   1.3814605e-09  -1.7187896e-04   1.6994555e+00   1.6768769e+00  -8.3418764e+05
   1.3824608e-09  -1.7104652e-04   1.6994035e+00   1.6769343e+00  -8.3014821e+05
   1.3834612e-09  -1.7021811e-04   1.6993519e+00   1.6769914e+00  -8.2612833e+05
   1.3844615e-09  -1.6939370e-04   1.6993004e+00   1.6770483e+00  -8.2212791e+05
   1.3854618e-09  -1.6857329e-04   1.6992493e+00   1.6771048e+00  -8.1814686e+05
   1.3864622e-09  -1.6775686e-04   1.6991983e+00   1.6771611e+00  -8.1418508e+05
   1.3874625e-09  -1.6694438e-04   1.6991477e+00   1.6772171e+00  -8.1024248e+05
   1.3884628e-09  -1.6613583e-04   1.6990972e+00   1.6772729e+00  -8.0631896e+05
   1.3894632e-09  -1.6533119e-04   1.6990471e+00   1.6773284e+00  -8.0241443e+05
   1.3904635e-09  -1.6453046e-04   1.6989971e+00   1.6773836e+00  -7.9852881e+05
   1.3914638e-09  -1.6373360e-04   1.6989474e+00   1.6774385e+00  -7.9466199e+05
   1.3924642e-09  -1.6294060e-04   1.6988980e+00   1.6774932e+00  -7.9081390e+05
   1.3934645e-09  -1.6215144e-04   1.6988487e+00   1.6775476e+00  -7.8698443e+05
   1.3944648e-09  -1.6136610e-04   1.6987998e+00   1.6776018e+00  -7.8317350e+05
   1.3954652e-09  -1.6058456e-04   1.6987510e+00   1.6776557e+00  -7.7938101e+05
   1.3964655e-09  -1.5980681e-04   1.6987025e+00   1.6777093e+00  -7.7560689e+05
   1.3974658e-09  -1.5903282e-04   1.6986542e+00   1.6777627e+00  -7.7185104e+05
   1.3984662e-09  -1.5826259e-04   1.6986062e+00   1.6778158e+00  -7.6811337e+05
   1.3994665e-09  -1.5749608e-04   1.6985584e+00   1.6778686e+00  -7.6439379e+05
   1.4004668e-09  -1.5673328e-04   1.6985108e+00   1.6779212e+00  -7.6069222e+05
   1.4014672e-09  -1.5597418e-04   1.6984635e+00   1.6779736e+00  -7.5700857e+05
   1.4024675e-09  -1.5521875e-04   1.6984164e+00   1.6780257e+00  -7.5334275e+05
   1.4034678e-09  -1.5446699e-04   1.6983695e+00   1.6780775e+00  -7.4969467e+05
   1.4044682e-09  -1.5371886e-04   1.6983229e+00   1.6781291e+00  -7.4606426e+05
   1.4054685e-09  -1.5297435e-04   1.6982764e+00   1.6781805e+00  -7.4245142e+05
   1.4064688e-09  -1.5223345e-04   1.6982302e+00   1.6782316e+00  -7.3885608e+05
   1.4074692e-09  -1.5149614e-04   1.6981843e+00   1.6782824e+00  -7.3527813e+05
   1.4084695e-09  -1.5076240e-04   1.6981385e+00   1.6783330e+00  -7.3171751e+05
   1.4094698e-09  -1.5003221e-04   1.6980930e+00   1.6783834e+00  -7.2817413e+05
   1.4104702e-09  -1.4930556e-04   1.6980477e+00   1.6784335e+00  -7.2464790e+05
   1.4114705e-09  -1.4858243e-04   1.6980026e+00   1.6784834e+00  -7.2113874e+05
   1.4124708e-09  -1.4786280e-04   1.6979577e+00   1.6785330e+00  -7.1764657e+05
   1.4134712e-09  -1.4714665e-04   1.6979130e+00   1.6785824e+00  -7.1417130e+05
   1.4144715e-09  -1.4643397e-04   1.6978686e+00   1.6786316e+00  -7.1071286e+05
   1.4154718e-09  -1.4572475e-04   1.6978244e+00   1.6786805e+00  -7.0727116e+05
   1.4164722e-09  -1.4501895e-04   1.6977804e+00   1.6787292e+00  -7.0384613e+05
   1.4174725e-09  -1.4431658e-04   1.6977366e+00   1.6787776e+00  -7.0043767e+05
   1.4184728e-09  -1.4361761e-04   1.6976930e+00   1.6788259e+00  -6.9704572e+05
   1.4194732e-09  -1.4292202e-04   1.6976496e+00   1.6788738e+00  -6.9367019e+05
   1.4204735e-09  -1.4222980e-04   1.6976065e+00   1.6789216e+00  -6.9031099e+05
   1.4214738e-09  -1.4154093e-04   1.6975635e+00   1.6789691e+00  -6.8696807e+05
   1.4224742e-09  -1.4085540e-04   1.6975208e+00   1.6790164e+00  -6.8364132e+05
   1.4234745e-09  -1.4017319e-04   1.6974783e+00   1.6790635e+00  -6.8033068e+05
   1.4244748e-09  -1.3949428e-04   1.6974359e+00   1.6791103e+00  -6.7703607e+05
   1.4254752e-09  -1.3881866e-04   1.6973938e+00   1.6791569e+00  -6.7375741e+05
   1.4264755e-09  -1.3814631e-04   1.6973519e+00   1.6792033e+00  -6.7049463e+05
   1.4274758e-09  -1.3747722e-04   1.6973102e+00   1.6792495e+00  -6.6724763e+05
   1.4284762e-09  -1.3681136e-04   1.6972687e+00   1.6792954e+00  -6.6401636e+05
   1.4294765e-09  -1.3614874e-04   1.6972274e+00   1.6793411e+00  -6.6080074e+05
   1.4304768e-09  -1.3548932e-04   1.6971863e+00   1.6793866e+00  -6.5760068e+05
   1.4314772e-09  -1.3483309e-04   1.6971454e+00   1.6794319e+00  -6.5441611e+05
   1.4324775e-09  -1.3418004e-04   1.6971047e+00   1.6794770e+00  -6.5124696e+05
   1.4334778e-09  -1.3353016e-04   1.6970641e+00   1.6795218e+00  -6.4809315e+05
   1.4344782e-09  -1.3288342e-04   1.6970238e+00   1.6795664e+00  -6.4495462e+05
   1.4354785e-09  -1.3223981e-04   1.6969837e+00   1.6796109e+00  -6.4183127e+05
   1.4364788e-09  -1.3159932e-04   1.6969438e+00   1.6796550e+00  -6.3872305e+05
   1.4374792e-09  -1.3096194e-04   1.6969041e+00   1.6796990e+00  -6.3562988e+05
   1.4384795e-09  -1.3032763e-04   1.6968645e+00   1.6797428e+00  -6.3255168e+05
   1.4394798e-09  -1.2969640e-04   1.6968252e+00   1.6797864e+00  -6.2948839e+05
   1.4404802e-09  -1.2906823e-04   1.6967860e+00   1.6798297e+00  -6.2643993e+05
   1.4414805e-09  -1.2844310e-04   1.6967471e+00   1.6798728e+00  -6.2340622e+05
   1.4424808e-09  -1.2782100e-04   1.6967083e+00   1.6799158e+00  -6.2038721e+05
   1.4434812e-09  -1.2720191e-04   1.6966697e+00   1.6799585e+00  -6.1738281e+05
   1.4444815e-09  -1.2658582e-04   1.6966313e+00   1.6800010e+00  -6.1439296e+05
   1.4454818e-09  -1.2597271e-04   1.6965931e+00   1.6800433e+00  -6.1141758e+05
   1.4464822e-09  -1.2536257e-04   1.6965550e+00   1.6800854e+00  -6.0845660e+05
   1.4474825e-09  -1.2475539e-04   1.6965172e+00   1.6801273e+00  -6.0550997e+05
   1.4484828e-09  -1.2415114e-04   1.6964795e+00   1.6801690e+00  -6.0257760e+05
   1.4494832e-09  -1.2354982e-04   1.6964421e+00   1.6802105e+00  -5.9965942e+05
   1.4504835e-09  -1.2295142e-04   1.6964048e+00   1.6802518e+00  -5.9675538e+05
   1.4514838e-09  -1.2235591e-04   1.6963677e+00   1.6802929e+00  -5.9386540e+05
   1.4524842e-09  -1.2176329e-04   1.6963307e+00   1.6803338e+00  -5.9098941e+05
   1.4534845e-09  -1.2117353e-04   1.6962940e+00   1.6803746e+00  -5.8812734e+05
   1.4544848e-09  -1.2058663e-04   1.6962574e+00   1.6804151e+00  -5.8527913e+05
   1.4554852e-09  -1.2000258e-04   1.6962210e+00   1.6804554e+00  -5.8244471e+05
   1.4564855e-09  -1.1942135e-04   1.6961848e+00   1.6804955e+00  -5.7962401e+05
   1.4574858e-09  -1.1884294e-04   1.6961487e+00   1.6805354e+00  -5.7681697e+05
   1.4584862e-09  -1.1826733e-04   1.6961128e+00   1.6805751e+00  -5.7402352e+05
   1.4594865e-09  -1.1769451e-04   1.6960771e+00   1.6806147e+00  -5.7124360e+05
   1.4604868e-09  -1.1712446e-04   1.6960416e+00   1.6806540e+00  -5.6847714e+05
   1.4614872e-09  -1.1655717e-04   1.6960063e+00   1.6806932e+00  -5.6572407e+05
   1.4624875e-09  -1.1599263e-04   1.6959711e+00   1.6807322e+00  -5.6298433e+05
