   0.0000000e+00  -1.3682667e-01   6.2748563e+00   1.4913869e-04  -5.1927555e+08
   1.0003334e-12  -1.3630795e-01   6.2724766e+00   1.5522278e-04  -5.1786148e+08
   2.0006669e-12  -1.3579065e-01   6.2700569e+00   1.6153623e-04  -5.1644716e+08
   3.0010003e-12  -1.3527477e-01   6.2675966e+00   1.6808685e-04  -5.1503262e+08
   4.0013338e-12  -1.3476029e-01   6.2650953e+00   1.7488267e-04  -5.1361785e+08
   5.0016672e-12  -1.3424724e-01   6.2625524e+00   1.8193197e-04  -5.1220285e+08
   6.0020007e-12  -1.3373560e-01   6.2599675e+00   1.8924327e-04  -5.1078763e+08
   7.0023341e-12  -1.3322537e-01   6.2573400e+00   1.9682534e-04  -5.0937219e+08
   8.0026676e-12  -1.3271657e-01   6.2546695e+00   2.0468717e-04  -5.0795655e+08
   9.0030010e-12  -1.3220917e-01   6.2519555e+00   2.1283806e-04  -5.0654069e+08
   1.0003334e-11  -1.3170320e-01   6.2491975e+00   2.2128753e-04  -5.0512463e+08
   1.1003668e-11  -1.3119864e-01   6.2463949e+00   2.3004538e-04  -5.0370838e+08
   1.2004001e-11  -1.3069550e-01   6.2435474e+00   2.3912171e-04  -5.0229193e+08
   1.3004335e-11  -1.3019377e-01   6.2406543e+00   2.4852686e-04  -5.0087529e+08
   1.4004668e-11  -1.2969347e-01   6.2377152e+00   2.5827150e-04  -4.9945847e+08
   1.5005002e-11  -1.2919458e-01   6.2347296e+00   2.6836655e-04  -4.9804148e+08
   1.6005335e-11  -1.2869710e-01   6.2316970e+00   2.7882325e-04  -4.9662432e+08
   1.7005669e-11  -1.2820105e-01   6.2286168e+00   2.8965316e-04  -4.9520699e+08
   1.8006002e-11  -1.2770641e-01   6.2254887e+00   3.0086813e-04  -4.9378950e+08
   1.9006335e-11  -1.2721320e-01   6.2223120e+00   3.1248032e-04  -4.9237187e+08
   2.0006669e-11  -1.2672140e-01   6.2190864e+00   3.2450223e-04  -4.9095409e+08
   2.1007002e-11  -1.2623101e-01   6.2158112e+00   3.3694669e-04  -4.8953617e+08
   2.2007336e-11  -1.2574205e-01   6.2124860e+00   3.4982686e-04  -4.8811813e+08
   2.3007669e-11  -1.2525451e-01   6.2091104e+00   3.6315623e-04  -4.8669996e+08
   2.4008003e-11  -1.2476838e-01   6.2056837e+00   3.7694867e-04  -4.8528168e+08
   2.5008336e-11  -1.2428368e-01   6.2022056e+00   3.9121837e-04  -4.8386330e+08
   2.6008670e-11  -1.2380039e-01   6.1986755e+00   4.0597989e-04  -4.8244482e+08
   2.7009003e-11  -1.2331852e-01   6.1950930e+00   4.2124818e-04  -4.8102625e+08
   2.8009336e-11  -1.2283807e-01   6.1914575e+00   4.3703853e-04  -4.7960760e+08
   2.9009670e-11  -1.2235904e-01   6.1877686e+00   4.5336664e-04  -4.7818888e+08
   3.0010003e-11  -1.2188143e-01   6.1840258e+00   4.7024858e-04  -4.7677011e+08
   3.1010337e-11  -1.2140524e-01   6.1802286e+00   4.8770080e-04  -4.7535128e+08
   3.2010670e-11  -1.2093047e-01   6.1763765e+00   5.0574018e-04  -4.7393241e+08
   3.3011004e-11  -1.2045711e-01   6.1724691e+00   5.2438398e-04  -4.7251351e+08
   3.4011337e-11  -1.1998518e-01   6.1685059e+00   5.4364989e-04  -4.7109459e+08
   3.5011671e-11  -1.1951467e-01   6.1644865e+00   5.6355599e-04  -4.6967567e+08
   3.6012004e-11  -1.1904557e-01   6.1604103e+00   5.8412082e-04  -4.6825674e+08
   3.7012337e-11  -1.1857790e-01   6.1562769e+00   6.0536333e-04  -4.6683783e+08
   3.8012671e-11  -1.1811164e-01   6.1520859e+00   6.2730290e-04  -4.6541895e+08
   3.9013004e-11  -1.1764681e-01   6.1478367e+00   6.4995937e-04  -4.6400010e+08
   4.0013338e-11  -1.1718339e-01   6.1435291e+00   6.7335302e-04  -4.6258130e+08
   4.1013671e-11  -1.1672139e-01   6.1391624e+00   6.9750457e-04  -4.6116257e+08
   4.2014005e-11  -1.1626082e-01   6.1347363e+00   7.2243524e-04  -4.5974391e+08
   4.3014338e-11  -1.1580166e-01   6.1302504e+00   7.4816667e-04  -4.5832534e+08
   4.4014672e-11  -1.1534392e-01   6.1257041e+00   7.7472099e-04  -4.5690688e+08
   4.5015005e-11  -1.1488760e-01   6.1210972e+00   8.0212084e-04  -4.5548852e+08
   4.6015338e-11  -1.1443270e-01   6.1164292e+00   8.3038928e-04  -4.5407030e+08
   4.7015672e-11  -1.1397921e-01   6.1116996e+00   8.5954992e-04  -4.5265223e+08
   4.8016005e-11  -1.1352715e-01   6.1069081e+00   8.8962683e-04  -4.5123431e+08
   4.9016339e-11  -1.1307650e-01   6.1020542e+00   9.2064458e-04  -4.4981657e+08
   5.0016672e-11  -1.1262727e-01   6.0971376e+00   9.5262826e-04  -4.4839902e+08
   5.1017006e-11  -1.1217946e-01   6.0921579e+00   9.8560347e-04  -4.4698167e+08
   5.2017339e-11  -1.1173307e-01   6.0871147e+00   1.0195963e-03  -4.4556454e+08
   5.3017673e-11  -1.1128809e-01   6.0820076e+00   1.0546334e-03  -4.4414766e+08
   5.4018006e-11  -1.1084454e-01   6.0768363e+00   1.0907419e-03  -4.4273102e+08
   5.5018339e-11  -1.1040240e-01   6.0716005e+00   1.1279494e-03  -4.4131466e+08
   5.6018673e-11  -1.0996167e-01   6.0662996e+00   1.1662843e-03  -4.3989859e+08
   5.7019006e-11  -1.0952236e-01   6.0609335e+00   1.2057752e-03  -4.3848282e+08
   5.8019340e-11  -1.0908447e-01   6.0555018e+00   1.2464515e-03  -4.3706737e+08
   5.9019673e-11  -1.0864800e-01   6.0500042e+00   1.2883429e-03  -4.3565227e+08
   6.0020007e-11  -1.0821294e-01   6.0444403e+00   1.3314799e-03  -4.3423753e+08
   6.1020340e-11  -1.0777929e-01   6.0388098e+00   1.3758934e-03  -4.3282317e+08
   6.2020674e-11  -1.0734706e-01   6.0331125e+00   1.4216149e-03  -4.3140920e+08
   6.3021007e-11  -1.0691624e-01   6.0273480e+00   1.4686764e-03  -4.2999566e+08
   6.4021340e-11  -1.0648684e-01   6.0215161e+00   1.5171105e-03  -4.2858255e+08
   6.5021674e-11  -1.0605885e-01   6.0156165e+00   1.5669505e-03  -4.2716990e+08
   6.6022007e-11  -1.0563228e-01   6.0096490e+00   1.6182300e-03  -4.2575772e+08
   6.7022341e-11  -1.0520711e-01   6.0036132e+00   1.6709833e-03  -4.2434605e+08
   6.8022674e-11  -1.0478336e-01   5.9975089e+00   1.7252454e-03  -4.2293489e+08
   6.9023008e-11  -1.0436102e-01   5.9913360e+00   1.7810517e-03  -4.2152428e+08
   7.0023341e-11  -1.0394009e-01   5.9850941e+00   1.8384382e-03  -4.2011423e+08
   7.1023675e-11  -1.0352057e-01   5.9787831e+00   1.8974415e-03  -4.1870476e+08
   7.2024008e-11  -1.0310246e-01   5.9724028e+00   1.9580987e-03  -4.1729590e+08
   7.3024341e-11  -1.0268576e-01   5.9659530e+00   2.0204476e-03  -4.1588767e+08
   7.4024675e-11  -1.0227046e-01   5.9594335e+00   2.0845266e-03  -4.1448009e+08
   7.5025008e-11  -1.0185658e-01   5.9528441e+00   2.1503744e-03  -4.1307319e+08
   7.6025342e-11  -1.0144410e-01   5.9461847e+00   2.2180306e-03  -4.1166698e+08
   7.7025675e-11  -1.0103303e-01   5.9394552e+00   2.2875352e-03  -4.1026150e+08
   7.8026009e-11  -1.0062336e-01   5.9326553e+00   2.3589288e-03  -4.0885677e+08
   7.9026342e-11  -1.0021510e-01   5.9257851e+00   2.4322527e-03  -4.0745280e+08
   8.0026676e-11  -9.9808244e-02   5.9188443e+00   2.5075484e-03  -4.0604963e+08
   8.1027009e-11  -9.9402790e-02   5.9118329e+00   2.5848584e-03  -4.0464728e+08
   8.2027342e-11  -9.8998738e-02   5.9047508e+00   2.6642255e-03  -4.0324578e+08
   8.3027676e-11  -9.8596088e-02   5.8975979e+00   2.7456933e-03  -4.0184514e+08
   8.4028009e-11  -9.8194838e-02   5.8903742e+00   2.8293056e-03  -4.0044540e+08
   8.5028343e-11  -9.7794988e-02   5.8830796e+00   2.9151070e-03  -3.9904659e+08
   8.6028676e-11  -9.7396536e-02   5.8757141e+00   3.0031427e-03  -3.9764872e+08
   8.7029010e-11  -9.6999483e-02   5.8682777e+00   3.0934583e-03  -3.9625183e+08
   8.8029343e-11  -9.6603826e-02   5.8607703e+00   3.1861001e-03  -3.9485594e+08
   8.9029677e-11  -9.6209565e-02   5.8531920e+00   3.2811147e-03  -3.9346107e+08
   9.0030010e-11  -9.5816698e-02   5.8455428e+00   3.3785494e-03  -3.9206727e+08
   9.1030343e-11  -9.5425226e-02   5.8378227e+00   3.4784520e-03  -3.9067455e+08
   9.2030677e-11  -9.5035146e-02   5.8300317e+00   3.5808709e-03  -3.8928293e+08
   9.3031010e-11  -9.4646457e-02   5.8221700e+00   3.6858549e-03  -3.8789246e+08
   9.4031344e-11  -9.4259159e-02   5.8142375e+00   3.7934533e-03  -3.8650315e+08
   9.5031677e-11  -9.3873250e-02   5.8062344e+00   3.9037161e-03  -3.8511504e+08
   9.6032011e-11  -9.3488728e-02   5.7981608e+00   4.0166934e-03  -3.8372816e+08
   9.7032344e-11  -9.3105594e-02   5.7900168e+00   4.1324363e-03  -3.8234252e+08
   9.8032678e-11  -9.2723844e-02   5.7818025e+00   4.2509960e-03  -3.8095817e+08
   9.9033011e-11  -9.2343479e-02   5.7735180e+00   4.3724242e-03  -3.7957513e+08
   1.0003334e-10  -9.1964497e-02   5.7651636e+00   4.4967732e-03  -3.7819343e+08
   1.0103368e-10  -9.1586895e-02   5.7567393e+00   4.6240958e-03  -3.7681310e+08
   1.0203401e-10  -9.1210674e-02   5.7482453e+00   4.7544450e-03  -3.7543417e+08
   1.0303434e-10  -9.0835832e-02   5.7396820e+00   4.8878744e-03  -3.7405667e+08
   1.0403468e-10  -9.0462367e-02   5.7310493e+00   5.0244381e-03  -3.7268063e+08
   1.0503501e-10  -9.0090277e-02   5.7223477e+00   5.1641904e-03  -3.7130608e+08
   1.0603535e-10  -8.9719561e-02   5.7135773e+00   5.3071862e-03  -3.6993305e+08
   1.0703568e-10  -8.9350218e-02   5.7047383e+00   5.4534806e-03  -3.6856157e+08
   1.0803601e-10  -8.8982247e-02   5.6958311e+00   5.6031292e-03  -3.6719167e+08
   1.0903635e-10  -8.8615644e-02   5.6868559e+00   5.7561880e-03  -3.6582338e+08
   1.1003668e-10  -8.8250410e-02   5.6778130e+00   5.9127133e-03  -3.6445674e+08
   1.1103701e-10  -8.7886541e-02   5.6687027e+00   6.0727616e-03  -3.6309177e+08
   1.1203735e-10  -8.7524037e-02   5.6595254e+00   6.2363900e-03  -3.6172851e+08
   1.1303768e-10  -8.7162896e-02   5.6502813e+00   6.4036557e-03  -3.6036698e+08
   1.1403801e-10  -8.6803116e-02   5.6409708e+00   6.5746163e-03  -3.5900722e+08
   1.1503835e-10  -8.6444695e-02   5.6315943e+00   6.7493297e-03  -3.5764926e+08
   1.1603868e-10  -8.6087631e-02   5.6221521e+00   6.9278540e-03  -3.5629314e+08
   1.1703901e-10  -8.5731923e-02   5.6126446e+00   7.1102476e-03  -3.5493887e+08
   1.1803935e-10  -8.5377568e-02   5.6030723e+00   7.2965691e-03  -3.5358650e+08
   1.1903968e-10  -8.5024566e-02   5.5934355e+00   7.4868774e-03  -3.5223605e+08
   1.2004001e-10  -8.4672913e-02   5.5837347e+00   7.6812316e-03  -3.5088757e+08
   1.2104035e-10  -8.4322608e-02   5.5739703e+00   7.8796909e-03  -3.4954107e+08
   1.2204068e-10  -8.3973648e-02   5.5641427e+00   8.0823148e-03  -3.4819659e+08
   1.2304101e-10  -8.3626033e-02   5.5542524e+00   8.2891628e-03  -3.4685416e+08
   1.2404135e-10  -8.3279759e-02   5.5443000e+00   8.5002948e-03  -3.4551382e+08
   1.2504168e-10  -8.2934825e-02   5.5342858e+00   8.7157706e-03  -3.4417560e+08
   1.2604201e-10  -8.2591228e-02   5.5242104e+00   8.9356502e-03  -3.4283952e+08
   1.2704235e-10  -8.2248967e-02   5.5140743e+00   9.1599938e-03  -3.4150563e+08
   1.2804268e-10  -8.1908039e-02   5.5038781e+00   9.3888614e-03  -3.4017394e+08
   1.2904301e-10  -8.1568441e-02   5.4936222e+00   9.6223133e-03  -3.3884450e+08
   1.3004335e-10  -8.1230172e-02   5.4833071e+00   9.8604099e-03  -3.3751733e+08
   1.3104368e-10  -8.0893230e-02   5.4729336e+00   1.0103211e-02  -3.3619247e+08
   1.3204401e-10  -8.0557611e-02   5.4625021e+00   1.0350778e-02  -3.3486995e+08
   1.3304435e-10  -8.0223315e-02   5.4520132e+00   1.0603170e-02  -3.3354980e+08
   1.3404468e-10  -7.9890337e-02   5.4414675e+00   1.0860448e-02  -3.3223205e+08
   1.3504502e-10  -7.9558676e-02   5.4308657e+00   1.1122672e-02  -3.3091673e+08
   1.3604535e-10  -7.9228330e-02   5.4202082e+00   1.1389902e-02  -3.2960388e+08
   1.3704568e-10  -7.8899295e-02   5.4094958e+00   1.1662198e-02  -3.2829352e+08
   1.3804602e-10  -7.8571570e-02   5.3987291e+00   1.1939621e-02  -3.2698568e+08
   1.3904635e-10  -7.8245152e-02   5.3879088e+00   1.2222229e-02  -3.2568040e+08
   1.4004668e-10  -7.7920038e-02   5.3770354e+00   1.2510083e-02  -3.2437771e+08
   1.4104702e-10  -7.7596226e-02   5.3661096e+00   1.2803243e-02  -3.2307764e+08
   1.4204735e-10  -7.7273713e-02   5.3551322e+00   1.3101767e-02  -3.2178021e+08
   1.4304768e-10  -7.6952496e-02   5.3441038e+00   1.3405715e-02  -3.2048547e+08
   1.4404802e-10  -7.6632573e-02   5.3330250e+00   1.3715145e-02  -3.1919343e+08
   1.4504835e-10  -7.6313941e-02   5.3218966e+00   1.4030117e-02  -3.1790413e+08
   1.4604868e-10  -7.5996597e-02   5.3107194e+00   1.4350689e-02  -3.1661760e+08
   1.4704902e-10  -7.5680538e-02   5.2994939e+00   1.4676919e-02  -3.1533387e+08
   1.4804935e-10  -7.5365762e-02   5.2882210e+00   1.5008865e-02  -3.1405297e+08
   1.4904968e-10  -7.5052266e-02   5.2769013e+00   1.5346584e-02  -3.1277492e+08
   1.5005002e-10  -7.4740046e-02   5.2655356e+00   1.5690135e-02  -3.1149976e+08
   1.5105035e-10  -7.4429101e-02   5.2541246e+00   1.6039572e-02  -3.1022752e+08
   1.5205068e-10  -7.4119427e-02   5.2426692e+00   1.6394954e-02  -3.0895821e+08
   1.5305102e-10  -7.3811020e-02   5.2311700e+00   1.6756337e-02  -3.0769188e+08
   1.5405135e-10  -7.3503879e-02   5.2196278e+00   1.7123775e-02  -3.0642855e+08
   1.5505168e-10  -7.3198000e-02   5.2080433e+00   1.7497325e-02  -3.0516825e+08
   1.5605202e-10  -7.2893380e-02   5.1964174e+00   1.7877041e-02  -3.0391100e+08
   1.5705235e-10  -7.2590016e-02   5.1847509e+00   1.8262978e-02  -3.0265683e+08
   1.5805268e-10  -7.2287905e-02   5.1730445e+00   1.8655189e-02  -3.0140577e+08
   1.5905302e-10  -7.1987044e-02   5.1612989e+00   1.9053729e-02  -3.0015785e+08
   1.6005335e-10  -7.1687429e-02   5.1495151e+00   1.9458649e-02  -2.9891309e+08
   1.6105368e-10  -7.1389058e-02   5.1376938e+00   1.9870003e-02  -2.9767152e+08
   1.6205402e-10  -7.1091926e-02   5.1258358e+00   2.0287842e-02  -2.9643317e+08
   1.6305435e-10  -7.0796032e-02   5.1139419e+00   2.0712218e-02  -2.9519805e+08
   1.6405468e-10  -7.0501372e-02   5.1020130e+00   2.1143181e-02  -2.9396620e+08
   1.6505502e-10  -7.0207942e-02   5.0900497e+00   2.1580781e-02  -2.9273764e+08
   1.6605535e-10  -6.9915739e-02   5.0780531e+00   2.2025069e-02  -2.9151240e+08
   1.6705569e-10  -6.9624760e-02   5.0660238e+00   2.2476092e-02  -2.9029049e+08
   1.6805602e-10  -6.9335002e-02   5.0539627e+00   2.2933899e-02  -2.8907195e+08
   1.6905635e-10  -6.9046460e-02   5.0418706e+00   2.3398539e-02  -2.8785680e+08
   1.7005669e-10  -6.8759133e-02   5.0297484e+00   2.3870056e-02  -2.8664505e+08
   1.7105702e-10  -6.8473015e-02   5.0175969e+00   2.4348499e-02  -2.8543674e+08
   1.7205735e-10  -6.8188105e-02   5.0054169e+00   2.4833912e-02  -2.8423189e+08
   1.7305769e-10  -6.7904397e-02   4.9932092e+00   2.5326341e-02  -2.8303051e+08
   1.7405802e-10  -6.7621890e-02   4.9809747e+00   2.5825829e-02  -2.8183264e+08
   1.7505835e-10  -6.7340579e-02   4.9687142e+00   2.6332419e-02  -2.8063828e+08
   1.7605869e-10  -6.7060461e-02   4.9564286e+00   2.6846156e-02  -2.7944747e+08
   1.7705902e-10  -6.6781532e-02   4.9441186e+00   2.7367079e-02  -2.7826022e+08
   1.7805935e-10  -6.6503789e-02   4.9317852e+00   2.7895230e-02  -2.7707655e+08
   1.7905969e-10  -6.6227228e-02   4.9194291e+00   2.8430651e-02  -2.7589649e+08
   1.8006002e-10  -6.5951845e-02   4.9070511e+00   2.8973379e-02  -2.7472005e+08
   1.8106035e-10  -6.5677637e-02   4.8946522e+00   2.9523454e-02  -2.7354726e+08
   1.8206069e-10  -6.5404601e-02   4.8822331e+00   3.0080914e-02  -2.7237812e+08
   1.8306102e-10  -6.5132732e-02   4.8697947e+00   3.0645795e-02  -2.7121267e+08
   1.8406135e-10  -6.4862027e-02   4.8573378e+00   3.1218134e-02  -2.7005091e+08
   1.8506169e-10  -6.4592482e-02   4.8448633e+00   3.1797966e-02  -2.6889287e+08
   1.8606202e-10  -6.4324093e-02   4.8323719e+00   3.2385326e-02  -2.6773856e+08
   1.8706235e-10  -6.4056857e-02   4.8198644e+00   3.2980247e-02  -2.6658800e+08
   1.8806269e-10  -6.3790770e-02   4.8073418e+00   3.3582761e-02  -2.6544121e+08
   1.8906302e-10  -6.3525828e-02   4.7948048e+00   3.4192902e-02  -2.6429819e+08
   1.9006335e-10  -6.3262028e-02   4.7822542e+00   3.4810699e-02  -2.6315898e+08
   1.9106369e-10  -6.2999365e-02   4.7696909e+00   3.5436182e-02  -2.6202358e+08
   1.9206402e-10  -6.2737835e-02   4.7571156e+00   3.6069382e-02  -2.6089201e+08
   1.9306435e-10  -6.2477436e-02   4.7445292e+00   3.6710325e-02  -2.5976428e+08
   1.9406469e-10  -6.2218162e-02   4.7319324e+00   3.7359040e-02  -2.5864040e+08
   1.9506502e-10  -6.1960011e-02   4.7193261e+00   3.8015552e-02  -2.5752039e+08
   1.9606536e-10  -6.1702978e-02   4.7067111e+00   3.8679887e-02  -2.5640427e+08
   1.9706569e-10  -6.1447060e-02   4.6940881e+00   3.9352070e-02  -2.5529204e+08
   1.9806602e-10  -6.1192252e-02   4.6814580e+00   4.0032123e-02  -2.5418372e+08
   1.9906636e-10  -6.0938550e-02   4.6688214e+00   4.0720070e-02  -2.5307932e+08
   2.0006669e-10  -6.0685951e-02   4.6561793e+00   4.1415933e-02  -2.5197885e+08
   2.0106702e-10  -6.0434451e-02   4.6435324e+00   4.2119731e-02  -2.5088232e+08
   2.0206736e-10  -6.0184046e-02   4.6308813e+00   4.2831485e-02  -2.4978974e+08
   2.0306769e-10  -5.9934731e-02   4.6182270e+00   4.3551214e-02  -2.4870113e+08
   2.0406802e-10  -5.9686504e-02   4.6055702e+00   4.4278934e-02  -2.4761649e+08
   2.0506836e-10  -5.9439359e-02   4.5929115e+00   4.5014664e-02  -2.4653583e+08
   2.0606869e-10  -5.9193293e-02   4.5802518e+00   4.5758419e-02  -2.4545916e+08
   2.0706902e-10  -5.8948302e-02   4.5675918e+00   4.6510213e-02  -2.4438649e+08
   2.0806936e-10  -5.8704382e-02   4.5549322e+00   4.7270062e-02  -2.4331782e+08
   2.0906969e-10  -5.8461529e-02   4.5422738e+00   4.8037977e-02  -2.4225318e+08
   2.1007002e-10  -5.8219738e-02   4.5296173e+00   4.8813971e-02  -2.4119255e+08
   2.1107036e-10  -5.7979007e-02   4.5169634e+00   4.9598055e-02  -2.4013595e+08
   2.1207069e-10  -5.7739330e-02   4.5043128e+00   5.0390238e-02  -2.3908339e+08
   2.1307102e-10  -5.7500704e-02   4.4916662e+00   5.1190531e-02  -2.3803487e+08
   2.1407136e-10  -5.7263125e-02   4.4790243e+00   5.1998941e-02  -2.3699040e+08
   2.1507169e-10  -5.7026588e-02   4.4663879e+00   5.2815475e-02  -2.3594998e+08
   2.1607202e-10  -5.6791090e-02   4.4537575e+00   5.3640140e-02  -2.3491362e+08
   2.1707236e-10  -5.6556627e-02   4.4411339e+00   5.4472941e-02  -2.3388132e+08
   2.1807269e-10  -5.6323194e-02   4.4285177e+00   5.5313881e-02  -2.3285309e+08
   2.1907302e-10  -5.6090787e-02   4.4159096e+00   5.6162966e-02  -2.3182893e+08
   2.2007336e-10  -5.5859403e-02   4.4033103e+00   5.7020196e-02  -2.3080883e+08
   2.2107369e-10  -5.5629037e-02   4.3907204e+00   5.7885574e-02  -2.2979282e+08
   2.2207402e-10  -5.5399685e-02   4.3781405e+00   5.8759099e-02  -2.2878088e+08
   2.2307436e-10  -5.5171343e-02   4.3655713e+00   5.9640772e-02  -2.2777303e+08
   2.2407469e-10  -5.4944007e-02   4.3530135e+00   6.0530591e-02  -2.2676926e+08
   2.2507503e-10  -5.4717674e-02   4.3404675e+00   6.1428554e-02  -2.2576957e+08
   2.2607536e-10  -5.4492338e-02   4.3279342e+00   6.2334658e-02  -2.2477397e+08
   2.2707569e-10  -5.4267996e-02   4.3154139e+00   6.3248898e-02  -2.2378245e+08
   2.2807603e-10  -5.4044643e-02   4.3029074e+00   6.4171270e-02  -2.2279502e+08
   2.2907636e-10  -5.3822276e-02   4.2904153e+00   6.5101767e-02  -2.2181167e+08
   2.3007669e-10  -5.3600891e-02   4.2779380e+00   6.6040383e-02  -2.2083241e+08
   2.3107703e-10  -5.3380483e-02   4.2654763e+00   6.6987110e-02  -2.1985724e+08
   2.3207736e-10  -5.3161048e-02   4.2530306e+00   6.7941940e-02  -2.1888615e+08
   2.3307769e-10  -5.2942583e-02   4.2406015e+00   6.8904862e-02  -2.1791914e+08
   2.3407803e-10  -5.2725083e-02   4.2281896e+00   6.9875867e-02  -2.1695621e+08
   2.3507836e-10  -5.2508544e-02   4.2157954e+00   7.0854942e-02  -2.1599736e+08
   2.3607869e-10  -5.2292962e-02   4.2034195e+00   7.1842077e-02  -2.1504259e+08
   2.3707903e-10  -5.2078332e-02   4.1910623e+00   7.2837258e-02  -2.1409189e+08
   2.3807936e-10  -5.1864652e-02   4.1787245e+00   7.3840471e-02  -2.1314527e+08
   2.3907969e-10  -5.1651917e-02   4.1664064e+00   7.4851702e-02  -2.1220271e+08
   2.4008003e-10  -5.1440122e-02   4.1541086e+00   7.5870936e-02  -2.1126421e+08
   2.4108036e-10  -5.1229264e-02   4.1418317e+00   7.6898154e-02  -2.1032977e+08
   2.4208069e-10  -5.1019338e-02   4.1295760e+00   7.7933342e-02  -2.0939939e+08
   2.4308103e-10  -5.0810341e-02   4.1173422e+00   7.8976481e-02  -2.0847306e+08
   2.4408136e-10  -5.0602269e-02   4.1051305e+00   8.0027551e-02  -2.0755077e+08
   2.4508169e-10  -5.0395117e-02   4.0929416e+00   8.1086535e-02  -2.0663252e+08
   2.4608203e-10  -5.0188882e-02   4.0807758e+00   8.2153410e-02  -2.0571831e+08
   2.4708236e-10  -4.9983558e-02   4.0686337e+00   8.3228157e-02  -2.0480813e+08
   2.4808269e-10  -4.9779144e-02   4.0565156e+00   8.4310753e-02  -2.0390197e+08
   2.4908303e-10  -4.9575633e-02   4.0444220e+00   8.5401176e-02  -2.0299983e+08
   2.5008336e-10  -4.9373023e-02   4.0323534e+00   8.6499403e-02  -2.0210170e+08
   2.5108369e-10  -4.9171309e-02   4.0203100e+00   8.7605409e-02  -2.0120757e+08
   2.5208403e-10  -4.8970488e-02   4.0082924e+00   8.8719170e-02  -2.0031744e+08
   2.5308436e-10  -4.8770555e-02   3.9963009e+00   8.9840660e-02  -1.9943130e+08
   2.5408469e-10  -4.8571506e-02   3.9843360e+00   9.0969853e-02  -1.9854914e+08
   2.5508503e-10  -4.8373338e-02   3.9723980e+00   9.2106723e-02  -1.9767096e+08
   2.5608536e-10  -4.8176046e-02   3.9604873e+00   9.3251241e-02  -1.9679674e+08
   2.5708570e-10  -4.7979626e-02   3.9486043e+00   9.4403380e-02  -1.9592647e+08
   2.5808603e-10  -4.7784075e-02   3.9367493e+00   9.5563110e-02  -1.9506016e+08
   2.5908636e-10  -4.7589389e-02   3.9249227e+00   9.6730402e-02  -1.9419778e+08
   2.6008670e-10  -4.7395563e-02   3.9131249e+00   9.7905226e-02  -1.9333934e+08
   2.6108703e-10  -4.7202594e-02   3.9013561e+00   9.9087551e-02  -1.9248482e+08
   2.6208736e-10  -4.7010477e-02   3.8896168e+00   1.0027735e-01  -1.9163421e+08
   2.6308770e-10  -4.6819209e-02   3.8779072e+00   1.0147458e-01  -1.9078751e+08
   2.6408803e-10  -4.6628787e-02   3.8662276e+00   1.0267921e-01  -1.8994469e+08
   2.6508836e-10  -4.6439205e-02   3.8545784e+00   1.0389122e-01  -1.8910576e+08
   2.6608870e-10  -4.6250461e-02   3.8429600e+00   1.0511057e-01  -1.8827071e+08
   2.6708903e-10  -4.6062550e-02   3.8313724e+00   1.0633722e-01  -1.8743951e+08
   2.6808936e-10  -4.5875468e-02   3.8198162e+00   1.0757114e-01  -1.8661217e+08
   2.6908970e-10  -4.5689212e-02   3.8082915e+00   1.0881229e-01  -1.8578867e+08
   2.7009003e-10  -4.5503778e-02   3.7967986e+00   1.1006063e-01  -1.8496900e+08
   2.7109036e-10  -4.5319161e-02   3.7853379e+00   1.1131614e-01  -1.8415315e+08
   2.7209070e-10  -4.5135359e-02   3.7739095e+00   1.1257877e-01  -1.8334110e+08
   2.7309103e-10  -4.4952367e-02   3.7625137e+00   1.1384849e-01  -1.8253286e+08
   2.7409136e-10  -4.4770182e-02   3.7511507e+00   1.1512525e-01  -1.8172839e+08
   2.7509170e-10  -4.4588799e-02   3.7398209e+00   1.1640902e-01  -1.8092770e+08
   2.7609203e-10  -4.4408216e-02   3.7285244e+00   1.1769977e-01  -1.8013077e+08
   2.7709236e-10  -4.4228427e-02   3.7172615e+00   1.1899744e-01  -1.7933759e+08
   2.7809270e-10  -4.4049431e-02   3.7060324e+00   1.2030200e-01  -1.7854815e+08
   2.7909303e-10  -4.3871221e-02   3.6948373e+00   1.2161341e-01  -1.7776243e+08
   2.8009336e-10  -4.3693796e-02   3.6836764e+00   1.2293163e-01  -1.7698043e+08
   2.8109370e-10  -4.3517152e-02   3.6725500e+00   1.2425662e-01  -1.7620212e+08
   2.8209403e-10  -4.3341284e-02   3.6614581e+00   1.2558833e-01  -1.7542750e+08
   2.8309436e-10  -4.3166189e-02   3.6504011e+00   1.2692673e-01  -1.7465655e+08
   2.8409470e-10  -4.2991863e-02   3.6393791e+00   1.2827177e-01  -1.7388927e+08
   2.8509503e-10  -4.2818303e-02   3.6283922e+00   1.2962340e-01  -1.7312563e+08
   2.8609537e-10  -4.2645505e-02   3.6174407e+00   1.3098160e-01  -1.7236563e+08
   2.8709570e-10  -4.2473465e-02   3.6065248e+00   1.3234630e-01  -1.7160925e+08
   2.8809603e-10  -4.2302180e-02   3.5956445e+00   1.3371747e-01  -1.7085648e+08
   2.8909637e-10  -4.2131646e-02   3.5848000e+00   1.3509506e-01  -1.7010730e+08
   2.9009670e-10  -4.1961860e-02   3.5739915e+00   1.3647903e-01  -1.6936170e+08
   2.9109703e-10  -4.1792818e-02   3.5632192e+00   1.3786933e-01  -1.6861967e+08
   2.9209737e-10  -4.1624516e-02   3.5524831e+00   1.3926592e-01  -1.6788120e+08
   2.9309770e-10  -4.1456951e-02   3.5417834e+00   1.4066875e-01  -1.6714626e+08
   2.9409803e-10  -4.1290120e-02   3.5311203e+00   1.4207778e-01  -1.6641485e+08
   2.9509837e-10  -4.1124018e-02   3.5204938e+00   1.4349296e-01  -1.6568695e+08
   2.9609870e-10  -4.0958642e-02   3.5099041e+00   1.4491424e-01  -1.6496255e+08
   2.9709903e-10  -4.0793990e-02   3.4993513e+00   1.4634158e-01  -1.6424164e+08
   2.9809937e-10  -4.0630057e-02   3.4888354e+00   1.4777493e-01  -1.6352419e+08
   2.9909970e-10  -4.0466839e-02   3.4783567e+00   1.4921424e-01  -1.6281020e+08
   3.0010003e-10  -4.0304334e-02   3.4679151e+00   1.5065946e-01  -1.6209965e+08
   3.0110037e-10  -4.0142539e-02   3.4575108e+00   1.5211055e-01  -1.6139253e+08
   3.0210070e-10  -3.9981448e-02   3.4471439e+00   1.5356746e-01  -1.6068882e+08
   3.0310103e-10  -3.9821060e-02   3.4368145e+00   1.5503014e-01  -1.5998851e+08
   3.0410137e-10  -3.9661371e-02   3.4265226e+00   1.5649854e-01  -1.5929158e+08
   3.0510170e-10  -3.9502377e-02   3.4162682e+00   1.5797261e-01  -1.5859802e+08
   3.0610203e-10  -3.9344075e-02   3.4060516e+00   1.5945231e-01  -1.5790781e+08
   3.0710237e-10  -3.9186462e-02   3.3958727e+00   1.6093759e-01  -1.5722094e+08
   3.0810270e-10  -3.9029535e-02   3.3857316e+00   1.6242839e-01  -1.5653740e+08
   3.0910303e-10  -3.8873289e-02   3.3756283e+00   1.6392466e-01  -1.5585717e+08
   3.1010337e-10  -3.8717722e-02   3.3655630e+00   1.6542637e-01  -1.5518023e+08
   3.1110370e-10  -3.8562831e-02   3.3555356e+00   1.6693345e-01  -1.5450658e+08
   3.1210403e-10  -3.8408611e-02   3.3455462e+00   1.6844586e-01  -1.5383619e+08
   3.1310437e-10  -3.8255061e-02   3.3355948e+00   1.6996354e-01  -1.5316905e+08
   3.1410470e-10  -3.8102177e-02   3.3256815e+00   1.7148646e-01  -1.5250514e+08
   3.1510504e-10  -3.7949954e-02   3.3158063e+00   1.7301455e-01  -1.5184446e+08
   3.1610537e-10  -3.7798392e-02   3.3059692e+00   1.7454777e-01  -1.5118699e+08
   3.1710570e-10  -3.7647485e-02   3.2961703e+00   1.7608606e-01  -1.5053270e+08
   3.1810604e-10  -3.7497231e-02   3.2864095e+00   1.7762938e-01  -1.4988160e+08
   3.1910637e-10  -3.7347626e-02   3.2766870e+00   1.7917768e-01  -1.4923365e+08
   3.2010670e-10  -3.7198669e-02   3.2670026e+00   1.8073090e-01  -1.4858885e+08
   3.2110704e-10  -3.7050354e-02   3.2573564e+00   1.8228899e-01  -1.4794719e+08
   3.2210737e-10  -3.6902680e-02   3.2477485e+00   1.8385191e-01  -1.4730864e+08
   3.2310770e-10  -3.6755644e-02   3.2381787e+00   1.8541960e-01  -1.4667319e+08
   3.2410804e-10  -3.6609241e-02   3.2286472e+00   1.8699201e-01  -1.4604083e+08
   3.2510837e-10  -3.6463469e-02   3.2191538e+00   1.8856909e-01  -1.4541154e+08
   3.2610870e-10  -3.6318325e-02   3.2096987e+00   1.9015079e-01  -1.4478531e+08
   3.2710904e-10  -3.6173806e-02   3.2002817e+00   1.9173705e-01  -1.4416212e+08
   3.2810937e-10  -3.6029909e-02   3.1909030e+00   1.9332784e-01  -1.4354196e+08
   3.2910970e-10  -3.5886631e-02   3.1815623e+00   1.9492308e-01  -1.4292482e+08
   3.3011004e-10  -3.5743968e-02   3.1722598e+00   1.9652275e-01  -1.4231067e+08
   3.3111037e-10  -3.5601918e-02   3.1629954e+00   1.9812677e-01  -1.4169950e+08
   3.3211070e-10  -3.5460478e-02   3.1537691e+00   1.9973511e-01  -1.4109131e+08
   3.3311104e-10  -3.5319645e-02   3.1445809e+00   2.0134771e-01  -1.4048606e+08
   3.3411137e-10  -3.5179416e-02   3.1354307e+00   2.0296451e-01  -1.3988376e+08
   3.3511170e-10  -3.5039788e-02   3.1263184e+00   2.0458548e-01  -1.3928438e+08
   3.3611204e-10  -3.4900758e-02   3.1172441e+00   2.0621055e-01  -1.3868790e+08
   3.3711237e-10  -3.4762324e-02   3.1082077e+00   2.0783968e-01  -1.3809433e+08
   3.3811270e-10  -3.4624481e-02   3.0992092e+00   2.0947281e-01  -1.3750363e+08
   3.3911304e-10  -3.4487228e-02   3.0902485e+00   2.1110990e-01  -1.3691580e+08
   3.4011337e-10  -3.4350562e-02   3.0813256e+00   2.1275089e-01  -1.3633081e+08
   3.4111370e-10  -3.4214479e-02   3.0724404e+00   2.1439573e-01  -1.3574867e+08
   3.4211404e-10  -3.4078977e-02   3.0635928e+00   2.1604437e-01  -1.3516935e+08
   3.4311437e-10  -3.3944053e-02   3.0547829e+00   2.1769676e-01  -1.3459283e+08
   3.4411470e-10  -3.3809705e-02   3.0460105e+00   2.1935285e-01  -1.3401910e+08
   3.4511504e-10  -3.3675929e-02   3.0372757e+00   2.2101259e-01  -1.3344816e+08
   3.4611537e-10  -3.3542722e-02   3.0285783e+00   2.2267592e-01  -1.3287997e+08
   3.4711571e-10  -3.3410083e-02   3.0199182e+00   2.2434280e-01  -1.3231454e+08
   3.4811604e-10  -3.3278008e-02   3.0112955e+00   2.2601318e-01  -1.3175184e+08
   3.4911637e-10  -3.3146494e-02   3.0027099e+00   2.2768700e-01  -1.3119186e+08
   3.5011671e-10  -3.3015540e-02   2.9941616e+00   2.2936422e-01  -1.3063459e+08
   3.5111704e-10  -3.2885141e-02   2.9856504e+00   2.3104478e-01  -1.3008001e+08
   3.5211737e-10  -3.2755296e-02   2.9771762e+00   2.3272864e-01  -1.2952811e+08
   3.5311771e-10  -3.2626001e-02   2.9687389e+00   2.3441574e-01  -1.2897887e+08
   3.5411804e-10  -3.2497254e-02   2.9603385e+00   2.3610604e-01  -1.2843229e+08
   3.5511837e-10  -3.2369053e-02   2.9519749e+00   2.3779948e-01  -1.2788833e+08
   3.5611871e-10  -3.2241395e-02   2.9436481e+00   2.3949602e-01  -1.2734700e+08
   3.5711904e-10  -3.2114277e-02   2.9353578e+00   2.4119560e-01  -1.2680828e+08
   3.5811937e-10  -3.1987696e-02   2.9271042e+00   2.4289817e-01  -1.2627215e+08
   3.5911971e-10  -3.1861651e-02   2.9188869e+00   2.4460370e-01  -1.2573861e+08
   3.6012004e-10  -3.1736137e-02   2.9107061e+00   2.4631211e-01  -1.2520762e+08
   3.6112037e-10  -3.1611154e-02   2.9025615e+00   2.4802338e-01  -1.2467919e+08
   3.6212071e-10  -3.1486698e-02   2.8944532e+00   2.4973745e-01  -1.2415330e+08
   3.6312104e-10  -3.1362767e-02   2.8863809e+00   2.5145426e-01  -1.2362994e+08
   3.6412137e-10  -3.1239358e-02   2.8783447e+00   2.5317378e-01  -1.2310909e+08
   3.6512171e-10  -3.1116469e-02   2.8703444e+00   2.5489595e-01  -1.2259073e+08
   3.6612204e-10  -3.0994097e-02   2.8623799e+00   2.5662072e-01  -1.2207486e+08
   3.6712237e-10  -3.0872240e-02   2.8544511e+00   2.5834805e-01  -1.2156146e+08
   3.6812271e-10  -3.0750895e-02   2.8465580e+00   2.6007788e-01  -1.2105052e+08
   3.6912304e-10  -3.0630060e-02   2.8387004e+00   2.6181017e-01  -1.2054202e+08
   3.7012337e-10  -3.0509732e-02   2.8308783e+00   2.6354488e-01  -1.2003596e+08
   3.7112371e-10  -3.0389910e-02   2.8230914e+00   2.6528195e-01  -1.1953231e+08
   3.7212404e-10  -3.0270590e-02   2.8153398e+00   2.6702133e-01  -1.1903107e+08
   3.7312437e-10  -3.0151770e-02   2.8076234e+00   2.6876299e-01  -1.1853222e+08
   3.7412471e-10  -3.0033448e-02   2.7999419e+00   2.7050686e-01  -1.1803575e+08
   3.7512504e-10  -2.9915621e-02   2.7922954e+00   2.7225291e-01  -1.1754165e+08
   3.7612538e-10  -2.9798288e-02   2.7846837e+00   2.7400109e-01  -1.1704990e+08
   3.7712571e-10  -2.9681445e-02   2.7771067e+00   2.7575135e-01  -1.1656048e+08
   3.7812604e-10  -2.9565091e-02   2.7695643e+00   2.7750364e-01  -1.1607340e+08
   3.7912638e-10  -2.9449223e-02   2.7620563e+00   2.7925792e-01  -1.1558863e+08
   3.8012671e-10  -2.9333838e-02   2.7545828e+00   2.8101414e-01  -1.1510617e+08
   3.8112704e-10  -2.9218935e-02   2.7471435e+00   2.8277226e-01  -1.1462599e+08
   3.8212738e-10  -2.9104511e-02   2.7397383e+00   2.8453223e-01  -1.1414809e+08
   3.8312771e-10  -2.8990564e-02   2.7323672e+00   2.8629401e-01  -1.1367245e+08
   3.8412804e-10  -2.8877092e-02   2.7250301e+00   2.8805754e-01  -1.1319907e+08
   3.8512838e-10  -2.8764092e-02   2.7177267e+00   2.8982279e-01  -1.1272793e+08
   3.8612871e-10  -2.8651562e-02   2.7104571e+00   2.9158970e-01  -1.1225901e+08
   3.8712904e-10  -2.8539500e-02   2.7032210e+00   2.9335824e-01  -1.1179231e+08
   3.8812938e-10  -2.8427904e-02   2.6960184e+00   2.9512836e-01  -1.1132781e+08
   3.8912971e-10  -2.8316772e-02   2.6888492e+00   2.9690002e-01  -1.1086551e+08
   3.9013004e-10  -2.8206101e-02   2.6817132e+00   2.9867317e-01  -1.1040538e+08
   3.9113038e-10  -2.8095889e-02   2.6746103e+00   3.0044776e-01  -1.0994742e+08
   3.9213071e-10  -2.7986134e-02   2.6675404e+00   3.0222376e-01  -1.0949161e+08
   3.9313104e-10  -2.7876834e-02   2.6605034e+00   3.0400112e-01  -1.0903795e+08
   3.9413138e-10  -2.7767986e-02   2.6534992e+00   3.0577979e-01  -1.0858642e+08
   3.9513171e-10  -2.7659589e-02   2.6465276e+00   3.0755974e-01  -1.0813701e+08
   3.9613204e-10  -2.7551641e-02   2.6395885e+00   3.0934091e-01  -1.0768970e+08
   3.9713238e-10  -2.7444139e-02   2.6326819e+00   3.1112328e-01  -1.0724449e+08
   3.9813271e-10  -2.7337082e-02   2.6258075e+00   3.1290679e-01  -1.0680137e+08
   3.9913304e-10  -2.7230466e-02   2.6189653e+00   3.1469140e-01  -1.0636032e+08
   4.0013338e-10  -2.7124291e-02   2.6121552e+00   3.1647707e-01  -1.0592134e+08
   4.0113371e-10  -2.7018554e-02   2.6053769e+00   3.1826377e-01  -1.0548440e+08
   4.0213404e-10  -2.6913253e-02   2.5986305e+00   3.2005144e-01  -1.0504950e+08
   4.0313438e-10  -2.6808386e-02   2.5919157e+00   3.2184004e-01  -1.0461663e+08
   4.0413471e-10  -2.6703951e-02   2.5852325e+00   3.2362954e-01  -1.0418578e+08
   4.0513505e-10  -2.6599946e-02   2.5785807e+00   3.2541989e-01  -1.0375693e+08
   4.0613538e-10  -2.6496369e-02   2.5719602e+00   3.2721106e-01  -1.0333008e+08
   4.0713571e-10  -2.6393217e-02   2.5653709e+00   3.2900300e-01  -1.0290521e+08
   4.0813605e-10  -2.6290490e-02   2.5588127e+00   3.3079567e-01  -1.0248231e+08
   4.0913638e-10  -2.6188185e-02   2.5522854e+00   3.3258903e-01  -1.0206138e+08
   4.1013671e-10  -2.6086300e-02   2.5457889e+00   3.3438305e-01  -1.0164240e+08
   4.1113705e-10  -2.5984834e-02   2.5393232e+00   3.3617767e-01  -1.0122535e+08
   4.1213738e-10  -2.5883783e-02   2.5328879e+00   3.3797287e-01  -1.0081024e+08
   4.1313771e-10  -2.5783147e-02   2.5264832e+00   3.3976861e-01  -1.0039705e+08
   4.1413805e-10  -2.5682923e-02   2.5201087e+00   3.4156483e-01  -9.9985760e+07
   4.1513838e-10  -2.5583109e-02   2.5137644e+00   3.4336152e-01  -9.9576373e+07
   4.1613871e-10  -2.5483704e-02   2.5074503e+00   3.4515862e-01  -9.9168873e+07
   4.1713905e-10  -2.5384706e-02   2.5011660e+00   3.4695610e-01  -9.8763250e+07
   4.1813938e-10  -2.5286112e-02   2.4949116e+00   3.4875393e-01  -9.8359495e+07
   4.1913971e-10  -2.5187922e-02   2.4886868e+00   3.5055205e-01  -9.7957596e+07
   4.2014005e-10  -2.5090132e-02   2.4824917e+00   3.5235045e-01  -9.7557543e+07
   4.2114038e-10  -2.4992742e-02   2.4763259e+00   3.5414907e-01  -9.7159327e+07
   4.2214071e-10  -2.4895750e-02   2.4701895e+00   3.5594788e-01  -9.6762937e+07
   4.2314105e-10  -2.4799152e-02   2.4640823e+00   3.5774685e-01  -9.6368363e+07
   4.2414138e-10  -2.4702949e-02   2.4580042e+00   3.5954594e-01  -9.5975596e+07
   4.2514171e-10  -2.4607138e-02   2.4519550e+00   3.6134511e-01  -9.5584625e+07
   4.2614205e-10  -2.4511717e-02   2.4459347e+00   3.6314432e-01  -9.5195441e+07
   4.2714238e-10  -2.4416684e-02   2.4399430e+00   3.6494354e-01  -9.4808033e+07
   4.2814271e-10  -2.4322038e-02   2.4339799e+00   3.6674274e-01  -9.4422393e+07
   4.2914305e-10  -2.4227777e-02   2.4280453e+00   3.6854188e-01  -9.4038510e+07
   4.3014338e-10  -2.4133899e-02   2.4221390e+00   3.7034092e-01  -9.3656376e+07
   4.3114371e-10  -2.4040402e-02   2.4162609e+00   3.7213983e-01  -9.3275979e+07
   4.3214405e-10  -2.3947285e-02   2.4104108e+00   3.7393857e-01  -9.2897312e+07
   4.3314438e-10  -2.3854546e-02   2.4045887e+00   3.7573711e-01  -9.2520364e+07
   4.3414471e-10  -2.3762183e-02   2.3987945e+00   3.7753542e-01  -9.2145126e+07
   4.3514505e-10  -2.3670194e-02   2.3930280e+00   3.7933346e-01  -9.1771589e+07
   4.3614538e-10  -2.3578579e-02   2.3872890e+00   3.8113119e-01  -9.1399743e+07
   4.3714572e-10  -2.3487334e-02   2.3815775e+00   3.8292859e-01  -9.1029580e+07
   4.3814605e-10  -2.3396459e-02   2.3758933e+00   3.8472562e-01  -9.0661090e+07
   4.3914638e-10  -2.3305952e-02   2.3702364e+00   3.8652225e-01  -9.0294265e+07
   4.4014672e-10  -2.3215811e-02   2.3646066e+00   3.8831844e-01  -8.9929095e+07
   4.4114705e-10  -2.3126034e-02   2.3590037e+00   3.9011416e-01  -8.9565570e+07
   4.4214738e-10  -2.3036620e-02   2.3534276e+00   3.9190938e-01  -8.9203684e+07
   4.4314772e-10  -2.2947568e-02   2.3478783e+00   3.9370407e-01  -8.8843425e+07
   4.4414805e-10  -2.2858875e-02   2.3423556e+00   3.9549819e-01  -8.8484786e+07
   4.4514838e-10  -2.2770539e-02   2.3368594e+00   3.9729172e-01  -8.8127759e+07
   4.4614872e-10  -2.2682560e-02   2.3313895e+00   3.9908462e-01  -8.7772333e+07
   4.4714905e-10  -2.2594936e-02   2.3259459e+00   4.0087686e-01  -8.7418501e+07
   4.4814938e-10  -2.2507665e-02   2.3205284e+00   4.0266841e-01  -8.7066254e+07
   4.4914972e-10  -2.2420746e-02   2.3151369e+00   4.0445924e-01  -8.6715584e+07
   4.5015005e-10  -2.2334177e-02   2.3097713e+00   4.0624932e-01  -8.6366481e+07
   4.5115038e-10  -2.2247956e-02   2.3044314e+00   4.0803862e-01  -8.6018939e+07
   4.5215072e-10  -2.2162082e-02   2.2991172e+00   4.0982710e-01  -8.5672947e+07
   4.5315105e-10  -2.2076553e-02   2.2938285e+00   4.1161475e-01  -8.5328498e+07
   4.5415138e-10  -2.1991368e-02   2.2885652e+00   4.1340152e-01  -8.4985585e+07
   4.5515172e-10  -2.1906525e-02   2.2833272e+00   4.1518739e-01  -8.4644197e+07
   4.5615205e-10  -2.1822023e-02   2.2781143e+00   4.1697233e-01  -8.4304328e+07
   4.5715238e-10  -2.1737861e-02   2.2729265e+00   4.1875632e-01  -8.3965969e+07
   4.5815272e-10  -2.1654036e-02   2.2677636e+00   4.2053931e-01  -8.3629112e+07
   4.5915305e-10  -2.1570547e-02   2.2626255e+00   4.2232130e-01  -8.3293750e+07
   4.6015338e-10  -2.1487393e-02   2.2575122e+00   4.2410223e-01  -8.2959873e+07
   4.6115372e-10  -2.1404572e-02   2.2524233e+00   4.2588210e-01  -8.2627475e+07
   4.6215405e-10  -2.1322083e-02   2.2473590e+00   4.2766087e-01  -8.2296548e+07
   4.6315438e-10  -2.1239924e-02   2.2423190e+00   4.2943851e-01  -8.1967083e+07
   4.6415472e-10  -2.1158094e-02   2.2373032e+00   4.3121499e-01  -8.1639073e+07
   4.6515505e-10  -2.1076591e-02   2.2323115e+00   4.3299029e-01  -8.1312510e+07
   4.6615539e-10  -2.0995415e-02   2.2273439e+00   4.3476439e-01  -8.0987387e+07
   4.6715572e-10  -2.0914563e-02   2.2224001e+00   4.3653725e-01  -8.0663695e+07
   4.6815605e-10  -2.0834034e-02   2.2174801e+00   4.3830885e-01  -8.0341428e+07
   4.6915639e-10  -2.0753826e-02   2.2125837e+00   4.4007916e-01  -8.0020578e+07
   4.7015672e-10  -2.0673939e-02   2.2077109e+00   4.4184816e-01  -7.9701137e+07
   4.7115705e-10  -2.0594371e-02   2.2028615e+00   4.4361582e-01  -7.9383099e+07
   4.7215739e-10  -2.0515120e-02   2.1980354e+00   4.4538212e-01  -7.9066455e+07
   4.7315772e-10  -2.0436185e-02   2.1932325e+00   4.4714702e-01  -7.8751198e+07
   4.7415805e-10  -2.0357565e-02   2.1884527e+00   4.4891051e-01  -7.8437321e+07
   4.7515839e-10  -2.0279259e-02   2.1836959e+00   4.5067256e-01  -7.8124817e+07
   4.7615872e-10  -2.0201264e-02   2.1789619e+00   4.5243315e-01  -7.7813679e+07
   4.7715905e-10  -2.0123579e-02   2.1742507e+00   4.5419225e-01  -7.7503899e+07
   4.7815939e-10  -2.0046204e-02   2.1695622e+00   4.5594983e-01  -7.7195471e+07
   4.7915972e-10  -1.9969137e-02   2.1648961e+00   4.5770588e-01  -7.6888387e+07
   4.8016005e-10  -1.9892376e-02   2.1602525e+00   4.5946036e-01  -7.6582640e+07
   4.8116039e-10  -1.9815921e-02   2.1556312e+00   4.6121327e-01  -7.6278224e+07
   4.8216072e-10  -1.9739769e-02   2.1510322e+00   4.6296456e-01  -7.5975131e+07
   4.8316105e-10  -1.9663920e-02   2.1464552e+00   4.6471423e-01  -7.5673355e+07
   4.8416139e-10  -1.9588372e-02   2.1419002e+00   4.6646224e-01  -7.5372888e+07
   4.8516172e-10  -1.9513124e-02   2.1373671e+00   4.6820857e-01  -7.5073725e+07
   4.8616205e-10  -1.9438174e-02   2.1328557e+00   4.6995321e-01  -7.4775858e+07
   4.8716239e-10  -1.9363522e-02   2.1283660e+00   4.7169612e-01  -7.4479281e+07
   4.8816272e-10  -1.9289166e-02   2.1238979e+00   4.7343729e-01  -7.4183986e+07
   4.8916305e-10  -1.9215105e-02   2.1194512e+00   4.7517670e-01  -7.3889968e+07
   4.9016339e-10  -1.9141337e-02   2.1150259e+00   4.7691432e-01  -7.3597219e+07
   4.9116372e-10  -1.9067861e-02   2.1106218e+00   4.7865013e-01  -7.3305734e+07
   4.9216405e-10  -1.8994676e-02   2.1062389e+00   4.8038411e-01  -7.3015506e+07
   4.9316439e-10  -1.8921781e-02   2.1018770e+00   4.8211625e-01  -7.2726528e+07
   4.9416472e-10  -1.8849175e-02   2.0975360e+00   4.8384651e-01  -7.2438794e+07
   4.9516506e-10  -1.8776855e-02   2.0932158e+00   4.8557488e-01  -7.2152297e+07
   4.9616539e-10  -1.8704822e-02   2.0889164e+00   4.8730134e-01  -7.1867031e+07
   4.9716572e-10  -1.8633073e-02   2.0846376e+00   4.8902586e-01  -7.1582991e+07
   4.9816606e-10  -1.8561608e-02   2.0803793e+00   4.9074844e-01  -7.1300169e+07
   4.9916639e-10  -1.8490425e-02   2.0761414e+00   4.9246904e-01  -7.1018560e+07
   5.0016672e-10  -1.8419524e-02   2.0719238e+00   4.9418765e-01  -7.0738157e+07
   5.0116706e-10  -1.8348902e-02   2.0677264e+00   4.9590425e-01  -7.0458954e+07
   5.0216739e-10  -1.8278559e-02   2.0635492e+00   4.9761881e-01  -7.0180945e+07
   5.0316772e-10  -1.8208493e-02   2.0593919e+00   4.9933133e-01  -6.9904125e+07
   5.0416806e-10  -1.8138704e-02   2.0552546e+00   5.0104179e-01  -6.9628486e+07
   5.0516839e-10  -1.8069190e-02   2.0511370e+00   5.0275015e-01  -6.9354024e+07
   5.0616872e-10  -1.7999949e-02   2.0470392e+00   5.0445641e-01  -6.9080732e+07
   5.0716906e-10  -1.7930982e-02   2.0429610e+00   5.0616055e-01  -6.8808604e+07
   5.0816939e-10  -1.7862286e-02   2.0389023e+00   5.0786254e-01  -6.8537634e+07
   5.0916972e-10  -1.7793861e-02   2.0348630e+00   5.0956238e-01  -6.8267817e+07
   5.1017006e-10  -1.7725705e-02   2.0308431e+00   5.1126004e-01  -6.7999147e+07
   5.1117039e-10  -1.7657817e-02   2.0268423e+00   5.1295551e-01  -6.7731618e+07
   5.1217072e-10  -1.7590196e-02   2.0228607e+00   5.1464876e-01  -6.7465224e+07
   5.1317106e-10  -1.7522842e-02   2.0188981e+00   5.1633979e-01  -6.7199960e+07
   5.1417139e-10  -1.7455752e-02   2.0149545e+00   5.1802857e-01  -6.6935820e+07
   5.1517172e-10  -1.7388925e-02   2.0110297e+00   5.1971509e-01  -6.6672798e+07
   5.1617206e-10  -1.7322361e-02   2.0071236e+00   5.2139933e-01  -6.6410890e+07
   5.1717239e-10  -1.7256059e-02   2.0032362e+00   5.2308127e-01  -6.6150088e+07
   5.1817272e-10  -1.7190017e-02   1.9993673e+00   5.2476091e-01  -6.5890388e+07
   5.1917306e-10  -1.7124234e-02   1.9955169e+00   5.2643822e-01  -6.5631785e+07
   5.2017339e-10  -1.7058710e-02   1.9916849e+00   5.2811318e-01  -6.5374273e+07
   5.2117372e-10  -1.6993442e-02   1.9878711e+00   5.2978579e-01  -6.5117846e+07
   5.2217406e-10  -1.6928430e-02   1.9840755e+00   5.3145602e-01  -6.4862499e+07
   5.2317439e-10  -1.6863674e-02   1.9802981e+00   5.3312386e-01  -6.4608227e+07
   5.2417472e-10  -1.6799171e-02   1.9765386e+00   5.3478930e-01  -6.4355024e+07
   5.2517506e-10  -1.6734921e-02   1.9727970e+00   5.3645233e-01  -6.4102886e+07
   5.2617539e-10  -1.6670922e-02   1.9690733e+00   5.3811291e-01  -6.3851806e+07
   5.2717573e-10  -1.6607174e-02   1.9653672e+00   5.3977105e-01  -6.3601781e+07
   5.2817606e-10  -1.6543676e-02   1.9616789e+00   5.4142673e-01  -6.3352804e+07
   5.2917639e-10  -1.6480426e-02   1.9580080e+00   5.4307993e-01  -6.3104871e+07
   5.3017673e-10  -1.6417424e-02   1.9543547e+00   5.4473064e-01  -6.2857976e+07
   5.3117706e-10  -1.6354668e-02   1.9507187e+00   5.4637885e-01  -6.2612114e+07
   5.3217739e-10  -1.6292158e-02   1.9471000e+00   5.4802453e-01  -6.2367280e+07
   5.3317773e-10  -1.6229892e-02   1.9434985e+00   5.4966769e-01  -6.2123470e+07
   5.3417806e-10  -1.6167869e-02   1.9399141e+00   5.5130830e-01  -6.1880678e+07
   5.3517839e-10  -1.6106089e-02   1.9363467e+00   5.5294635e-01  -6.1638899e+07
   5.3617873e-10  -1.6044550e-02   1.9327962e+00   5.5458183e-01  -6.1398129e+07
   5.3717906e-10  -1.5983252e-02   1.9292626e+00   5.5621473e-01  -6.1158363e+07
   5.3817939e-10  -1.5922193e-02   1.9257458e+00   5.5784503e-01  -6.0919594e+07
   5.3917973e-10  -1.5861372e-02   1.9222457e+00   5.5947273e-01  -6.0681820e+07
   5.4018006e-10  -1.5800788e-02   1.9187621e+00   5.6109780e-01  -6.0445035e+07
   5.4118039e-10  -1.5740441e-02   1.9152951e+00   5.6272024e-01  -6.0209234e+07
   5.4218073e-10  -1.5680330e-02   1.9118445e+00   5.6434003e-01  -5.9974412e+07
   5.4318106e-10  -1.5620452e-02   1.9084102e+00   5.6595716e-01  -5.9740565e+07
   5.4418139e-10  -1.5560809e-02   1.9049922e+00   5.6757163e-01  -5.9507689e+07
   5.4518173e-10  -1.5501397e-02   1.9015904e+00   5.6918342e-01  -5.9275777e+07
   5.4618206e-10  -1.5442217e-02   1.8982047e+00   5.7079251e-01  -5.9044827e+07
   5.4718239e-10  -1.5383268e-02   1.8948350e+00   5.7239890e-01  -5.8814833e+07
   5.4818273e-10  -1.5324548e-02   1.8914812e+00   5.7400258e-01  -5.8585790e+07
   5.4918306e-10  -1.5266057e-02   1.8881433e+00   5.7560353e-01  -5.8357695e+07
   5.5018339e-10  -1.5207794e-02   1.8848212e+00   5.7720174e-01  -5.8130542e+07
   5.5118373e-10  -1.5149757e-02   1.8815147e+00   5.7879721e-01  -5.7904327e+07
   5.5218406e-10  -1.5091946e-02   1.8782239e+00   5.8038993e-01  -5.7679045e+07
   5.5318439e-10  -1.5034360e-02   1.8749485e+00   5.8197987e-01  -5.7454693e+07
   5.5418473e-10  -1.4976999e-02   1.8716887e+00   5.8356704e-01  -5.7231266e+07
   5.5518506e-10  -1.4919860e-02   1.8684442e+00   5.8515142e-01  -5.7008759e+07
   5.5618540e-10  -1.4862943e-02   1.8652150e+00   5.8673301e-01  -5.6787168e+07
   5.5718573e-10  -1.4806247e-02   1.8620011e+00   5.8831179e-01  -5.6566488e+07
   5.5818606e-10  -1.4749772e-02   1.8588022e+00   5.8988775e-01  -5.6346716e+07
   5.5918640e-10  -1.4693516e-02   1.8556185e+00   5.9146089e-01  -5.6127847e+07
   5.6018673e-10  -1.4637479e-02   1.8524497e+00   5.9303119e-01  -5.5909877e+07
   5.6118706e-10  -1.4581659e-02   1.8492959e+00   5.9459865e-01  -5.5692802e+07
   5.6218740e-10  -1.4526056e-02   1.8461568e+00   5.9616325e-01  -5.5476617e+07
   5.6318773e-10  -1.4470669e-02   1.8430326e+00   5.9772499e-01  -5.5261318e+07
   5.6418806e-10  -1.4415496e-02   1.8399230e+00   5.9928387e-01  -5.5046901e+07
   5.6518840e-10  -1.4360538e-02   1.8368281e+00   6.0083986e-01  -5.4833362e+07
   5.6618873e-10  -1.4305793e-02   1.8337476e+00   6.0239297e-01  -5.4620697e+07
   5.6718906e-10  -1.4251260e-02   1.8306817e+00   6.0394318e-01  -5.4408902e+07
   5.6818940e-10  -1.4196938e-02   1.8276301e+00   6.0549049e-01  -5.4197972e+07
   5.6918973e-10  -1.4142828e-02   1.8245928e+00   6.0703488e-01  -5.3987904e+07
   5.7019006e-10  -1.4088926e-02   1.8215698e+00   6.0857636e-01  -5.3778693e+07
   5.7119040e-10  -1.4035234e-02   1.8185610e+00   6.1011491e-01  -5.3570337e+07
   5.7219073e-10  -1.3981750e-02   1.8155662e+00   6.1165052e-01  -5.3362830e+07
   5.7319106e-10  -1.3928473e-02   1.8125855e+00   6.1318319e-01  -5.3156168e+07
   5.7419140e-10  -1.3875402e-02   1.8096188e+00   6.1471292e-01  -5.2950349e+07
   5.7519173e-10  -1.3822537e-02   1.8066659e+00   6.1623968e-01  -5.2745367e+07
   5.7619206e-10  -1.3769876e-02   1.8037268e+00   6.1776348e-01  -5.2541219e+07
   5.7719240e-10  -1.3717419e-02   1.8008015e+00   6.1928431e-01  -5.2337902e+07
   5.7819273e-10  -1.3665165e-02   1.7978899e+00   6.2080217e-01  -5.2135411e+07
   5.7919306e-10  -1.3613113e-02   1.7949918e+00   6.2231704e-01  -5.1933742e+07
   5.8019340e-10  -1.3561263e-02   1.7921073e+00   6.2382892e-01  -5.1732893e+07
   5.8119373e-10  -1.3509613e-02   1.7892363e+00   6.2533780e-01  -5.1532858e+07
   5.8219406e-10  -1.3458162e-02   1.7863787e+00   6.2684367e-01  -5.1333634e+07
   5.8319440e-10  -1.3406911e-02   1.7835344e+00   6.2834654e-01  -5.1135219e+07
   5.8419473e-10  -1.3355858e-02   1.7807033e+00   6.2984640e-01  -5.0937606e+07
   5.8519507e-10  -1.3305002e-02   1.7778855e+00   6.3134323e-01  -5.0740795e+07
   5.8619540e-10  -1.3254342e-02   1.7750808e+00   6.3283703e-01  -5.0544779e+07
   5.8719573e-10  -1.3203878e-02   1.7722891e+00   6.3432780e-01  -5.0349557e+07
   5.8819607e-10  -1.3153609e-02   1.7695105e+00   6.3581553e-01  -5.0155123e+07
   5.8919640e-10  -1.3103534e-02   1.7667447e+00   6.3730022e-01  -4.9961476e+07
   5.9019673e-10  -1.3053653e-02   1.7639919e+00   6.3878186e-01  -4.9768610e+07
   5.9119707e-10  -1.3003964e-02   1.7612518e+00   6.4026044e-01  -4.9576523e+07
   5.9219740e-10  -1.2954467e-02   1.7585245e+00   6.4173597e-01  -4.9385212e+07
   5.9319773e-10  -1.2905160e-02   1.7558098e+00   6.4320843e-01  -4.9194671e+07
   5.9419807e-10  -1.2856044e-02   1.7531078e+00   6.4467782e-01  -4.9004899e+07
   5.9519840e-10  -1.2807118e-02   1.7504183e+00   6.4614413e-01  -4.8815891e+07
   5.9619873e-10  -1.2758380e-02   1.7477412e+00   6.4760737e-01  -4.8627644e+07
   5.9719907e-10  -1.2709830e-02   1.7450766e+00   6.4906753e-01  -4.8440155e+07
   5.9819940e-10  -1.2661467e-02   1.7424243e+00   6.5052459e-01  -4.8253420e+07
   5.9919973e-10  -1.2613290e-02   1.7397844e+00   6.5197857e-01  -4.8067436e+07
   6.0020007e-10  -1.2565300e-02   1.7371566e+00   6.5342944e-01  -4.7882199e+07
   6.0120040e-10  -1.2517494e-02   1.7345410e+00   6.5487722e-01  -4.7697706e+07
   6.0220073e-10  -1.2469872e-02   1.7319375e+00   6.5632189e-01  -4.7513954e+07
   6.0320107e-10  -1.2422434e-02   1.7293461e+00   6.5776346e-01  -4.7330940e+07
   6.0420140e-10  -1.2375179e-02   1.7267666e+00   6.5920191e-01  -4.7148660e+07
   6.0520173e-10  -1.2328105e-02   1.7241991e+00   6.6063725e-01  -4.6967110e+07
   6.0620207e-10  -1.2281213e-02   1.7216434e+00   6.6206946e-01  -4.6786288e+07
   6.0720240e-10  -1.2234501e-02   1.7190996e+00   6.6349856e-01  -4.6606191e+07
   6.0820273e-10  -1.2187969e-02   1.7165674e+00   6.6492453e-01  -4.6426814e+07
   6.0920307e-10  -1.2141617e-02   1.7140470e+00   6.6634737e-01  -4.6248156e+07
   6.1020340e-10  -1.2095442e-02   1.7115382e+00   6.6776708e-01  -4.6070212e+07
   6.1120373e-10  -1.2049445e-02   1.7090409e+00   6.6918365e-01  -4.5892980e+07
   6.1220407e-10  -1.2003625e-02   1.7065551e+00   6.7059708e-01  -4.5716455e+07
   6.1320440e-10  -1.1957982e-02   1.7040808e+00   6.7200738e-01  -4.5540637e+07
   6.1420473e-10  -1.1912514e-02   1.7016179e+00   6.7341453e-01  -4.5365520e+07
   6.1520507e-10  -1.1867220e-02   1.6991663e+00   6.7481853e-01  -4.5191102e+07
   6.1620540e-10  -1.1822101e-02   1.6967260e+00   6.7621938e-01  -4.5017380e+07
   6.1720574e-10  -1.1777155e-02   1.6942969e+00   6.7761708e-01  -4.4844351e+07
   6.1820607e-10  -1.1732382e-02   1.6918790e+00   6.7901163e-01  -4.4672012e+07
   6.1920640e-10  -1.1687781e-02   1.6894722e+00   6.8040302e-01  -4.4500359e+07
   6.2020674e-10  -1.1643352e-02   1.6870764e+00   6.8179126e-01  -4.4329391e+07
   6.2120707e-10  -1.1599093e-02   1.6846917e+00   6.8317633e-01  -4.4159102e+07
   6.2220740e-10  -1.1555004e-02   1.6823178e+00   6.8455824e-01  -4.3989492e+07
   6.2320774e-10  -1.1511084e-02   1.6799549e+00   6.8593699e-01  -4.3820556e+07
   6.2420807e-10  -1.1467333e-02   1.6776028e+00   6.8731257e-01  -4.3652292e+07
   6.2520840e-10  -1.1423750e-02   1.6752614e+00   6.8868498e-01  -4.3484697e+07
   6.2620874e-10  -1.1380335e-02   1.6729308e+00   6.9005423e-01  -4.3317767e+07
   6.2720907e-10  -1.1337086e-02   1.6706109e+00   6.9142030e-01  -4.3151501e+07
   6.2820940e-10  -1.1294003e-02   1.6683015e+00   6.9278320e-01  -4.2985895e+07
   6.2920974e-10  -1.1251085e-02   1.6660028e+00   6.9414293e-01  -4.2820946e+07
   6.3021007e-10  -1.1208332e-02   1.6637145e+00   6.9549948e-01  -4.2656651e+07
   6.3121040e-10  -1.1165743e-02   1.6614367e+00   6.9685286e-01  -4.2493007e+07
   6.3221074e-10  -1.1123318e-02   1.6591693e+00   6.9820306e-01  -4.2330013e+07
   6.3321107e-10  -1.1081055e-02   1.6569122e+00   6.9955008e-01  -4.2167664e+07
   6.3421140e-10  -1.1038954e-02   1.6546655e+00   7.0089392e-01  -4.2005958e+07
   6.3521174e-10  -1.0997015e-02   1.6524289e+00   7.0223458e-01  -4.1844892e+07
   6.3621207e-10  -1.0955236e-02   1.6502026e+00   7.0357206e-01  -4.1684464e+07
   6.3721240e-10  -1.0913618e-02   1.6479865e+00   7.0490636e-01  -4.1524671e+07
   6.3821274e-10  -1.0872159e-02   1.6457804e+00   7.0623748e-01  -4.1365509e+07
   6.3921307e-10  -1.0830859e-02   1.6435844e+00   7.0756541e-01  -4.1206977e+07
   6.4021340e-10  -1.0789717e-02   1.6413983e+00   7.0889016e-01  -4.1049071e+07
   6.4121374e-10  -1.0748733e-02   1.6392222e+00   7.1021173e-01  -4.0891789e+07
   6.4221407e-10  -1.0707906e-02   1.6370560e+00   7.1153012e-01  -4.0735128e+07
   6.4321440e-10  -1.0667236e-02   1.6348997e+00   7.1284532e-01  -4.0579085e+07
   6.4421474e-10  -1.0626721e-02   1.6327531e+00   7.1415733e-01  -4.0423658e+07
   6.4521507e-10  -1.0586361e-02   1.6306163e+00   7.1546617e-01  -4.0268845e+07
   6.4621541e-10  -1.0546156e-02   1.6284892e+00   7.1677182e-01  -4.0114641e+07
   6.4721574e-10  -1.0506105e-02   1.6263718e+00   7.1807428e-01  -3.9961046e+07
   6.4821607e-10  -1.0466207e-02   1.6242639e+00   7.1937356e-01  -3.9808056e+07
   6.4921641e-10  -1.0426462e-02   1.6221656e+00   7.2066966e-01  -3.9655668e+07
   6.5021674e-10  -1.0386869e-02   1.6200768e+00   7.2196257e-01  -3.9503881e+07
   6.5121707e-10  -1.0347428e-02   1.6179975e+00   7.2325231e-01  -3.9352691e+07
   6.5221741e-10  -1.0308138e-02   1.6159275e+00   7.2453885e-01  -3.9202096e+07
   6.5321774e-10  -1.0268998e-02   1.6138670e+00   7.2582222e-01  -3.9052093e+07
   6.5421807e-10  -1.0230007e-02   1.6118157e+00   7.2710241e-01  -3.8902681e+07
   6.5521841e-10  -1.0191166e-02   1.6097738e+00   7.2837941e-01  -3.8753855e+07
   6.5621874e-10  -1.0152474e-02   1.6077410e+00   7.2965324e-01  -3.8605615e+07
   6.5721907e-10  -1.0113929e-02   1.6057175e+00   7.3092389e-01  -3.8457957e+07
   6.5821941e-10  -1.0075532e-02   1.6037031e+00   7.3219135e-01  -3.8310879e+07
   6.5921974e-10  -1.0037281e-02   1.6016977e+00   7.3345565e-01  -3.8164378e+07
   6.6022007e-10  -9.9991774e-03   1.5997015e+00   7.3471676e-01  -3.8018452e+07
   6.6122041e-10  -9.9612191e-03   1.5977142e+00   7.3597470e-01  -3.7873099e+07
   6.6222074e-10  -9.9234058e-03   1.5957358e+00   7.3722946e-01  -3.7728316e+07
   6.6322107e-10  -9.8857371e-03   1.5937664e+00   7.3848106e-01  -3.7584101e+07
   6.6422141e-10  -9.8482124e-03   1.5918059e+00   7.3972948e-01  -3.7440451e+07
   6.6522174e-10  -9.8108311e-03   1.5898542e+00   7.4097473e-01  -3.7297364e+07
   6.6622207e-10  -9.7735926e-03   1.5879112e+00   7.4221681e-01  -3.7154837e+07
   6.6722241e-10  -9.7364965e-03   1.5859770e+00   7.4345573e-01  -3.7012869e+07
   6.6822274e-10  -9.6995421e-03   1.5840515e+00   7.4469147e-01  -3.6871456e+07
   6.6922307e-10  -9.6627288e-03   1.5821346e+00   7.4592406e-01  -3.6730597e+07
   6.7022341e-10  -9.6260562e-03   1.5802264e+00   7.4715348e-01  -3.6590289e+07
   6.7122374e-10  -9.5895237e-03   1.5783267e+00   7.4837974e-01  -3.6450530e+07
   6.7222407e-10  -9.5531307e-03   1.5764355e+00   7.4960284e-01  -3.6311317e+07
   6.7322441e-10  -9.5168767e-03   1.5745528e+00   7.5082278e-01  -3.6172649e+07
   6.7422474e-10  -9.4807611e-03   1.5726786e+00   7.5203957e-01  -3.6034523e+07
   6.7522508e-10  -9.4447835e-03   1.5708127e+00   7.5325321e-01  -3.5896936e+07
   6.7622541e-10  -9.4089432e-03   1.5689553e+00   7.5446369e-01  -3.5759887e+07
   6.7722574e-10  -9.3732397e-03   1.5671061e+00   7.5567102e-01  -3.5623372e+07
   6.7822608e-10  -9.3376725e-03   1.5652652e+00   7.5687521e-01  -3.5487391e+07
   6.7922641e-10  -9.3022411e-03   1.5634325e+00   7.5807625e-01  -3.5351941e+07
   6.8022674e-10  -9.2669449e-03   1.5616081e+00   7.5927414e-01  -3.5217019e+07
   6.8122708e-10  -9.2317834e-03   1.5597917e+00   7.6046890e-01  -3.5082623e+07
   6.8222741e-10  -9.1967561e-03   1.5579835e+00   7.6166052e-01  -3.4948751e+07
   6.8322774e-10  -9.1618624e-03   1.5561834e+00   7.6284900e-01  -3.4815401e+07
   6.8422808e-10  -9.1271019e-03   1.5543913e+00   7.6403434e-01  -3.4682571e+07
   6.8522841e-10  -9.0924740e-03   1.5526072e+00   7.6521656e-01  -3.4550259e+07
   6.8622874e-10  -9.0579782e-03   1.5508311e+00   7.6639564e-01  -3.4418462e+07
   6.8722908e-10  -9.0236140e-03   1.5490628e+00   7.6757160e-01  -3.4287178e+07
   6.8822941e-10  -8.9893808e-03   1.5473025e+00   7.6874444e-01  -3.4156405e+07
   6.8922974e-10  -8.9552783e-03   1.5455500e+00   7.6991415e-01  -3.4026141e+07
   6.9023008e-10  -8.9213057e-03   1.5438053e+00   7.7108075e-01  -3.3896384e+07
   6.9123041e-10  -8.8874627e-03   1.5420683e+00   7.7224423e-01  -3.3767132e+07
   6.9223074e-10  -8.8537488e-03   1.5403391e+00   7.7340460e-01  -3.3638383e+07
   6.9323108e-10  -8.8201634e-03   1.5386176e+00   7.7456186e-01  -3.3510134e+07
   6.9423141e-10  -8.7867060e-03   1.5369037e+00   7.7571601e-01  -3.3382384e+07
   6.9523174e-10  -8.7533762e-03   1.5351975e+00   7.7686705e-01  -3.3255131e+07
   6.9623208e-10  -8.7201734e-03   1.5334988e+00   7.7801500e-01  -3.3128371e+07
   6.9723241e-10  -8.6870972e-03   1.5318076e+00   7.7915985e-01  -3.3002105e+07
   6.9823274e-10  -8.6541471e-03   1.5301240e+00   7.8030160e-01  -3.2876328e+07
   6.9923308e-10  -8.6213225e-03   1.5284478e+00   7.8144026e-01  -3.2751040e+07
   7.0023341e-10  -8.5886230e-03   1.5267790e+00   7.8257583e-01  -3.2626238e+07
   7.0123374e-10  -8.5560481e-03   1.5251177e+00   7.8370832e-01  -3.2501921e+07
   7.0223408e-10  -8.5235974e-03   1.5234637e+00   7.8483772e-01  -3.2378086e+07
   7.0323441e-10  -8.4912702e-03   1.5218170e+00   7.8596405e-01  -3.2254731e+07
   7.0423474e-10  -8.4590662e-03   1.5201776e+00   7.8708729e-01  -3.2131855e+07
   7.0523508e-10  -8.4269849e-03   1.5185455e+00   7.8820747e-01  -3.2009455e+07
   7.0623541e-10  -8.3950258e-03   1.5169205e+00   7.8932458e-01  -3.1887529e+07
   7.0723575e-10  -8.3631885e-03   1.5153028e+00   7.9043862e-01  -3.1766077e+07
   7.0823608e-10  -8.3314724e-03   1.5136922e+00   7.9154961e-01  -3.1645094e+07
   7.0923641e-10  -8.2998770e-03   1.5120887e+00   7.9265753e-01  -3.1524581e+07
   7.1023675e-10  -8.2684020e-03   1.5104923e+00   7.9376240e-01  -3.1404534e+07
   7.1123708e-10  -8.2370469e-03   1.5089029e+00   7.9486421e-01  -3.1284952e+07
   7.1223741e-10  -8.2058111e-03   1.5073206e+00   7.9596298e-01  -3.1165833e+07
   7.1323775e-10  -8.1746943e-03   1.5057452e+00   7.9705871e-01  -3.1047174e+07
   7.1423808e-10  -8.1436959e-03   1.5041767e+00   7.9815140e-01  -3.0928976e+07
   7.1523841e-10  -8.1128156e-03   1.5026152e+00   7.9924105e-01  -3.0811234e+07
   7.1623875e-10  -8.0820528e-03   1.5010605e+00   8.0032767e-01  -3.0693948e+07
   7.1723908e-10  -8.0514071e-03   1.4995127e+00   8.0141126e-01  -3.0577115e+07
   7.1823941e-10  -8.0208780e-03   1.4979717e+00   8.0249182e-01  -3.0460734e+07
   7.1923975e-10  -7.9904652e-03   1.4964375e+00   8.0356936e-01  -3.0344803e+07
   7.2024008e-10  -7.9601681e-03   1.4949100e+00   8.0464389e-01  -3.0229320e+07
   7.2124041e-10  -7.9299862e-03   1.4933892e+00   8.0571541e-01  -3.0114283e+07
   7.2224075e-10  -7.8999193e-03   1.4918751e+00   8.0678391e-01  -2.9999691e+07
   7.2324108e-10  -7.8699667e-03   1.4903676e+00   8.0784941e-01  -2.9885541e+07
   7.2424141e-10  -7.8401281e-03   1.4888668e+00   8.0891192e-01  -2.9771833e+07
   7.2524175e-10  -7.8104031e-03   1.4873725e+00   8.0997142e-01  -2.9658563e+07
   7.2624208e-10  -7.7807911e-03   1.4858848e+00   8.1102793e-01  -2.9545730e+07
   7.2724241e-10  -7.7512918e-03   1.4844036e+00   8.1208146e-01  -2.9433333e+07
   7.2824275e-10  -7.7219047e-03   1.4829289e+00   8.1313200e-01  -2.9321370e+07
   7.2924308e-10  -7.6926293e-03   1.4814607e+00   8.1417956e-01  -2.9209838e+07
   7.3024341e-10  -7.6634654e-03   1.4799989e+00   8.1522414e-01  -2.9098737e+07
   7.3124375e-10  -7.6344123e-03   1.4785435e+00   8.1626576e-01  -2.8988064e+07
   7.3224408e-10  -7.6054698e-03   1.4770944e+00   8.1730440e-01  -2.8877818e+07
   7.3324441e-10  -7.5766373e-03   1.4756517e+00   8.1834009e-01  -2.8767997e+07
   7.3424475e-10  -7.5479145e-03   1.4742152e+00   8.1937282e-01  -2.8658600e+07
   7.3524508e-10  -7.5193009e-03   1.4727851e+00   8.2040259e-01  -2.8549623e+07
   7.3624542e-10  -7.4907961e-03   1.4713612e+00   8.2142942e-01  -2.8441067e+07
   7.3724575e-10  -7.4623996e-03   1.4699435e+00   8.2245330e-01  -2.8332929e+07
   7.3824608e-10  -7.4341112e-03   1.4685320e+00   8.2347424e-01  -2.8225208e+07
   7.3924642e-10  -7.4059303e-03   1.4671267e+00   8.2449224e-01  -2.8117901e+07
   7.4024675e-10  -7.3778565e-03   1.4657274e+00   8.2550731e-01  -2.8011008e+07
   7.4124708e-10  -7.3498894e-03   1.4643343e+00   8.2651946e-01  -2.7904526e+07
   7.4224742e-10  -7.3220287e-03   1.4629473e+00   8.2752869e-01  -2.7798454e+07
   7.4324775e-10  -7.2942739e-03   1.4615662e+00   8.2853500e-01  -2.7692790e+07
   7.4424808e-10  -7.2666245e-03   1.4601912e+00   8.2953839e-01  -2.7587533e+07
   7.4524842e-10  -7.2390803e-03   1.4588222e+00   8.3053888e-01  -2.7482681e+07
   7.4624875e-10  -7.2116407e-03   1.4574591e+00   8.3153647e-01  -2.7378232e+07
   7.4724908e-10  -7.1843054e-03   1.4561020e+00   8.3253115e-01  -2.7274184e+07
   7.4824942e-10  -7.1570740e-03   1.4547507e+00   8.3352295e-01  -2.7170537e+07
   7.4924975e-10  -7.1299461e-03   1.4534053e+00   8.3451185e-01  -2.7067289e+07
   7.5025008e-10  -7.1029213e-03   1.4520658e+00   8.3549787e-01  -2.6964437e+07
   7.5125042e-10  -7.0759991e-03   1.4507321e+00   8.3648102e-01  -2.6861980e+07
   7.5225075e-10  -7.0491793e-03   1.4494041e+00   8.3746128e-01  -2.6759918e+07
   7.5325108e-10  -7.0224613e-03   1.4480819e+00   8.3843868e-01  -2.6658247e+07
   7.5425142e-10  -6.9958449e-03   1.4467655e+00   8.3941322e-01  -2.6556967e+07
   7.5525175e-10  -6.9693296e-03   1.4454547e+00   8.4038489e-01  -2.6456076e+07
   7.5625208e-10  -6.9429150e-03   1.4441497e+00   8.4135371e-01  -2.6355573e+07
   7.5725242e-10  -6.9166007e-03   1.4428502e+00   8.4231968e-01  -2.6255455e+07
   7.5825275e-10  -6.8903864e-03   1.4415564e+00   8.4328281e-01  -2.6155722e+07
   7.5925308e-10  -6.8642717e-03   1.4402682e+00   8.4424310e-01  -2.6056372e+07
   7.6025342e-10  -6.8382562e-03   1.4389856e+00   8.4520055e-01  -2.5957403e+07
   7.6125375e-10  -6.8123395e-03   1.4377085e+00   8.4615517e-01  -2.5858814e+07
   7.6225408e-10  -6.7865212e-03   1.4364369e+00   8.4710697e-01  -2.5760603e+07
   7.6325442e-10  -6.7608010e-03   1.4351709e+00   8.4805595e-01  -2.5662769e+07
   7.6425475e-10  -6.7351784e-03   1.4339102e+00   8.4900211e-01  -2.5565310e+07
   7.6525509e-10  -6.7096532e-03   1.4326551e+00   8.4994547e-01  -2.5468225e+07
   7.6625542e-10  -6.6842249e-03   1.4314053e+00   8.5088602e-01  -2.5371513e+07
   7.6725575e-10  -6.6588931e-03   1.4301609e+00   8.5182378e-01  -2.5275171e+07
   7.6825609e-10  -6.6336576e-03   1.4289219e+00   8.5275873e-01  -2.5179199e+07
   7.6925642e-10  -6.6085178e-03   1.4276883e+00   8.5369091e-01  -2.5083594e+07
   7.7025675e-10  -6.5834735e-03   1.4264599e+00   8.5462029e-01  -2.4988356e+07
   7.7125709e-10  -6.5585243e-03   1.4252369e+00   8.5554690e-01  -2.4893483e+07
   7.7225742e-10  -6.5336699e-03   1.4240191e+00   8.5647074e-01  -2.4798974e+07
   7.7325775e-10  -6.5089097e-03   1.4228065e+00   8.5739181e-01  -2.4704826e+07
   7.7425809e-10  -6.4842436e-03   1.4215992e+00   8.5831012e-01  -2.4611040e+07
   7.7525842e-10  -6.4596711e-03   1.4203970e+00   8.5922567e-01  -2.4517612e+07
   7.7625875e-10  -6.4351919e-03   1.4192000e+00   8.6013847e-01  -2.4424543e+07
   7.7725909e-10  -6.4108057e-03   1.4180082e+00   8.6104852e-01  -2.4331829e+07
   7.7825942e-10  -6.3865119e-03   1.4168215e+00   8.6195583e-01  -2.4239471e+07
   7.7925975e-10  -6.3623104e-03   1.4156399e+00   8.6286041e-01  -2.4147467e+07
   7.8026009e-10  -6.3382008e-03   1.4144633e+00   8.6376225e-01  -2.4055814e+07
   7.8126042e-10  -6.3141827e-03   1.4132918e+00   8.6466138e-01  -2.3964513e+07
   7.8226075e-10  -6.2902557e-03   1.4121253e+00   8.6555778e-01  -2.3873560e+07
   7.8326109e-10  -6.2664195e-03   1.4109638e+00   8.6645147e-01  -2.3782956e+07
   7.8426142e-10  -6.2426738e-03   1.4098073e+00   8.6734244e-01  -2.3692699e+07
   7.8526175e-10  -6.2190182e-03   1.4086558e+00   8.6823072e-01  -2.3602787e+07
   7.8626209e-10  -6.1954524e-03   1.4075091e+00   8.6911630e-01  -2.3513218e+07
   7.8726242e-10  -6.1719760e-03   1.4063674e+00   8.6999919e-01  -2.3423993e+07
   7.8826275e-10  -6.1485887e-03   1.4052306e+00   8.7087938e-01  -2.3335108e+07
   7.8926309e-10  -6.1252901e-03   1.4040986e+00   8.7175690e-01  -2.3246564e+07
   7.9026342e-10  -6.1020799e-03   1.4029715e+00   8.7263174e-01  -2.3158358e+07
   7.9126375e-10  -6.0789578e-03   1.4018492e+00   8.7350392e-01  -2.3070489e+07
   7.9226409e-10  -6.0559234e-03   1.4007316e+00   8.7437342e-01  -2.2982956e+07
   7.9326442e-10  -6.0329765e-03   1.3996189e+00   8.7524027e-01  -2.2895758e+07
   7.9426475e-10  -6.0101166e-03   1.3985109e+00   8.7610446e-01  -2.2808893e+07
   7.9526509e-10  -5.9873434e-03   1.3974076e+00   8.7696601e-01  -2.2722360e+07
   7.9626542e-10  -5.9646566e-03   1.3963091e+00   8.7782491e-01  -2.2636158e+07
   7.9726576e-10  -5.9420559e-03   1.3952152e+00   8.7868118e-01  -2.2550285e+07
   7.9826609e-10  -5.9195409e-03   1.3941260e+00   8.7953481e-01  -2.2464740e+07
   7.9926642e-10  -5.8971113e-03   1.3930414e+00   8.8038582e-01  -2.2379522e+07
   8.0026676e-10  -5.8747668e-03   1.3919614e+00   8.8123421e-01  -2.2294629e+07
   8.0126709e-10  -5.8525071e-03   1.3908861e+00   8.8207998e-01  -2.2210060e+07
   8.0226742e-10  -5.8303318e-03   1.3898153e+00   8.8292315e-01  -2.2125815e+07
   8.0326776e-10  -5.8082406e-03   1.3887491e+00   8.8376371e-01  -2.2041891e+07
   8.0426809e-10  -5.7862332e-03   1.3876874e+00   8.8460167e-01  -2.1958288e+07
   8.0526842e-10  -5.7643093e-03   1.3866302e+00   8.8543704e-01  -2.1875003e+07
   8.0626876e-10  -5.7424685e-03   1.3855776e+00   8.8626982e-01  -2.1792037e+07
   8.0726909e-10  -5.7207105e-03   1.3845294e+00   8.8710003e-01  -2.1709387e+07
   8.0826942e-10  -5.6990351e-03   1.3834856e+00   8.8792766e-01  -2.1627053e+07
   8.0926976e-10  -5.6774419e-03   1.3824463e+00   8.8875271e-01  -2.1545033e+07
   8.1027009e-10  -5.6559306e-03   1.3814114e+00   8.8957521e-01  -2.1463326e+07
   8.1127042e-10  -5.6345008e-03   1.3803809e+00   8.9039514e-01  -2.1381930e+07
   8.1227076e-10  -5.6131524e-03   1.3793547e+00   8.9121253e-01  -2.1300846e+07
   8.1327109e-10  -5.5918849e-03   1.3783329e+00   8.9202736e-01  -2.1220070e+07
   8.1427142e-10  -5.5706980e-03   1.3773155e+00   8.9283966e-01  -2.1139603e+07
   8.1527176e-10  -5.5495915e-03   1.3763023e+00   8.9364942e-01  -2.1059442e+07
   8.1627209e-10  -5.5285650e-03   1.3752934e+00   8.9445665e-01  -2.0979587e+07
   8.1727242e-10  -5.5076182e-03   1.3742889e+00   8.9526135e-01  -2.0900037e+07
   8.1827276e-10  -5.4867508e-03   1.3732885e+00   8.9606354e-01  -2.0820790e+07
   8.1927309e-10  -5.4659626e-03   1.3722924e+00   8.9686321e-01  -2.0741845e+07
   8.2027342e-10  -5.4452532e-03   1.3713005e+00   8.9766038e-01  -2.0663201e+07
   8.2127376e-10  -5.4246223e-03   1.3703128e+00   8.9845505e-01  -2.0584857e+07
   8.2227409e-10  -5.4040697e-03   1.3693293e+00   8.9924722e-01  -2.0506812e+07
   8.2327442e-10  -5.3835950e-03   1.3683499e+00   9.0003690e-01  -2.0429064e+07
   8.2427476e-10  -5.3631978e-03   1.3673747e+00   9.0082410e-01  -2.0351612e+07
   8.2527509e-10  -5.3428781e-03   1.3664036e+00   9.0160882e-01  -2.0274456e+07
   8.2627543e-10  -5.3226353e-03   1.3654366e+00   9.0239106e-01  -2.0197593e+07
   8.2727576e-10  -5.3024693e-03   1.3644737e+00   9.0317084e-01  -2.0121024e+07
   8.2827609e-10  -5.2823798e-03   1.3635148e+00   9.0394816e-01  -2.0044746e+07
   8.2927643e-10  -5.2623664e-03   1.3625600e+00   9.0472303e-01  -1.9968758e+07
   8.3027676e-10  -5.2424288e-03   1.3616092e+00   9.0549544e-01  -1.9893060e+07
   8.3127709e-10  -5.2225669e-03   1.3606624e+00   9.0626541e-01  -1.9817651e+07
   8.3227743e-10  -5.2027802e-03   1.3597196e+00   9.0703294e-01  -1.9742528e+07
   8.3327776e-10  -5.1830686e-03   1.3587807e+00   9.0779804e-01  -1.9667692e+07
   8.3427809e-10  -5.1634316e-03   1.3578459e+00   9.0856072e-01  -1.9593141e+07
   8.3527843e-10  -5.1438691e-03   1.3569149e+00   9.0932097e-01  -1.9518873e+07
   8.3627876e-10  -5.1243808e-03   1.3559879e+00   9.1007881e-01  -1.9444889e+07
   8.3727909e-10  -5.1049663e-03   1.3550647e+00   9.1083424e-01  -1.9371186e+07
   8.3827943e-10  -5.0856254e-03   1.3541455e+00   9.1158727e-01  -1.9297763e+07
   8.3927976e-10  -5.0663578e-03   1.3532301e+00   9.1233790e-01  -1.9224621e+07
   8.4028009e-10  -5.0471632e-03   1.3523186e+00   9.1308614e-01  -1.9151756e+07
   8.4128043e-10  -5.0280414e-03   1.3514109e+00   9.1383199e-01  -1.9079169e+07
   8.4228076e-10  -5.0089921e-03   1.3505070e+00   9.1457546e-01  -1.9006858e+07
   8.4328109e-10  -4.9900149e-03   1.3496068e+00   9.1531656e-01  -1.8934822e+07
   8.4428143e-10  -4.9711097e-03   1.3487105e+00   9.1605529e-01  -1.8863061e+07
   8.4528176e-10  -4.9522762e-03   1.3478179e+00   9.1679165e-01  -1.8791572e+07
   8.4628209e-10  -4.9335140e-03   1.3469291e+00   9.1752566e-01  -1.8720356e+07
   8.4728243e-10  -4.9148229e-03   1.3460440e+00   9.1825732e-01  -1.8649410e+07
   8.4828276e-10  -4.8962026e-03   1.3451626e+00   9.1898664e-01  -1.8578735e+07
   8.4928309e-10  -4.8776529e-03   1.3442849e+00   9.1971361e-01  -1.8508328e+07
   8.5028343e-10  -4.8591735e-03   1.3434109e+00   9.2043825e-01  -1.8438189e+07
   8.5128376e-10  -4.8407642e-03   1.3425405e+00   9.2116056e-01  -1.8368317e+07
   8.5228409e-10  -4.8224246e-03   1.3416738e+00   9.2188055e-01  -1.8298710e+07
   8.5328443e-10  -4.8041545e-03   1.3408107e+00   9.2259823e-01  -1.8229368e+07
   8.5428476e-10  -4.7859536e-03   1.3399512e+00   9.2331359e-01  -1.8160290e+07
   8.5528510e-10  -4.7678217e-03   1.3390953e+00   9.2402665e-01  -1.8091475e+07
   8.5628543e-10  -4.7497585e-03   1.3382430e+00   9.2473741e-01  -1.8022921e+07
   8.5728576e-10  -4.7317637e-03   1.3373943e+00   9.2544587e-01  -1.7954628e+07
   8.5828610e-10  -4.7138372e-03   1.3365491e+00   9.2615205e-01  -1.7886595e+07
   8.5928643e-10  -4.6959785e-03   1.3357074e+00   9.2685595e-01  -1.7818820e+07
   8.6028676e-10  -4.6781876e-03   1.3348692e+00   9.2755757e-01  -1.7751303e+07
   8.6128710e-10  -4.6604640e-03   1.3340346e+00   9.2825692e-01  -1.7684043e+07
   8.6228743e-10  -4.6428076e-03   1.3332034e+00   9.2895401e-01  -1.7617038e+07
   8.6328776e-10  -4.6252181e-03   1.3323757e+00   9.2964884e-01  -1.7550288e+07
   8.6428810e-10  -4.6076952e-03   1.3315514e+00   9.3034141e-01  -1.7483792e+07
   8.6528843e-10  -4.5902388e-03   1.3307306e+00   9.3103174e-01  -1.7417548e+07
   8.6628876e-10  -4.5728484e-03   1.3299132e+00   9.3171983e-01  -1.7351556e+07
   8.6728910e-10  -4.5555240e-03   1.3290992e+00   9.3240568e-01  -1.7285815e+07
   8.6828943e-10  -4.5382652e-03   1.3282885e+00   9.3308931e-01  -1.7220324e+07
   8.6928976e-10  -4.5210718e-03   1.3274813e+00   9.3377070e-01  -1.7155081e+07
   8.7029010e-10  -4.5039435e-03   1.3266774e+00   9.3444989e-01  -1.7090086e+07
   8.7129043e-10  -4.4868801e-03   1.3258769e+00   9.3512685e-01  -1.7025339e+07
   8.7229076e-10  -4.4698814e-03   1.3250797e+00   9.3580162e-01  -1.6960837e+07
   8.7329110e-10  -4.4529471e-03   1.3242858e+00   9.3647418e-01  -1.6896580e+07
   8.7429143e-10  -4.4360769e-03   1.3234952e+00   9.3714454e-01  -1.6832568e+07
   8.7529176e-10  -4.4192706e-03   1.3227079e+00   9.3781272e-01  -1.6768798e+07
   8.7629210e-10  -4.4025280e-03   1.3219239e+00   9.3847871e-01  -1.6705271e+07
   8.7729243e-10  -4.3858489e-03   1.3211431e+00   9.3914253e-01  -1.6641985e+07
   8.7829276e-10  -4.3692329e-03   1.3203656e+00   9.3980417e-01  -1.6578940e+07
   8.7929310e-10  -4.3526799e-03   1.3195913e+00   9.4046364e-01  -1.6516134e+07
   8.8029343e-10  -4.3361895e-03   1.3188202e+00   9.4112096e-01  -1.6453566e+07
   8.8129376e-10  -4.3197617e-03   1.3180523e+00   9.4177612e-01  -1.6391236e+07
   8.8229410e-10  -4.3033961e-03   1.3172876e+00   9.4242913e-01  -1.6329143e+07
   8.8329443e-10  -4.2870924e-03   1.3165260e+00   9.4308000e-01  -1.6267285e+07
   8.8429476e-10  -4.2708506e-03   1.3157676e+00   9.4372873e-01  -1.6205662e+07
   8.8529510e-10  -4.2546702e-03   1.3150124e+00   9.4437533e-01  -1.6144273e+07
   8.8629543e-10  -4.2385512e-03   1.3142603e+00   9.4501980e-01  -1.6083118e+07
   8.8729577e-10  -4.2224932e-03   1.3135113e+00   9.4566215e-01  -1.6022194e+07
   8.8829610e-10  -4.2064960e-03   1.3127654e+00   9.4630238e-01  -1.5961502e+07
   8.8929643e-10  -4.1905595e-03   1.3120226e+00   9.4694051e-01  -1.5901040e+07
   8.9029677e-10  -4.1746833e-03   1.3112828e+00   9.4757653e-01  -1.5840808e+07
   8.9129710e-10  -4.1588672e-03   1.3105462e+00   9.4821046e-01  -1.5780804e+07
   8.9229743e-10  -4.1431111e-03   1.3098125e+00   9.4884229e-01  -1.5721028e+07
   8.9329777e-10  -4.1274146e-03   1.3090819e+00   9.4947203e-01  -1.5661479e+07
   8.9429810e-10  -4.1117776e-03   1.3083544e+00   9.5009970e-01  -1.5602156e+07
   8.9529843e-10  -4.0961998e-03   1.3076298e+00   9.5072529e-01  -1.5543058e+07
   8.9629877e-10  -4.0806810e-03   1.3069082e+00   9.5134881e-01  -1.5484184e+07
   8.9729910e-10  -4.0652210e-03   1.3061896e+00   9.5197026e-01  -1.5425534e+07
   8.9829943e-10  -4.0498196e-03   1.3054740e+00   9.5258966e-01  -1.5367106e+07
   8.9929977e-10  -4.0344765e-03   1.3047613e+00   9.5320700e-01  -1.5308900e+07
   9.0030010e-10  -4.0191915e-03   1.3040515e+00   9.5382230e-01  -1.5250915e+07
   9.0130043e-10  -4.0039644e-03   1.3033447e+00   9.5443555e-01  -1.5193150e+07
   9.0230077e-10  -3.9887950e-03   1.3026408e+00   9.5504677e-01  -1.5135604e+07
   9.0330110e-10  -3.9736831e-03   1.3019398e+00   9.5565596e-01  -1.5078276e+07
   9.0430143e-10  -3.9586283e-03   1.3012417e+00   9.5626312e-01  -1.5021166e+07
   9.0530177e-10  -3.9436306e-03   1.3005465e+00   9.5686827e-01  -1.4964272e+07
   9.0630210e-10  -3.9286897e-03   1.2998541e+00   9.5747140e-01  -1.4907595e+07
   9.0730243e-10  -3.9138054e-03   1.2991646e+00   9.5807252e-01  -1.4851132e+07
   9.0830277e-10  -3.8989775e-03   1.2984779e+00   9.5867164e-01  -1.4794883e+07
   9.0930310e-10  -3.8842057e-03   1.2977941e+00   9.5926877e-01  -1.4738848e+07
   9.1030343e-10  -3.8694899e-03   1.2971130e+00   9.5986390e-01  -1.4683025e+07
   9.1130377e-10  -3.8548298e-03   1.2964348e+00   9.6045705e-01  -1.4627415e+07
   9.1230410e-10  -3.8402253e-03   1.2957594e+00   9.6104821e-01  -1.4572015e+07
   9.1330443e-10  -3.8256760e-03   1.2950867e+00   9.6163740e-01  -1.4516825e+07
   9.1430477e-10  -3.8111819e-03   1.2944168e+00   9.6222463e-01  -1.4461844e+07
   9.1530510e-10  -3.7967426e-03   1.2937496e+00   9.6280989e-01  -1.4407072e+07
   9.1630544e-10  -3.7823580e-03   1.2930852e+00   9.6339319e-01  -1.4352508e+07
   9.1730577e-10  -3.7680279e-03   1.2924235e+00   9.6397454e-01  -1.4298150e+07
   9.1830610e-10  -3.7537521e-03   1.2917646e+00   9.6455394e-01  -1.4243999e+07
   9.1930644e-10  -3.7395304e-03   1.2911083e+00   9.6513140e-01  -1.4190053e+07
   9.2030677e-10  -3.7253625e-03   1.2904547e+00   9.6570692e-01  -1.4136311e+07
   9.2130710e-10  -3.7112483e-03   1.2898038e+00   9.6628051e-01  -1.4082774e+07
   9.2230744e-10  -3.6971875e-03   1.2891556e+00   9.6685218e-01  -1.4029439e+07
   9.2330777e-10  -3.6831800e-03   1.2885101e+00   9.6742193e-01  -1.3976306e+07
   9.2430810e-10  -3.6692255e-03   1.2878671e+00   9.6798977e-01  -1.3923375e+07
   9.2530844e-10  -3.6553239e-03   1.2872269e+00   9.6855569e-01  -1.3870645e+07
   9.2630877e-10  -3.6414749e-03   1.2865892e+00   9.6911971e-01  -1.3818114e+07
   9.2730910e-10  -3.6276784e-03   1.2859542e+00   9.6968184e-01  -1.3765783e+07
   9.2830944e-10  -3.6139341e-03   1.2853217e+00   9.7024207e-01  -1.3713650e+07
   9.2930977e-10  -3.6002418e-03   1.2846919e+00   9.7080042e-01  -1.3661715e+07
   9.3031010e-10  -3.5866015e-03   1.2840646e+00   9.7135688e-01  -1.3609976e+07
   9.3131044e-10  -3.5730127e-03   1.2834399e+00   9.7191147e-01  -1.3558434e+07
   9.3231077e-10  -3.5594755e-03   1.2828177e+00   9.7246418e-01  -1.3507087e+07
   9.3331110e-10  -3.5459895e-03   1.2821981e+00   9.7301504e-01  -1.3455935e+07
   9.3431144e-10  -3.5325546e-03   1.2815810e+00   9.7356403e-01  -1.3404976e+07
   9.3531177e-10  -3.5191705e-03   1.2809665e+00   9.7411116e-01  -1.3354211e+07
   9.3631210e-10  -3.5058372e-03   1.2803544e+00   9.7465645e-01  -1.3303638e+07
   9.3731244e-10  -3.4925543e-03   1.2797449e+00   9.7519989e-01  -1.3253257e+07
   9.3831277e-10  -3.4793218e-03   1.2791378e+00   9.7574150e-01  -1.3203066e+07
   9.3931310e-10  -3.4661393e-03   1.2785332e+00   9.7628127e-01  -1.3153066e+07
   9.4031344e-10  -3.4530068e-03   1.2779311e+00   9.7681922e-01  -1.3103256e+07
   9.4131377e-10  -3.4399240e-03   1.2773315e+00   9.7735534e-01  -1.3053634e+07
   9.4231410e-10  -3.4268908e-03   1.2767343e+00   9.7788964e-01  -1.3004200e+07
   9.4331444e-10  -3.4139069e-03   1.2761395e+00   9.7842213e-01  -1.2954953e+07
   9.4431477e-10  -3.4009722e-03   1.2755472e+00   9.7895282e-01  -1.2905893e+07
   9.4531511e-10  -3.3880864e-03   1.2749572e+00   9.7948171e-01  -1.2857019e+07
   9.4631544e-10  -3.3752495e-03   1.2743697e+00   9.8000879e-01  -1.2808331e+07
   9.4731577e-10  -3.3624612e-03   1.2737846e+00   9.8053409e-01  -1.2759826e+07
   9.4831611e-10  -3.3497213e-03   1.2732019e+00   9.8105760e-01  -1.2711506e+07
   9.4931644e-10  -3.3370296e-03   1.2726215e+00   9.8157934e-01  -1.2663368e+07
   9.5031677e-10  -3.3243860e-03   1.2720435e+00   9.8209929e-01  -1.2615413e+07
   9.5131711e-10  -3.3117903e-03   1.2714678e+00   9.8261748e-01  -1.2567640e+07
   9.5231744e-10  -3.2992423e-03   1.2708945e+00   9.8313390e-01  -1.2520048e+07
   9.5331777e-10  -3.2867418e-03   1.2703235e+00   9.8364857e-01  -1.2472635e+07
   9.5431811e-10  -3.2742887e-03   1.2697549e+00   9.8416147e-01  -1.2425403e+07
   9.5531844e-10  -3.2618827e-03   1.2691886e+00   9.8467263e-01  -1.2378349e+07
   9.5631877e-10  -3.2495237e-03   1.2686245e+00   9.8518205e-01  -1.2331474e+07
   9.5731911e-10  -3.2372114e-03   1.2680628e+00   9.8568973e-01  -1.2284777e+07
   9.5831944e-10  -3.2249458e-03   1.2675033e+00   9.8619567e-01  -1.2238256e+07
   9.5931977e-10  -3.2127267e-03   1.2669461e+00   9.8669989e-01  -1.2191911e+07
   9.6032011e-10  -3.2005538e-03   1.2663912e+00   9.8720238e-01  -1.2145742e+07
   9.6132044e-10  -3.1884271e-03   1.2658385e+00   9.8770316e-01  -1.2099748e+07
   9.6232077e-10  -3.1763462e-03   1.2652881e+00   9.8820222e-01  -1.2053928e+07
   9.6332111e-10  -3.1643111e-03   1.2647399e+00   9.8869957e-01  -1.2008282e+07
   9.6432144e-10  -3.1523216e-03   1.2641940e+00   9.8919523e-01  -1.1962808e+07
   9.6532177e-10  -3.1403775e-03   1.2636502e+00   9.8968918e-01  -1.1917507e+07
   9.6632211e-10  -3.1284786e-03   1.2631087e+00   9.9018144e-01  -1.1872378e+07
   9.6732244e-10  -3.1166247e-03   1.2625693e+00   9.9067202e-01  -1.1827419e+07
   9.6832277e-10  -3.1048158e-03   1.2620322e+00   9.9116091e-01  -1.1782631e+07
   9.6932311e-10  -3.0930516e-03   1.2614972e+00   9.9164813e-01  -1.1738012e+07
   9.7032344e-10  -3.0813319e-03   1.2609644e+00   9.9213367e-01  -1.1693562e+07
   9.7132377e-10  -3.0696566e-03   1.2604337e+00   9.9261755e-01  -1.1649281e+07
   9.7232411e-10  -3.0580255e-03   1.2599052e+00   9.9309976e-01  -1.1605167e+07
   9.7332444e-10  -3.0464384e-03   1.2593788e+00   9.9358032e-01  -1.1561220e+07
   9.7432477e-10  -3.0348953e-03   1.2588546e+00   9.9405922e-01  -1.1517440e+07
   9.7532511e-10  -3.0233958e-03   1.2583325e+00   9.9453648e-01  -1.1473826e+07
   9.7632544e-10  -3.0119399e-03   1.2578125e+00   9.9501210e-01  -1.1430377e+07
   9.7732578e-10  -3.0005274e-03   1.2572946e+00   9.9548608e-01  -1.1387092e+07
   9.7832611e-10  -2.9891581e-03   1.2567788e+00   9.9595843e-01  -1.1343971e+07
   9.7932644e-10  -2.9778318e-03   1.2562651e+00   9.9642915e-01  -1.1301014e+07
   9.8032678e-10  -2.9665485e-03   1.2557535e+00   9.9689825e-01  -1.1258219e+07
   9.8132711e-10  -2.9553078e-03   1.2552439e+00   9.9736573e-01  -1.1215586e+07
   9.8232744e-10  -2.9441098e-03   1.2547364e+00   9.9783160e-01  -1.1173115e+07
   9.8332778e-10  -2.9329541e-03   1.2542309e+00   9.9829586e-01  -1.1130804e+07
   9.8432811e-10  -2.9218407e-03   1.2537275e+00   9.9875852e-01  -1.1088654e+07
   9.8532844e-10  -2.9107694e-03   1.2532262e+00   9.9921958e-01  -1.1046664e+07
   9.8632878e-10  -2.8997399e-03   1.2527268e+00   9.9967905e-01  -1.1004832e+07
   9.8732911e-10  -2.8887523e-03   1.2522295e+00   1.0001369e+00  -1.0963159e+07
   9.8832944e-10  -2.8778063e-03   1.2517341e+00   1.0005932e+00  -1.0921643e+07
   9.8932978e-10  -2.8669017e-03   1.2512408e+00   1.0010480e+00  -1.0880285e+07
   9.9033011e-10  -2.8560384e-03   1.2507495e+00   1.0015011e+00  -1.0839083e+07
   9.9133044e-10  -2.8452162e-03   1.2502601e+00   1.0019527e+00  -1.0798038e+07
   9.9233078e-10  -2.8344351e-03   1.2497727e+00   1.0024027e+00  -1.0757147e+07
   9.9333111e-10  -2.8236947e-03   1.2492873e+00   1.0028512e+00  -1.0716412e+07
   9.9433144e-10  -2.8129950e-03   1.2488039e+00   1.0032981e+00  -1.0675831e+07
   9.9533178e-10  -2.8023359e-03   1.2483224e+00   1.0037434e+00  -1.0635403e+07
   9.9633211e-10  -2.7917171e-03   1.2478428e+00   1.0041872e+00  -1.0595129e+07
   9.9733244e-10  -2.7811385e-03   1.2473652e+00   1.0046295e+00  -1.0555007e+07
   9.9833278e-10  -2.7706000e-03   1.2468895e+00   1.0050702e+00  -1.0515036e+07
   9.9933311e-10  -2.7601014e-03   1.2464157e+00   1.0055094e+00  -1.0475218e+07
   1.0003334e-09  -2.7496425e-03   1.2459438e+00   1.0059471e+00  -1.0435550e+07
   1.0013338e-09  -2.7392233e-03   1.2454738e+00   1.0063833e+00  -1.0396032e+07
   1.0023341e-09  -2.7288435e-03   1.2450057e+00   1.0068179e+00  -1.0356664e+07
   1.0033344e-09  -2.7185030e-03   1.2445395e+00   1.0072511e+00  -1.0317444e+07
   1.0043348e-09  -2.7082016e-03   1.2440751e+00   1.0076827e+00  -1.0278374e+07
   1.0053351e-09  -2.6979393e-03   1.2436127e+00   1.0081128e+00  -1.0239451e+07
   1.0063354e-09  -2.6877159e-03   1.2431521e+00   1.0085415e+00  -1.0200675e+07
   1.0073358e-09  -2.6775311e-03   1.2426933e+00   1.0089686e+00  -1.0162047e+07
   1.0083361e-09  -2.6673849e-03   1.2422364e+00   1.0093943e+00  -1.0123564e+07
   1.0093364e-09  -2.6572772e-03   1.2417813e+00   1.0098184e+00  -1.0085228e+07
   1.0103368e-09  -2.6472077e-03   1.2413281e+00   1.0102411e+00  -1.0047036e+07
   1.0113371e-09  -2.6371764e-03   1.2408767e+00   1.0106623e+00  -1.0008989e+07
   1.0123374e-09  -2.6271830e-03   1.2404270e+00   1.0110821e+00  -9.9710859e+06
   1.0133378e-09  -2.6172275e-03   1.2399792e+00   1.0115004e+00  -9.9333263e+06
   1.0143381e-09  -2.6073097e-03   1.2395332e+00   1.0119172e+00  -9.8957097e+06
   1.0153384e-09  -2.5974294e-03   1.2390890e+00   1.0123326e+00  -9.8582355e+06
   1.0163388e-09  -2.5875866e-03   1.2386466e+00   1.0127465e+00  -9.8209032e+06
   1.0173391e-09  -2.5777810e-03   1.2382059e+00   1.0131590e+00  -9.7837122e+06
   1.0183394e-09  -2.5680126e-03   1.2377670e+00   1.0135700e+00  -9.7466619e+06
   1.0193398e-09  -2.5582812e-03   1.2373299e+00   1.0139796e+00  -9.7097519e+06
   1.0203401e-09  -2.5485866e-03   1.2368945e+00   1.0143878e+00  -9.6729816e+06
   1.0213404e-09  -2.5389287e-03   1.2364609e+00   1.0147945e+00  -9.6363505e+06
   1.0223408e-09  -2.5293074e-03   1.2360290e+00   1.0151998e+00  -9.5998581e+06
   1.0233411e-09  -2.5197225e-03   1.2355988e+00   1.0156037e+00  -9.5635038e+06
   1.0243414e-09  -2.5101740e-03   1.2351704e+00   1.0160062e+00  -9.5272871e+06
   1.0253418e-09  -2.5006616e-03   1.2347437e+00   1.0164073e+00  -9.4912075e+06
   1.0263421e-09  -2.4911852e-03   1.2343187e+00   1.0168069e+00  -9.4552644e+06
   1.0273424e-09  -2.4817447e-03   1.2338954e+00   1.0172052e+00  -9.4194574e+06
   1.0283428e-09  -2.4723399e-03   1.2334738e+00   1.0176021e+00  -9.3837860e+06
   1.0293431e-09  -2.4629708e-03   1.2330538e+00   1.0179975e+00  -9.3482495e+06
   1.0303434e-09  -2.4536372e-03   1.2326356e+00   1.0183916e+00  -9.3128476e+06
   1.0313438e-09  -2.4443389e-03   1.2322190e+00   1.0187843e+00  -9.2775796e+06
   1.0323441e-09  -2.4350758e-03   1.2318041e+00   1.0191757e+00  -9.2424452e+06
   1.0333444e-09  -2.4258478e-03   1.2313909e+00   1.0195656e+00  -9.2074437e+06
   1.0343448e-09  -2.4166547e-03   1.2309793e+00   1.0199542e+00  -9.1725747e+06
   1.0353451e-09  -2.4074965e-03   1.2305693e+00   1.0203414e+00  -9.1378377e+06
   1.0363454e-09  -2.3983729e-03   1.2301610e+00   1.0207273e+00  -9.1032322e+06
   1.0373458e-09  -2.3892839e-03   1.2297544e+00   1.0211118e+00  -9.0687577e+06
   1.0383461e-09  -2.3802293e-03   1.2293493e+00   1.0214949e+00  -9.0344136e+06
   1.0393464e-09  -2.3712090e-03   1.2289459e+00   1.0218767e+00  -9.0001995e+06
   1.0403468e-09  -2.3622228e-03   1.2285441e+00   1.0222572e+00  -8.9661149e+06
   1.0413471e-09  -2.3532707e-03   1.2281439e+00   1.0226363e+00  -8.9321594e+06
   1.0423474e-09  -2.3443525e-03   1.2277453e+00   1.0230141e+00  -8.8983323e+06
   1.0433478e-09  -2.3354681e-03   1.2273482e+00   1.0233906e+00  -8.8646333e+06
   1.0443481e-09  -2.3266173e-03   1.2269528e+00   1.0237657e+00  -8.8310618e+06
   1.0453484e-09  -2.3178000e-03   1.2265589e+00   1.0241395e+00  -8.7976174e+06
   1.0463488e-09  -2.3090162e-03   1.2261667e+00   1.0245120e+00  -8.7642995e+06
   1.0473491e-09  -2.3002655e-03   1.2257759e+00   1.0248832e+00  -8.7311078e+06
   1.0483494e-09  -2.2915481e-03   1.2253868e+00   1.0252530e+00  -8.6980417e+06
   1.0493498e-09  -2.2828636e-03   1.2249992e+00   1.0256216e+00  -8.6651007e+06
   1.0503501e-09  -2.2742121e-03   1.2246131e+00   1.0259888e+00  -8.6322844e+06
   1.0513505e-09  -2.2655933e-03   1.2242286e+00   1.0263548e+00  -8.5995923e+06
   1.0523508e-09  -2.2570071e-03   1.2238456e+00   1.0267195e+00  -8.5670239e+06
   1.0533511e-09  -2.2484535e-03   1.2234641e+00   1.0270829e+00  -8.5345788e+06
   1.0543515e-09  -2.2399322e-03   1.2230842e+00   1.0274450e+00  -8.5022565e+06
   1.0553518e-09  -2.2314432e-03   1.2227058e+00   1.0278058e+00  -8.4700565e+06
   1.0563521e-09  -2.2229864e-03   1.2223289e+00   1.0281653e+00  -8.4379784e+06
   1.0573525e-09  -2.2145616e-03   1.2219534e+00   1.0285236e+00  -8.4060217e+06
   1.0583528e-09  -2.2061687e-03   1.2215795e+00   1.0288806e+00  -8.3741859e+06
   1.0593531e-09  -2.1978076e-03   1.2212071e+00   1.0292363e+00  -8.3424706e+06
   1.0603535e-09  -2.1894782e-03   1.2208361e+00   1.0295908e+00  -8.3108754e+06
   1.0613538e-09  -2.1811803e-03   1.2204667e+00   1.0299440e+00  -8.2793997e+06
   1.0623541e-09  -2.1729138e-03   1.2200987e+00   1.0302960e+00  -8.2480431e+06
   1.0633545e-09  -2.1646787e-03   1.2197321e+00   1.0306468e+00  -8.2168053e+06
   1.0643548e-09  -2.1564747e-03   1.2193670e+00   1.0309962e+00  -8.1856856e+06
   1.0653551e-09  -2.1483018e-03   1.2190034e+00   1.0313445e+00  -8.1546837e+06
   1.0663555e-09  -2.1401598e-03   1.2186412e+00   1.0316915e+00  -8.1237992e+06
   1.0673558e-09  -2.1320487e-03   1.2182805e+00   1.0320373e+00  -8.0930315e+06
   1.0683561e-09  -2.1239683e-03   1.2179212e+00   1.0323818e+00  -8.0623803e+06
   1.0693565e-09  -2.1159186e-03   1.2175633e+00   1.0327252e+00  -8.0318450e+06
   1.0703568e-09  -2.1078993e-03   1.2172068e+00   1.0330673e+00  -8.0014254e+06
   1.0713571e-09  -2.0999103e-03   1.2168518e+00   1.0334082e+00  -7.9711208e+06
   1.0723575e-09  -2.0919517e-03   1.2164982e+00   1.0337479e+00  -7.9409310e+06
   1.0733578e-09  -2.0840231e-03   1.2161460e+00   1.0340864e+00  -7.9108554e+06
   1.0743581e-09  -2.0761246e-03   1.2157951e+00   1.0344236e+00  -7.8808936e+06
   1.0753585e-09  -2.0682561e-03   1.2154457e+00   1.0347597e+00  -7.8510452e+06
   1.0763588e-09  -2.0604173e-03   1.2150977e+00   1.0350946e+00  -7.8213098e+06
   1.0773591e-09  -2.0526082e-03   1.2147510e+00   1.0354283e+00  -7.7916869e+06
   1.0783595e-09  -2.0448287e-03   1.2144057e+00   1.0357608e+00  -7.7621762e+06
   1.0793598e-09  -2.0370786e-03   1.2140618e+00   1.0360921e+00  -7.7327771e+06
   1.0803601e-09  -2.0293579e-03   1.2137192e+00   1.0364223e+00  -7.7034892e+06
   1.0813605e-09  -2.0216665e-03   1.2133781e+00   1.0367512e+00  -7.6743122e+06
   1.0823608e-09  -2.0140041e-03   1.2130382e+00   1.0370790e+00  -7.6452457e+06
   1.0833611e-09  -2.0063708e-03   1.2126997e+00   1.0374057e+00  -7.6162891e+06
   1.0843615e-09  -1.9987664e-03   1.2123626e+00   1.0377311e+00  -7.5874421e+06
   1.0853618e-09  -1.9911909e-03   1.2120268e+00   1.0380555e+00  -7.5587043e+06
   1.0863621e-09  -1.9836440e-03   1.2116923e+00   1.0383786e+00  -7.5300753e+06
   1.0873625e-09  -1.9761256e-03   1.2113591e+00   1.0387006e+00  -7.5015546e+06
   1.0883628e-09  -1.9686358e-03   1.2110273e+00   1.0390215e+00  -7.4731418e+06
   1.0893631e-09  -1.9611743e-03   1.2106968e+00   1.0393412e+00  -7.4448366e+06
   1.0903635e-09  -1.9537411e-03   1.2103676e+00   1.0396597e+00  -7.4166384e+06
   1.0913638e-09  -1.9463361e-03   1.2100397e+00   1.0399772e+00  -7.3885470e+06
   1.0923641e-09  -1.9389591e-03   1.2097131e+00   1.0402935e+00  -7.3605620e+06
   1.0933645e-09  -1.9316100e-03   1.2093878e+00   1.0406086e+00  -7.3326828e+06
   1.0943648e-09  -1.9242888e-03   1.2090637e+00   1.0409227e+00  -7.3049091e+06
   1.0953651e-09  -1.9169953e-03   1.2087410e+00   1.0412356e+00  -7.2772405e+06
   1.0963655e-09  -1.9097294e-03   1.2084195e+00   1.0415474e+00  -7.2496767e+06
   1.0973658e-09  -1.9024911e-03   1.2080993e+00   1.0418581e+00  -7.2222172e+06
   1.0983661e-09  -1.8952801e-03   1.2077804e+00   1.0421677e+00  -7.1948616e+06
   1.0993665e-09  -1.8880965e-03   1.2074628e+00   1.0424761e+00  -7.1676095e+06
   1.1003668e-09  -1.8809401e-03   1.2071463e+00   1.0427835e+00  -7.1404605e+06
   1.1013671e-09  -1.8738108e-03   1.2068312e+00   1.0430898e+00  -7.1134143e+06
   1.1023675e-09  -1.8667085e-03   1.2065173e+00   1.0433950e+00  -7.0864705e+06
   1.1033678e-09  -1.8596331e-03   1.2062046e+00   1.0436990e+00  -7.0596286e+06
   1.1043681e-09  -1.8525845e-03   1.2058932e+00   1.0440020e+00  -7.0328883e+06
   1.1053685e-09  -1.8455626e-03   1.2055830e+00   1.0443039e+00  -7.0062492e+06
   1.1063688e-09  -1.8385673e-03   1.2052740e+00   1.0446048e+00  -6.9797110e+06
   1.1073691e-09  -1.8315985e-03   1.2049663e+00   1.0449045e+00  -6.9532731e+06
   1.1083695e-09  -1.8246561e-03   1.2046597e+00   1.0452032e+00  -6.9269353e+06
   1.1093698e-09  -1.8177400e-03   1.2043544e+00   1.0455008e+00  -6.9006972e+06
   1.1103701e-09  -1.8108500e-03   1.2040503e+00   1.0457973e+00  -6.8745584e+06
   1.1113705e-09  -1.8039862e-03   1.2037474e+00   1.0460928e+00  -6.8485185e+06
   1.1123708e-09  -1.7971484e-03   1.2034457e+00   1.0463872e+00  -6.8225772e+06
   1.1133711e-09  -1.7903365e-03   1.2031451e+00   1.0466806e+00  -6.7967341e+06
   1.1143715e-09  -1.7835504e-03   1.2028458e+00   1.0469729e+00  -6.7709887e+06
   1.1153718e-09  -1.7767900e-03   1.2025476e+00   1.0472642e+00  -6.7453408e+06
   1.1163721e-09  -1.7700552e-03   1.2022506e+00   1.0475544e+00  -6.7197900e+06
   1.1173725e-09  -1.7633459e-03   1.2019548e+00   1.0478435e+00  -6.6943358e+06
   1.1183728e-09  -1.7566620e-03   1.2016602e+00   1.0481317e+00  -6.6689780e+06
   1.1193731e-09  -1.7500034e-03   1.2013667e+00   1.0484188e+00  -6.6437162e+06
   1.1203735e-09  -1.7433701e-03   1.2010744e+00   1.0487048e+00  -6.6185499e+06
   1.1213738e-09  -1.7367619e-03   1.2007832e+00   1.0489899e+00  -6.5934789e+06
   1.1223741e-09  -1.7301787e-03   1.2004932e+00   1.0492739e+00  -6.5685028e+06
   1.1233745e-09  -1.7236205e-03   1.2002043e+00   1.0495569e+00  -6.5436213e+06
   1.1243748e-09  -1.7170871e-03   1.1999166e+00   1.0498389e+00  -6.5188338e+06
   1.1253751e-09  -1.7105784e-03   1.1996300e+00   1.0501198e+00  -6.4941402e+06
   1.1263755e-09  -1.7040944e-03   1.1993445e+00   1.0503998e+00  -6.4695401e+06
   1.1273758e-09  -1.6976350e-03   1.1990601e+00   1.0506787e+00  -6.4450331e+06
   1.1283761e-09  -1.6912000e-03   1.1987769e+00   1.0509566e+00  -6.4206188e+06
   1.1293765e-09  -1.6847894e-03   1.1984948e+00   1.0512336e+00  -6.3962969e+06
   1.1303768e-09  -1.6784031e-03   1.1982138e+00   1.0515095e+00  -6.3720671e+06
   1.1313771e-09  -1.6720410e-03   1.1979339e+00   1.0517845e+00  -6.3479289e+06
   1.1323775e-09  -1.6657030e-03   1.1976551e+00   1.0520584e+00  -6.3238822e+06
   1.1333778e-09  -1.6593890e-03   1.1973774e+00   1.0523314e+00  -6.2999264e+06
   1.1343781e-09  -1.6530989e-03   1.1971008e+00   1.0526034e+00  -6.2760613e+06
   1.1353785e-09  -1.6468327e-03   1.1968253e+00   1.0528744e+00  -6.2522865e+06
   1.1363788e-09  -1.6405902e-03   1.1965508e+00   1.0531444e+00  -6.2286017e+06
   1.1373791e-09  -1.6343713e-03   1.1962775e+00   1.0534135e+00  -6.2050066e+06
   1.1383795e-09  -1.6281760e-03   1.1960052e+00   1.0536816e+00  -6.1815007e+06
   1.1393798e-09  -1.6220041e-03   1.1957340e+00   1.0539487e+00  -6.1580838e+06
   1.1403801e-09  -1.6158557e-03   1.1954639e+00   1.0542148e+00  -6.1347556e+06
   1.1413805e-09  -1.6097305e-03   1.1951948e+00   1.0544800e+00  -6.1115156e+06
   1.1423808e-09  -1.6036285e-03   1.1949268e+00   1.0547443e+00  -6.0883636e+06
   1.1433811e-09  -1.5975497e-03   1.1946598e+00   1.0550076e+00  -6.0652992e+06
   1.1443815e-09  -1.5914939e-03   1.1943939e+00   1.0552699e+00  -6.0423222e+06
   1.1453818e-09  -1.5854610e-03   1.1941290e+00   1.0555313e+00  -6.0194320e+06
   1.1463821e-09  -1.5794510e-03   1.1938652e+00   1.0557917e+00  -5.9966286e+06
   1.1473825e-09  -1.5734637e-03   1.1936024e+00   1.0560512e+00  -5.9739114e+06
   1.1483828e-09  -1.5674991e-03   1.1933407e+00   1.0563098e+00  -5.9512802e+06
   1.1493831e-09  -1.5615572e-03   1.1930799e+00   1.0565674e+00  -5.9287347e+06
   1.1503835e-09  -1.5556377e-03   1.1928202e+00   1.0568241e+00  -5.9062745e+06
   1.1513838e-09  -1.5497406e-03   1.1925615e+00   1.0570799e+00  -5.8838993e+06
   1.1523841e-09  -1.5438659e-03   1.1923039e+00   1.0573347e+00  -5.8616088e+06
   1.1533845e-09  -1.5380135e-03   1.1920472e+00   1.0575887e+00  -5.8394026e+06
   1.1543848e-09  -1.5321832e-03   1.1917916e+00   1.0578417e+00  -5.8172806e+06
   1.1553851e-09  -1.5263750e-03   1.1915369e+00   1.0580938e+00  -5.7952422e+06
   1.1563855e-09  -1.5205888e-03   1.1912833e+00   1.0583449e+00  -5.7732873e+06
   1.1573858e-09  -1.5148246e-03   1.1910306e+00   1.0585952e+00  -5.7514154e+06
   1.1583861e-09  -1.5090821e-03   1.1907790e+00   1.0588446e+00  -5.7296264e+06
   1.1593865e-09  -1.5033615e-03   1.1905283e+00   1.0590930e+00  -5.7079198e+06
   1.1603868e-09  -1.4976625e-03   1.1902786e+00   1.0593406e+00  -5.6862954e+06
   1.1613871e-09  -1.4919850e-03   1.1900299e+00   1.0595873e+00  -5.6647528e+06
   1.1623875e-09  -1.4863291e-03   1.1897822e+00   1.0598330e+00  -5.6432918e+06
   1.1633878e-09  -1.4806947e-03   1.1895354e+00   1.0600779e+00  -5.6219120e+06
   1.1643881e-09  -1.4750815e-03   1.1892896e+00   1.0603219e+00  -5.6006131e+06
   1.1653885e-09  -1.4694897e-03   1.1890448e+00   1.0605650e+00  -5.5793948e+06
   1.1663888e-09  -1.4639190e-03   1.1888010e+00   1.0608072e+00  -5.5582569e+06
   1.1673891e-09  -1.4583694e-03   1.1885580e+00   1.0610486e+00  -5.5371989e+06
   1.1683895e-09  -1.4528409e-03   1.1883161e+00   1.0612891e+00  -5.5162207e+06
   1.1693898e-09  -1.4473333e-03   1.1880751e+00   1.0615287e+00  -5.4953219e+06
   1.1703901e-09  -1.4418466e-03   1.1878350e+00   1.0617674e+00  -5.4745022e+06
   1.1713905e-09  -1.4363806e-03   1.1875959e+00   1.0620052e+00  -5.4537613e+06
   1.1723908e-09  -1.4309354e-03   1.1873577e+00   1.0622422e+00  -5.4330989e+06
   1.1733911e-09  -1.4255108e-03   1.1871204e+00   1.0624784e+00  -5.4125147e+06
   1.1743915e-09  -1.4201067e-03   1.1868841e+00   1.0627137e+00  -5.3920084e+06
   1.1753918e-09  -1.4147231e-03   1.1866487e+00   1.0629481e+00  -5.3715797e+06
   1.1763921e-09  -1.4093599e-03   1.1864142e+00   1.0631817e+00  -5.3512284e+06
   1.1773925e-09  -1.4040171e-03   1.1861807e+00   1.0634144e+00  -5.3309541e+06
   1.1783928e-09  -1.3986945e-03   1.1859480e+00   1.0636463e+00  -5.3107566e+06
   1.1793931e-09  -1.3933920e-03   1.1857163e+00   1.0638773e+00  -5.2906355e+06
   1.1803935e-09  -1.3881096e-03   1.1854855e+00   1.0641075e+00  -5.2705906e+06
   1.1813938e-09  -1.3828473e-03   1.1852556e+00   1.0643369e+00  -5.2506215e+06
   1.1823941e-09  -1.3776049e-03   1.1850265e+00   1.0645654e+00  -5.2307281e+06
   1.1833945e-09  -1.3723823e-03   1.1847984e+00   1.0647931e+00  -5.2109099e+06
   1.1843948e-09  -1.3671795e-03   1.1845712e+00   1.0650200e+00  -5.1911668e+06
   1.1853951e-09  -1.3619965e-03   1.1843448e+00   1.0652461e+00  -5.1714983e+06
   1.1863955e-09  -1.3568331e-03   1.1841194e+00   1.0654713e+00  -5.1519044e+06
   1.1873958e-09  -1.3516892e-03   1.1838948e+00   1.0656957e+00  -5.1323846e+06
   1.1883961e-09  -1.3465648e-03   1.1836711e+00   1.0659193e+00  -5.1129387e+06
   1.1893965e-09  -1.3414599e-03   1.1834483e+00   1.0661420e+00  -5.0935664e+06
   1.1903968e-09  -1.3363743e-03   1.1832263e+00   1.0663640e+00  -5.0742675e+06
   1.1913971e-09  -1.3313080e-03   1.1830052e+00   1.0665852e+00  -5.0550416e+06
   1.1923975e-09  -1.3262608e-03   1.1827850e+00   1.0668055e+00  -5.0358885e+06
   1.1933978e-09  -1.3212328e-03   1.1825657e+00   1.0670251e+00  -5.0168079e+06
   1.1943981e-09  -1.3162238e-03   1.1823471e+00   1.0672438e+00  -4.9977995e+06
   1.1953985e-09  -1.3112338e-03   1.1821295e+00   1.0674618e+00  -4.9788631e+06
   1.1963988e-09  -1.3062628e-03   1.1819127e+00   1.0676789e+00  -4.9599984e+06
   1.1973991e-09  -1.3013105e-03   1.1816968e+00   1.0678953e+00  -4.9412050e+06
   1.1983995e-09  -1.2963770e-03   1.1814816e+00   1.0681109e+00  -4.9224829e+06
   1.1993998e-09  -1.2914622e-03   1.1812674e+00   1.0683257e+00  -4.9038316e+06
   1.2004001e-09  -1.2865661e-03   1.1810539e+00   1.0685397e+00  -4.8852509e+06
   1.2014005e-09  -1.2816885e-03   1.1808414e+00   1.0687529e+00  -4.8667405e+06
   1.2024008e-09  -1.2768293e-03   1.1806296e+00   1.0689653e+00  -4.8483002e+06
   1.2034011e-09  -1.2719886e-03   1.1804186e+00   1.0691770e+00  -4.8299298e+06
   1.2044015e-09  -1.2671662e-03   1.1802085e+00   1.0693879e+00  -4.8116288e+06
   1.2054018e-09  -1.2623621e-03   1.1799992e+00   1.0695981e+00  -4.7933972e+06
   1.2064021e-09  -1.2575762e-03   1.1797908e+00   1.0698074e+00  -4.7752345e+06
   1.2074025e-09  -1.2528084e-03   1.1795831e+00   1.0700160e+00  -4.7571407e+06
   1.2084028e-09  -1.2480587e-03   1.1793762e+00   1.0702239e+00  -4.7391153e+06
   1.2094031e-09  -1.2433270e-03   1.1791702e+00   1.0704309e+00  -4.7211582e+06
   1.2104035e-09  -1.2386132e-03   1.1789650e+00   1.0706373e+00  -4.7032690e+06
   1.2114038e-09  -1.2339173e-03   1.1787605e+00   1.0708428e+00  -4.6854476e+06
   1.2124041e-09  -1.2292392e-03   1.1785569e+00   1.0710477e+00  -4.6676936e+06
   1.2134045e-09  -1.2245788e-03   1.1783540e+00   1.0712517e+00  -4.6500069e+06
   1.2144048e-09  -1.2199361e-03   1.1781520e+00   1.0714551e+00  -4.6323871e+06
   1.2154051e-09  -1.2153109e-03   1.1779507e+00   1.0716576e+00  -4.6148340e+06
   1.2164055e-09  -1.2107033e-03   1.1777502e+00   1.0718595e+00  -4.5973474e+06
   1.2174058e-09  -1.2061131e-03   1.1775505e+00   1.0720606e+00  -4.5799270e+06
   1.2184061e-09  -1.2015404e-03   1.1773516e+00   1.0722610e+00  -4.5625725e+06
   1.2194065e-09  -1.1969849e-03   1.1771534e+00   1.0724606e+00  -4.5452838e+06
   1.2204068e-09  -1.1924467e-03   1.1769560e+00   1.0726595e+00  -4.5280604e+06
   1.2214071e-09  -1.1879258e-03   1.1767594e+00   1.0728577e+00  -4.5109023e+06
   1.2224075e-09  -1.1834219e-03   1.1765636e+00   1.0730551e+00  -4.4938092e+06
   1.2234078e-09  -1.1789351e-03   1.1763685e+00   1.0732519e+00  -4.4767808e+06
   1.2244081e-09  -1.1744653e-03   1.1761742e+00   1.0734479e+00  -4.4598168e+06
   1.2254085e-09  -1.1700125e-03   1.1759806e+00   1.0736432e+00  -4.4429171e+06
   1.2264088e-09  -1.1655765e-03   1.1757878e+00   1.0738378e+00  -4.4260813e+06
   1.2274091e-09  -1.1611574e-03   1.1755958e+00   1.0740316e+00  -4.4093093e+06
   1.2284095e-09  -1.1567549e-03   1.1754045e+00   1.0742248e+00  -4.3926008e+06
   1.2294098e-09  -1.1523692e-03   1.1752139e+00   1.0744172e+00  -4.3759555e+06
   1.2304101e-09  -1.1480001e-03   1.1750241e+00   1.0746090e+00  -4.3593733e+06
   1.2314105e-09  -1.1436475e-03   1.1748350e+00   1.0748000e+00  -4.3428539e+06
   1.2324108e-09  -1.1393115e-03   1.1746466e+00   1.0749904e+00  -4.3263970e+06
   1.2334111e-09  -1.1349918e-03   1.1744590e+00   1.0751800e+00  -4.3100024e+06
   1.2344115e-09  -1.1306886e-03   1.1742722e+00   1.0753690e+00  -4.2936698e+06
   1.2354118e-09  -1.1264016e-03   1.1740860e+00   1.0755572e+00  -4.2773992e+06
   1.2364121e-09  -1.1221309e-03   1.1739006e+00   1.0757448e+00  -4.2611901e+06
   1.2374125e-09  -1.1178764e-03   1.1737159e+00   1.0759317e+00  -4.2450424e+06
   1.2384128e-09  -1.1136380e-03   1.1735319e+00   1.0761179e+00  -4.2289558e+06
   1.2394131e-09  -1.1094156e-03   1.1733486e+00   1.0763034e+00  -4.2129301e+06
   1.2404135e-09  -1.1052093e-03   1.1731660e+00   1.0764882e+00  -4.1969652e+06
   1.2414138e-09  -1.1010189e-03   1.1729842e+00   1.0766724e+00  -4.1810606e+06
   1.2424141e-09  -1.0968443e-03   1.1728030e+00   1.0768559e+00  -4.1652163e+06
   1.2434145e-09  -1.0926856e-03   1.1726226e+00   1.0770387e+00  -4.1494320e+06
   1.2444148e-09  -1.0885427e-03   1.1724429e+00   1.0772208e+00  -4.1337074e+06
   1.2454151e-09  -1.0844154e-03   1.1722638e+00   1.0774023e+00  -4.1180424e+06
   1.2464155e-09  -1.0803038e-03   1.1720855e+00   1.0775831e+00  -4.1024367e+06
   1.2474158e-09  -1.0762078e-03   1.1719078e+00   1.0777632e+00  -4.0868901e+06
   1.2484161e-09  -1.0721273e-03   1.1717309e+00   1.0779427e+00  -4.0714023e+06
   1.2494165e-09  -1.0680623e-03   1.1715546e+00   1.0781215e+00  -4.0559732e+06
   1.2504168e-09  -1.0640126e-03   1.1713790e+00   1.0782997e+00  -4.0406025e+06
   1.2514171e-09  -1.0599784e-03   1.1712041e+00   1.0784772e+00  -4.0252901e+06
   1.2524175e-09  -1.0559594e-03   1.1710299e+00   1.0786540e+00  -4.0100356e+06
   1.2534178e-09  -1.0519556e-03   1.1708564e+00   1.0788303e+00  -3.9948388e+06
   1.2544181e-09  -1.0479670e-03   1.1706835e+00   1.0790058e+00  -3.9796996e+06
   1.2554185e-09  -1.0439935e-03   1.1705113e+00   1.0791807e+00  -3.9646177e+06
   1.2564188e-09  -1.0400351e-03   1.1703398e+00   1.0793550e+00  -3.9495930e+06
   1.2574191e-09  -1.0360917e-03   1.1701689e+00   1.0795286e+00  -3.9346251e+06
   1.2584195e-09  -1.0321632e-03   1.1699987e+00   1.0797016e+00  -3.9197139e+06
   1.2594198e-09  -1.0282496e-03   1.1698292e+00   1.0798740e+00  -3.9048592e+06
   1.2604201e-09  -1.0243509e-03   1.1696603e+00   1.0800457e+00  -3.8900607e+06
   1.2614205e-09  -1.0204669e-03   1.1694920e+00   1.0802168e+00  -3.8753182e+06
   1.2624208e-09  -1.0165976e-03   1.1693245e+00   1.0803872e+00  -3.8606316e+06
   1.2634211e-09  -1.0127430e-03   1.1691576e+00   1.0805571e+00  -3.8460006e+06
   1.2644215e-09  -1.0089030e-03   1.1689913e+00   1.0807263e+00  -3.8314250e+06
   1.2654218e-09  -1.0050776e-03   1.1688257e+00   1.0808949e+00  -3.8169046e+06
   1.2664221e-09  -1.0012667e-03   1.1686607e+00   1.0810628e+00  -3.8024392e+06
   1.2674225e-09  -9.9747017e-04   1.1684963e+00   1.0812302e+00  -3.7880285e+06
   1.2684228e-09  -9.9368807e-04   1.1683326e+00   1.0813969e+00  -3.7736724e+06
   1.2694231e-09  -9.8992029e-04   1.1681695e+00   1.0815631e+00  -3.7593707e+06
   1.2704235e-09  -9.8616680e-04   1.1680071e+00   1.0817286e+00  -3.7451232e+06
   1.2714238e-09  -9.8242753e-04   1.1678453e+00   1.0818935e+00  -3.7309296e+06
   1.2724241e-09  -9.7870244e-04   1.1676841e+00   1.0820577e+00  -3.7167897e+06
   1.2734245e-09  -9.7499146e-04   1.1675236e+00   1.0822214e+00  -3.7027034e+06
   1.2744248e-09  -9.7129454e-04   1.1673636e+00   1.0823845e+00  -3.6886704e+06
   1.2754251e-09  -9.6761164e-04   1.1672043e+00   1.0825470e+00  -3.6746906e+06
   1.2764255e-09  -9.6394269e-04   1.1670456e+00   1.0827089e+00  -3.6607637e+06
   1.2774258e-09  -9.6028765e-04   1.1668875e+00   1.0828702e+00  -3.6468896e+06
   1.2784261e-09  -9.5664646e-04   1.1667301e+00   1.0830309e+00  -3.6330680e+06
   1.2794265e-09  -9.5301908e-04   1.1665732e+00   1.0831910e+00  -3.6192987e+06
   1.2804268e-09  -9.4940544e-04   1.1664170e+00   1.0833505e+00  -3.6055816e+06
   1.2814271e-09  -9.4580549e-04   1.1662613e+00   1.0835094e+00  -3.5919164e+06
   1.2824275e-09  -9.4221919e-04   1.1661063e+00   1.0836677e+00  -3.5783030e+06
   1.2834278e-09  -9.3864648e-04   1.1659519e+00   1.0838255e+00  -3.5647411e+06
   1.2844281e-09  -9.3508731e-04   1.1657980e+00   1.0839827e+00  -3.5512306e+06
   1.2854285e-09  -9.3154163e-04   1.1656448e+00   1.0841393e+00  -3.5377713e+06
   1.2864288e-09  -9.2800939e-04   1.1654921e+00   1.0842953e+00  -3.5243629e+06
   1.2874291e-09  -9.2449054e-04   1.1653401e+00   1.0844507e+00  -3.5110053e+06
   1.2884295e-09  -9.2098503e-04   1.1651886e+00   1.0846056e+00  -3.4976983e+06
   1.2894298e-09  -9.1749280e-04   1.1650377e+00   1.0847599e+00  -3.4844417e+06
   1.2904301e-09  -9.1401380e-04   1.1648874e+00   1.0849136e+00  -3.4712353e+06
   1.2914305e-09  -9.1054799e-04   1.1647377e+00   1.0850668e+00  -3.4580789e+06
   1.2924308e-09  -9.0709532e-04   1.1645886e+00   1.0852194e+00  -3.4449723e+06
   1.2934311e-09  -9.0365573e-04   1.1644400e+00   1.0853714e+00  -3.4319154e+06
   1.2944315e-09  -9.0022918e-04   1.1642921e+00   1.0855229e+00  -3.4189079e+06
   1.2954318e-09  -8.9681562e-04   1.1641446e+00   1.0856738e+00  -3.4059497e+06
   1.2964321e-09  -8.9341500e-04   1.1639978e+00   1.0858241e+00  -3.3930406e+06
   1.2974325e-09  -8.9002726e-04   1.1638515e+00   1.0859739e+00  -3.3801803e+06
   1.2984328e-09  -8.8665237e-04   1.1637058e+00   1.0861232e+00  -3.3673688e+06
   1.2994331e-09  -8.8329026e-04   1.1635607e+00   1.0862719e+00  -3.3546058e+06
   1.3004335e-09  -8.7994090e-04   1.1634161e+00   1.0864200e+00  -3.3418911e+06
   1.3014338e-09  -8.7660424e-04   1.1632721e+00   1.0865676e+00  -3.3292246e+06
   1.3024341e-09  -8.7328022e-04   1.1631286e+00   1.0867147e+00  -3.3166060e+06
   1.3034345e-09  -8.6996880e-04   1.1629857e+00   1.0868612e+00  -3.3040353e+06
   1.3044348e-09  -8.6666993e-04   1.1628434e+00   1.0870071e+00  -3.2915121e+06
   1.3054351e-09  -8.6338356e-04   1.1627016e+00   1.0871526e+00  -3.2790364e+06
   1.3064355e-09  -8.6010965e-04   1.1625603e+00   1.0872975e+00  -3.2666079e+06
   1.3074358e-09  -8.5684815e-04   1.1624196e+00   1.0874418e+00  -3.2542265e+06
   1.3084361e-09  -8.5359901e-04   1.1622795e+00   1.0875856e+00  -3.2418920e+06
   1.3094365e-09  -8.5036219e-04   1.1621399e+00   1.0877289e+00  -3.2296042e+06
   1.3104368e-09  -8.4713763e-04   1.1620008e+00   1.0878717e+00  -3.2173630e+06
   1.3114371e-09  -8.4392530e-04   1.1618622e+00   1.0880139e+00  -3.2051681e+06
   1.3124375e-09  -8.4072515e-04   1.1617242e+00   1.0881556e+00  -3.1930194e+06
   1.3134378e-09  -8.3753712e-04   1.1615868e+00   1.0882968e+00  -3.1809167e+06
   1.3144381e-09  -8.3436118e-04   1.1614498e+00   1.0884375e+00  -3.1688599e+06
   1.3154385e-09  -8.3119727e-04   1.1613134e+00   1.0885776e+00  -3.1568487e+06
   1.3164388e-09  -8.2804536e-04   1.1611775e+00   1.0887172e+00  -3.1448830e+06
   1.3174391e-09  -8.2490539e-04   1.1610422e+00   1.0888563e+00  -3.1329627e+06
   1.3184395e-09  -8.2177733e-04   1.1609073e+00   1.0889949e+00  -3.1210875e+06
   1.3194398e-09  -8.1866112e-04   1.1607730e+00   1.0891330e+00  -3.1092572e+06
   1.3204401e-09  -8.1555673e-04   1.1606392e+00   1.0892706e+00  -3.0974718e+06
   1.3214405e-09  -8.1246410e-04   1.1605060e+00   1.0894076e+00  -3.0857310e+06
   1.3224408e-09  -8.0938319e-04   1.1603732e+00   1.0895442e+00  -3.0740347e+06
   1.3234411e-09  -8.0631396e-04   1.1602410e+00   1.0896802e+00  -3.0623827e+06
   1.3244415e-09  -8.0325637e-04   1.1601092e+00   1.0898158e+00  -3.0507748e+06
   1.3254418e-09  -8.0021036e-04   1.1599780e+00   1.0899508e+00  -3.0392109e+06
   1.3264421e-09  -7.9717590e-04   1.1598473e+00   1.0900854e+00  -3.0276908e+06
   1.3274425e-09  -7.9415295e-04   1.1597171e+00   1.0902194e+00  -3.0162144e+06
   1.3284428e-09  -7.9114145e-04   1.1595874e+00   1.0903529e+00  -3.0047814e+06
   1.3294431e-09  -7.8814137e-04   1.1594581e+00   1.0904860e+00  -2.9933917e+06
   1.3304435e-09  -7.8515266e-04   1.1593294e+00   1.0906185e+00  -2.9820451e+06
   1.3314438e-09  -7.8217527e-04   1.1592012e+00   1.0907506e+00  -2.9707416e+06
   1.3324441e-09  -7.7920918e-04   1.1590735e+00   1.0908822e+00  -2.9594808e+06
   1.3334445e-09  -7.7625432e-04   1.1589463e+00   1.0910133e+00  -2.9482627e+06
   1.3344448e-09  -7.7331067e-04   1.1588195e+00   1.0911439e+00  -2.9370871e+06
   1.3354451e-09  -7.7037818e-04   1.1586933e+00   1.0912740e+00  -2.9259539e+06
   1.3364455e-09  -7.6745680e-04   1.1585675e+00   1.0914036e+00  -2.9148628e+06
   1.3374458e-09  -7.6454649e-04   1.1584423e+00   1.0915328e+00  -2.9038137e+06
   1.3384461e-09  -7.6164722e-04   1.1583175e+00   1.0916615e+00  -2.8928064e+06
   1.3394465e-09  -7.5875894e-04   1.1581932e+00   1.0917897e+00  -2.8818409e+06
   1.3404468e-09  -7.5588160e-04   1.1580693e+00   1.0919174e+00  -2.8709169e+06
   1.3414471e-09  -7.5301518e-04   1.1579460e+00   1.0920447e+00  -2.8600343e+06
   1.3424475e-09  -7.5015961e-04   1.1578231e+00   1.0921714e+00  -2.8491929e+06
   1.3434478e-09  -7.4731488e-04   1.1577007e+00   1.0922977e+00  -2.8383926e+06
   1.3444481e-09  -7.4448092e-04   1.1575788e+00   1.0924236e+00  -2.8276332e+06
   1.3454485e-09  -7.4165771e-04   1.1574573e+00   1.0925490e+00  -2.8169145e+06
   1.3464488e-09  -7.3884520e-04   1.1573364e+00   1.0926739e+00  -2.8062365e+06
   1.3474491e-09  -7.3604335e-04   1.1572158e+00   1.0927983e+00  -2.7955989e+06
   1.3484495e-09  -7.3325213e-04   1.1570958e+00   1.0929223e+00  -2.7850016e+06
   1.3494498e-09  -7.3047148e-04   1.1569762e+00   1.0930458e+00  -2.7744444e+06
   1.3504502e-09  -7.2770137e-04   1.1568571e+00   1.0931689e+00  -2.7639272e+06
   1.3514505e-09  -7.2494177e-04   1.1567384e+00   1.0932915e+00  -2.7534499e+06
   1.3524508e-09  -7.2219262e-04   1.1566202e+00   1.0934137e+00  -2.7430123e+06
   1.3534512e-09  -7.1945390e-04   1.1565024e+00   1.0935354e+00  -2.7326142e+06
   1.3544515e-09  -7.1672556e-04   1.1563851e+00   1.0936566e+00  -2.7222555e+06
   1.3554518e-09  -7.1400756e-04   1.1562683e+00   1.0937774e+00  -2.7119360e+06
   1.3564522e-09  -7.1129987e-04   1.1561519e+00   1.0938978e+00  -2.7016556e+06
   1.3574525e-09  -7.0860244e-04   1.1560359e+00   1.0940177e+00  -2.6914142e+06
   1.3584528e-09  -7.0591523e-04   1.1559204e+00   1.0941371e+00  -2.6812116e+06
   1.3594532e-09  -7.0323821e-04   1.1558053e+00   1.0942561e+00  -2.6710476e+06
   1.3604535e-09  -7.0057134e-04   1.1556907e+00   1.0943747e+00  -2.6609221e+06
   1.3614538e-09  -6.9791458e-04   1.1555766e+00   1.0944928e+00  -2.6508350e+06
   1.3624542e-09  -6.9526789e-04   1.1554628e+00   1.0946105e+00  -2.6407861e+06
   1.3634545e-09  -6.9263123e-04   1.1553495e+00   1.0947278e+00  -2.6307753e+06
   1.3644548e-09  -6.9000457e-04   1.1552367e+00   1.0948446e+00  -2.6208024e+06
   1.3654552e-09  -6.8738787e-04   1.1551243e+00   1.0949610e+00  -2.6108673e+06
   1.3664555e-09  -6.8478108e-04   1.1550123e+00   1.0950770e+00  -2.6009698e+06
   1.3674558e-09  -6.8218418e-04   1.1549007e+00   1.0951925e+00  -2.5911098e+06
   1.3684562e-09  -6.7959712e-04   1.1547896e+00   1.0953076e+00  -2.5812872e+06
   1.3694565e-09  -6.7701987e-04   1.1546789e+00   1.0954222e+00  -2.5715017e+06
   1.3704568e-09  -6.7445239e-04   1.1545686e+00   1.0955365e+00  -2.5617534e+06
   1.3714572e-09  -6.7189465e-04   1.1544588e+00   1.0956503e+00  -2.5520420e+06
   1.3724575e-09  -6.6934660e-04   1.1543493e+00   1.0957637e+00  -2.5423674e+06
   1.3734578e-09  -6.6680820e-04   1.1542403e+00   1.0958767e+00  -2.5327294e+06
   1.3744582e-09  -6.6427944e-04   1.1541317e+00   1.0959892e+00  -2.5231279e+06
   1.3754585e-09  -6.6176025e-04   1.1540236e+00   1.0961013e+00  -2.5135629e+06
   1.3764588e-09  -6.5925062e-04   1.1539158e+00   1.0962131e+00  -2.5040340e+06
   1.3774592e-09  -6.5675050e-04   1.1538085e+00   1.0963244e+00  -2.4945413e+06
   1.3784595e-09  -6.5425986e-04   1.1537016e+00   1.0964352e+00  -2.4850845e+06
   1.3794598e-09  -6.5177867e-04   1.1535951e+00   1.0965457e+00  -2.4756636e+06
   1.3804602e-09  -6.4930687e-04   1.1534890e+00   1.0966558e+00  -2.4662783e+06
   1.3814605e-09  -6.4684445e-04   1.1533833e+00   1.0967654e+00  -2.4569286e+06
   1.3824608e-09  -6.4439137e-04   1.1532780e+00   1.0968747e+00  -2.4476143e+06
   1.3834612e-09  -6.4194758e-04   1.1531731e+00   1.0969835e+00  -2.4383354e+06
   1.3844615e-09  -6.3951306e-04   1.1530687e+00   1.0970919e+00  -2.4290915e+06
   1.3854618e-09  -6.3708776e-04   1.1529646e+00   1.0972000e+00  -2.4198827e+06
   1.3864622e-09  -6.3467167e-04   1.1528609e+00   1.0973076e+00  -2.4107088e+06
   1.3874625e-09  -6.3226473e-04   1.1527576e+00   1.0974148e+00  -2.4015696e+06
   1.3884628e-09  -6.2986691e-04   1.1526548e+00   1.0975217e+00  -2.3924651e+06
   1.3894632e-09  -6.2747819e-04   1.1525523e+00   1.0976281e+00  -2.3833951e+06
   1.3904635e-09  -6.2509852e-04   1.1524502e+00   1.0977341e+00  -2.3743594e+06
   1.3914638e-09  -6.2272788e-04   1.1523485e+00   1.0978398e+00  -2.3653580e+06
   1.3924642e-09  -6.2036622e-04   1.1522472e+00   1.0979450e+00  -2.3563906e+06
   1.3934645e-09  -6.1801351e-04   1.1521463e+00   1.0980499e+00  -2.3474573e+06
   1.3944648e-09  -6.1566973e-04   1.1520458e+00   1.0981543e+00  -2.3385578e+06
   1.3954652e-09  -6.1333483e-04   1.1519457e+00   1.0982584e+00  -2.3296920e+06
   1.3964655e-09  -6.1100878e-04   1.1518459e+00   1.0983621e+00  -2.3208598e+06
   1.3974658e-09  -6.0869155e-04   1.1517465e+00   1.0984654e+00  -2.3120611e+06
   1.3984662e-09  -6.0638310e-04   1.1516476e+00   1.0985683e+00  -2.3032957e+06
   1.3994665e-09  -6.0408341e-04   1.1515490e+00   1.0986708e+00  -2.2945635e+06
   1.4004668e-09  -6.0179243e-04   1.1514507e+00   1.0987730e+00  -2.2858644e+06
   1.4014672e-09  -5.9951015e-04   1.1513529e+00   1.0988748e+00  -2.2771983e+06
   1.4024675e-09  -5.9723651e-04   1.1512554e+00   1.0989762e+00  -2.2685650e+06
   1.4034678e-09  -5.9497149e-04   1.1511583e+00   1.0990772e+00  -2.2599644e+06
   1.4044682e-09  -5.9271506e-04   1.1510616e+00   1.0991778e+00  -2.2513964e+06
   1.4054685e-09  -5.9046719e-04   1.1509653e+00   1.0992781e+00  -2.2428609e+06
   1.4064688e-09  -5.8822783e-04   1.1508693e+00   1.0993780e+00  -2.2343577e+06
   1.4074692e-09  -5.8599697e-04   1.1507737e+00   1.0994775e+00  -2.2258867e+06
   1.4084695e-09  -5.8377457e-04   1.1506784e+00   1.0995766e+00  -2.2174478e+06
   1.4094698e-09  -5.8156059e-04   1.1505836e+00   1.0996754e+00  -2.2090409e+06
   1.4104702e-09  -5.7935500e-04   1.1504890e+00   1.0997738e+00  -2.2006659e+06
   1.4114705e-09  -5.7715778e-04   1.1503949e+00   1.0998718e+00  -2.1923226e+06
   1.4124708e-09  -5.7496888e-04   1.1503011e+00   1.0999695e+00  -2.1840109e+06
   1.4134712e-09  -5.7278829e-04   1.1502077e+00   1.1000668e+00  -2.1757307e+06
   1.4144715e-09  -5.7061596e-04   1.1501146e+00   1.1001638e+00  -2.1674819e+06
   1.4154718e-09  -5.6845187e-04   1.1500219e+00   1.1002604e+00  -2.1592643e+06
   1.4164722e-09  -5.6629598e-04   1.1499296e+00   1.1003566e+00  -2.1510779e+06
   1.4174725e-09  -5.6414827e-04   1.1498376e+00   1.1004525e+00  -2.1429225e+06
   1.4184728e-09  -5.6200870e-04   1.1497459e+00   1.1005480e+00  -2.1347980e+06
   1.4194732e-09  -5.5987724e-04   1.1496546e+00   1.1006431e+00  -2.1267042e+06
   1.4204735e-09  -5.5775386e-04   1.1495637e+00   1.1007379e+00  -2.1186412e+06
   1.4214738e-09  -5.5563853e-04   1.1494731e+00   1.1008324e+00  -2.1106087e+06
   1.4224742e-09  -5.5353122e-04   1.1493829e+00   1.1009265e+00  -2.1026066e+06
   1.4234745e-09  -5.5143191e-04   1.1492930e+00   1.1010202e+00  -2.0946349e+06
   1.4244748e-09  -5.4934055e-04   1.1492034e+00   1.1011136e+00  -2.0866934e+06
   1.4254752e-09  -5.4725712e-04   1.1491142e+00   1.1012066e+00  -2.0787819e+06
   1.4264755e-09  -5.4518159e-04   1.1490254e+00   1.1012993e+00  -2.0709005e+06
   1.4274758e-09  -5.4311393e-04   1.1489368e+00   1.1013917e+00  -2.0630489e+06
   1.4284762e-09  -5.4105410e-04   1.1488487e+00   1.1014837e+00  -2.0552270e+06
   1.4294765e-09  -5.3900209e-04   1.1487608e+00   1.1015754e+00  -2.0474348e+06
   1.4304768e-09  -5.3695786e-04   1.1486733e+00   1.1016667e+00  -2.0396722e+06
   1.4314772e-09  -5.3492138e-04   1.1485861e+00   1.1017577e+00  -2.0319389e+06
   1.4324775e-09  -5.3289262e-04   1.1484993e+00   1.1018483e+00  -2.0242350e+06
   1.4334778e-09  -5.3087155e-04   1.1484128e+00   1.1019386e+00  -2.0165602e+06
   1.4344782e-09  -5.2885814e-04   1.1483266e+00   1.1020286e+00  -2.0089145e+06
   1.4354785e-09  -5.2685237e-04   1.1482408e+00   1.1021182e+00  -2.0012978e+06
   1.4364788e-09  -5.2485420e-04   1.1481553e+00   1.1022075e+00  -1.9937100e+06
   1.4374792e-09  -5.2286361e-04   1.1480701e+00   1.1022964e+00  -1.9861509e+06
   1.4384795e-09  -5.2088056e-04   1.1479853e+00   1.1023851e+00  -1.9786205e+06
   1.4394798e-09  -5.1890504e-04   1.1479007e+00   1.1024734e+00  -1.9711186e+06
   1.4404802e-09  -5.1693700e-04   1.1478165e+00   1.1025613e+00  -1.9636451e+06
   1.4414805e-09  -5.1497643e-04   1.1477327e+00   1.1026490e+00  -1.9562000e+06
   1.4424808e-09  -5.1302329e-04   1.1476491e+00   1.1027363e+00  -1.9487830e+06
   1.4434812e-09  -5.1107756e-04   1.1475659e+00   1.1028233e+00  -1.9413942e+06
   1.4444815e-09  -5.0913920e-04   1.1474829e+00   1.1029099e+00  -1.9340334e+06
   1.4454818e-09  -5.0720819e-04   1.1474004e+00   1.1029963e+00  -1.9267005e+06
   1.4464822e-09  -5.0528450e-04   1.1473181e+00   1.1030823e+00  -1.9193953e+06
   1.4474825e-09  -5.0336811e-04   1.1472361e+00   1.1031680e+00  -1.9121179e+06
   1.4484828e-09  -5.0145898e-04   1.1471545e+00   1.1032533e+00  -1.9048680e+06
   1.4494832e-09  -4.9955709e-04   1.1470731e+00   1.1033384e+00  -1.8976456e+06
   1.4504835e-09  -4.9766242e-04   1.1469921e+00   1.1034231e+00  -1.8904506e+06
   1.4514838e-09  -4.9577492e-04   1.1469114e+00   1.1035075e+00  -1.8832828e+06
   1.4524842e-09  -4.9389459e-04   1.1468310e+00   1.1035916e+00  -1.8761422e+06
   1.4534845e-09  -4.9202138e-04   1.1467509e+00   1.1036754e+00  -1.8690287e+06
   1.4544848e-09  -4.9015527e-04   1.1466711e+00   1.1037589e+00  -1.8619421e+06
   1.4554852e-09  -4.8829624e-04   1.1465916e+00   1.1038421e+00  -1.8548824e+06
   1.4564855e-09  -4.8644426e-04   1.1465124e+00   1.1039249e+00  -1.8478494e+06
   1.4574858e-09  -4.8459930e-04   1.1464336e+00   1.1040075e+00  -1.8408431e+06
   1.4584862e-09  -4.8276134e-04   1.1463550e+00   1.1040897e+00  -1.8338633e+06
   1.4594865e-09  -4.8093035e-04   1.1462767e+00   1.1041716e+00  -1.8269100e+06
   1.4604868e-09  -4.7910629e-04   1.1461987e+00   1.1042533e+00  -1.8199830e+06
   1.4614872e-09  -4.7728916e-04   1.1461211e+00   1.1043346e+00  -1.8130823e+06
   1.4624875e-09  -4.7547891e-04   1.1460437e+00   1.1044156e+00  -1.8062078e+06
