   0.0000000e+00  -1.4292826e-01   6.2547671e+00   9.2469037e-05  -5.1872837e+08
   2.6675559e-12  -1.4154964e-01   6.2472818e+00   1.0281732e-04  -5.1494372e+08
   5.3351117e-12  -1.4018112e-01   6.2394621e+00   1.1422760e-04  -5.1115719e+08
   8.0026676e-12  -1.3882271e-01   6.2312977e+00   1.2679720e-04  -5.0736888e+08
   1.0670223e-11  -1.3747440e-01   6.2227783e+00   1.4063103e-04  -5.0357887e+08
   1.3337779e-11  -1.3613620e-01   6.2138933e+00   1.5584201e-04  -4.9978729e+08
   1.6005335e-11  -1.3480812e-01   6.2046325e+00   1.7255154e-04  -4.9599425e+08
   1.8672891e-11  -1.3349016e-01   6.1949856e+00   1.9088997e-04  -4.9219989e+08
   2.1340447e-11  -1.3218233e-01   6.1849422e+00   2.1099704e-04  -4.8840436e+08
   2.4008003e-11  -1.3088462e-01   6.1744923e+00   2.3302241e-04  -4.8460783e+08
   2.6675559e-11  -1.2959703e-01   6.1636258e+00   2.5712607e-04  -4.8081047e+08
   2.9343114e-11  -1.2831958e-01   6.1523330e+00   2.8347890e-04  -4.7701248e+08
   3.2010670e-11  -1.2705226e-01   6.1406039e+00   3.1226309e-04  -4.7321406e+08
   3.4678226e-11  -1.2579508e-01   6.1284293e+00   3.4367266e-04  -4.6941543e+08
   3.7345782e-11  -1.2454802e-01   6.1158000e+00   3.7791390e-04  -4.6561685e+08
   4.0013338e-11  -1.2331110e-01   6.1027068e+00   4.1520586e-04  -4.6181856e+08
   4.2680894e-11  -1.2208431e-01   6.0891413e+00   4.5578079e-04  -4.5802084e+08
   4.5348449e-11  -1.2086765e-01   6.0750951e+00   4.9988458e-04  -4.5422397e+08
   4.8016005e-11  -1.1966111e-01   6.0605603e+00   5.4777713e-04  -4.5042827e+08
   5.0683561e-11  -1.1846470e-01   6.0455294e+00   5.9973284e-04  -4.4663405e+08
   5.3351117e-11  -1.1727841e-01   6.0299952e+00   6.5604085e-04  -4.4284167e+08
   5.6018673e-11  -1.1610223e-01   6.0139513e+00   7.1700548e-04  -4.3905147e+08
   5.8686229e-11  -1.1493615e-01   5.9973915e+00   7.8294647e-04  -4.3526384e+08
   6.1353785e-11  -1.1378018e-01   5.9803102e+00   8.5419924e-04  -4.3147916e+08
   6.4021340e-11  -1.1263429e-01   5.9627024e+00   9.3111515e-04  -4.2769786e+08
   6.6688896e-11  -1.1149849e-01   5.9445637e+00   1.0140616e-03  -4.2392036e+08
   6.9356452e-11  -1.1037276e-01   5.9258903e+00   1.1034222e-03  -4.2014710e+08
   7.2024008e-11  -1.0925708e-01   5.9066789e+00   1.1995969e-03  -4.1637855e+08
   7.4691564e-11  -1.0815145e-01   5.8869273e+00   1.3030017e-03  -4.1261518e+08
   7.7359120e-11  -1.0705586e-01   5.8666334e+00   1.4140692e-03  -4.0885750e+08
   8.0026676e-11  -1.0597027e-01   5.8457963e+00   1.5332476e-03  -4.0510601e+08
   8.2694231e-11  -1.0489469e-01   5.8244156e+00   1.6610015e-03  -4.0136124e+08
   8.5361787e-11  -1.0382908e-01   5.8024916e+00   1.7978108e-03  -3.9762372e+08
   8.8029343e-11  -1.0277344e-01   5.7800256e+00   1.9441711e-03  -3.9389401e+08
   9.0696899e-11  -1.0172773e-01   5.7570194e+00   2.1005926e-03  -3.9017268e+08
   9.3364455e-11  -1.0069193e-01   5.7334758e+00   2.2676001e-03  -3.8646031e+08
   9.6032011e-11  -9.9666027e-02   5.7093983e+00   2.4457325e-03  -3.8275747e+08
   9.8699567e-11  -9.8649985e-02   5.6847910e+00   2.6355419e-03  -3.7906478e+08
   1.0136712e-10  -9.7643779e-02   5.6596593e+00   2.8375930e-03  -3.7538285e+08
   1.0403468e-10  -9.6647379e-02   5.6340087e+00   3.0524626e-03  -3.7171228e+08
   1.0670223e-10  -9.5660755e-02   5.6078462e+00   3.2807383e-03  -3.6805371e+08
   1.0936979e-10  -9.4683872e-02   5.5811789e+00   3.5230181e-03  -3.6440776e+08
   1.1203735e-10  -9.3716698e-02   5.5540152e+00   3.7799090e-03  -3.6077507e+08
   1.1470490e-10  -9.2759195e-02   5.5263640e+00   4.0520264e-03  -3.5715628e+08
   1.1737246e-10  -9.1811325e-02   5.4982349e+00   4.3399928e-03  -3.5355203e+08
   1.2004001e-10  -9.0873050e-02   5.4696383e+00   4.6444365e-03  -3.4996296e+08
   1.2270757e-10  -8.9944328e-02   5.4405852e+00   4.9659909e-03  -3.4638971e+08
   1.2537513e-10  -8.9025115e-02   5.4110875e+00   5.3052927e-03  -3.4283294e+08
   1.2804268e-10  -8.8115368e-02   5.3811574e+00   5.6629811e-03  -3.3929326e+08
   1.3071024e-10  -8.7215039e-02   5.3508079e+00   6.0396963e-03  -3.3577132e+08
   1.3337779e-10  -8.6324081e-02   5.3200525e+00   6.4360783e-03  -3.3226775e+08
   1.3604535e-10  -8.5442443e-02   5.2889054e+00   6.8527653e-03  -3.2878316e+08
   1.3871290e-10  -8.4570075e-02   5.2573811e+00   7.2903928e-03  -3.2531818e+08
   1.4138046e-10  -8.3706922e-02   5.2254946e+00   7.7495917e-03  -3.2187340e+08
   1.4404802e-10  -8.2852932e-02   5.1932614e+00   8.2309875e-03  -3.1844942e+08
   1.4671557e-10  -8.2008047e-02   5.1606975e+00   8.7351986e-03  -3.1504683e+08
   1.4938313e-10  -8.1172209e-02   5.1278189e+00   9.2628350e-03  -3.1166618e+08
   1.5205068e-10  -8.0345359e-02   5.0946422e+00   9.8144971e-03  -3.0830805e+08
   1.5471824e-10  -7.9527438e-02   5.0611842e+00   1.0390774e-02  -3.0497296e+08
   1.5738580e-10  -7.8718381e-02   5.0274619e+00   1.0992244e-02  -3.0166145e+08
   1.6005335e-10  -7.7918126e-02   4.9934924e+00   1.1619470e-02  -2.9837401e+08
   1.6272091e-10  -7.7126609e-02   4.9592931e+00   1.2273002e-02  -2.9511115e+08
   1.6538846e-10  -7.6343762e-02   4.9248815e+00   1.2953373e-02  -2.9187332e+08
   1.6805602e-10  -7.5569518e-02   4.8902749e+00   1.3661100e-02  -2.8866099e+08
   1.7072357e-10  -7.4803809e-02   4.8554909e+00   1.4396682e-02  -2.8547459e+08
   1.7339113e-10  -7.4046566e-02   4.8205470e+00   1.5160600e-02  -2.8231452e+08
   1.7605869e-10  -7.3297716e-02   4.7854605e+00   1.5953315e-02  -2.7918117e+08
   1.7872624e-10  -7.2557190e-02   4.7502489e+00   1.6775266e-02  -2.7607492e+08
   1.8139380e-10  -7.1824913e-02   4.7149292e+00   1.7626874e-02  -2.7299610e+08
   1.8406135e-10  -7.1100812e-02   4.6795186e+00   1.8508536e-02  -2.6994505e+08
   1.8672891e-10  -7.0384813e-02   4.6440339e+00   1.9420626e-02  -2.6692206e+08
   1.8939647e-10  -6.9676840e-02   4.6084917e+00   2.0363498e-02  -2.6392740e+08
   1.9206402e-10  -6.8976817e-02   4.5729084e+00   2.1337478e-02  -2.6096134e+08
   1.9473158e-10  -6.8284669e-02   4.5373000e+00   2.2342873e-02  -2.5802411e+08
   1.9739913e-10  -6.7600317e-02   4.5016824e+00   2.3379964e-02  -2.5511590e+08
   2.0006669e-10  -6.6923684e-02   4.4660710e+00   2.4449005e-02  -2.5223691e+08
   2.0273424e-10  -6.6254692e-02   4.4304808e+00   2.5550229e-02  -2.4938731e+08
   2.0540180e-10  -6.5593262e-02   4.3949267e+00   2.6683844e-02  -2.4656722e+08
   2.0806936e-10  -6.4939315e-02   4.3594231e+00   2.7850032e-02  -2.4377677e+08
   2.1073691e-10  -6.4292772e-02   4.3239838e+00   2.9048950e-02  -2.4101605e+08
   2.1340447e-10  -6.3653554e-02   4.2886224e+00   3.0280732e-02  -2.3828513e+08
   2.1607202e-10  -6.3021581e-02   4.2533521e+00   3.1545487e-02  -2.3558408e+08
   2.1873958e-10  -6.2396773e-02   4.2181856e+00   3.2843299e-02  -2.3291292e+08
   2.2140714e-10  -6.1779050e-02   4.1831351e+00   3.4174229e-02  -2.3027166e+08
   2.2407469e-10  -6.1168333e-02   4.1482124e+00   3.5538314e-02  -2.2766029e+08
   2.2674225e-10  -6.0564541e-02   4.1134290e+00   3.6935567e-02  -2.2507879e+08
   2.2940980e-10  -5.9967596e-02   4.0787956e+00   3.8365979e-02  -2.2252712e+08
   2.3207736e-10  -5.9377418e-02   4.0443229e+00   3.9829518e-02  -2.2000520e+08
   2.3474491e-10  -5.8793926e-02   4.0100207e+00   4.1326130e-02  -2.1751296e+08
   2.3741247e-10  -5.8217044e-02   3.9758986e+00   4.2855739e-02  -2.1505030e+08
   2.4008003e-10  -5.7646690e-02   3.9419657e+00   4.4418249e-02  -2.1261711e+08
   2.4274758e-10  -5.7082788e-02   3.9082306e+00   4.6013543e-02  -2.1021326e+08
   2.4541514e-10  -5.6525259e-02   3.8747016e+00   4.7641484e-02  -2.0783860e+08
   2.4808269e-10  -5.5974025e-02   3.8413864e+00   4.9301915e-02  -2.0549298e+08
   2.5075025e-10  -5.5429009e-02   3.8082923e+00   5.0994662e-02  -2.0317624e+08
   2.5341781e-10  -5.4890134e-02   3.7754262e+00   5.2719530e-02  -2.0088818e+08
   2.5608536e-10  -5.4357324e-02   3.7427945e+00   5.4476310e-02  -1.9862861e+08
   2.5875292e-10  -5.3830503e-02   3.7104035e+00   5.6264773e-02  -1.9639733e+08
   2.6142047e-10  -5.3309596e-02   3.6782586e+00   5.8084677e-02  -1.9419412e+08
   2.6408803e-10  -5.2794528e-02   3.6463652e+00   5.9935762e-02  -1.9201876e+08
   2.6675559e-10  -5.2285226e-02   3.6147281e+00   6.1817753e-02  -1.8987101e+08
   2.6942314e-10  -5.1781615e-02   3.5833519e+00   6.3730363e-02  -1.8775064e+08
   2.7209070e-10  -5.1283624e-02   3.5522407e+00   6.5673289e-02  -1.8565738e+08
   2.7475825e-10  -5.0791180e-02   3.5213983e+00   6.7646216e-02  -1.8359098e+08
   2.7742581e-10  -5.0304212e-02   3.4908281e+00   6.9648818e-02  -1.8155119e+08
   2.8009336e-10  -4.9822650e-02   3.4605333e+00   7.1680756e-02  -1.7953772e+08
   2.8276092e-10  -4.9346423e-02   3.4305167e+00   7.3741679e-02  -1.7755030e+08
   2.8542848e-10  -4.8875462e-02   3.4007808e+00   7.5831228e-02  -1.7558866e+08
   2.8809603e-10  -4.8409699e-02   3.3713277e+00   7.7949032e-02  -1.7365251e+08
   2.9076359e-10  -4.7949067e-02   3.3421594e+00   8.0094711e-02  -1.7174156e+08
   2.9343114e-10  -4.7493498e-02   3.3132776e+00   8.2267879e-02  -1.6985551e+08
   2.9609870e-10  -4.7042926e-02   3.2846835e+00   8.4468140e-02  -1.6799408e+08
   2.9876626e-10  -4.6597287e-02   3.2563783e+00   8.6695088e-02  -1.6615697e+08
   3.0143381e-10  -4.6156515e-02   3.2283629e+00   8.8948315e-02  -1.6434388e+08
   3.0410137e-10  -4.5720548e-02   3.2006379e+00   9.1227403e-02  -1.6255450e+08
   3.0676892e-10  -4.5289321e-02   3.1732039e+00   9.3531929e-02  -1.6078855e+08
   3.0943648e-10  -4.4862774e-02   3.1460608e+00   9.5861466e-02  -1.5904571e+08
   3.1210403e-10  -4.4440845e-02   3.1192089e+00   9.8215579e-02  -1.5732568e+08
   3.1477159e-10  -4.4023473e-02   3.0926479e+00   1.0059383e-01  -1.5562817e+08
   3.1743915e-10  -4.3610598e-02   3.0663775e+00   1.0299578e-01  -1.5395286e+08
   3.2010670e-10  -4.3202163e-02   3.0403971e+00   1.0542099e-01  -1.5229945e+08
   3.2277426e-10  -4.2798109e-02   3.0147060e+00   1.0786899e-01  -1.5066766e+08
   3.2544181e-10  -4.2398378e-02   2.9893035e+00   1.1033935e-01  -1.4905717e+08
   3.2810937e-10  -4.2002914e-02   2.9641885e+00   1.1283161e-01  -1.4746768e+08
   3.3077693e-10  -4.1611662e-02   2.9393598e+00   1.1534532e-01  -1.4589891e+08
   3.3344448e-10  -4.1224567e-02   2.9148163e+00   1.1788001e-01  -1.4435054e+08
   3.3611204e-10  -4.0841575e-02   2.8905565e+00   1.2043523e-01  -1.4282230e+08
   3.3877959e-10  -4.0462632e-02   2.8665791e+00   1.2301052e-01  -1.4131389e+08
   3.4144715e-10  -4.0087686e-02   2.8428823e+00   1.2560542e-01  -1.3982502e+08
   3.4411470e-10  -3.9716686e-02   2.8194644e+00   1.2821947e-01  -1.3835540e+08
   3.4678226e-10  -3.9349579e-02   2.7963238e+00   1.3085221e-01  -1.3690475e+08
   3.4944982e-10  -3.8986317e-02   2.7734585e+00   1.3350318e-01  -1.3547278e+08
   3.5211737e-10  -3.8626849e-02   2.7508665e+00   1.3617192e-01  -1.3405923e+08
   3.5478493e-10  -3.8271127e-02   2.7285459e+00   1.3885797e-01  -1.3266381e+08
   3.5745248e-10  -3.7919103e-02   2.7064945e+00   1.4156087e-01  -1.3128624e+08
   3.6012004e-10  -3.7570729e-02   2.6847102e+00   1.4428018e-01  -1.2992627e+08
   3.6278760e-10  -3.7225960e-02   2.6631907e+00   1.4701542e-01  -1.2858363e+08
   3.6545515e-10  -3.6884749e-02   2.6419339e+00   1.4976616e-01  -1.2725804e+08
   3.6812271e-10  -3.6547051e-02   2.6209373e+00   1.5253194e-01  -1.2594926e+08
   3.7079026e-10  -3.6212821e-02   2.6001987e+00   1.5531231e-01  -1.2465702e+08
   3.7345782e-10  -3.5882016e-02   2.5797155e+00   1.5810682e-01  -1.2338107e+08
   3.7612538e-10  -3.5554593e-02   2.5594854e+00   1.6091503e-01  -1.2212117e+08
   3.7879293e-10  -3.5230509e-02   2.5395060e+00   1.6373650e-01  -1.2087706e+08
   3.8146049e-10  -3.4909722e-02   2.5197746e+00   1.6657079e-01  -1.1964851e+08
   3.8412804e-10  -3.4592192e-02   2.5002889e+00   1.6941746e-01  -1.1843526e+08
   3.8679560e-10  -3.4277877e-02   2.4810462e+00   1.7227608e-01  -1.1723710e+08
   3.8946315e-10  -3.3966739e-02   2.4620440e+00   1.7514622e-01  -1.1605378e+08
   3.9213071e-10  -3.3658737e-02   2.4432797e+00   1.7802746e-01  -1.1488508e+08
   3.9479827e-10  -3.3353832e-02   2.4247508e+00   1.8091936e-01  -1.1373077e+08
   3.9746582e-10  -3.3051988e-02   2.4064546e+00   1.8382152e-01  -1.1259063e+08
   4.0013338e-10  -3.2753166e-02   2.3883886e+00   1.8673351e-01  -1.1146445e+08
   4.0280093e-10  -3.2457329e-02   2.3705501e+00   1.8965493e-01  -1.1035200e+08
   4.0546849e-10  -3.2164441e-02   2.3529366e+00   1.9258536e-01  -1.0925307e+08
   4.0813605e-10  -3.1874466e-02   2.3355454e+00   1.9552439e-01  -1.0816747e+08
   4.1080360e-10  -3.1587370e-02   2.3183739e+00   1.9847164e-01  -1.0709497e+08
   4.1347116e-10  -3.1303117e-02   2.3014196e+00   2.0142670e-01  -1.0603539e+08
   4.1613871e-10  -3.1021672e-02   2.2846799e+00   2.0438918e-01  -1.0498853e+08
   4.1880627e-10  -3.0743004e-02   2.2681521e+00   2.0735869e-01  -1.0395418e+08
   4.2147382e-10  -3.0467077e-02   2.2518337e+00   2.1033484e-01  -1.0293217e+08
   4.2414138e-10  -3.0193861e-02   2.2357222e+00   2.1331727e-01  -1.0192229e+08
   4.2680894e-10  -2.9923322e-02   2.2198149e+00   2.1630558e-01  -1.0092437e+08
   4.2947649e-10  -2.9655428e-02   2.2041094e+00   2.1929941e-01  -9.9938232e+07
   4.3214405e-10  -2.9390150e-02   2.1886031e+00   2.2229839e-01  -9.8963686e+07
   4.3481160e-10  -2.9127456e-02   2.1732934e+00   2.2530216e-01  -9.8000562e+07
   4.3747916e-10  -2.8867315e-02   2.1581780e+00   2.2831036e-01  -9.7048687e+07
   4.4014672e-10  -2.8609699e-02   2.1432543e+00   2.3132263e-01  -9.6107893e+07
   4.4281427e-10  -2.8354577e-02   2.1285199e+00   2.3433863e-01  -9.5178013e+07
   4.4548183e-10  -2.8101921e-02   2.1139724e+00   2.3735801e-01  -9.4258884e+07
   4.4814938e-10  -2.7851703e-02   2.0996092e+00   2.4038043e-01  -9.3350345e+07
   4.5081694e-10  -2.7603894e-02   2.0854281e+00   2.4340556e-01  -9.2452240e+07
   4.5348449e-10  -2.7358467e-02   2.0714267e+00   2.4643305e-01  -9.1564413e+07
   4.5615205e-10  -2.7115394e-02   2.0576025e+00   2.4946259e-01  -9.0686712e+07
   4.5881961e-10  -2.6874649e-02   2.0439532e+00   2.5249386e-01  -8.9818988e+07
   4.6148716e-10  -2.6636205e-02   2.0304766e+00   2.5552652e-01  -8.8961095e+07
   4.6415472e-10  -2.6400037e-02   2.0171704e+00   2.5856028e-01  -8.8112889e+07
   4.6682227e-10  -2.6166118e-02   2.0040323e+00   2.6159482e-01  -8.7274228e+07
   4.6948983e-10  -2.5934424e-02   1.9910600e+00   2.6462983e-01  -8.6444973e+07
   4.7215739e-10  -2.5704929e-02   1.9782513e+00   2.6766502e-01  -8.5624988e+07
   4.7482494e-10  -2.5477609e-02   1.9656040e+00   2.7070009e-01  -8.4814140e+07
   4.7749250e-10  -2.5252440e-02   1.9531161e+00   2.7373475e-01  -8.4012296e+07
   4.8016005e-10  -2.5029398e-02   1.9407852e+00   2.7676871e-01  -8.3219328e+07
   4.8282761e-10  -2.4808459e-02   1.9286093e+00   2.7980169e-01  -8.2435109e+07
   4.8549517e-10  -2.4589601e-02   1.9165863e+00   2.8283342e-01  -8.1659513e+07
   4.8816272e-10  -2.4372800e-02   1.9047142e+00   2.8586361e-01  -8.0892420e+07
   4.9083028e-10  -2.4158033e-02   1.8929908e+00   2.8889201e-01  -8.0133709e+07
   4.9349783e-10  -2.3945280e-02   1.8814142e+00   2.9191833e-01  -7.9383261e+07
   4.9616539e-10  -2.3734517e-02   1.8699823e+00   2.9494234e-01  -7.8640961e+07
   4.9883294e-10  -2.3525723e-02   1.8586932e+00   2.9796376e-01  -7.7906696e+07
   5.0150050e-10  -2.3318878e-02   1.8475450e+00   3.0098235e-01  -7.7180353e+07
   5.0416806e-10  -2.3113959e-02   1.8365357e+00   3.0399786e-01  -7.6461822e+07
   5.0683561e-10  -2.2910947e-02   1.8256633e+00   3.0701005e-01  -7.5750996e+07
   5.0950317e-10  -2.2709821e-02   1.8149261e+00   3.1001868e-01  -7.5047770e+07
   5.1217072e-10  -2.2510560e-02   1.8043222e+00   3.1302351e-01  -7.4352038e+07
   5.1483828e-10  -2.2313145e-02   1.7938498e+00   3.1602432e-01  -7.3663699e+07
   5.1750584e-10  -2.2117557e-02   1.7835070e+00   3.1902087e-01  -7.2982652e+07
   5.2017339e-10  -2.1923775e-02   1.7732921e+00   3.2201295e-01  -7.2308799e+07
   5.2284095e-10  -2.1731781e-02   1.7632033e+00   3.2500033e-01  -7.1642043e+07
   5.2550850e-10  -2.1541557e-02   1.7532389e+00   3.2798281e-01  -7.0982289e+07
   5.2817606e-10  -2.1353083e-02   1.7433972e+00   3.3096018e-01  -7.0329442e+07
   5.3084361e-10  -2.1166342e-02   1.7336765e+00   3.3393222e-01  -6.9683412e+07
   5.3351117e-10  -2.0981314e-02   1.7240751e+00   3.3689874e-01  -6.9044108e+07
   5.3617873e-10  -2.0797983e-02   1.7145914e+00   3.3985954e-01  -6.8411442e+07
   5.3884628e-10  -2.0616331e-02   1.7052238e+00   3.4281442e-01  -6.7785325e+07
   5.4151384e-10  -2.0436341e-02   1.6959707e+00   3.4576320e-01  -6.7165673e+07
   5.4418139e-10  -2.0257994e-02   1.6868305e+00   3.4870569e-01  -6.6552401e+07
   5.4684895e-10  -2.0081276e-02   1.6778017e+00   3.5164170e-01  -6.5945427e+07
   5.4951651e-10  -1.9906167e-02   1.6688828e+00   3.5457106e-01  -6.5344669e+07
   5.5218406e-10  -1.9732654e-02   1.6600721e+00   3.5749359e-01  -6.4750046e+07
   5.5485162e-10  -1.9560718e-02   1.6513684e+00   3.6040913e-01  -6.4161482e+07
   5.5751917e-10  -1.9390344e-02   1.6427700e+00   3.6331750e-01  -6.3578898e+07
   5.6018673e-10  -1.9221516e-02   1.6342756e+00   3.6621853e-01  -6.3002218e+07
   5.6285428e-10  -1.9054219e-02   1.6258837e+00   3.6911208e-01  -6.2431368e+07
   5.6552184e-10  -1.8888437e-02   1.6175929e+00   3.7199799e-01  -6.1866274e+07
   5.6818940e-10  -1.8724154e-02   1.6094019e+00   3.7487609e-01  -6.1306864e+07
   5.7085695e-10  -1.8561356e-02   1.6013093e+00   3.7774624e-01  -6.0753067e+07
   5.7352451e-10  -1.8400028e-02   1.5933138e+00   3.8060830e-01  -6.0204814e+07
   5.7619206e-10  -1.8240155e-02   1.5854139e+00   3.8346212e-01  -5.9662035e+07
   5.7885962e-10  -1.8081723e-02   1.5776085e+00   3.8630757e-01  -5.9124662e+07
   5.8152718e-10  -1.7924717e-02   1.5698962e+00   3.8914450e-01  -5.8592631e+07
   5.8419473e-10  -1.7769123e-02   1.5622758e+00   3.9197278e-01  -5.8065874e+07
   5.8686229e-10  -1.7614927e-02   1.5547461e+00   3.9479229e-01  -5.7544329e+07
   5.8952984e-10  -1.7462116e-02   1.5473057e+00   3.9760289e-01  -5.7027931e+07
   5.9219740e-10  -1.7310675e-02   1.5399536e+00   4.0040447e-01  -5.6516618e+07
   5.9486495e-10  -1.7160591e-02   1.5326884e+00   4.0319691e-01  -5.6010330e+07
   5.9753251e-10  -1.7011852e-02   1.5255091e+00   4.0598009e-01  -5.5509006e+07
   6.0020007e-10  -1.6864443e-02   1.5184144e+00   4.0875389e-01  -5.5012586e+07
   6.0286762e-10  -1.6718351e-02   1.5114033e+00   4.1151820e-01  -5.4521013e+07
   6.0553518e-10  -1.6573565e-02   1.5044746e+00   4.1427292e-01  -5.4034228e+07
   6.0820273e-10  -1.6430070e-02   1.4976271e+00   4.1701794e-01  -5.3552176e+07
   6.1087029e-10  -1.6287856e-02   1.4908599e+00   4.1975317e-01  -5.3074800e+07
   6.1353785e-10  -1.6146908e-02   1.4841718e+00   4.2247849e-01  -5.2602047e+07
   6.1620540e-10  -1.6007216e-02   1.4775618e+00   4.2519382e-01  -5.2133861e+07
   6.1887296e-10  -1.5868766e-02   1.4710289e+00   4.2789907e-01  -5.1670190e+07
   6.2154051e-10  -1.5731547e-02   1.4645719e+00   4.3059413e-01  -5.1210982e+07
   6.2420807e-10  -1.5595547e-02   1.4581899e+00   4.3327893e-01  -5.0756185e+07
   6.2687563e-10  -1.5460755e-02   1.4518819e+00   4.3595339e-01  -5.0305749e+07
   6.2954318e-10  -1.5327158e-02   1.4456470e+00   4.3861740e-01  -4.9859623e+07
   6.3221074e-10  -1.5194746e-02   1.4394841e+00   4.4127091e-01  -4.9417759e+07
   6.3487829e-10  -1.5063507e-02   1.4333922e+00   4.4391383e-01  -4.8980108e+07
   6.3754585e-10  -1.4933429e-02   1.4273705e+00   4.4654609e-01  -4.8546622e+07
   6.4021340e-10  -1.4804502e-02   1.4214181e+00   4.4916761e-01  -4.8117254e+07
   6.4288096e-10  -1.4676716e-02   1.4155339e+00   4.5177833e-01  -4.7691959e+07
   6.4554852e-10  -1.4550058e-02   1.4097172e+00   4.5437817e-01  -4.7270690e+07
   6.4821607e-10  -1.4424519e-02   1.4039670e+00   4.5696709e-01  -4.6853402e+07
   6.5088363e-10  -1.4300087e-02   1.3982825e+00   4.5954500e-01  -4.6440052e+07
   6.5355118e-10  -1.4176753e-02   1.3926627e+00   4.6211186e-01  -4.6030596e+07
   6.5621874e-10  -1.4054506e-02   1.3871069e+00   4.6466761e-01  -4.5624990e+07
   6.5888630e-10  -1.3933336e-02   1.3816142e+00   4.6721218e-01  -4.5223192e+07
   6.6155385e-10  -1.3813233e-02   1.3761838e+00   4.6974554e-01  -4.4825161e+07
   6.6422141e-10  -1.3694187e-02   1.3708149e+00   4.7226762e-01  -4.4430856e+07
   6.6688896e-10  -1.3576187e-02   1.3655066e+00   4.7477838e-01  -4.4040235e+07
   6.6955652e-10  -1.3459225e-02   1.3602583e+00   4.7727777e-01  -4.3653259e+07
   6.7222407e-10  -1.3343289e-02   1.3550691e+00   4.7976576e-01  -4.3269889e+07
   6.7489163e-10  -1.3228372e-02   1.3499382e+00   4.8224229e-01  -4.2890085e+07
   6.7755919e-10  -1.3114463e-02   1.3448649e+00   4.8470733e-01  -4.2513810e+07
   6.8022674e-10  -1.3001554e-02   1.3398485e+00   4.8716084e-01  -4.2141024e+07
   6.8289430e-10  -1.2889634e-02   1.3348883e+00   4.8960278e-01  -4.1771692e+07
   6.8556185e-10  -1.2778695e-02   1.3299834e+00   4.9203313e-01  -4.1405776e+07
   6.8822941e-10  -1.2668727e-02   1.3251333e+00   4.9445184e-01  -4.1043241e+07
   6.9089697e-10  -1.2559722e-02   1.3203371e+00   4.9685889e-01  -4.0684050e+07
   6.9356452e-10  -1.2451670e-02   1.3155943e+00   4.9925425e-01  -4.0328167e+07
   6.9623208e-10  -1.2344564e-02   1.3109040e+00   5.0163789e-01  -3.9975560e+07
   6.9889963e-10  -1.2238394e-02   1.3062658e+00   5.0400979e-01  -3.9626192e+07
   7.0156719e-10  -1.2133151e-02   1.3016789e+00   5.0636993e-01  -3.9280030e+07
   7.0423474e-10  -1.2028828e-02   1.2971426e+00   5.0871828e-01  -3.8937041e+07
   7.0690230e-10  -1.1925415e-02   1.2926563e+00   5.1105483e-01  -3.8597192e+07
   7.0956986e-10  -1.1822905e-02   1.2882194e+00   5.1337955e-01  -3.8260450e+07
   7.1223741e-10  -1.1721289e-02   1.2838313e+00   5.1569244e-01  -3.7926783e+07
   7.1490497e-10  -1.1620559e-02   1.2794913e+00   5.1799348e-01  -3.7596159e+07
   7.1757252e-10  -1.1520707e-02   1.2751989e+00   5.2028265e-01  -3.7268548e+07
   7.2024008e-10  -1.1421724e-02   1.2709534e+00   5.2255994e-01  -3.6943918e+07
   7.2290764e-10  -1.1323604e-02   1.2667543e+00   5.2482535e-01  -3.6622239e+07
   7.2557519e-10  -1.1226338e-02   1.2626009e+00   5.2707887e-01  -3.6303480e+07
   7.2824275e-10  -1.1129918e-02   1.2584928e+00   5.2932049e-01  -3.5987613e+07
   7.3091030e-10  -1.1034338e-02   1.2544293e+00   5.3155020e-01  -3.5674608e+07
   7.3357786e-10  -1.0939588e-02   1.2504099e+00   5.3376800e-01  -3.5364435e+07
   7.3624542e-10  -1.0845662e-02   1.2464340e+00   5.3597389e-01  -3.5057067e+07
   7.3891297e-10  -1.0752552e-02   1.2425012e+00   5.3816787e-01  -3.4752475e+07
   7.4158053e-10  -1.0660251e-02   1.2386108e+00   5.4034994e-01  -3.4450631e+07
   7.4424808e-10  -1.0568752e-02   1.2347624e+00   5.4252010e-01  -3.4151508e+07
   7.4691564e-10  -1.0478047e-02   1.2309554e+00   5.4467835e-01  -3.3855078e+07
   7.4958319e-10  -1.0388129e-02   1.2271894e+00   5.4682470e-01  -3.3561316e+07
   7.5225075e-10  -1.0298991e-02   1.2234638e+00   5.4895915e-01  -3.3270193e+07
   7.5491831e-10  -1.0210626e-02   1.2197781e+00   5.5108171e-01  -3.2981685e+07
   7.5758586e-10  -1.0123027e-02   1.2161318e+00   5.5319239e-01  -3.2695765e+07
   7.6025342e-10  -1.0036188e-02   1.2125246e+00   5.5529120e-01  -3.2412408e+07
   7.6292097e-10  -9.9501012e-03   1.2089558e+00   5.5737815e-01  -3.2131588e+07
   7.6558853e-10  -9.8647601e-03   1.2054250e+00   5.5945325e-01  -3.1853281e+07
   7.6825609e-10  -9.7801580e-03   1.2019318e+00   5.6151650e-01  -3.1577462e+07
   7.7092364e-10  -9.6962884e-03   1.1984757e+00   5.6356794e-01  -3.1304107e+07
   7.7359120e-10  -9.6131448e-03   1.1950563e+00   5.6560756e-01  -3.1033191e+07
   7.7625875e-10  -9.5307206e-03   1.1916730e+00   5.6763540e-01  -3.0764691e+07
   7.7892631e-10  -9.4490094e-03   1.1883256e+00   5.6965145e-01  -3.0498584e+07
   7.8159386e-10  -9.3680049e-03   1.1850135e+00   5.7165575e-01  -3.0234846e+07
   7.8426142e-10  -9.2877008e-03   1.1817363e+00   5.7364831e-01  -2.9973454e+07
   7.8692898e-10  -9.2080909e-03   1.1784937e+00   5.7562914e-01  -2.9714386e+07
   7.8959653e-10  -9.1291690e-03   1.1752851e+00   5.7759828e-01  -2.9457619e+07
   7.9226409e-10  -9.0509290e-03   1.1721102e+00   5.7955575e-01  -2.9203131e+07
   7.9493164e-10  -8.9733648e-03   1.1689686e+00   5.8150155e-01  -2.8950901e+07
   7.9759920e-10  -8.8964705e-03   1.1658600e+00   5.8343573e-01  -2.8700906e+07
   8.0026676e-10  -8.8202400e-03   1.1627838e+00   5.8535830e-01  -2.8453126e+07
   8.0293431e-10  -8.7446676e-03   1.1597397e+00   5.8726928e-01  -2.8207539e+07
   8.0560187e-10  -8.6697475e-03   1.1567274e+00   5.8916872e-01  -2.7964124e+07
   8.0826942e-10  -8.5954737e-03   1.1537464e+00   5.9105662e-01  -2.7722861e+07
   8.1093698e-10  -8.5218408e-03   1.1507964e+00   5.9293302e-01  -2.7483729e+07
   8.1360453e-10  -8.4488428e-03   1.1478771e+00   5.9479795e-01  -2.7246708e+07
   8.1627209e-10  -8.3764744e-03   1.1449880e+00   5.9665143e-01  -2.7011778e+07
   8.1893965e-10  -8.3047299e-03   1.1421289e+00   5.9849350e-01  -2.6778920e+07
   8.2160720e-10  -8.2336038e-03   1.1392993e+00   6.0032418e-01  -2.6548113e+07
   8.2427476e-10  -8.1630906e-03   1.1364990e+00   6.0214351e-01  -2.6319339e+07
   8.2694231e-10  -8.0931851e-03   1.1337275e+00   6.0395152e-01  -2.6092579e+07
   8.2960987e-10  -8.0238817e-03   1.1309845e+00   6.0574824e-01  -2.5867813e+07
   8.3227743e-10  -7.9551753e-03   1.1282698e+00   6.0753371e-01  -2.5645022e+07
   8.3494498e-10  -7.8870606e-03   1.1255830e+00   6.0930795e-01  -2.5424190e+07
   8.3761254e-10  -7.8195324e-03   1.1229238e+00   6.1107101e-01  -2.5205296e+07
   8.4028009e-10  -7.7525856e-03   1.1202917e+00   6.1282292e-01  -2.4988324e+07
   8.4294765e-10  -7.6862149e-03   1.1176867e+00   6.1456370e-01  -2.4773254e+07
   8.4561521e-10  -7.6204155e-03   1.1151082e+00   6.1629341e-01  -2.4560070e+07
   8.4828276e-10  -7.5551822e-03   1.1125561e+00   6.1801207e-01  -2.4348755e+07
   8.5095032e-10  -7.4905102e-03   1.1100300e+00   6.1971972e-01  -2.4139290e+07
   8.5361787e-10  -7.4263945e-03   1.1075296e+00   6.2141640e-01  -2.3931658e+07
   8.5628543e-10  -7.3628302e-03   1.1050546e+00   6.2310216e-01  -2.3725844e+07
   8.5895298e-10  -7.2998125e-03   1.1026048e+00   6.2477701e-01  -2.3521829e+07
   8.6162054e-10  -7.2373367e-03   1.1001798e+00   6.2644102e-01  -2.3319598e+07
   8.6428810e-10  -7.1753980e-03   1.0977794e+00   6.2809421e-01  -2.3119133e+07
   8.6695565e-10  -7.1139917e-03   1.0954032e+00   6.2973662e-01  -2.2920419e+07
   8.6962321e-10  -7.0531131e-03   1.0930511e+00   6.3136830e-01  -2.2723440e+07
   8.7229076e-10  -6.9927577e-03   1.0907227e+00   6.3298928e-01  -2.2528180e+07
   8.7495832e-10  -6.9329209e-03   1.0884178e+00   6.3459962e-01  -2.2334623e+07
   8.7762588e-10  -6.8735982e-03   1.0861361e+00   6.3619934e-01  -2.2142753e+07
   8.8029343e-10  -6.8147851e-03   1.0838774e+00   6.3778849e-01  -2.1952555e+07
   8.8296099e-10  -6.7564771e-03   1.0816413e+00   6.3936711e-01  -2.1764014e+07
   8.8562854e-10  -6.6986698e-03   1.0794277e+00   6.4093525e-01  -2.1577115e+07
   8.8829610e-10  -6.6413590e-03   1.0772363e+00   6.4249295e-01  -2.1391842e+07
   8.9096365e-10  -6.5845402e-03   1.0750668e+00   6.4404025e-01  -2.1208182e+07
   8.9363121e-10  -6.5282092e-03   1.0729189e+00   6.4557719e-01  -2.1026119e+07
   8.9629877e-10  -6.4723618e-03   1.0707926e+00   6.4710382e-01  -2.0845638e+07
   8.9896632e-10  -6.4169937e-03   1.0686874e+00   6.4862019e-01  -2.0666727e+07
   9.0163388e-10  -6.3621008e-03   1.0666033e+00   6.5012633e-01  -2.0489370e+07
   9.0430143e-10  -6.3076789e-03   1.0645398e+00   6.5162230e-01  -2.0313553e+07
   9.0696899e-10  -6.2537240e-03   1.0624969e+00   6.5310813e-01  -2.0139262e+07
   9.0963655e-10  -6.2002321e-03   1.0604743e+00   6.5458387e-01  -1.9966484e+07
   9.1230410e-10  -6.1471990e-03   1.0584718e+00   6.5604957e-01  -1.9795206e+07
   9.1497166e-10  -6.0946208e-03   1.0564890e+00   6.5750528e-01  -1.9625412e+07
   9.1763921e-10  -6.0424936e-03   1.0545259e+00   6.5895103e-01  -1.9457091e+07
   9.2030677e-10  -5.9908134e-03   1.0525823e+00   6.6038688e-01  -1.9290229e+07
   9.2297432e-10  -5.9395764e-03   1.0506578e+00   6.6181286e-01  -1.9124813e+07
   9.2564188e-10  -5.8887788e-03   1.0487523e+00   6.6322904e-01  -1.8960829e+07
   9.2830944e-10  -5.8384167e-03   1.0468656e+00   6.6463545e-01  -1.8798266e+07
   9.3097699e-10  -5.7884864e-03   1.0449974e+00   6.6603214e-01  -1.8637110e+07
   9.3364455e-10  -5.7389841e-03   1.0431477e+00   6.6741915e-01  -1.8477349e+07
   9.3631210e-10  -5.6899061e-03   1.0413161e+00   6.6879654e-01  -1.8318970e+07
   9.3897966e-10  -5.6412488e-03   1.0395025e+00   6.7016436e-01  -1.8161962e+07
   9.4164722e-10  -5.5930085e-03   1.0377066e+00   6.7152264e-01  -1.8006311e+07
   9.4431477e-10  -5.5451816e-03   1.0359284e+00   6.7287143e-01  -1.7852005e+07
   9.4698233e-10  -5.4977646e-03   1.0341675e+00   6.7421079e-01  -1.7699034e+07
   9.4964988e-10  -5.4507538e-03   1.0324239e+00   6.7554077e-01  -1.7547384e+07
   9.5231744e-10  -5.4041459e-03   1.0306973e+00   6.7686140e-01  -1.7397044e+07
   9.5498499e-10  -5.3579372e-03   1.0289875e+00   6.7817273e-01  -1.7248002e+07
   9.5765255e-10  -5.3121244e-03   1.0272944e+00   6.7947482e-01  -1.7100248e+07
   9.6032011e-10  -5.2667040e-03   1.0256177e+00   6.8076772e-01  -1.6953769e+07
   9.6298766e-10  -5.2216727e-03   1.0239574e+00   6.8205146e-01  -1.6808554e+07
   9.6565522e-10  -5.1770271e-03   1.0223132e+00   6.8332610e-01  -1.6664593e+07
   9.6832277e-10  -5.1327639e-03   1.0206850e+00   6.8459169e-01  -1.6521873e+07
   9.7099033e-10  -5.0888797e-03   1.0190726e+00   6.8584828e-01  -1.6380384e+07
   9.7365789e-10  -5.0453713e-03   1.0174757e+00   6.8709590e-01  -1.6240115e+07
   9.7632544e-10  -5.0022355e-03   1.0158944e+00   6.8833462e-01  -1.6101055e+07
   9.7899300e-10  -4.9594690e-03   1.0143283e+00   6.8956447e-01  -1.5963194e+07
   9.8166055e-10  -4.9170687e-03   1.0127774e+00   6.9078552e-01  -1.5826521e+07
   9.8432811e-10  -4.8750314e-03   1.0112414e+00   6.9199779e-01  -1.5691026e+07
   9.8699567e-10  -4.8333540e-03   1.0097202e+00   6.9320136e-01  -1.5556698e+07
   9.8966322e-10  -4.7920334e-03   1.0082137e+00   6.9439625e-01  -1.5423526e+07
   9.9233078e-10  -4.7510665e-03   1.0067217e+00   6.9558252e-01  -1.5291502e+07
   9.9499833e-10  -4.7104503e-03   1.0052440e+00   6.9676023e-01  -1.5160614e+07
   9.9766589e-10  -4.6701817e-03   1.0037806e+00   6.9792941e-01  -1.5030853e+07
   1.0003334e-09  -4.6302577e-03   1.0023312e+00   6.9909011e-01  -1.4902208e+07
   1.0030010e-09  -4.5906755e-03   1.0008956e+00   7.0024239e-01  -1.4774670e+07
   1.0056686e-09  -4.5514320e-03   9.9947388e-01   7.0138628e-01  -1.4648230e+07
   1.0083361e-09  -4.5125243e-03   9.9806574e-01   7.0252185e-01  -1.4522877e+07
   1.0110037e-09  -4.4739496e-03   9.9667106e-01   7.0364913e-01  -1.4398603e+07
   1.0136712e-09  -4.4357049e-03   9.9528971e-01   7.0476818e-01  -1.4275397e+07
   1.0163388e-09  -4.3977875e-03   9.9392155e-01   7.0587904e-01  -1.4153250e+07
   1.0190063e-09  -4.3601945e-03   9.9256644e-01   7.0698177e-01  -1.4032154e+07
   1.0216739e-09  -4.3229232e-03   9.9122426e-01   7.0807640e-01  -1.3912098e+07
   1.0243414e-09  -4.2859708e-03   9.8989485e-01   7.0916298e-01  -1.3793074e+07
   1.0270090e-09  -4.2493345e-03   9.8857810e-01   7.1024157e-01  -1.3675073e+07
   1.0296766e-09  -4.2130116e-03   9.8727387e-01   7.1131222e-01  -1.3558085e+07
   1.0323441e-09  -4.1769994e-03   9.8598203e-01   7.1237496e-01  -1.3442103e+07
   1.0350117e-09  -4.1412953e-03   9.8470245e-01   7.1342985e-01  -1.3327116e+07
   1.0376792e-09  -4.1058966e-03   9.8343501e-01   7.1447693e-01  -1.3213118e+07
   1.0403468e-09  -4.0708007e-03   9.8217959e-01   7.1551625e-01  -1.3100098e+07
   1.0430143e-09  -4.0360050e-03   9.8093605e-01   7.1654786e-01  -1.2988048e+07
   1.0456819e-09  -4.0015070e-03   9.7970428e-01   7.1757180e-01  -1.2876961e+07
   1.0483494e-09  -3.9673039e-03   9.7848416e-01   7.1858813e-01  -1.2766827e+07
   1.0510170e-09  -3.9333934e-03   9.7727557e-01   7.1959688e-01  -1.2657638e+07
   1.0536846e-09  -3.8997730e-03   9.7607838e-01   7.2059811e-01  -1.2549386e+07
   1.0563521e-09  -3.8664400e-03   9.7489249e-01   7.2159186e-01  -1.2442063e+07
   1.0590197e-09  -3.8333921e-03   9.7371778e-01   7.2257818e-01  -1.2335661e+07
   1.0616872e-09  -3.8006268e-03   9.7255413e-01   7.2355712e-01  -1.2230171e+07
   1.0643548e-09  -3.7681417e-03   9.7140143e-01   7.2452871e-01  -1.2125587e+07
   1.0670223e-09  -3.7359344e-03   9.7025958e-01   7.2549301e-01  -1.2021899e+07
   1.0696899e-09  -3.7040025e-03   9.6912845e-01   7.2645007e-01  -1.1919101e+07
   1.0723575e-09  -3.6723437e-03   9.6800795e-01   7.2739992e-01  -1.1817184e+07
   1.0750250e-09  -3.6409555e-03   9.6689796e-01   7.2834261e-01  -1.1716142e+07
   1.0776926e-09  -3.6098358e-03   9.6579838e-01   7.2927820e-01  -1.1615965e+07
   1.0803601e-09  -3.5789821e-03   9.6470911e-01   7.3020672e-01  -1.1516647e+07
   1.0830277e-09  -3.5483922e-03   9.6363003e-01   7.3112822e-01  -1.1418181e+07
   1.0856952e-09  -3.5180639e-03   9.6256105e-01   7.3204275e-01  -1.1320558e+07
   1.0883628e-09  -3.4879948e-03   9.6150206e-01   7.3295035e-01  -1.1223773e+07
   1.0910303e-09  -3.4581828e-03   9.6045297e-01   7.3385106e-01  -1.1127816e+07
   1.0936979e-09  -3.4286257e-03   9.5941368e-01   7.3474493e-01  -1.1032682e+07
   1.0963655e-09  -3.3993213e-03   9.5838408e-01   7.3563201e-01  -1.0938363e+07
   1.0990330e-09  -3.3702674e-03   9.5736408e-01   7.3651233e-01  -1.0844852e+07
   1.1017006e-09  -3.3414619e-03   9.5635358e-01   7.3738595e-01  -1.0752142e+07
   1.1043681e-09  -3.3129026e-03   9.5535250e-01   7.3825290e-01  -1.0660226e+07
   1.1070357e-09  -3.2845875e-03   9.5436073e-01   7.3911324e-01  -1.0569098e+07
   1.1097032e-09  -3.2565144e-03   9.5337818e-01   7.3996699e-01  -1.0478750e+07
   1.1123708e-09  -3.2286813e-03   9.5240476e-01   7.4081422e-01  -1.0389176e+07
   1.1150383e-09  -3.2010861e-03   9.5144039e-01   7.4165496e-01  -1.0300369e+07
   1.1177059e-09  -3.1737268e-03   9.5048496e-01   7.4248925e-01  -1.0212322e+07
   1.1203735e-09  -3.1466014e-03   9.4953839e-01   7.4331714e-01  -1.0125030e+07
   1.1230410e-09  -3.1197078e-03   9.4860060e-01   7.4413866e-01  -1.0038484e+07
   1.1257086e-09  -3.0930441e-03   9.4767149e-01   7.4495388e-01  -9.9526799e+06
   1.1283761e-09  -3.0666083e-03   9.4675098e-01   7.4576281e-01  -9.8676101e+06
   1.1310437e-09  -3.0403985e-03   9.4583899e-01   7.4656551e-01  -9.7832684e+06
   1.1337112e-09  -3.0144126e-03   9.4493543e-01   7.4736203e-01  -9.6996488e+06
   1.1363788e-09  -2.9886489e-03   9.4404022e-01   7.4815239e-01  -9.6167448e+06
   1.1390463e-09  -2.9631054e-03   9.4315328e-01   7.4893665e-01  -9.5345504e+06
   1.1417139e-09  -2.9377802e-03   9.4227452e-01   7.4971484e-01  -9.4530595e+06
   1.1443815e-09  -2.9126715e-03   9.4140386e-01   7.5048700e-01  -9.3722659e+06
   1.1470490e-09  -2.8877774e-03   9.4054123e-01   7.5125319e-01  -9.2921637e+06
   1.1497166e-09  -2.8630960e-03   9.3968654e-01   7.5201343e-01  -9.2127470e+06
   1.1523841e-09  -2.8386255e-03   9.3883972e-01   7.5276777e-01  -9.1340097e+06
   1.1550517e-09  -2.8143642e-03   9.3800070e-01   7.5351625e-01  -9.0559462e+06
   1.1577192e-09  -2.7903103e-03   9.3716938e-01   7.5425891e-01  -8.9785505e+06
   1.1603868e-09  -2.7664619e-03   9.3634571e-01   7.5499579e-01  -8.9018169e+06
   1.1630544e-09  -2.7428174e-03   9.3552960e-01   7.5572694e-01  -8.8257398e+06
   1.1657219e-09  -2.7193749e-03   9.3472098e-01   7.5645238e-01  -8.7503135e+06
   1.1683895e-09  -2.6961327e-03   9.3391979e-01   7.5717216e-01  -8.6755323e+06
   1.1710570e-09  -2.6730892e-03   9.3312593e-01   7.5788632e-01  -8.6013909e+06
   1.1737246e-09  -2.6502426e-03   9.3233935e-01   7.5859490e-01  -8.5278836e+06
   1.1763921e-09  -2.6275913e-03   9.3155998e-01   7.5929793e-01  -8.4550049e+06
   1.1790597e-09  -2.6051335e-03   9.3078774e-01   7.5999547e-01  -8.3827496e+06
   1.1817272e-09  -2.5828677e-03   9.3002256e-01   7.6068754e-01  -8.3111123e+06
   1.1843948e-09  -2.5607921e-03   9.2926438e-01   7.6137418e-01  -8.2400875e+06
   1.1870624e-09  -2.5389052e-03   9.2851313e-01   7.6205543e-01  -8.1696702e+06
   1.1897299e-09  -2.5172053e-03   9.2776874e-01   7.6273134e-01  -8.0998550e+06
   1.1923975e-09  -2.4956909e-03   9.2703115e-01   7.6340193e-01  -8.0306368e+06
   1.1950650e-09  -2.4743603e-03   9.2630028e-01   7.6406725e-01  -7.9620105e+06
   1.1977326e-09  -2.4532120e-03   9.2557608e-01   7.6472733e-01  -7.8939709e+06
   1.2004001e-09  -2.4322444e-03   9.2485848e-01   7.6538221e-01  -7.8265131e+06
   1.2030677e-09  -2.4114560e-03   9.2414742e-01   7.6603193e-01  -7.7596321e+06
   1.2057352e-09  -2.3908453e-03   9.2344283e-01   7.6667653e-01  -7.6933228e+06
   1.2084028e-09  -2.3704106e-03   9.2274466e-01   7.6731603e-01  -7.6275805e+06
   1.2110704e-09  -2.3501506e-03   9.2205283e-01   7.6795049e-01  -7.5624002e+06
   1.2137379e-09  -2.3300637e-03   9.2136730e-01   7.6857993e-01  -7.4977771e+06
   1.2164055e-09  -2.3101485e-03   9.2068799e-01   7.6920439e-01  -7.4337064e+06
   1.2190730e-09  -2.2904035e-03   9.2001486e-01   7.6982390e-01  -7.3701835e+06
   1.2217406e-09  -2.2708271e-03   9.1934783e-01   7.7043851e-01  -7.3072036e+06
   1.2244081e-09  -2.2514181e-03   9.1868686e-01   7.7104824e-01  -7.2447620e+06
   1.2270757e-09  -2.2321749e-03   9.1803188e-01   7.7165314e-01  -7.1828541e+06
   1.2297432e-09  -2.2130962e-03   9.1738284e-01   7.7225323e-01  -7.1214754e+06
   1.2324108e-09  -2.1941804e-03   9.1673968e-01   7.7284856e-01  -7.0606214e+06
   1.2350784e-09  -2.1754264e-03   9.1610234e-01   7.7343916e-01  -7.0002874e+06
   1.2377459e-09  -2.1568325e-03   9.1547077e-01   7.7402506e-01  -6.9404692e+06
   1.2404135e-09  -2.1383976e-03   9.1484492e-01   7.7460629e-01  -6.8811622e+06
   1.2430810e-09  -2.1201202e-03   9.1422473e-01   7.7518290e-01  -6.8223620e+06
   1.2457486e-09  -2.1019990e-03   9.1361014e-01   7.7575491e-01  -6.7640644e+06
   1.2484161e-09  -2.0840326e-03   9.1300111e-01   7.7632235e-01  -6.7062650e+06
   1.2510837e-09  -2.0662197e-03   9.1239757e-01   7.7688527e-01  -6.6489596e+06
   1.2537513e-09  -2.0485591e-03   9.1179949e-01   7.7744370e-01  -6.5921439e+06
   1.2564188e-09  -2.0310494e-03   9.1120680e-01   7.7799766e-01  -6.5358138e+06
   1.2590864e-09  -2.0136893e-03   9.1061946e-01   7.7854720e-01  -6.4799650e+06
   1.2617539e-09  -1.9964775e-03   9.1003742e-01   7.7909234e-01  -6.4245935e+06
   1.2644215e-09  -1.9794128e-03   9.0946061e-01   7.7963311e-01  -6.3696951e+06
   1.2670890e-09  -1.9624939e-03   9.0888901e-01   7.8016956e-01  -6.3152659e+06
   1.2697566e-09  -1.9457196e-03   9.0832255e-01   7.8070170e-01  -6.2613018e+06
   1.2724241e-09  -1.9290886e-03   9.0776119e-01   7.8122958e-01  -6.2077988e+06
   1.2750917e-09  -1.9125998e-03   9.0720488e-01   7.8175322e-01  -6.1547529e+06
   1.2777593e-09  -1.8962518e-03   9.0665357e-01   7.8227266e-01  -6.1021604e+06
   1.2804268e-09  -1.8800436e-03   9.0610722e-01   7.8278793e-01  -6.0500172e+06
   1.2830944e-09  -1.8639738e-03   9.0556578e-01   7.8329906e-01  -5.9983195e+06
   1.2857619e-09  -1.8480414e-03   9.0502920e-01   7.8380608e-01  -5.9470636e+06
   1.2884295e-09  -1.8322451e-03   9.0449744e-01   7.8430902e-01  -5.8962457e+06
   1.2910970e-09  -1.8165838e-03   9.0397045e-01   7.8480790e-01  -5.8458619e+06
   1.2937646e-09  -1.8010563e-03   9.0344819e-01   7.8530278e-01  -5.7959086e+06
   1.2964321e-09  -1.7856614e-03   9.0293061e-01   7.8579366e-01  -5.7463821e+06
   1.2990997e-09  -1.7703982e-03   9.0241767e-01   7.8628059e-01  -5.6972788e+06
   1.3017673e-09  -1.7552654e-03   9.0190933e-01   7.8676358e-01  -5.6485950e+06
   1.3044348e-09  -1.7402618e-03   9.0140554e-01   7.8724268e-01  -5.6003271e+06
   1.3071024e-09  -1.7253865e-03   9.0090626e-01   7.8771791e-01  -5.5524717e+06
   1.3097699e-09  -1.7106383e-03   9.0041145e-01   7.8818930e-01  -5.5050251e+06
   1.3124375e-09  -1.6960161e-03   8.9992107e-01   7.8865688e-01  -5.4579838e+06
   1.3151050e-09  -1.6815189e-03   8.9943507e-01   7.8912068e-01  -5.4113445e+06
   1.3177726e-09  -1.6671456e-03   8.9895342e-01   7.8958073e-01  -5.3651036e+06
   1.3204401e-09  -1.6528950e-03   8.9847607e-01   7.9003705e-01  -5.3192578e+06
   1.3231077e-09  -1.6387663e-03   8.9800299e-01   7.9048968e-01  -5.2738036e+06
   1.3257753e-09  -1.6247583e-03   8.9753413e-01   7.9093864e-01  -5.2287378e+06
   1.3284428e-09  -1.6108699e-03   8.9706946e-01   7.9138395e-01  -5.1840570e+06
   1.3311104e-09  -1.5971003e-03   8.9660894e-01   7.9182566e-01  -5.1397579e+06
   1.3337779e-09  -1.5834483e-03   8.9615252e-01   7.9226378e-01  -5.0958372e+06
   1.3364455e-09  -1.5699130e-03   8.9570018e-01   7.9269835e-01  -5.0522918e+06
   1.3391130e-09  -1.5564934e-03   8.9525186e-01   7.9312938e-01  -5.0091184e+06
   1.3417806e-09  -1.5431884e-03   8.9480755e-01   7.9355692e-01  -4.9663138e+06
   1.3444481e-09  -1.5299971e-03   8.9436719e-01   7.9398097e-01  -4.9238749e+06
   1.3471157e-09  -1.5169186e-03   8.9393075e-01   7.9440158e-01  -4.8817985e+06
   1.3497833e-09  -1.5039518e-03   8.9349820e-01   7.9481877e-01  -4.8400816e+06
   1.3524508e-09  -1.4910958e-03   8.9306949e-01   7.9523256e-01  -4.7987211e+06
   1.3551184e-09  -1.4783497e-03   8.9264461e-01   7.9564297e-01  -4.7577139e+06
   1.3577859e-09  -1.4657125e-03   8.9222350e-01   7.9605005e-01  -4.7170570e+06
   1.3604535e-09  -1.4531832e-03   8.9180613e-01   7.9645381e-01  -4.6767474e+06
   1.3631210e-09  -1.4407611e-03   8.9139248e-01   7.9685427e-01  -4.6367822e+06
   1.3657886e-09  -1.4284451e-03   8.9098250e-01   7.9725147e-01  -4.5971584e+06
   1.3684562e-09  -1.4162344e-03   8.9057616e-01   7.9764543e-01  -4.5578732e+06
   1.3711237e-09  -1.4041280e-03   8.9017343e-01   7.9803617e-01  -4.5189235e+06
   1.3737913e-09  -1.3921250e-03   8.8977428e-01   7.9842371e-01  -4.4803065e+06
   1.3764588e-09  -1.3802247e-03   8.8937866e-01   7.9880809e-01  -4.4420194e+06
   1.3791264e-09  -1.3684260e-03   8.8898656e-01   7.9918933e-01  -4.4040595e+06
   1.3817939e-09  -1.3567282e-03   8.8859794e-01   7.9956745e-01  -4.3664237e+06
   1.3844615e-09  -1.3451303e-03   8.8821276e-01   7.9994248e-01  -4.3291095e+06
   1.3871290e-09  -1.3336315e-03   8.8783099e-01   8.0031444e-01  -4.2921141e+06
   1.3897966e-09  -1.3222310e-03   8.8745261e-01   8.0068335e-01  -4.2554347e+06
   1.3924642e-09  -1.3109279e-03   8.8707758e-01   8.0104924e-01  -4.2190686e+06
   1.3951317e-09  -1.2997215e-03   8.8670587e-01   8.0141214e-01  -4.1830132e+06
   1.3977993e-09  -1.2886108e-03   8.8633745e-01   8.0177205e-01  -4.1472658e+06
   1.4004668e-09  -1.2775950e-03   8.8597230e-01   8.0212902e-01  -4.1118238e+06
   1.4031344e-09  -1.2666734e-03   8.8561037e-01   8.0248306e-01  -4.0766845e+06
   1.4058019e-09  -1.2558451e-03   8.8525165e-01   8.0283419e-01  -4.0418455e+06
   1.4084695e-09  -1.2451093e-03   8.8489609e-01   8.0318245e-01  -4.0073040e+06
   1.4111370e-09  -1.2344653e-03   8.8454369e-01   8.0352784e-01  -3.9730576e+06
   1.4138046e-09  -1.2239123e-03   8.8419439e-01   8.0387039e-01  -3.9391038e+06
   1.4164722e-09  -1.2134495e-03   8.8384818e-01   8.0421013e-01  -3.9054400e+06
   1.4191397e-09  -1.2030760e-03   8.8350503e-01   8.0454708e-01  -3.8720638e+06
   1.4218073e-09  -1.1927912e-03   8.8316492e-01   8.0488125e-01  -3.8389728e+06
   1.4244748e-09  -1.1825944e-03   8.8282780e-01   8.0521268e-01  -3.8061644e+06
   1.4271424e-09  -1.1724846e-03   8.8249366e-01   8.0554137e-01  -3.7736363e+06
   1.4298099e-09  -1.1624613e-03   8.8216247e-01   8.0586737e-01  -3.7413861e+06
   1.4324775e-09  -1.1525236e-03   8.8183420e-01   8.0619068e-01  -3.7094113e+06
   1.4351450e-09  -1.1426708e-03   8.8150882e-01   8.0651132e-01  -3.6777097e+06
   1.4378126e-09  -1.1329023e-03   8.8118631e-01   8.0682932e-01  -3.6462790e+06
   1.4404802e-09  -1.1232172e-03   8.8086665e-01   8.0714471e-01  -3.6151167e+06
   1.4431477e-09  -1.1136150e-03   8.8054981e-01   8.0745749e-01  -3.5842207e+06
   1.4458153e-09  -1.1040947e-03   8.8023575e-01   8.0776769e-01  -3.5535886e+06
   1.4484828e-09  -1.0946559e-03   8.7992446e-01   8.0807533e-01  -3.5232182e+06
   1.4511504e-09  -1.0852977e-03   8.7961592e-01   8.0838043e-01  -3.4931072e+06
   1.4538179e-09  -1.0760195e-03   8.7931009e-01   8.0868302e-01  -3.4632535e+06
   1.4564855e-09  -1.0668205e-03   8.7900695e-01   8.0898310e-01  -3.4336548e+06
   1.4591531e-09  -1.0577003e-03   8.7870648e-01   8.0928071e-01  -3.4043090e+06
   1.4618206e-09  -1.0486579e-03   8.7840865e-01   8.0957585e-01  -3.3752138e+06
   1.4644882e-09  -1.0396928e-03   8.7811344e-01   8.0986856e-01  -3.3463673e+06
   1.4671557e-09  -1.0308044e-03   8.7782083e-01   8.1015885e-01  -3.3177671e+06
   1.4698233e-09  -1.0219919e-03   8.7753079e-01   8.1044673e-01  -3.2894113e+06
   1.4724908e-09  -1.0132547e-03   8.7724330e-01   8.1073224e-01  -3.2612978e+06
   1.4751584e-09  -1.0045922e-03   8.7695834e-01   8.1101538e-01  -3.2334244e+06
   1.4778259e-09  -9.9600379e-04   8.7667588e-01   8.1129618e-01  -3.2057891e+06
   1.4804935e-09  -9.8748874e-04   8.7639590e-01   8.1157465e-01  -3.1783900e+06
   1.4831611e-09  -9.7904646e-04   8.7611838e-01   8.1185081e-01  -3.1512249e+06
   1.4858286e-09  -9.7067634e-04   8.7584330e-01   8.1212469e-01  -3.1242918e+06
   1.4884962e-09  -9.6237776e-04   8.7557063e-01   8.1239630e-01  -3.0975889e+06
   1.4911637e-09  -9.5415011e-04   8.7530035e-01   8.1266566e-01  -3.0711141e+06
   1.4938313e-09  -9.4599277e-04   8.7503245e-01   8.1293278e-01  -3.0448655e+06
   1.4964988e-09  -9.3790516e-04   8.7476689e-01   8.1319769e-01  -3.0188412e+06
   1.4991664e-09  -9.2988667e-04   8.7450367e-01   8.1346040e-01  -2.9930392e+06
   1.5018339e-09  -9.2193672e-04   8.7424275e-01   8.1372093e-01  -2.9674576e+06
   1.5045015e-09  -9.1405471e-04   8.7398412e-01   8.1397929e-01  -2.9420946e+06
   1.5071691e-09  -9.0624007e-04   8.7372776e-01   8.1423551e-01  -2.9169482e+06
   1.5098366e-09  -8.9849223e-04   8.7347364e-01   8.1448961e-01  -2.8920167e+06
   1.5125042e-09  -8.9081060e-04   8.7322175e-01   8.1474159e-01  -2.8672982e+06
   1.5151717e-09  -8.8319464e-04   8.7297207e-01   8.1499148e-01  -2.8427909e+06
   1.5178393e-09  -8.7564377e-04   8.7272457e-01   8.1523929e-01  -2.8184930e+06
   1.5205068e-09  -8.6815743e-04   8.7247924e-01   8.1548504e-01  -2.7944026e+06
   1.5231744e-09  -8.6073509e-04   8.7223606e-01   8.1572875e-01  -2.7705181e+06
   1.5258419e-09  -8.5337618e-04   8.7199500e-01   8.1597043e-01  -2.7468376e+06
   1.5285095e-09  -8.4608018e-04   8.7175606e-01   8.1621010e-01  -2.7233595e+06
   1.5311771e-09  -8.3884653e-04   8.7151920e-01   8.1644778e-01  -2.7000820e+06
   1.5338446e-09  -8.3167472e-04   8.7128442e-01   8.1668348e-01  -2.6770033e+06
   1.5365122e-09  -8.2456420e-04   8.7105169e-01   8.1691721e-01  -2.6541218e+06
   1.5391797e-09  -8.1751446e-04   8.7082100e-01   8.1714900e-01  -2.6314358e+06
   1.5418473e-09  -8.1052498e-04   8.7059232e-01   8.1737886e-01  -2.6089437e+06
   1.5445148e-09  -8.0359525e-04   8.7036564e-01   8.1760680e-01  -2.5866437e+06
   1.5471824e-09  -7.9672474e-04   8.7014095e-01   8.1783285e-01  -2.5645342e+06
   1.5498499e-09  -7.8991296e-04   8.6991821e-01   8.1805701e-01  -2.5426137e+06
   1.5525175e-09  -7.8315941e-04   8.6969743e-01   8.1827930e-01  -2.5208804e+06
   1.5551851e-09  -7.7646358e-04   8.6947857e-01   8.1849974e-01  -2.4993328e+06
   1.5578526e-09  -7.6982498e-04   8.6926162e-01   8.1871833e-01  -2.4779694e+06
   1.5605202e-09  -7.6324313e-04   8.6904656e-01   8.1893511e-01  -2.4567884e+06
   1.5631877e-09  -7.5671754e-04   8.6883339e-01   8.1915008e-01  -2.4357885e+06
   1.5658553e-09  -7.5024773e-04   8.6862207e-01   8.1936325e-01  -2.4149680e+06
   1.5685228e-09  -7.4383322e-04   8.6841260e-01   8.1957464e-01  -2.3943253e+06
   1.5711904e-09  -7.3747354e-04   8.6820496e-01   8.1978427e-01  -2.3738591e+06
   1.5738580e-09  -7.3116822e-04   8.6799912e-01   8.1999214e-01  -2.3535677e+06
   1.5765255e-09  -7.2491680e-04   8.6779509e-01   8.2019828e-01  -2.3334497e+06
   1.5791931e-09  -7.1871882e-04   8.6759283e-01   8.2040270e-01  -2.3135036e+06
   1.5818606e-09  -7.1257382e-04   8.6739234e-01   8.2060541e-01  -2.2937280e+06
   1.5845282e-09  -7.0648134e-04   8.6719359e-01   8.2080643e-01  -2.2741213e+06
   1.5871957e-09  -7.0044094e-04   8.6699658e-01   8.2100576e-01  -2.2546821e+06
   1.5898633e-09  -6.9445217e-04   8.6680128e-01   8.2120343e-01  -2.2354091e+06
   1.5925308e-09  -6.8851460e-04   8.6660769e-01   8.2139945e-01  -2.2163007e+06
   1.5951984e-09  -6.8262778e-04   8.6641578e-01   8.2159382e-01  -2.1973556e+06
   1.5978660e-09  -6.7679129e-04   8.6622554e-01   8.2178657e-01  -2.1785724e+06
   1.6005335e-09  -6.7100468e-04   8.6603696e-01   8.2197771e-01  -2.1599496e+06
   1.6032011e-09  -6.6526754e-04   8.6585003e-01   8.2216725e-01  -2.1414860e+06
   1.6058686e-09  -6.5957944e-04   8.6566472e-01   8.2235520e-01  -2.1231802e+06
   1.6085362e-09  -6.5393996e-04   8.6548102e-01   8.2254157e-01  -2.1050308e+06
   1.6112037e-09  -6.4834869e-04   8.6529892e-01   8.2272639e-01  -2.0870365e+06
   1.6138713e-09  -6.4280522e-04   8.6511841e-01   8.2290966e-01  -2.0691960e+06
   1.6165388e-09  -6.3730913e-04   8.6493947e-01   8.2309139e-01  -2.0515079e+06
   1.6192064e-09  -6.3186003e-04   8.6476209e-01   8.2327160e-01  -2.0339709e+06
   1.6218740e-09  -6.2645751e-04   8.6458624e-01   8.2345030e-01  -2.0165838e+06
   1.6245415e-09  -6.2110117e-04   8.6441193e-01   8.2362750e-01  -1.9993453e+06
   1.6272091e-09  -6.1579062e-04   8.6423914e-01   8.2380322e-01  -1.9822541e+06
   1.6298766e-09  -6.1052546e-04   8.6406784e-01   8.2397746e-01  -1.9653089e+06
   1.6325442e-09  -6.0530531e-04   8.6389804e-01   8.2415024e-01  -1.9485086e+06
   1.6352117e-09  -6.0012979e-04   8.6372971e-01   8.2432157e-01  -1.9318518e+06
   1.6378793e-09  -5.9499851e-04   8.6356285e-01   8.2449147e-01  -1.9153373e+06
   1.6405468e-09  -5.8991110e-04   8.6339744e-01   8.2465994e-01  -1.8989640e+06
   1.6432144e-09  -5.8486717e-04   8.6323346e-01   8.2482700e-01  -1.8827306e+06
   1.6458820e-09  -5.7986637e-04   8.6307091e-01   8.2499265e-01  -1.8666359e+06
   1.6485495e-09  -5.7490831e-04   8.6290977e-01   8.2515691e-01  -1.8506787e+06
   1.6512171e-09  -5.6999264e-04   8.6275003e-01   8.2531980e-01  -1.8348579e+06
   1.6538846e-09  -5.6511899e-04   8.6259167e-01   8.2548131e-01  -1.8191723e+06
   1.6565522e-09  -5.6028701e-04   8.6243470e-01   8.2564147e-01  -1.8036208e+06
   1.6592197e-09  -5.5549633e-04   8.6227908e-01   8.2580029e-01  -1.7882021e+06
   1.6618873e-09  -5.5074660e-04   8.6212482e-01   8.2595777e-01  -1.7729153e+06
   1.6645549e-09  -5.4603748e-04   8.6197189e-01   8.2611393e-01  -1.7577590e+06
   1.6672224e-09  -5.4136862e-04   8.6182030e-01   8.2626877e-01  -1.7427323e+06
   1.6698900e-09  -5.3673967e-04   8.6167002e-01   8.2642232e-01  -1.7278340e+06
   1.6725575e-09  -5.3215030e-04   8.6152104e-01   8.2657457e-01  -1.7130630e+06
   1.6752251e-09  -5.2760015e-04   8.6137335e-01   8.2672554e-01  -1.6984183e+06
   1.6778926e-09  -5.2308891e-04   8.6122695e-01   8.2687524e-01  -1.6838987e+06
   1.6805602e-09  -5.1861623e-04   8.6108182e-01   8.2702369e-01  -1.6695031e+06
   1.6832277e-09  -5.1418179e-04   8.6093794e-01   8.2717088e-01  -1.6552307e+06
   1.6858953e-09  -5.0978526e-04   8.6079532e-01   8.2731684e-01  -1.6410802e+06
   1.6885629e-09  -5.0542631e-04   8.6065392e-01   8.2746157e-01  -1.6270506e+06
   1.6912304e-09  -5.0110463e-04   8.6051376e-01   8.2760508e-01  -1.6131409e+06
   1.6938980e-09  -4.9681989e-04   8.6037481e-01   8.2774739e-01  -1.5993501e+06
   1.6965655e-09  -4.9257179e-04   8.6023707e-01   8.2788849e-01  -1.5856771e+06
   1.6992331e-09  -4.8836000e-04   8.6010052e-01   8.2802841e-01  -1.5721211e+06
   1.7019006e-09  -4.8418422e-04   8.5996515e-01   8.2816715e-01  -1.5586808e+06
   1.7045682e-09  -4.8004414e-04   8.5983095e-01   8.2830472e-01  -1.5453555e+06
   1.7072357e-09  -4.7593945e-04   8.5969792e-01   8.2844114e-01  -1.5321440e+06
   1.7099033e-09  -4.7186986e-04   8.5956604e-01   8.2857640e-01  -1.5190454e+06
   1.7125709e-09  -4.6783505e-04   8.5943531e-01   8.2871053e-01  -1.5060588e+06
   1.7152384e-09  -4.6383474e-04   8.5930570e-01   8.2884352e-01  -1.4931831e+06
   1.7179060e-09  -4.5986863e-04   8.5917722e-01   8.2897539e-01  -1.4804176e+06
   1.7205735e-09  -4.5593643e-04   8.5904985e-01   8.2910616e-01  -1.4677611e+06
   1.7232411e-09  -4.5203785e-04   8.5892358e-01   8.2923582e-01  -1.4552128e+06
   1.7259086e-09  -4.4817259e-04   8.5879841e-01   8.2936439e-01  -1.4427717e+06
   1.7285762e-09  -4.4434038e-04   8.5867432e-01   8.2949187e-01  -1.4304370e+06
   1.7312437e-09  -4.4054094e-04   8.5855130e-01   8.2961828e-01  -1.4182076e+06
   1.7339113e-09  -4.3677397e-04   8.5842935e-01   8.2974362e-01  -1.4060828e+06
   1.7365789e-09  -4.3303922e-04   8.5830846e-01   8.2986791e-01  -1.3940617e+06
   1.7392464e-09  -4.2933639e-04   8.5818861e-01   8.2999115e-01  -1.3821433e+06
   1.7419140e-09  -4.2566522e-04   8.5806979e-01   8.3011334e-01  -1.3703267e+06
   1.7445815e-09  -4.2202543e-04   8.5795201e-01   8.3023451e-01  -1.3586111e+06
   1.7472491e-09  -4.1841677e-04   8.5783524e-01   8.3035466e-01  -1.3469957e+06
   1.7499166e-09  -4.1483895e-04   8.5771949e-01   8.3047379e-01  -1.3354796e+06
   1.7525842e-09  -4.1129173e-04   8.5760473e-01   8.3059191e-01  -1.3240619e+06
   1.7552518e-09  -4.0777483e-04   8.5749097e-01   8.3070904e-01  -1.3127417e+06
   1.7579193e-09  -4.0428800e-04   8.5737819e-01   8.3082518e-01  -1.3015183e+06
   1.7605869e-09  -4.0083098e-04   8.5726639e-01   8.3094034e-01  -1.2903909e+06
   1.7632544e-09  -3.9740351e-04   8.5715556e-01   8.3105453e-01  -1.2793586e+06
   1.7659220e-09  -3.9400536e-04   8.5704568e-01   8.3116775e-01  -1.2684205e+06
   1.7685895e-09  -3.9063625e-04   8.5693675e-01   8.3128002e-01  -1.2575760e+06
   1.7712571e-09  -3.8729595e-04   8.5682876e-01   8.3139134e-01  -1.2468241e+06
   1.7739246e-09  -3.8398420e-04   8.5672171e-01   8.3150171e-01  -1.2361642e+06
   1.7765922e-09  -3.8070077e-04   8.5661558e-01   8.3161116e-01  -1.2255953e+06
   1.7792598e-09  -3.7744542e-04   8.5651037e-01   8.3171968e-01  -1.2151168e+06
   1.7819273e-09  -3.7421789e-04   8.5640607e-01   8.3182728e-01  -1.2047279e+06
   1.7845949e-09  -3.7101796e-04   8.5630267e-01   8.3193398e-01  -1.1944277e+06
   1.7872624e-09  -3.6784539e-04   8.5620016e-01   8.3203977e-01  -1.1842156e+06
   1.7899300e-09  -3.6469995e-04   8.5609854e-01   8.3214467e-01  -1.1740908e+06
   1.7925975e-09  -3.6158139e-04   8.5599779e-01   8.3224868e-01  -1.1640525e+06
   1.7952651e-09  -3.5848950e-04   8.5589792e-01   8.3235182e-01  -1.1541001e+06
   1.7979326e-09  -3.5542405e-04   8.5579890e-01   8.3245408e-01  -1.1442327e+06
   1.8006002e-09  -3.5238480e-04   8.5570075e-01   8.3255547e-01  -1.1344496e+06
   1.8032678e-09  -3.4937154e-04   8.5560344e-01   8.3265601e-01  -1.1247502e+06
   1.8059353e-09  -3.4638405e-04   8.5550697e-01   8.3275570e-01  -1.1151337e+06
   1.8086029e-09  -3.4342209e-04   8.5541133e-01   8.3285454e-01  -1.1055994e+06
   1.8112704e-09  -3.4048546e-04   8.5531652e-01   8.3295255e-01  -1.0961465e+06
   1.8139380e-09  -3.3757394e-04   8.5522253e-01   8.3304973e-01  -1.0867745e+06
   1.8166055e-09  -3.3468731e-04   8.5512935e-01   8.3314609e-01  -1.0774826e+06
   1.8192731e-09  -3.3182537e-04   8.5503697e-01   8.3324163e-01  -1.0682701e+06
   1.8219406e-09  -3.2898789e-04   8.5494539e-01   8.3333637e-01  -1.0591364e+06
   1.8246082e-09  -3.2617467e-04   8.5485460e-01   8.3343030e-01  -1.0500807e+06
   1.8272758e-09  -3.2338551e-04   8.5476460e-01   8.3352344e-01  -1.0411025e+06
   1.8299433e-09  -3.2062019e-04   8.5467537e-01   8.3361579e-01  -1.0322010e+06
   1.8326109e-09  -3.1787852e-04   8.5458691e-01   8.3370735e-01  -1.0233755e+06
   1.8352784e-09  -3.1516029e-04   8.5449921e-01   8.3379815e-01  -1.0146256e+06
   1.8379460e-09  -3.1246530e-04   8.5441227e-01   8.3388817e-01  -1.0059504e+06
   1.8406135e-09  -3.0979335e-04   8.5432608e-01   8.3397743e-01  -9.9734938e+05
   1.8432811e-09  -3.0714425e-04   8.5424063e-01   8.3406593e-01  -9.8882188e+05
   1.8459486e-09  -3.0451779e-04   8.5415592e-01   8.3415369e-01  -9.8036728e+05
   1.8486162e-09  -3.0191380e-04   8.5407194e-01   8.3424070e-01  -9.7198495e+05
   1.8512838e-09  -2.9933207e-04   8.5398869e-01   8.3432698e-01  -9.6367427e+05
   1.8539513e-09  -2.9677241e-04   8.5390615e-01   8.3441252e-01  -9.5543464e+05
   1.8566189e-09  -2.9423464e-04   8.5382432e-01   8.3449734e-01  -9.4726544e+05
   1.8592864e-09  -2.9171857e-04   8.5374320e-01   8.3458144e-01  -9.3916608e+05
   1.8619540e-09  -2.8922401e-04   8.5366278e-01   8.3466483e-01  -9.3113595e+05
   1.8646215e-09  -2.8675078e-04   8.5358305e-01   8.3474751e-01  -9.2317447e+05
   1.8672891e-09  -2.8429870e-04   8.5350401e-01   8.3482950e-01  -9.1528105e+05
   1.8699567e-09  -2.8186758e-04   8.5342565e-01   8.3491078e-01  -9.0745510e+05
   1.8726242e-09  -2.7945726e-04   8.5334797e-01   8.3499138e-01  -8.9969606e+05
   1.8752918e-09  -2.7706753e-04   8.5327096e-01   8.3507129e-01  -8.9200334e+05
   1.8779593e-09  -2.7469825e-04   8.5319460e-01   8.3515053e-01  -8.8437639e+05
   1.8806269e-09  -2.7234922e-04   8.5311891e-01   8.3522910e-01  -8.7681463e+05
   1.8832944e-09  -2.7002027e-04   8.5304387e-01   8.3530699e-01  -8.6931752e+05
   1.8859620e-09  -2.6771124e-04   8.5296948e-01   8.3538423e-01  -8.6188450e+05
   1.8886295e-09  -2.6542196e-04   8.5289572e-01   8.3546082e-01  -8.5451502e+05
   1.8912971e-09  -2.6315224e-04   8.5282260e-01   8.3553675e-01  -8.4720854e+05
   1.8939647e-09  -2.6090194e-04   8.5275012e-01   8.3561204e-01  -8.3996452e+05
   1.8966322e-09  -2.5867087e-04   8.5267825e-01   8.3568669e-01  -8.3278243e+05
   1.8992998e-09  -2.5645888e-04   8.5260701e-01   8.3576071e-01  -8.2566174e+05
   1.9019673e-09  -2.5426581e-04   8.5253637e-01   8.3583410e-01  -8.1860192e+05
   1.9046349e-09  -2.5209149e-04   8.5246635e-01   8.3590687e-01  -8.1160245e+05
   1.9073024e-09  -2.4993576e-04   8.5239693e-01   8.3597902e-01  -8.0466282e+05
   1.9099700e-09  -2.4779846e-04   8.5232811e-01   8.3605056e-01  -7.9778252e+05
   1.9126375e-09  -2.4567943e-04   8.5225988e-01   8.3612149e-01  -7.9096104e+05
   1.9153051e-09  -2.4357853e-04   8.5219224e-01   8.3619182e-01  -7.8419787e+05
   1.9179727e-09  -2.4149559e-04   8.5212518e-01   8.3626155e-01  -7.7749253e+05
   1.9206402e-09  -2.3943046e-04   8.5205869e-01   8.3633069e-01  -7.7084450e+05
   1.9233078e-09  -2.3738299e-04   8.5199278e-01   8.3639925e-01  -7.6425332e+05
   1.9259753e-09  -2.3535302e-04   8.5192744e-01   8.3646722e-01  -7.5771847e+05
   1.9286429e-09  -2.3334042e-04   8.5186266e-01   8.3653462e-01  -7.5123950e+05
   1.9313104e-09  -2.3134502e-04   8.5179843e-01   8.3660144e-01  -7.4481592e+05
   1.9339780e-09  -2.2936668e-04   8.5173476e-01   8.3666769e-01  -7.3844725e+05
   1.9366455e-09  -2.2740526e-04   8.5167164e-01   8.3673339e-01  -7.3213303e+05
   1.9393131e-09  -2.2546061e-04   8.5160906e-01   8.3679852e-01  -7.2587279e+05
   1.9419807e-09  -2.2353259e-04   8.5154702e-01   8.3686311e-01  -7.1966607e+05
   1.9446482e-09  -2.2162106e-04   8.5148551e-01   8.3692714e-01  -7.1351241e+05
   1.9473158e-09  -2.1972587e-04   8.5142454e-01   8.3699063e-01  -7.0741136e+05
   1.9499833e-09  -2.1784688e-04   8.5136408e-01   8.3705358e-01  -7.0136248e+05
   1.9526509e-09  -2.1598396e-04   8.5130415e-01   8.3711600e-01  -6.9536530e+05
   1.9553184e-09  -2.1413698e-04   8.5124473e-01   8.3717788e-01  -6.8941940e+05
   1.9579860e-09  -2.1230578e-04   8.5118583e-01   8.3723925e-01  -6.8352433e+05
   1.9606536e-09  -2.1049024e-04   8.5112743e-01   8.3730008e-01  -6.7767966e+05
   1.9633211e-09  -2.0869023e-04   8.5106953e-01   8.3736041e-01  -6.7188496e+05
   1.9659887e-09  -2.0690561e-04   8.5101213e-01   8.3742022e-01  -6.6613980e+05
   1.9686562e-09  -2.0513625e-04   8.5095522e-01   8.3747952e-01  -6.6044376e+05
   1.9713238e-09  -2.0338202e-04   8.5089881e-01   8.3753832e-01  -6.5479641e+05
   1.9739913e-09  -2.0164279e-04   8.5084288e-01   8.3759662e-01  -6.4919735e+05
   1.9766589e-09  -1.9991843e-04   8.5078743e-01   8.3765442e-01  -6.4364616e+05
   1.9793264e-09  -1.9820881e-04   8.5073245e-01   8.3771173e-01  -6.3814243e+05
   1.9819940e-09  -1.9651382e-04   8.5067795e-01   8.3776856e-01  -6.3268575e+05
   1.9846616e-09  -1.9483331e-04   8.5062392e-01   8.3782490e-01  -6.2727572e+05
   1.9873291e-09  -1.9316718e-04   8.5057035e-01   8.3788076e-01  -6.2191195e+05
   1.9899967e-09  -1.9151530e-04   8.5051725e-01   8.3793615e-01  -6.1659403e+05
   1.9926642e-09  -1.8987753e-04   8.5046460e-01   8.3799107e-01  -6.1132159e+05
   1.9953318e-09  -1.8825378e-04   8.5041240e-01   8.3804552e-01  -6.0609422e+05
   1.9979993e-09  -1.8664391e-04   8.5036065e-01   8.3809951e-01  -6.0091154e+05
   2.0006669e-09  -1.8504780e-04   8.5030935e-01   8.3815303e-01  -5.9577317e+05
   2.0033344e-09  -1.8346534e-04   8.5025848e-01   8.3820611e-01  -5.9067873e+05
   2.0060020e-09  -1.8189642e-04   8.5020806e-01   8.3825873e-01  -5.8562785e+05
   2.0086696e-09  -1.8034091e-04   8.5015806e-01   8.3831090e-01  -5.8062016e+05
   2.0113371e-09  -1.7879870e-04   8.5010850e-01   8.3836264e-01  -5.7565527e+05
   2.0140047e-09  -1.7726968e-04   8.5005936e-01   8.3841393e-01  -5.7073284e+05
   2.0166722e-09  -1.7575373e-04   8.5001065e-01   8.3846478e-01  -5.6585249e+05
   2.0193398e-09  -1.7425075e-04   8.4996235e-01   8.3851520e-01  -5.6101387e+05
   2.0220073e-09  -1.7276062e-04   8.4991447e-01   8.3856520e-01  -5.5621662e+05
   2.0246749e-09  -1.7128323e-04   8.4986700e-01   8.3861477e-01  -5.5146039e+05
   2.0273424e-09  -1.6981847e-04   8.4981994e-01   8.3866391e-01  -5.4674482e+05
   2.0300100e-09  -1.6836624e-04   8.4977328e-01   8.3871264e-01  -5.4206956e+05
   2.0326776e-09  -1.6692643e-04   8.4972703e-01   8.3876096e-01  -5.3743428e+05
   2.0353451e-09  -1.6549893e-04   8.4968117e-01   8.3880886e-01  -5.3283864e+05
   2.0380127e-09  -1.6408363e-04   8.4963570e-01   8.3885636e-01  -5.2828228e+05
   2.0406802e-09  -1.6268044e-04   8.4959063e-01   8.3890345e-01  -5.2376488e+05
   2.0433478e-09  -1.6128925e-04   8.4954594e-01   8.3895014e-01  -5.1928611e+05
   2.0460153e-09  -1.5990995e-04   8.4950164e-01   8.3899643e-01  -5.1484563e+05
   2.0486829e-09  -1.5854245e-04   8.4945771e-01   8.3904233e-01  -5.1044311e+05
   2.0513505e-09  -1.5718664e-04   8.4941417e-01   8.3908784e-01  -5.0607824e+05
   2.0540180e-09  -1.5584243e-04   8.4937100e-01   8.3913296e-01  -5.0175068e+05
   2.0566856e-09  -1.5450971e-04   8.4932820e-01   8.3917770e-01  -4.9746013e+05
   2.0593531e-09  -1.5318838e-04   8.4928576e-01   8.3922206e-01  -4.9320627e+05
   2.0620207e-09  -1.5187836e-04   8.4924369e-01   8.3926604e-01  -4.8898877e+05
   2.0646882e-09  -1.5057954e-04   8.4920199e-01   8.3930965e-01  -4.8480733e+05
   2.0673558e-09  -1.4929182e-04   8.4916064e-01   8.3935288e-01  -4.8066165e+05
   2.0700233e-09  -1.4801511e-04   8.4911964e-01   8.3939575e-01  -4.7655141e+05
   2.0726909e-09  -1.4674933e-04   8.4907900e-01   8.3943825e-01  -4.7247632e+05
   2.0753585e-09  -1.4549436e-04   8.4903871e-01   8.3948039e-01  -4.6843607e+05
   2.0780260e-09  -1.4425013e-04   8.4899876e-01   8.3952217e-01  -4.6443036e+05
   2.0806936e-09  -1.4301654e-04   8.4895916e-01   8.3956359e-01  -4.6045890e+05
   2.0833611e-09  -1.4179350e-04   8.4891989e-01   8.3960467e-01  -4.5652140e+05
   2.0860287e-09  -1.4058091e-04   8.4888096e-01   8.3964539e-01  -4.5261757e+05
   2.0886962e-09  -1.3937870e-04   8.4884237e-01   8.3968577e-01  -4.4874712e+05
   2.0913638e-09  -1.3818676e-04   8.4880411e-01   8.3972580e-01  -4.4490975e+05
   2.0940313e-09  -1.3700502e-04   8.4876618e-01   8.3976549e-01  -4.4110521e+05
   2.0966989e-09  -1.3583338e-04   8.4872857e-01   8.3980484e-01  -4.3733319e+05
   2.0993665e-09  -1.3467176e-04   8.4869128e-01   8.3984386e-01  -4.3359342e+05
   2.1020340e-09  -1.3352008e-04   8.4865432e-01   8.3988255e-01  -4.2988563e+05
   2.1047016e-09  -1.3237824e-04   8.4861767e-01   8.3992090e-01  -4.2620954e+05
   2.1073691e-09  -1.3124617e-04   8.4858134e-01   8.3995894e-01  -4.2256488e+05
   2.1100367e-09  -1.3012378e-04   8.4854532e-01   8.3999664e-01  -4.1895139e+05
   2.1127042e-09  -1.2901099e-04   8.4850960e-01   8.4003403e-01  -4.1536880e+05
   2.1153718e-09  -1.2790771e-04   8.4847420e-01   8.4007109e-01  -4.1181683e+05
   2.1180393e-09  -1.2681387e-04   8.4843910e-01   8.4010784e-01  -4.0829524e+05
   2.1207069e-09  -1.2572938e-04   8.4840430e-01   8.4014428e-01  -4.0480376e+05
   2.1233745e-09  -1.2465416e-04   8.4836980e-01   8.4018041e-01  -4.0134213e+05
   2.1260420e-09  -1.2358814e-04   8.4833559e-01   8.4021623e-01  -3.9791010e+05
   2.1287096e-09  -1.2253124e-04   8.4830168e-01   8.4025174e-01  -3.9450742e+05
   2.1313771e-09  -1.2148337e-04   8.4826806e-01   8.4028696e-01  -3.9113383e+05
   2.1340447e-09  -1.2044446e-04   8.4823472e-01   8.4032187e-01  -3.8778909e+05
   2.1367122e-09  -1.1941444e-04   8.4820168e-01   8.4035648e-01  -3.8447295e+05
   2.1393798e-09  -1.1839323e-04   8.4816892e-01   8.4039080e-01  -3.8118516e+05
   2.1420473e-09  -1.1738075e-04   8.4813643e-01   8.4042483e-01  -3.7792549e+05
   2.1447149e-09  -1.1637693e-04   8.4810423e-01   8.4045857e-01  -3.7469369e+05
   2.1473825e-09  -1.1538169e-04   8.4807230e-01   8.4049202e-01  -3.7148952e+05
   2.1500500e-09  -1.1439496e-04   8.4804065e-01   8.4052518e-01  -3.6831275e+05
   2.1527176e-09  -1.1341667e-04   8.4800927e-01   8.4055806e-01  -3.6516314e+05
   2.1553851e-09  -1.1244674e-04   8.4797816e-01   8.4059067e-01  -3.6204046e+05
   2.1580527e-09  -1.1148511e-04   8.4794731e-01   8.4062299e-01  -3.5894449e+05
   2.1607202e-09  -1.1053171e-04   8.4791673e-01   8.4065504e-01  -3.5587498e+05
   2.1633878e-09  -1.0958645e-04   8.4788641e-01   8.4068682e-01  -3.5283173e+05
   2.1660554e-09  -1.0864928e-04   8.4785635e-01   8.4071832e-01  -3.4981449e+05
   2.1687229e-09  -1.0772013e-04   8.4782655e-01   8.4074956e-01  -3.4682306e+05
   2.1713905e-09  -1.0679892e-04   8.4779701e-01   8.4078053e-01  -3.4385720e+05
   2.1740580e-09  -1.0588559e-04   8.4776772e-01   8.4081123e-01  -3.4091671e+05
   2.1767256e-09  -1.0498006e-04   8.4773868e-01   8.4084168e-01  -3.3800136e+05
   2.1793931e-09  -1.0408229e-04   8.4770989e-01   8.4087186e-01  -3.3511093e+05
   2.1820607e-09  -1.0319218e-04   8.4768134e-01   8.4090179e-01  -3.3224523e+05
   2.1847282e-09  -1.0230969e-04   8.4765304e-01   8.4093146e-01  -3.2940402e+05
   2.1873958e-09  -1.0143475e-04   8.4762498e-01   8.4096088e-01  -3.2658711e+05
   2.1900634e-09  -1.0056729e-04   8.4759717e-01   8.4099005e-01  -3.2379429e+05
   2.1927309e-09  -9.9707249e-05   8.4756959e-01   8.4101897e-01  -3.2102535e+05
   2.1953985e-09  -9.8854561e-05   8.4754225e-01   8.4104764e-01  -3.1828008e+05
   2.1980660e-09  -9.8009165e-05   8.4751514e-01   8.4107607e-01  -3.1555829e+05
   2.2007336e-09  -9.7170998e-05   8.4748827e-01   8.4110426e-01  -3.1285978e+05
   2.2034011e-09  -9.6339999e-05   8.4746163e-01   8.4113221e-01  -3.1018433e+05
   2.2060687e-09  -9.5516107e-05   8.4743521e-01   8.4115992e-01  -3.0753177e+05
   2.2087362e-09  -9.4699260e-05   8.4740902e-01   8.4118739e-01  -3.0490189e+05
   2.2114038e-09  -9.3889398e-05   8.4738306e-01   8.4121462e-01  -3.0229449e+05
   2.2140714e-09  -9.3086462e-05   8.4735732e-01   8.4124163e-01  -2.9970939e+05
   2.2167389e-09  -9.2290392e-05   8.4733179e-01   8.4126841e-01  -2.9714640e+05
   2.2194065e-09  -9.1501130e-05   8.4730649e-01   8.4129495e-01  -2.9460532e+05
   2.2220740e-09  -9.0718618e-05   8.4728141e-01   8.4132127e-01  -2.9208597e+05
   2.2247416e-09  -8.9942797e-05   8.4725654e-01   8.4134737e-01  -2.8958817e+05
   2.2274091e-09  -8.9173610e-05   8.4723188e-01   8.4137324e-01  -2.8711172e+05
   2.2300767e-09  -8.8411002e-05   8.4720744e-01   8.4139889e-01  -2.8465645e+05
   2.2327442e-09  -8.7654915e-05   8.4718320e-01   8.4142433e-01  -2.8222217e+05
   2.2354118e-09  -8.6905294e-05   8.4715917e-01   8.4144955e-01  -2.7980871e+05
   2.2380794e-09  -8.6162083e-05   8.4713535e-01   8.4147455e-01  -2.7741588e+05
   2.2407469e-09  -8.5425228e-05   8.4711173e-01   8.4149934e-01  -2.7504352e+05
   2.2434145e-09  -8.4694675e-05   8.4708832e-01   8.4152391e-01  -2.7269145e+05
   2.2460820e-09  -8.3970368e-05   8.4706510e-01   8.4154828e-01  -2.7035948e+05
   2.2487496e-09  -8.3252256e-05   8.4704209e-01   8.4157244e-01  -2.6804746e+05
   2.2514171e-09  -8.2540285e-05   8.4701927e-01   8.4159640e-01  -2.6575521e+05
   2.2540847e-09  -8.1834402e-05   8.4699664e-01   8.4162015e-01  -2.6348255e+05
   2.2567523e-09  -8.1134556e-05   8.4697422e-01   8.4164369e-01  -2.6122934e+05
   2.2594198e-09  -8.0440695e-05   8.4695198e-01   8.4166704e-01  -2.5899539e+05
   2.2620874e-09  -7.9752768e-05   8.4692993e-01   8.4169019e-01  -2.5678054e+05
   2.2647549e-09  -7.9070723e-05   8.4690808e-01   8.4171313e-01  -2.5458463e+05
   2.2674225e-09  -7.8394511e-05   8.4688641e-01   8.4173589e-01  -2.5240750e+05
   2.2700900e-09  -7.7724082e-05   8.4686492e-01   8.4175845e-01  -2.5024899e+05
   2.2727576e-09  -7.7059386e-05   8.4684362e-01   8.4178081e-01  -2.4810893e+05
   2.2754251e-09  -7.6400374e-05   8.4682250e-01   8.4180299e-01  -2.4598718e+05
   2.2780927e-09  -7.5746998e-05   8.4680157e-01   8.4182498e-01  -2.4388356e+05
   2.2807603e-09  -7.5099210e-05   8.4678081e-01   8.4184678e-01  -2.4179794e+05
   2.2834278e-09  -7.4456961e-05   8.4676023e-01   8.4186839e-01  -2.3973015e+05
   2.2860954e-09  -7.3820205e-05   8.4673983e-01   8.4188982e-01  -2.3768004e+05
   2.2887629e-09  -7.3188894e-05   8.4671960e-01   8.4191107e-01  -2.3564747e+05
   2.2914305e-09  -7.2562982e-05   8.4669955e-01   8.4193213e-01  -2.3363227e+05
   2.2940980e-09  -7.1942422e-05   8.4667966e-01   8.4195302e-01  -2.3163431e+05
   2.2967656e-09  -7.1327170e-05   8.4665995e-01   8.4197372e-01  -2.2965343e+05
   2.2994331e-09  -7.0717178e-05   8.4664041e-01   8.4199425e-01  -2.2768949e+05
   2.3021007e-09  -7.0112404e-05   8.4662103e-01   8.4201461e-01  -2.2574235e+05
   2.3047683e-09  -6.9512801e-05   8.4660182e-01   8.4203479e-01  -2.2381185e+05
   2.3074358e-09  -6.8918326e-05   8.4658278e-01   8.4205480e-01  -2.2189787e+05
   2.3101034e-09  -6.8328935e-05   8.4656389e-01   8.4207464e-01  -2.2000025e+05
   2.3127709e-09  -6.7744584e-05   8.4654517e-01   8.4209431e-01  -2.1811885e+05
   2.3154385e-09  -6.7165230e-05   8.4652661e-01   8.4211381e-01  -2.1625355e+05
   2.3181060e-09  -6.6590831e-05   8.4650821e-01   8.4213314e-01  -2.1440420e+05
   2.3207736e-09  -6.6021344e-05   8.4648997e-01   8.4215231e-01  -2.1257066e+05
   2.3234411e-09  -6.5456727e-05   8.4647188e-01   8.4217132e-01  -2.1075280e+05
   2.3261087e-09  -6.4896938e-05   8.4645395e-01   8.4219016e-01  -2.0895049e+05
   2.3287763e-09  -6.4341937e-05   8.4643617e-01   8.4220885e-01  -2.0716358e+05
   2.3314438e-09  -6.3791682e-05   8.4641855e-01   8.4222737e-01  -2.0539196e+05
   2.3341114e-09  -6.3246133e-05   8.4640107e-01   8.4224574e-01  -2.0363549e+05
   2.3367789e-09  -6.2705249e-05   8.4638375e-01   8.4226395e-01  -2.0189404e+05
   2.3394465e-09  -6.2168990e-05   8.4636657e-01   8.4228200e-01  -2.0016748e+05
   2.3421140e-09  -6.1637318e-05   8.4634954e-01   8.4229990e-01  -1.9845568e+05
   2.3447816e-09  -6.1110192e-05   8.4633266e-01   8.4231765e-01  -1.9675852e+05
   2.3474491e-09  -6.0587575e-05   8.4631592e-01   8.4233524e-01  -1.9507588e+05
   2.3501167e-09  -6.0069426e-05   8.4629932e-01   8.4235269e-01  -1.9340763e+05
   2.3527843e-09  -5.9555709e-05   8.4628287e-01   8.4236998e-01  -1.9175364e+05
   2.3554518e-09  -5.9046385e-05   8.4626655e-01   8.4238713e-01  -1.9011379e+05
   2.3581194e-09  -5.8541417e-05   8.4625038e-01   8.4240413e-01  -1.8848797e+05
   2.3607869e-09  -5.8040767e-05   8.4623435e-01   8.4242099e-01  -1.8687605e+05
   2.3634545e-09  -5.7544398e-05   8.4621845e-01   8.4243770e-01  -1.8527791e+05
   2.3661220e-09  -5.7052275e-05   8.4620269e-01   8.4245427e-01  -1.8369344e+05
   2.3687896e-09  -5.6564360e-05   8.4618706e-01   8.4247070e-01  -1.8212253e+05
   2.3714572e-09  -5.6080617e-05   8.4617157e-01   8.4248699e-01  -1.8056504e+05
   2.3741247e-09  -5.5601012e-05   8.4615621e-01   8.4250314e-01  -1.7902087e+05
   2.3767923e-09  -5.5125508e-05   8.4614098e-01   8.4251915e-01  -1.7748991e+05
   2.3794598e-09  -5.4654070e-05   8.4612589e-01   8.4253503e-01  -1.7597204e+05
   2.3821274e-09  -5.4186664e-05   8.4611092e-01   8.4255077e-01  -1.7446715e+05
   2.3847949e-09  -5.3723256e-05   8.4609608e-01   8.4256637e-01  -1.7297513e+05
   2.3874625e-09  -5.3263810e-05   8.4608136e-01   8.4258184e-01  -1.7149587e+05
   2.3901300e-09  -5.2808293e-05   8.4606678e-01   8.4259718e-01  -1.7002926e+05
   2.3927976e-09  -5.2356672e-05   8.4605232e-01   8.4261239e-01  -1.6857518e+05
   2.3954652e-09  -5.1908914e-05   8.4603798e-01   8.4262747e-01  -1.6713355e+05
   2.3981327e-09  -5.1464984e-05   8.4602376e-01   8.4264242e-01  -1.6570424e+05
   2.4008003e-09  -5.1024851e-05   8.4600967e-01   8.4265724e-01  -1.6428716e+05
   2.4034678e-09  -5.0588482e-05   8.4599570e-01   8.4267194e-01  -1.6288219e+05
   2.4061354e-09  -5.0155844e-05   8.4598184e-01   8.4268651e-01  -1.6148924e+05
   2.4088029e-09  -4.9726907e-05   8.4596811e-01   8.4270096e-01  -1.6010820e+05
   2.4114705e-09  -4.9301637e-05   8.4595449e-01   8.4271528e-01  -1.5873897e+05
   2.4141380e-09  -4.8880005e-05   8.4594099e-01   8.4272948e-01  -1.5738145e+05
   2.4168056e-09  -4.8461978e-05   8.4592761e-01   8.4274356e-01  -1.5603553e+05
   2.4194732e-09  -4.8047527e-05   8.4591434e-01   8.4275752e-01  -1.5470113e+05
   2.4221407e-09  -4.7636619e-05   8.4590118e-01   8.4277136e-01  -1.5337814e+05
   2.4248083e-09  -4.7229226e-05   8.4588814e-01   8.4278508e-01  -1.5206646e+05
   2.4274758e-09  -4.6825317e-05   8.4587521e-01   8.4279868e-01  -1.5076600e+05
   2.4301434e-09  -4.6424861e-05   8.4586238e-01   8.4281217e-01  -1.4947666e+05
   2.4328109e-09  -4.6027831e-05   8.4584967e-01   8.4282554e-01  -1.4819835e+05
   2.4354785e-09  -4.5634196e-05   8.4583707e-01   8.4283880e-01  -1.4693097e+05
   2.4381460e-09  -4.5243927e-05   8.4582457e-01   8.4285195e-01  -1.4567442e+05
   2.4408136e-09  -4.4856996e-05   8.4581219e-01   8.4286498e-01  -1.4442862e+05
   2.4434812e-09  -4.4473374e-05   8.4579991e-01   8.4287790e-01  -1.4319348e+05
   2.4461487e-09  -4.4093032e-05   8.4578773e-01   8.4289072e-01  -1.4196890e+05
   2.4488163e-09  -4.3715944e-05   8.4577566e-01   8.4290342e-01  -1.4075479e+05
   2.4514838e-09  -4.3342080e-05   8.4576369e-01   8.4291601e-01  -1.3955106e+05
   2.4541514e-09  -4.2971413e-05   8.4575182e-01   8.4292850e-01  -1.3835762e+05
   2.4568189e-09  -4.2603916e-05   8.4574006e-01   8.4294088e-01  -1.3717440e+05
   2.4594865e-09  -4.2239562e-05   8.4572839e-01   8.4295315e-01  -1.3600129e+05
   2.4621541e-09  -4.1878324e-05   8.4571683e-01   8.4296532e-01  -1.3483821e+05
   2.4648216e-09  -4.1520176e-05   8.4570536e-01   8.4297739e-01  -1.3368508e+05
   2.4674892e-09  -4.1165090e-05   8.4569400e-01   8.4298935e-01  -1.3254181e+05
   2.4701567e-09  -4.0813041e-05   8.4568273e-01   8.4300121e-01  -1.3140831e+05
   2.4728243e-09  -4.0464002e-05   8.4567155e-01   8.4301297e-01  -1.3028452e+05
   2.4754918e-09  -4.0117949e-05   8.4566048e-01   8.4302462e-01  -1.2917033e+05
   2.4781594e-09  -3.9774855e-05   8.4564949e-01   8.4303618e-01  -1.2806566e+05
   2.4808269e-09  -3.9434695e-05   8.4563861e-01   8.4304764e-01  -1.2697045e+05
   2.4834945e-09  -3.9097444e-05   8.4562781e-01   8.4305900e-01  -1.2588460e+05
   2.4861621e-09  -3.8763077e-05   8.4561711e-01   8.4307027e-01  -1.2480804e+05
   2.4888296e-09  -3.8431570e-05   8.4560650e-01   8.4308144e-01  -1.2374068e+05
   2.4914972e-09  -3.8102898e-05   8.4559597e-01   8.4309251e-01  -1.2268245e+05
   2.4941647e-09  -3.7777037e-05   8.4558554e-01   8.4310349e-01  -1.2163327e+05
   2.4968323e-09  -3.7453962e-05   8.4557520e-01   8.4311438e-01  -1.2059307e+05
   2.4994998e-09  -3.7133651e-05   8.4556495e-01   8.4312517e-01  -1.1956176e+05
   2.5021674e-09  -3.6816078e-05   8.4555479e-01   8.4313587e-01  -1.1853926e+05
   2.5048349e-09  -3.6501222e-05   8.4554471e-01   8.4314648e-01  -1.1752552e+05
   2.5075025e-09  -3.6189058e-05   8.4553472e-01   8.4315699e-01  -1.1652044e+05
   2.5101701e-09  -3.5879564e-05   8.4552481e-01   8.4316742e-01  -1.1552396e+05
   2.5128376e-09  -3.5572717e-05   8.4551499e-01   8.4317776e-01  -1.1453599e+05
   2.5155052e-09  -3.5268494e-05   8.4550525e-01   8.4318801e-01  -1.1355648e+05
   2.5181727e-09  -3.4966872e-05   8.4549560e-01   8.4319817e-01  -1.1258535e+05
   2.5208403e-09  -3.4667830e-05   8.4548603e-01   8.4320825e-01  -1.1162251e+05
   2.5235078e-09  -3.4371346e-05   8.4547654e-01   8.4321824e-01  -1.1066792e+05
   2.5261754e-09  -3.4077396e-05   8.4546713e-01   8.4322814e-01  -1.0972148e+05
   2.5288429e-09  -3.3785961e-05   8.4545780e-01   8.4323796e-01  -1.0878314e+05
   2.5315105e-09  -3.3497018e-05   8.4544856e-01   8.4324770e-01  -1.0785283e+05
   2.5341781e-09  -3.3210547e-05   8.4543939e-01   8.4325735e-01  -1.0693047e+05
   2.5368456e-09  -3.2926525e-05   8.4543030e-01   8.4326692e-01  -1.0601600e+05
   2.5395132e-09  -3.2644932e-05   8.4542128e-01   8.4327641e-01  -1.0510934e+05
   2.5421807e-09  -3.2365747e-05   8.4541235e-01   8.4328582e-01  -1.0421045e+05
   2.5448483e-09  -3.2088950e-05   8.4540349e-01   8.4329515e-01  -1.0331924e+05
   2.5475158e-09  -3.1814520e-05   8.4539471e-01   8.4330439e-01  -1.0243565e+05
   2.5501834e-09  -3.1542437e-05   8.4538600e-01   8.4331356e-01  -1.0155961e+05
   2.5528510e-09  -3.1272681e-05   8.4537737e-01   8.4332265e-01  -1.0069107e+05
   2.5555185e-09  -3.1005232e-05   8.4536881e-01   8.4333167e-01  -9.9829958e+04
   2.5581861e-09  -3.0740070e-05   8.4536032e-01   8.4334060e-01  -9.8976208e+04
   2.5608536e-09  -3.0477176e-05   8.4535191e-01   8.4334946e-01  -9.8129759e+04
   2.5635212e-09  -3.0216530e-05   8.4534357e-01   8.4335824e-01  -9.7290549e+04
   2.5661887e-09  -2.9958113e-05   8.4533530e-01   8.4336695e-01  -9.6458516e+04
   2.5688563e-09  -2.9701906e-05   8.4532710e-01   8.4337559e-01  -9.5633598e+04
   2.5715238e-09  -2.9447890e-05   8.4531897e-01   8.4338415e-01  -9.4815735e+04
   2.5741914e-09  -2.9196047e-05   8.4531091e-01   8.4339263e-01  -9.4004866e+04
   2.5768590e-09  -2.8946357e-05   8.4530292e-01   8.4340105e-01  -9.3200932e+04
   2.5795265e-09  -2.8698803e-05   8.4529500e-01   8.4340939e-01  -9.2403872e+04
   2.5821941e-09  -2.8453366e-05   8.4528715e-01   8.4341766e-01  -9.1613629e+04
   2.5848616e-09  -2.8210028e-05   8.4527936e-01   8.4342586e-01  -9.0830144e+04
   2.5875292e-09  -2.7968770e-05   8.4527164e-01   8.4343400e-01  -9.0053359e+04
   2.5901967e-09  -2.7729576e-05   8.4526398e-01   8.4344206e-01  -8.9283217e+04
   2.5928643e-09  -2.7492428e-05   8.4525640e-01   8.4345005e-01  -8.8519662e+04
   2.5955318e-09  -2.7257308e-05   8.4524887e-01   8.4345797e-01  -8.7762636e+04
   2.5981994e-09  -2.7024199e-05   8.4524141e-01   8.4346583e-01  -8.7012084e+04
   2.6008670e-09  -2.6793083e-05   8.4523402e-01   8.4347362e-01  -8.6267950e+04
   2.6035345e-09  -2.6563943e-05   8.4522669e-01   8.4348134e-01  -8.5530181e+04
   2.6062021e-09  -2.6336764e-05   8.4521942e-01   8.4348900e-01  -8.4798721e+04
   2.6088696e-09  -2.6111527e-05   8.4521221e-01   8.4349659e-01  -8.4073516e+04
   2.6115372e-09  -2.5888216e-05   8.4520506e-01   8.4350412e-01  -8.3354513e+04
   2.6142047e-09  -2.5666815e-05   8.4519798e-01   8.4351158e-01  -8.2641658e+04
   2.6168723e-09  -2.5447308e-05   8.4519096e-01   8.4351898e-01  -8.1934901e+04
   2.6195398e-09  -2.5229678e-05   8.4518399e-01   8.4352631e-01  -8.1234187e+04
   2.6222074e-09  -2.5013909e-05   8.4517709e-01   8.4353358e-01  -8.0539465e+04
   2.6248750e-09  -2.4799985e-05   8.4517024e-01   8.4354079e-01  -7.9850685e+04
   2.6275425e-09  -2.4587891e-05   8.4516346e-01   8.4354794e-01  -7.9167795e+04
   2.6302101e-09  -2.4377610e-05   8.4515673e-01   8.4355503e-01  -7.8490746e+04
   2.6328776e-09  -2.4169128e-05   8.4515006e-01   8.4356206e-01  -7.7819486e+04
   2.6355452e-09  -2.3962429e-05   8.4514344e-01   8.4356902e-01  -7.7153967e+04
   2.6382127e-09  -2.3757498e-05   8.4513689e-01   8.4357593e-01  -7.6494139e+04
   2.6408803e-09  -2.3554319e-05   8.4513039e-01   8.4358278e-01  -7.5839954e+04
   2.6435478e-09  -2.3352878e-05   8.4512394e-01   8.4358957e-01  -7.5191364e+04
   2.6462154e-09  -2.3153160e-05   8.4511755e-01   8.4359630e-01  -7.4548320e+04
   2.6488830e-09  -2.2955149e-05   8.4511122e-01   8.4360298e-01  -7.3910776e+04
   2.6515505e-09  -2.2758832e-05   8.4510493e-01   8.4360959e-01  -7.3278683e+04
   2.6542181e-09  -2.2564194e-05   8.4509871e-01   8.4361615e-01  -7.2651997e+04
   2.6568856e-09  -2.2371221e-05   8.4509253e-01   8.4362266e-01  -7.2030670e+04
   2.6595532e-09  -2.2179898e-05   8.4508641e-01   8.4362911e-01  -7.1414656e+04
   2.6622207e-09  -2.1990211e-05   8.4508034e-01   8.4363550e-01  -7.0803911e+04
   2.6648883e-09  -2.1802146e-05   8.4507433e-01   8.4364184e-01  -7.0198388e+04
   2.6675559e-09  -2.1615690e-05   8.4506836e-01   8.4364813e-01  -6.9598044e+04
   2.6702234e-09  -2.1430828e-05   8.4506245e-01   8.4365436e-01  -6.9002834e+04
   2.6728910e-09  -2.1247547e-05   8.4505658e-01   8.4366054e-01  -6.8412714e+04
   2.6755585e-09  -2.1065834e-05   8.4505077e-01   8.4366666e-01  -6.7827641e+04
   2.6782261e-09  -2.0885674e-05   8.4504500e-01   8.4367273e-01  -6.7247572e+04
   2.6808936e-09  -2.0707056e-05   8.4503929e-01   8.4367876e-01  -6.6672463e+04
   2.6835612e-09  -2.0529965e-05   8.4503362e-01   8.4368472e-01  -6.6102272e+04
   2.6862287e-09  -2.0354388e-05   8.4502801e-01   8.4369064e-01  -6.5536958e+04
   2.6888963e-09  -2.0180313e-05   8.4502244e-01   8.4369651e-01  -6.4976478e+04
   2.6915639e-09  -2.0007727e-05   8.4501692e-01   8.4370233e-01  -6.4420792e+04
   2.6942314e-09  -1.9836617e-05   8.4501144e-01   8.4370810e-01  -6.3869858e+04
   2.6968990e-09  -1.9666970e-05   8.4500601e-01   8.4371382e-01  -6.3323635e+04
   2.6995665e-09  -1.9498774e-05   8.4500063e-01   8.4371949e-01  -6.2782084e+04
   2.7022341e-09  -1.9332016e-05   8.4499530e-01   8.4372511e-01  -6.2245164e+04
   2.7049016e-09  -1.9166685e-05   8.4499001e-01   8.4373068e-01  -6.1712835e+04
   2.7075692e-09  -1.9002767e-05   8.4498477e-01   8.4373621e-01  -6.1185059e+04
   2.7102367e-09  -1.8840251e-05   8.4497957e-01   8.4374169e-01  -6.0661797e+04
   2.7129043e-09  -1.8679125e-05   8.4497441e-01   8.4374712e-01  -6.0143010e+04
   2.7155719e-09  -1.8519377e-05   8.4496930e-01   8.4375250e-01  -5.9628659e+04
   2.7182394e-09  -1.8360996e-05   8.4496423e-01   8.4375784e-01  -5.9118707e+04
   2.7209070e-09  -1.8203969e-05   8.4495921e-01   8.4376314e-01  -5.8613116e+04
   2.7235745e-09  -1.8048284e-05   8.4495423e-01   8.4376838e-01  -5.8111849e+04
   2.7262421e-09  -1.7893931e-05   8.4494929e-01   8.4377359e-01  -5.7614868e+04
   2.7289096e-09  -1.7740899e-05   8.4494440e-01   8.4377875e-01  -5.7122138e+04
   2.7315772e-09  -1.7589175e-05   8.4493954e-01   8.4378386e-01  -5.6633622e+04
   2.7342447e-09  -1.7438748e-05   8.4493473e-01   8.4378893e-01  -5.6149284e+04
   2.7369123e-09  -1.7289608e-05   8.4492996e-01   8.4379396e-01  -5.5669087e+04
   2.7395799e-09  -1.7141743e-05   8.4492523e-01   8.4379895e-01  -5.5192998e+04
   2.7422474e-09  -1.6995144e-05   8.4492054e-01   8.4380389e-01  -5.4720979e+04
   2.7449150e-09  -1.6849797e-05   8.4491589e-01   8.4380879e-01  -5.4252998e+04
   2.7475825e-09  -1.6705694e-05   8.4491128e-01   8.4381365e-01  -5.3789019e+04
   2.7502501e-09  -1.6562823e-05   8.4490671e-01   8.4381846e-01  -5.3329007e+04
   2.7529176e-09  -1.6421174e-05   8.4490218e-01   8.4382324e-01  -5.2872930e+04
   2.7555852e-09  -1.6280737e-05   8.4489769e-01   8.4382797e-01  -5.2420753e+04
   2.7582528e-09  -1.6141500e-05   8.4489323e-01   8.4383267e-01  -5.1972443e+04
   2.7609203e-09  -1.6003454e-05   8.4488882e-01   8.4383732e-01  -5.1527967e+04
   2.7635879e-09  -1.5866589e-05   8.4488444e-01   8.4384194e-01  -5.1087292e+04
   2.7662554e-09  -1.5730895e-05   8.4488010e-01   8.4384651e-01  -5.0650386e+04
   2.7689230e-09  -1.5596360e-05   8.4487579e-01   8.4385105e-01  -5.0217216e+04
   2.7715905e-09  -1.5462977e-05   8.4487153e-01   8.4385554e-01  -4.9787751e+04
   2.7742581e-09  -1.5330734e-05   8.4486730e-01   8.4386000e-01  -4.9361959e+04
   2.7769256e-09  -1.5199622e-05   8.4486310e-01   8.4386442e-01  -4.8939808e+04
   2.7795932e-09  -1.5069631e-05   8.4485894e-01   8.4386881e-01  -4.8521267e+04
   2.7822608e-09  -1.4940752e-05   8.4485482e-01   8.4387315e-01  -4.8106306e+04
   2.7849283e-09  -1.4812975e-05   8.4485073e-01   8.4387746e-01  -4.7694893e+04
   2.7875959e-09  -1.4686291e-05   8.4484668e-01   8.4388173e-01  -4.7286999e+04
   2.7902634e-09  -1.4560691e-05   8.4484266e-01   8.4388596e-01  -4.6882593e+04
   2.7929310e-09  -1.4436164e-05   8.4483868e-01   8.4389016e-01  -4.6481646e+04
   2.7955985e-09  -1.4312703e-05   8.4483473e-01   8.4389433e-01  -4.6084127e+04
   2.7982661e-09  -1.4190297e-05   8.4483082e-01   8.4389845e-01  -4.5690009e+04
   2.8009336e-09  -1.4068939e-05   8.4482694e-01   8.4390254e-01  -4.5299260e+04
   2.8036012e-09  -1.3948618e-05   8.4482309e-01   8.4390660e-01  -4.4911854e+04
   2.8062688e-09  -1.3829326e-05   8.4481927e-01   8.4391062e-01  -4.4527760e+04
   2.8089363e-09  -1.3711054e-05   8.4481549e-01   8.4391461e-01  -4.4146951e+04
   2.8116039e-09  -1.3593794e-05   8.4481174e-01   8.4391856e-01  -4.3769400e+04
   2.8142714e-09  -1.3477537e-05   8.4480802e-01   8.4392248e-01  -4.3395076e+04
   2.8169390e-09  -1.3362274e-05   8.4480433e-01   8.4392637e-01  -4.3023954e+04
   2.8196065e-09  -1.3247996e-05   8.4480068e-01   8.4393022e-01  -4.2656006e+04
   2.8222741e-09  -1.3134696e-05   8.4479705e-01   8.4393404e-01  -4.2291205e+04
   2.8249416e-09  -1.3022365e-05   8.4479346e-01   8.4393783e-01  -4.1929524e+04
   2.8276092e-09  -1.2910995e-05   8.4478990e-01   8.4394159e-01  -4.1570935e+04
   2.8302768e-09  -1.2800577e-05   8.4478636e-01   8.4394531e-01  -4.1215414e+04
   2.8329443e-09  -1.2691103e-05   8.4478286e-01   8.4394900e-01  -4.0862932e+04
   2.8356119e-09  -1.2582566e-05   8.4477939e-01   8.4395266e-01  -4.0513466e+04
   2.8382794e-09  -1.2474957e-05   8.4477595e-01   8.4395629e-01  -4.0166987e+04
   2.8409470e-09  -1.2368268e-05   8.4477254e-01   8.4395989e-01  -3.9823472e+04
   2.8436145e-09  -1.2262492e-05   8.4476915e-01   8.4396345e-01  -3.9482895e+04
   2.8462821e-09  -1.2157620e-05   8.4476580e-01   8.4396699e-01  -3.9145230e+04
   2.8489496e-09  -1.2053645e-05   8.4476247e-01   8.4397050e-01  -3.8810454e+04
   2.8516172e-09  -1.1950559e-05   8.4475918e-01   8.4397397e-01  -3.8478540e+04
   2.8542848e-09  -1.1848355e-05   8.4475591e-01   8.4397742e-01  -3.8149465e+04
   2.8569523e-09  -1.1747025e-05   8.4475267e-01   8.4398083e-01  -3.7823204e+04
   2.8596199e-09  -1.1646562e-05   8.4474945e-01   8.4398422e-01  -3.7499733e+04
   2.8622874e-09  -1.1546957e-05   8.4474627e-01   8.4398758e-01  -3.7179028e+04
   2.8649550e-09  -1.1448205e-05   8.4474311e-01   8.4399091e-01  -3.6861067e+04
   2.8676225e-09  -1.1350297e-05   8.4473998e-01   8.4399421e-01  -3.6545824e+04
   2.8702901e-09  -1.1253226e-05   8.4473687e-01   8.4399748e-01  -3.6233278e+04
   2.8729577e-09  -1.1156986e-05   8.4473379e-01   8.4400073e-01  -3.5923404e+04
   2.8756252e-09  -1.1061569e-05   8.4473074e-01   8.4400395e-01  -3.5616181e+04
   2.8782928e-09  -1.0966967e-05   8.4472772e-01   8.4400714e-01  -3.5311584e+04
   2.8809603e-09  -1.0873175e-05   8.4472472e-01   8.4401030e-01  -3.5009593e+04
   2.8836279e-09  -1.0780185e-05   8.4472174e-01   8.4401343e-01  -3.4710185e+04
   2.8862954e-09  -1.0687990e-05   8.4471879e-01   8.4401654e-01  -3.4413337e+04
   2.8889630e-09  -1.0596584e-05   8.4471587e-01   8.4401963e-01  -3.4119028e+04
   2.8916305e-09  -1.0505959e-05   8.4471297e-01   8.4402268e-01  -3.3827235e+04
   2.8942981e-09  -1.0416110e-05   8.4471010e-01   8.4402571e-01  -3.3537938e+04
   2.8969657e-09  -1.0327028e-05   8.4470725e-01   8.4402872e-01  -3.3251116e+04
   2.8996332e-09  -1.0238709e-05   8.4470442e-01   8.4403169e-01  -3.2966746e+04
   2.9023008e-09  -1.0151145e-05   8.4470162e-01   8.4403465e-01  -3.2684808e+04
   2.9049683e-09  -1.0064330e-05   8.4469885e-01   8.4403757e-01  -3.2405281e+04
   2.9076359e-09  -9.9782572e-06   8.4469609e-01   8.4404048e-01  -3.2128145e+04
   2.9103034e-09  -9.8929206e-06   8.4469336e-01   8.4404335e-01  -3.1853379e+04
   2.9129710e-09  -9.8083138e-06   8.4469066e-01   8.4404621e-01  -3.1580963e+04
   2.9156385e-09  -9.7244306e-06   8.4468798e-01   8.4404904e-01  -3.1310877e+04
   2.9183061e-09  -9.6412648e-06   8.4468532e-01   8.4405184e-01  -3.1043100e+04
   2.9209737e-09  -9.5588103e-06   8.4468268e-01   8.4405462e-01  -3.0777613e+04
   2.9236412e-09  -9.4770609e-06   8.4468006e-01   8.4405738e-01  -3.0514397e+04
   2.9263088e-09  -9.3960106e-06   8.4467747e-01   8.4406011e-01  -3.0253432e+04
   2.9289763e-09  -9.3156535e-06   8.4467490e-01   8.4406282e-01  -2.9994699e+04
   2.9316439e-09  -9.2359836e-06   8.4467235e-01   8.4406551e-01  -2.9738178e+04
   2.9343114e-09  -9.1569951e-06   8.4466983e-01   8.4406817e-01  -2.9483852e+04
   2.9369790e-09  -9.0786821e-06   8.4466732e-01   8.4407081e-01  -2.9231700e+04
   2.9396465e-09  -9.0010389e-06   8.4466484e-01   8.4407343e-01  -2.8981705e+04
   2.9423141e-09  -8.9240597e-06   8.4466238e-01   8.4407602e-01  -2.8733847e+04
   2.9449817e-09  -8.8477388e-06   8.4465994e-01   8.4407860e-01  -2.8488110e+04
   2.9476492e-09  -8.7720706e-06   8.4465752e-01   8.4408115e-01  -2.8244474e+04
   2.9503168e-09  -8.6970496e-06   8.4465512e-01   8.4408368e-01  -2.8002921e+04
   2.9529843e-09  -8.6226702e-06   8.4465274e-01   8.4408619e-01  -2.7763435e+04
   2.9556519e-09  -8.5489268e-06   8.4465038e-01   8.4408867e-01  -2.7525996e+04
   2.9583194e-09  -8.4758142e-06   8.4464804e-01   8.4409114e-01  -2.7290589e+04
   2.9609870e-09  -8.4033268e-06   8.4464572e-01   8.4409358e-01  -2.7057194e+04
   2.9636546e-09  -8.3314593e-06   8.4464342e-01   8.4409601e-01  -2.6825795e+04
   2.9663221e-09  -8.2602065e-06   8.4464115e-01   8.4409841e-01  -2.6596376e+04
   2.9689897e-09  -8.1895630e-06   8.4463889e-01   8.4410079e-01  -2.6368918e+04
   2.9716572e-09  -8.1195237e-06   8.4463665e-01   8.4410316e-01  -2.6143406e+04
   2.9743248e-09  -8.0500834e-06   8.4463443e-01   8.4410550e-01  -2.5919822e+04
   2.9769923e-09  -7.9812370e-06   8.4463222e-01   8.4410782e-01  -2.5698150e+04
   2.9796599e-09  -7.9129793e-06   8.4463004e-01   8.4411012e-01  -2.5478375e+04
   2.9823274e-09  -7.8453054e-06   8.4462788e-01   8.4411240e-01  -2.5260478e+04
   2.9849950e-09  -7.7782103e-06   8.4462573e-01   8.4411467e-01  -2.5044445e+04
   2.9876626e-09  -7.7116890e-06   8.4462360e-01   8.4411691e-01  -2.4830260e+04
   2.9903301e-09  -7.6457366e-06   8.4462149e-01   8.4411913e-01  -2.4617907e+04
   2.9929977e-09  -7.5803482e-06   8.4461940e-01   8.4412134e-01  -2.4407369e+04
   2.9956652e-09  -7.5155190e-06   8.4461733e-01   8.4412352e-01  -2.4198632e+04
   2.9983328e-09  -7.4512443e-06   8.4461527e-01   8.4412569e-01  -2.3991681e+04
   3.0010003e-09  -7.3875192e-06   8.4461324e-01   8.4412784e-01  -2.3786499e+04
   3.0036679e-09  -7.3243392e-06   8.4461122e-01   8.4412997e-01  -2.3583072e+04
   3.0063354e-09  -7.2616995e-06   8.4460921e-01   8.4413208e-01  -2.3381384e+04
   3.0090030e-09  -7.1995955e-06   8.4460723e-01   8.4413418e-01  -2.3181422e+04
   3.0116706e-09  -7.1380226e-06   8.4460526e-01   8.4413625e-01  -2.2983169e+04
   3.0143381e-09  -7.0769763e-06   8.4460330e-01   8.4413831e-01  -2.2786612e+04
   3.0170057e-09  -7.0164521e-06   8.4460137e-01   8.4414035e-01  -2.2591736e+04
   3.0196732e-09  -6.9564455e-06   8.4459945e-01   8.4414238e-01  -2.2398527e+04
   3.0223408e-09  -6.8969521e-06   8.4459755e-01   8.4414438e-01  -2.2206970e+04
   3.0250083e-09  -6.8379675e-06   8.4459566e-01   8.4414637e-01  -2.2017051e+04
   3.0276759e-09  -6.7794873e-06   8.4459379e-01   8.4414835e-01  -2.1828757e+04
   3.0303434e-09  -6.7215073e-06   8.4459194e-01   8.4415030e-01  -2.1642073e+04
   3.0330110e-09  -6.6640231e-06   8.4459010e-01   8.4415224e-01  -2.1456985e+04
   3.0356786e-09  -6.6070306e-06   8.4458828e-01   8.4415416e-01  -2.1273480e+04
   3.0383461e-09  -6.5505254e-06   8.4458647e-01   8.4415607e-01  -2.1091545e+04
   3.0410137e-09  -6.4945036e-06   8.4458468e-01   8.4415796e-01  -2.0911165e+04
   3.0436812e-09  -6.4389608e-06   8.4458290e-01   8.4415983e-01  -2.0732329e+04
   3.0463488e-09  -6.3838930e-06   8.4458114e-01   8.4416169e-01  -2.0555021e+04
   3.0490163e-09  -6.3292962e-06   8.4457939e-01   8.4416353e-01  -2.0379230e+04
   3.0516839e-09  -6.2751663e-06   8.4457766e-01   8.4416535e-01  -2.0204943e+04
   3.0543515e-09  -6.2214994e-06   8.4457595e-01   8.4416716e-01  -2.0032146e+04
   3.0570190e-09  -6.1682914e-06   8.4457424e-01   8.4416896e-01  -1.9860826e+04
   3.0596866e-09  -6.1155385e-06   8.4457256e-01   8.4417074e-01  -1.9690972e+04
   3.0623541e-09  -6.0632367e-06   8.4457088e-01   8.4417250e-01  -1.9522571e+04
   3.0650217e-09  -6.0113822e-06   8.4456923e-01   8.4417425e-01  -1.9355609e+04
   3.0676892e-09  -5.9599712e-06   8.4456758e-01   8.4417598e-01  -1.9190076e+04
   3.0703568e-09  -5.9089999e-06   8.4456595e-01   8.4417770e-01  -1.9025958e+04
   3.0730243e-09  -5.8584645e-06   8.4456434e-01   8.4417941e-01  -1.8863244e+04
   3.0756919e-09  -5.8083612e-06   8.4456273e-01   8.4418110e-01  -1.8701921e+04
   3.0783595e-09  -5.7586865e-06   8.4456115e-01   8.4418277e-01  -1.8541978e+04
   3.0810270e-09  -5.7094366e-06   8.4455957e-01   8.4418443e-01  -1.8383403e+04
   3.0836946e-09  -5.6606079e-06   8.4455801e-01   8.4418608e-01  -1.8226184e+04
   3.0863621e-09  -5.6121968e-06   8.4455646e-01   8.4418771e-01  -1.8070310e+04
   3.0890297e-09  -5.5641997e-06   8.4455493e-01   8.4418933e-01  -1.7915769e+04
   3.0916972e-09  -5.5166131e-06   8.4455340e-01   8.4419094e-01  -1.7762549e+04
   3.0943648e-09  -5.4694335e-06   8.4455190e-01   8.4419253e-01  -1.7610640e+04
   3.0970323e-09  -5.4226574e-06   8.4455040e-01   8.4419410e-01  -1.7460030e+04
   3.0996999e-09  -5.3762813e-06   8.4454892e-01   8.4419567e-01  -1.7310708e+04
   3.1023675e-09  -5.3303018e-06   8.4454745e-01   8.4419722e-01  -1.7162663e+04
   3.1050350e-09  -5.2847155e-06   8.4454599e-01   8.4419876e-01  -1.7015884e+04
   3.1077026e-09  -5.2395192e-06   8.4454454e-01   8.4420028e-01  -1.6870360e+04
   3.1103701e-09  -5.1947093e-06   8.4454311e-01   8.4420179e-01  -1.6726081e+04
   3.1130377e-09  -5.1502827e-06   8.4454169e-01   8.4420329e-01  -1.6583036e+04
   3.1157052e-09  -5.1062360e-06   8.4454028e-01   8.4420478e-01  -1.6441214e+04
   3.1183728e-09  -5.0625660e-06   8.4453888e-01   8.4420625e-01  -1.6300605e+04
   3.1210403e-09  -5.0192695e-06   8.4453750e-01   8.4420771e-01  -1.6161198e+04
   3.1237079e-09  -4.9763433e-06   8.4453613e-01   8.4420916e-01  -1.6022984e+04
   3.1263755e-09  -4.9337842e-06   8.4453477e-01   8.4421059e-01  -1.5885952e+04
   3.1290430e-09  -4.8915890e-06   8.4453342e-01   8.4421201e-01  -1.5750092e+04
   3.1317106e-09  -4.8497548e-06   8.4453208e-01   8.4421343e-01  -1.5615393e+04
   3.1343781e-09  -4.8082783e-06   8.4453075e-01   8.4421482e-01  -1.5481847e+04
   3.1370457e-09  -4.7671565e-06   8.4452944e-01   8.4421621e-01  -1.5349443e+04
   3.1397132e-09  -4.7263864e-06   8.4452813e-01   8.4421759e-01  -1.5218171e+04
   3.1423808e-09  -4.6859650e-06   8.4452684e-01   8.4421895e-01  -1.5088021e+04
   3.1450483e-09  -4.6458893e-06   8.4452556e-01   8.4422030e-01  -1.4958985e+04
   3.1477159e-09  -4.6061563e-06   8.4452429e-01   8.4422164e-01  -1.4831052e+04
   3.1503835e-09  -4.5667631e-06   8.4452303e-01   8.4422297e-01  -1.4704214e+04
   3.1530510e-09  -4.5277068e-06   8.4452178e-01   8.4422429e-01  -1.4578460e+04
   3.1557186e-09  -4.4889846e-06   8.4452054e-01   8.4422559e-01  -1.4453782e+04
   3.1583861e-09  -4.4505935e-06   8.4451931e-01   8.4422689e-01  -1.4330170e+04
   3.1610537e-09  -4.4125307e-06   8.4451810e-01   8.4422817e-01  -1.4207615e+04
   3.1637212e-09  -4.3747934e-06   8.4451689e-01   8.4422944e-01  -1.4086108e+04
   3.1663888e-09  -4.3373789e-06   8.4451569e-01   8.4423071e-01  -1.3965640e+04
   3.1690564e-09  -4.3002844e-06   8.4451451e-01   8.4423196e-01  -1.3846203e+04
   3.1717239e-09  -4.2635071e-06   8.4451333e-01   8.4423320e-01  -1.3727787e+04
   3.1743915e-09  -4.2270444e-06   8.4451217e-01   8.4423443e-01  -1.3610384e+04
   3.1770590e-09  -4.1908934e-06   8.4451101e-01   8.4423565e-01  -1.3493985e+04
   3.1797266e-09  -4.1550517e-06   8.4450986e-01   8.4423686e-01  -1.3378581e+04
   3.1823941e-09  -4.1195165e-06   8.4450873e-01   8.4423805e-01  -1.3264164e+04
   3.1850617e-09  -4.0842852e-06   8.4450760e-01   8.4423924e-01  -1.3150726e+04
   3.1877292e-09  -4.0493551e-06   8.4450648e-01   8.4424042e-01  -1.3038258e+04
   3.1903968e-09  -4.0147239e-06   8.4450538e-01   8.4424159e-01  -1.2926752e+04
   3.1930644e-09  -3.9803888e-06   8.4450428e-01   8.4424275e-01  -1.2816199e+04
   3.1957319e-09  -3.9463473e-06   8.4450319e-01   8.4424389e-01  -1.2706592e+04
   3.1983995e-09  -3.9125970e-06   8.4450211e-01   8.4424503e-01  -1.2597922e+04
   3.2010670e-09  -3.8791353e-06   8.4450104e-01   8.4424616e-01  -1.2490182e+04
   3.2037346e-09  -3.8459598e-06   8.4449998e-01   8.4424728e-01  -1.2383363e+04
   3.2064021e-09  -3.8130680e-06   8.4449893e-01   8.4424839e-01  -1.2277457e+04
   3.2090697e-09  -3.7804575e-06   8.4449788e-01   8.4424949e-01  -1.2172457e+04
   3.2117372e-09  -3.7481259e-06   8.4449685e-01   8.4425058e-01  -1.2068356e+04
   3.2144048e-09  -3.7160708e-06   8.4449583e-01   8.4425166e-01  -1.1965144e+04
   3.2170724e-09  -3.6842899e-06   8.4449481e-01   8.4425273e-01  -1.1862816e+04
   3.2197399e-09  -3.6527807e-06   8.4449380e-01   8.4425380e-01  -1.1761362e+04
   3.2224075e-09  -3.6215410e-06   8.4449280e-01   8.4425485e-01  -1.1660776e+04
   3.2250750e-09  -3.5905685e-06   8.4449181e-01   8.4425589e-01  -1.1561050e+04
   3.2277426e-09  -3.5598609e-06   8.4449083e-01   8.4425693e-01  -1.1462177e+04
   3.2304101e-09  -3.5294159e-06   8.4448986e-01   8.4425796e-01  -1.1364150e+04
   3.2330777e-09  -3.4992313e-06   8.4448889e-01   8.4425897e-01  -1.1266961e+04
   3.2357452e-09  -3.4693048e-06   8.4448793e-01   8.4425998e-01  -1.1170603e+04
   3.2384128e-09  -3.4396343e-06   8.4448699e-01   8.4426098e-01  -1.1075070e+04
   3.2410804e-09  -3.4102175e-06   8.4448604e-01   8.4426198e-01  -1.0980353e+04
   3.2437479e-09  -3.3810523e-06   8.4448511e-01   8.4426296e-01  -1.0886447e+04
   3.2464155e-09  -3.3521365e-06   8.4448419e-01   8.4426394e-01  -1.0793343e+04
   3.2490830e-09  -3.3234680e-06   8.4448327e-01   8.4426490e-01  -1.0701036e+04
   3.2517506e-09  -3.2950447e-06   8.4448236e-01   8.4426586e-01  -1.0609518e+04
   3.2544181e-09  -3.2668645e-06   8.4448146e-01   8.4426681e-01  -1.0518783e+04
   3.2570857e-09  -3.2389252e-06   8.4448057e-01   8.4426775e-01  -1.0428824e+04
   3.2597533e-09  -3.2112250e-06   8.4447968e-01   8.4426869e-01  -1.0339634e+04
   3.2624208e-09  -3.1837616e-06   8.4447880e-01   8.4426961e-01  -1.0251207e+04
   3.2650884e-09  -3.1565331e-06   8.4447793e-01   8.4427053e-01  -1.0163536e+04
   3.2677559e-09  -3.1295375e-06   8.4447707e-01   8.4427144e-01  -1.0076615e+04
   3.2704235e-09  -3.1027727e-06   8.4447621e-01   8.4427235e-01  -9.9904374e+03
   3.2730910e-09  -3.0762368e-06   8.4447536e-01   8.4427324e-01  -9.9049967e+03
   3.2757586e-09  -3.0499279e-06   8.4447452e-01   8.4427413e-01  -9.8202868e+03
   3.2784261e-09  -3.0238440e-06   8.4447369e-01   8.4427501e-01  -9.7363013e+03
   3.2810937e-09  -2.9979831e-06   8.4447286e-01   8.4427588e-01  -9.6530341e+03
   3.2837613e-09  -2.9723435e-06   8.4447204e-01   8.4427674e-01  -9.5704790e+03
   3.2864288e-09  -2.9469231e-06   8.4447123e-01   8.4427760e-01  -9.4886300e+03
   3.2890964e-09  -2.9217201e-06   8.4447042e-01   8.4427845e-01  -9.4074809e+03
   3.2917639e-09  -2.8967326e-06   8.4446962e-01   8.4427929e-01  -9.3270258e+03
   3.2944315e-09  -2.8719589e-06   8.4446883e-01   8.4428013e-01  -9.2472588e+03
   3.2970990e-09  -2.8473970e-06   8.4446805e-01   8.4428096e-01  -9.1681740e+03
   3.2997666e-09  -2.8230452e-06   8.4446727e-01   8.4428178e-01  -9.0897655e+03
   3.3024341e-09  -2.7989016e-06   8.4446650e-01   8.4428259e-01  -9.0120276e+03
   3.3051017e-09  -2.7749645e-06   8.4446573e-01   8.4428340e-01  -8.9349546e+03
   3.3077693e-09  -2.7512322e-06   8.4446497e-01   8.4428420e-01  -8.8585407e+03
   3.3104368e-09  -2.7277028e-06   8.4446422e-01   8.4428500e-01  -8.7827802e+03
   3.3131044e-09  -2.7043746e-06   8.4446347e-01   8.4428578e-01  -8.7076677e+03
   3.3157719e-09  -2.6812459e-06   8.4446273e-01   8.4428656e-01  -8.6331976e+03
   3.3184395e-09  -2.6583151e-06   8.4446200e-01   8.4428734e-01  -8.5593644e+03
   3.3211070e-09  -2.6355803e-06   8.4446127e-01   8.4428810e-01  -8.4861626e+03
   3.3237746e-09  -2.6130400e-06   8.4446055e-01   8.4428886e-01  -8.4135869e+03
   3.3264421e-09  -2.5906925e-06   8.4445984e-01   8.4428962e-01  -8.3416318e+03
   3.3291097e-09  -2.5685361e-06   8.4445913e-01   8.4429036e-01  -8.2702921e+03
   3.3317773e-09  -2.5465691e-06   8.4445843e-01   8.4429111e-01  -8.1995625e+03
   3.3344448e-09  -2.5247901e-06   8.4445773e-01   8.4429184e-01  -8.1294378e+03
   3.3371124e-09  -2.5031973e-06   8.4445704e-01   8.4429257e-01  -8.0599129e+03
   3.3397799e-09  -2.4817891e-06   8.4445636e-01   8.4429329e-01  -7.9909825e+03
   3.3424475e-09  -2.4605641e-06   8.4445568e-01   8.4429401e-01  -7.9226416e+03
   3.3451150e-09  -2.4395206e-06   8.4445500e-01   8.4429472e-01  -7.8548852e+03
   3.3477826e-09  -2.4186570e-06   8.4445434e-01   8.4429542e-01  -7.7877083e+03
   3.3504502e-09  -2.3979719e-06   8.4445368e-01   8.4429612e-01  -7.7211059e+03
   3.3531177e-09  -2.3774637e-06   8.4445302e-01   8.4429681e-01  -7.6550731e+03
   3.3557853e-09  -2.3571308e-06   8.4445237e-01   8.4429749e-01  -7.5896050e+03
   3.3584528e-09  -2.3369719e-06   8.4445173e-01   8.4429817e-01  -7.5246968e+03
   3.3611204e-09  -2.3169854e-06   8.4445109e-01   8.4429885e-01  -7.4603437e+03
   3.3637879e-09  -2.2971698e-06   8.4445045e-01   8.4429952e-01  -7.3965410e+03
   3.3664555e-09  -2.2775236e-06   8.4444982e-01   8.4430018e-01  -7.3332839e+03
   3.3691230e-09  -2.2580455e-06   8.4444920e-01   8.4430084e-01  -7.2705679e+03
   3.3717906e-09  -2.2387340e-06   8.4444858e-01   8.4430149e-01  -7.2083881e+03
   3.3744582e-09  -2.2195876e-06   8.4444797e-01   8.4430213e-01  -7.1467402e+03
   3.3771257e-09  -2.2006050e-06   8.4444737e-01   8.4430277e-01  -7.0856195e+03
   3.3797933e-09  -2.1817847e-06   8.4444676e-01   8.4430341e-01  -7.0250215e+03
   3.3824608e-09  -2.1631254e-06   8.4444617e-01   8.4430404e-01  -6.9649417e+03
   3.3851284e-09  -2.1446256e-06   8.4444558e-01   8.4430466e-01  -6.9053758e+03
   3.3877959e-09  -2.1262841e-06   8.4444499e-01   8.4430528e-01  -6.8463193e+03
   3.3904635e-09  -2.1080994e-06   8.4444441e-01   8.4430589e-01  -6.7877679e+03
   3.3931310e-09  -2.0900702e-06   8.4444383e-01   8.4430650e-01  -6.7297172e+03
   3.3957986e-09  -2.0721953e-06   8.4444326e-01   8.4430711e-01  -6.6721629e+03
   3.3984662e-09  -2.0544732e-06   8.4444269e-01   8.4430770e-01  -6.6151009e+03
   3.4011337e-09  -2.0369027e-06   8.4444213e-01   8.4430830e-01  -6.5585269e+03
   3.4038013e-09  -2.0194824e-06   8.4444157e-01   8.4430888e-01  -6.5024367e+03
   3.4064688e-09  -2.0022111e-06   8.4444102e-01   8.4430947e-01  -6.4468262e+03
   3.4091364e-09  -1.9850876e-06   8.4444047e-01   8.4431004e-01  -6.3916913e+03
   3.4118039e-09  -1.9681104e-06   8.4443993e-01   8.4431062e-01  -6.3370280e+03
   3.4144715e-09  -1.9512785e-06   8.4443939e-01   8.4431118e-01  -6.2828321e+03
   3.4171390e-09  -1.9345905e-06   8.4443886e-01   8.4431175e-01  -6.2290997e+03
   3.4198066e-09  -1.9180453e-06   8.4443833e-01   8.4431230e-01  -6.1758269e+03
   3.4224742e-09  -1.9016415e-06   8.4443781e-01   8.4431286e-01  -6.1230096e+03
   3.4251417e-09  -1.8853781e-06   8.4443729e-01   8.4431341e-01  -6.0706441e+03
   3.4278093e-09  -1.8692537e-06   8.4443677e-01   8.4431395e-01  -6.0187264e+03
   3.4304768e-09  -1.8532672e-06   8.4443626e-01   8.4431449e-01  -5.9672527e+03
   3.4331444e-09  -1.8374174e-06   8.4443575e-01   8.4431502e-01  -5.9162193e+03
   3.4358119e-09  -1.8217032e-06   8.4443525e-01   8.4431555e-01  -5.8656223e+03
   3.4384795e-09  -1.8061234e-06   8.4443475e-01   8.4431608e-01  -5.8154580e+03
   3.4411470e-09  -1.7906768e-06   8.4443426e-01   8.4431660e-01  -5.7657227e+03
   3.4438146e-09  -1.7753624e-06   8.4443377e-01   8.4431712e-01  -5.7164127e+03
   3.4464822e-09  -1.7601789e-06   8.4443328e-01   8.4431763e-01  -5.6675245e+03
   3.4491497e-09  -1.7451252e-06   8.4443280e-01   8.4431814e-01  -5.6190544e+03
   3.4518173e-09  -1.7302003e-06   8.4443232e-01   8.4431864e-01  -5.5709988e+03
   3.4544848e-09  -1.7154031e-06   8.4443185e-01   8.4431914e-01  -5.5233542e+03
   3.4571524e-09  -1.7007324e-06   8.4443138e-01   8.4431963e-01  -5.4761170e+03
   3.4598199e-09  -1.6861871e-06   8.4443092e-01   8.4432012e-01  -5.4292839e+03
   3.4624875e-09  -1.6717663e-06   8.4443045e-01   8.4432061e-01  -5.3828512e+03
   3.4651551e-09  -1.6574688e-06   8.4443000e-01   8.4432109e-01  -5.3368157e+03
   3.4678226e-09  -1.6432936e-06   8.4442954e-01   8.4432157e-01  -5.2911739e+03
   3.4704902e-09  -1.6292396e-06   8.4442910e-01   8.4432205e-01  -5.2459224e+03
   3.4731577e-09  -1.6153057e-06   8.4442865e-01   8.4432252e-01  -5.2010579e+03
   3.4758253e-09  -1.6014911e-06   8.4442821e-01   8.4432298e-01  -5.1565771e+03
   3.4784928e-09  -1.5877946e-06   8.4442777e-01   8.4432344e-01  -5.1124768e+03
   3.4811604e-09  -1.5742152e-06   8.4442734e-01   8.4432390e-01  -5.0687535e+03
   3.4838279e-09  -1.5607520e-06   8.4442691e-01   8.4432436e-01  -5.0254042e+03
   3.4864955e-09  -1.5474039e-06   8.4442648e-01   8.4432481e-01  -4.9824257e+03
   3.4891631e-09  -1.5341700e-06   8.4442606e-01   8.4432525e-01  -4.9398147e+03
   3.4918306e-09  -1.5210492e-06   8.4442564e-01   8.4432569e-01  -4.8975681e+03
   3.4944982e-09  -1.5080407e-06   8.4442522e-01   8.4432613e-01  -4.8556828e+03
   3.4971657e-09  -1.4951434e-06   8.4442481e-01   8.4432657e-01  -4.8141558e+03
   3.4998333e-09  -1.4823564e-06   8.4442440e-01   8.4432700e-01  -4.7729838e+03
   3.5025008e-09  -1.4696788e-06   8.4442399e-01   8.4432743e-01  -4.7321640e+03
   3.5051684e-09  -1.4571096e-06   8.4442359e-01   8.4432785e-01  -4.6916933e+03
   3.5078359e-09  -1.4446479e-06   8.4442319e-01   8.4432827e-01  -4.6515688e+03
   3.5105035e-09  -1.4322928e-06   8.4442280e-01   8.4432869e-01  -4.6117873e+03
   3.5131711e-09  -1.4200433e-06   8.4442241e-01   8.4432910e-01  -4.5723461e+03
   3.5158386e-09  -1.4078986e-06   8.4442202e-01   8.4432951e-01  -4.5332422e+03
   3.5185062e-09  -1.3958578e-06   8.4442163e-01   8.4432992e-01  -4.4944727e+03
   3.5211737e-09  -1.3839199e-06   8.4442125e-01   8.4433032e-01  -4.4560348e+03
   3.5238413e-09  -1.3720841e-06   8.4442087e-01   8.4433072e-01  -4.4179257e+03
   3.5265088e-09  -1.3603496e-06   8.4442050e-01   8.4433112e-01  -4.3801424e+03
   3.5291764e-09  -1.3487154e-06   8.4442013e-01   8.4433151e-01  -4.3426823e+03
   3.5318439e-09  -1.3371807e-06   8.4441976e-01   8.4433190e-01  -4.3055425e+03
   3.5345115e-09  -1.3257447e-06   8.4441939e-01   8.4433228e-01  -4.2687204e+03
   3.5371791e-09  -1.3144064e-06   8.4441903e-01   8.4433266e-01  -4.2322131e+03
   3.5398466e-09  -1.3031652e-06   8.4441867e-01   8.4433304e-01  -4.1960181e+03
   3.5425142e-09  -1.2920200e-06   8.4441831e-01   8.4433342e-01  -4.1601327e+03
   3.5451817e-09  -1.2809702e-06   8.4441796e-01   8.4433379e-01  -4.1245541e+03
   3.5478493e-09  -1.2700149e-06   8.4441761e-01   8.4433416e-01  -4.0892799e+03
   3.5505168e-09  -1.2591533e-06   8.4441726e-01   8.4433453e-01  -4.0543073e+03
   3.5531844e-09  -1.2483845e-06   8.4441692e-01   8.4433489e-01  -4.0196337e+03
   3.5558520e-09  -1.2377079e-06   8.4441658e-01   8.4433525e-01  -3.9852568e+03
   3.5585195e-09  -1.2271226e-06   8.4441624e-01   8.4433561e-01  -3.9511738e+03
   3.5611871e-09  -1.2166278e-06   8.4441590e-01   8.4433596e-01  -3.9173823e+03
   3.5638546e-09  -1.2062228e-06   8.4441557e-01   8.4433631e-01  -3.8838798e+03
   3.5665222e-09  -1.1959067e-06   8.4441524e-01   8.4433666e-01  -3.8506638e+03
   3.5691897e-09  -1.1856789e-06   8.4441491e-01   8.4433701e-01  -3.8177319e+03
   3.5718573e-09  -1.1755385e-06   8.4441459e-01   8.4433735e-01  -3.7850817e+03
   3.5745248e-09  -1.1654849e-06   8.4441427e-01   8.4433769e-01  -3.7527106e+03
   3.5771924e-09  -1.1555173e-06   8.4441395e-01   8.4433802e-01  -3.7206165e+03
   3.5798600e-09  -1.1456348e-06   8.4441363e-01   8.4433836e-01  -3.6887968e+03
   3.5825275e-09  -1.1358370e-06   8.4441332e-01   8.4433869e-01  -3.6572492e+03
   3.5851951e-09  -1.1261229e-06   8.4441301e-01   8.4433902e-01  -3.6259714e+03
   3.5878626e-09  -1.1164919e-06   8.4441270e-01   8.4433934e-01  -3.5949611e+03
   3.5905302e-09  -1.1069432e-06   8.4441239e-01   8.4433966e-01  -3.5642161e+03
   3.5931977e-09  -1.0974762e-06   8.4441209e-01   8.4433998e-01  -3.5337339e+03
   3.5958653e-09  -1.0880902e-06   8.4441179e-01   8.4434030e-01  -3.5035125e+03
   3.5985328e-09  -1.0787845e-06   8.4441149e-01   8.4434061e-01  -3.4735495e+03
   3.6012004e-09  -1.0695583e-06   8.4441120e-01   8.4434092e-01  -3.4438428e+03
   3.6038680e-09  -1.0604110e-06   8.4441091e-01   8.4434123e-01  -3.4143901e+03
   3.6065355e-09  -1.0513420e-06   8.4441062e-01   8.4434154e-01  -3.3851893e+03
   3.6092031e-09  -1.0423505e-06   8.4441033e-01   8.4434184e-01  -3.3562383e+03
   3.6118706e-09  -1.0334360e-06   8.4441004e-01   8.4434214e-01  -3.3275348e+03
   3.6145382e-09  -1.0245976e-06   8.4440976e-01   8.4434244e-01  -3.2990768e+03
   3.6172057e-09  -1.0158349e-06   8.4440948e-01   8.4434274e-01  -3.2708622e+03
   3.6198733e-09  -1.0071471e-06   8.4440920e-01   8.4434303e-01  -3.2428889e+03
   3.6225408e-09  -9.9853361e-07   8.4440893e-01   8.4434332e-01  -3.2151549e+03
   3.6252084e-09  -9.8999378e-07   8.4440865e-01   8.4434361e-01  -3.1876580e+03
   3.6278760e-09  -9.8152698e-07   8.4440838e-01   8.4434389e-01  -3.1603963e+03
   3.6305435e-09  -9.7313259e-07   8.4440812e-01   8.4434418e-01  -3.1333677e+03
   3.6332111e-09  -9.6481000e-07   8.4440785e-01   8.4434446e-01  -3.1065703e+03
   3.6358786e-09  -9.5655858e-07   8.4440759e-01   8.4434473e-01  -3.0800020e+03
   3.6385462e-09  -9.4837773e-07   8.4440732e-01   8.4434501e-01  -3.0536610e+03
   3.6412137e-09  -9.4026684e-07   8.4440706e-01   8.4434528e-01  -3.0275453e+03
   3.6438813e-09  -9.3222533e-07   8.4440681e-01   8.4434556e-01  -3.0016529e+03
   3.6465488e-09  -9.2425258e-07   8.4440655e-01   8.4434582e-01  -2.9759819e+03
   3.6492164e-09  -9.1634802e-07   8.4440630e-01   8.4434609e-01  -2.9505305e+03
   3.6518840e-09  -9.0851106e-07   8.4440605e-01   8.4434636e-01  -2.9252968e+03
   3.6545515e-09  -9.0074113e-07   8.4440580e-01   8.4434662e-01  -2.9002788e+03
   3.6572191e-09  -8.9303765e-07   8.4440555e-01   8.4434688e-01  -2.8754748e+03
   3.6598866e-09  -8.8540005e-07   8.4440531e-01   8.4434714e-01  -2.8508830e+03
   3.6625542e-09  -8.7782777e-07   8.4440507e-01   8.4434739e-01  -2.8265014e+03
   3.6652217e-09  -8.7032025e-07   8.4440483e-01   8.4434764e-01  -2.8023284e+03
   3.6678893e-09  -8.6287693e-07   8.4440459e-01   8.4434789e-01  -2.7783621e+03
   3.6705569e-09  -8.5549727e-07   8.4440435e-01   8.4434814e-01  -2.7546008e+03
   3.6732244e-09  -8.4818073e-07   8.4440412e-01   8.4434839e-01  -2.7310427e+03
   3.6758920e-09  -8.4092676e-07   8.4440389e-01   8.4434864e-01  -2.7076861e+03
   3.6785595e-09  -8.3373483e-07   8.4440366e-01   8.4434888e-01  -2.6845292e+03
   3.6812271e-09  -8.2660440e-07   8.4440343e-01   8.4434912e-01  -2.6615703e+03
   3.6838946e-09  -8.1953496e-07   8.4440320e-01   8.4434936e-01  -2.6388079e+03
   3.6865622e-09  -8.1252598e-07   8.4440298e-01   8.4434959e-01  -2.6162400e+03
   3.6892297e-09  -8.0557694e-07   8.4440276e-01   8.4434983e-01  -2.5938652e+03
   3.6918973e-09  -7.9868733e-07   8.4440254e-01   8.4435006e-01  -2.5716818e+03
   3.6945649e-09  -7.9185664e-07   8.4440232e-01   8.4435029e-01  -2.5496880e+03
   3.6972324e-09  -7.8508437e-07   8.4440210e-01   8.4435052e-01  -2.5278824e+03
   3.6999000e-09  -7.7837002e-07   8.4440189e-01   8.4435075e-01  -2.5062632e+03
   3.7025675e-09  -7.7171309e-07   8.4440168e-01   8.4435097e-01  -2.4848289e+03
   3.7052351e-09  -7.6511309e-07   8.4440146e-01   8.4435119e-01  -2.4635780e+03
   3.7079026e-09  -7.5856954e-07   8.4440126e-01   8.4435141e-01  -2.4425088e+03
   3.7105702e-09  -7.5208196e-07   8.4440105e-01   8.4435163e-01  -2.4216198e+03
   3.7132377e-09  -7.4564985e-07   8.4440084e-01   8.4435185e-01  -2.4009094e+03
   3.7159053e-09  -7.3927276e-07   8.4440064e-01   8.4435206e-01  -2.3803761e+03
   3.7185729e-09  -7.3295020e-07   8.4440044e-01   8.4435228e-01  -2.3600185e+03
   3.7212404e-09  -7.2668172e-07   8.4440024e-01   8.4435249e-01  -2.3398349e+03
   3.7239080e-09  -7.2046684e-07   8.4440004e-01   8.4435270e-01  -2.3198240e+03
   3.7265755e-09  -7.1430512e-07   8.4439984e-01   8.4435291e-01  -2.2999842e+03
   3.7292431e-09  -7.0819609e-07   8.4439964e-01   8.4435311e-01  -2.2803141e+03
   3.7319106e-09  -7.0213932e-07   8.4439945e-01   8.4435332e-01  -2.2608122e+03
   3.7345782e-09  -6.9613434e-07   8.4439926e-01   8.4435352e-01  -2.2414771e+03
   3.7372457e-09  -6.9018071e-07   8.4439907e-01   8.4435372e-01  -2.2223073e+03
   3.7399133e-09  -6.8427801e-07   8.4439888e-01   8.4435392e-01  -2.2033015e+03
   3.7425809e-09  -6.7842578e-07   8.4439869e-01   8.4435412e-01  -2.1844583e+03
   3.7452484e-09  -6.7262361e-07   8.4439851e-01   8.4435431e-01  -2.1657762e+03
   3.7479160e-09  -6.6687106e-07   8.4439832e-01   8.4435451e-01  -2.1472538e+03
   3.7505835e-09  -6.6116770e-07   8.4439814e-01   8.4435470e-01  -2.1288899e+03
   3.7532511e-09  -6.5551312e-07   8.4439796e-01   8.4435489e-01  -2.1106830e+03
   3.7559186e-09  -6.4990691e-07   8.4439778e-01   8.4435508e-01  -2.0926318e+03
   3.7585862e-09  -6.4434863e-07   8.4439760e-01   8.4435527e-01  -2.0747351e+03
   3.7612538e-09  -6.3883790e-07   8.4439743e-01   8.4435545e-01  -2.0569913e+03
   3.7639213e-09  -6.3337429e-07   8.4439725e-01   8.4435564e-01  -2.0393993e+03
   3.7665889e-09  -6.2795741e-07   8.4439708e-01   8.4435582e-01  -2.0219578e+03
   3.7692564e-09  -6.2258686e-07   8.4439691e-01   8.4435600e-01  -2.0046654e+03
   3.7719240e-09  -6.1726224e-07   8.4439674e-01   8.4435618e-01  -1.9875210e+03
   3.7745915e-09  -6.1198315e-07   8.4439657e-01   8.4435636e-01  -1.9705231e+03
   3.7772591e-09  -6.0674922e-07   8.4439640e-01   8.4435653e-01  -1.9536706e+03
   3.7799266e-09  -6.0156004e-07   8.4439623e-01   8.4435671e-01  -1.9369623e+03
   3.7825942e-09  -5.9641525e-07   8.4439607e-01   8.4435688e-01  -1.9203968e+03
   3.7852618e-09  -5.9131445e-07   8.4439591e-01   8.4435705e-01  -1.9039730e+03
   3.7879293e-09  -5.8625728e-07   8.4439575e-01   8.4435723e-01  -1.8876897e+03
   3.7905969e-09  -5.8124336e-07   8.4439559e-01   8.4435739e-01  -1.8715456e+03
   3.7932644e-09  -5.7627232e-07   8.4439543e-01   8.4435756e-01  -1.8555396e+03
   3.7959320e-09  -5.7134380e-07   8.4439527e-01   8.4435773e-01  -1.8396705e+03
   3.7985995e-09  -5.6645742e-07   8.4439511e-01   8.4435789e-01  -1.8239371e+03
   3.8012671e-09  -5.6161284e-07   8.4439496e-01   8.4435806e-01  -1.8083382e+03
   3.8039346e-09  -5.5680968e-07   8.4439480e-01   8.4435822e-01  -1.7928728e+03
   3.8066022e-09  -5.5204761e-07   8.4439465e-01   8.4435838e-01  -1.7775396e+03
   3.8092698e-09  -5.4732626e-07   8.4439450e-01   8.4435854e-01  -1.7623376e+03
   3.8119373e-09  -5.4264529e-07   8.4439435e-01   8.4435870e-01  -1.7472655e+03
   3.8146049e-09  -5.3800435e-07   8.4439420e-01   8.4435885e-01  -1.7323224e+03
   3.8172724e-09  -5.3340311e-07   8.4439406e-01   8.4435901e-01  -1.7175071e+03
   3.8199400e-09  -5.2884121e-07   8.4439391e-01   8.4435916e-01  -1.7028184e+03
   3.8226075e-09  -5.2431833e-07   8.4439376e-01   8.4435931e-01  -1.6882554e+03
   3.8252751e-09  -5.1983414e-07   8.4439362e-01   8.4435947e-01  -1.6738169e+03
   3.8279426e-09  -5.1538829e-07   8.4439348e-01   8.4435962e-01  -1.6595020e+03
   3.8306102e-09  -5.1098046e-07   8.4439334e-01   8.4435976e-01  -1.6453094e+03
   3.8332778e-09  -5.0661033e-07   8.4439320e-01   8.4435991e-01  -1.6312382e+03
   3.8359453e-09  -5.0227758e-07   8.4439306e-01   8.4436006e-01  -1.6172874e+03
   3.8386129e-09  -4.9798188e-07   8.4439292e-01   8.4436020e-01  -1.6034559e+03
   3.8412804e-09  -4.9372292e-07   8.4439279e-01   8.4436035e-01  -1.5897426e+03
   3.8439480e-09  -4.8950038e-07   8.4439265e-01   8.4436049e-01  -1.5761467e+03
   3.8466155e-09  -4.8531396e-07   8.4439252e-01   8.4436063e-01  -1.5626670e+03
   3.8492831e-09  -4.8116334e-07   8.4439238e-01   8.4436077e-01  -1.5493026e+03
   3.8519507e-09  -4.7704822e-07   8.4439225e-01   8.4436091e-01  -1.5360525e+03
   3.8546182e-09  -4.7296829e-07   8.4439212e-01   8.4436105e-01  -1.5229157e+03
   3.8572858e-09  -4.6892325e-07   8.4439199e-01   8.4436118e-01  -1.5098913e+03
   3.8599533e-09  -4.6491281e-07   8.4439187e-01   8.4436132e-01  -1.4969782e+03
   3.8626209e-09  -4.6093666e-07   8.4439174e-01   8.4436145e-01  -1.4841756e+03
   3.8652884e-09  -4.5699453e-07   8.4439161e-01   8.4436159e-01  -1.4714825e+03
   3.8679560e-09  -4.5308610e-07   8.4439149e-01   8.4436172e-01  -1.4588979e+03
   3.8706235e-09  -4.4921111e-07   8.4439136e-01   8.4436185e-01  -1.4464210e+03
   3.8732911e-09  -4.4536925e-07   8.4439124e-01   8.4436198e-01  -1.4340507e+03
   3.8759587e-09  -4.4156025e-07   8.4439112e-01   8.4436211e-01  -1.4217863e+03
   3.8786262e-09  -4.3778382e-07   8.4439100e-01   8.4436223e-01  -1.4096267e+03
   3.8812938e-09  -4.3403970e-07   8.4439088e-01   8.4436236e-01  -1.3975712e+03
   3.8839613e-09  -4.3032759e-07   8.4439076e-01   8.4436248e-01  -1.3856187e+03
   3.8866289e-09  -4.2664723e-07   8.4439064e-01   8.4436261e-01  -1.3737685e+03
   3.8892964e-09  -4.2299835e-07   8.4439053e-01   8.4436273e-01  -1.3620196e+03
   3.8919640e-09  -4.1938067e-07   8.4439041e-01   8.4436285e-01  -1.3503712e+03
   3.8946315e-09  -4.1579394e-07   8.4439029e-01   8.4436297e-01  -1.3388224e+03
   3.8972991e-09  -4.1223787e-07   8.4439018e-01   8.4436309e-01  -1.3273723e+03
   3.8999667e-09  -4.0871222e-07   8.4439007e-01   8.4436321e-01  -1.3160202e+03
