   0.0000000e+00  -1.4787190e-01   6.2418450e+00   6.2810108e-05  -5.1837606e+08
   2.6675559e-12  -1.4649427e-01   6.2336891e+00   6.9826185e-05  -5.1458325e+08
   5.3351117e-12  -1.4512676e-01   6.2251715e+00   7.7560222e-05  -5.1078843e+08
   8.0026676e-12  -1.4376938e-01   6.2162813e+00   8.6077707e-05  -5.0699170e+08
   1.0670223e-11  -1.4242213e-01   6.2070075e+00   9.5449179e-05  -5.0319317e+08
   1.3337779e-11  -1.4108501e-01   6.1973392e+00   1.0575052e-04  -4.9939297e+08
   1.6005335e-11  -1.3975804e-01   6.1872656e+00   1.1706327e-04  -4.9559123e+08
   1.8672891e-11  -1.3844121e-01   6.1767759e+00   1.2947488e-04  -4.9178811e+08
   2.1340447e-11  -1.3713453e-01   6.1658593e+00   1.4307907e-04  -4.8798376e+08
   2.4008003e-11  -1.3583800e-01   6.1545054e+00   1.5797611e-04  -4.8417838e+08
   2.6675559e-11  -1.3455163e-01   6.1427038e+00   1.7427315e-04  -4.8037216e+08
   2.9343114e-11  -1.3327541e-01   6.1304444e+00   1.9208449e-04  -4.7656530e+08
   3.2010670e-11  -1.3200935e-01   6.1177171e+00   2.1153192e-04  -4.7275804e+08
   3.4678226e-11  -1.3075344e-01   6.1045125e+00   2.3274503e-04  -4.6895063e+08
   3.7345782e-11  -1.2950769e-01   6.0908211e+00   2.5586149e-04  -4.6514333e+08
   4.0013338e-11  -1.2827210e-01   6.0766338e+00   2.8102733e-04  -4.6133641e+08
   4.2680894e-11  -1.2704667e-01   6.0619422e+00   3.0839724e-04  -4.5753018e+08
   4.5348449e-11  -1.2583138e-01   6.0467380e+00   3.3813485e-04  -4.5372496e+08
   4.8016005e-11  -1.2462625e-01   6.0310133e+00   3.7041293e-04  -4.4992107e+08
   5.0683561e-11  -1.2343126e-01   6.0147609e+00   4.0541371e-04  -4.4611888e+08
   5.3351117e-11  -1.2224642e-01   5.9979739e+00   4.4332902e-04  -4.4231874e+08
   5.6018673e-11  -1.2107170e-01   5.9806463e+00   4.8436050e-04  -4.3852106e+08
   5.8686229e-11  -1.1990712e-01   5.9627722e+00   5.2871982e-04  -4.3472624e+08
   6.1353785e-11  -1.1875265e-01   5.9443467e+00   5.7662876e-04  -4.3093471e+08
   6.4021340e-11  -1.1760830e-01   5.9253653e+00   6.2831937e-04  -4.2714691e+08
   6.6688896e-11  -1.1647404e-01   5.9058243e+00   6.8403401e-04  -4.2336331e+08
   6.9356452e-11  -1.1534987e-01   5.8857206e+00   7.4402544e-04  -4.1958438e+08
   7.2024008e-11  -1.1423577e-01   5.8650521e+00   8.0855681e-04  -4.1581062e+08
   7.4691564e-11  -1.1313174e-01   5.8438170e+00   8.7790161e-04  -4.1204255e+08
   7.7359120e-11  -1.1203774e-01   5.8220147e+00   9.5234366e-04  -4.0828070e+08
   8.0026676e-11  -1.1095378e-01   5.7996450e+00   1.0321769e-03  -4.0452561e+08
   8.2694231e-11  -1.0987982e-01   5.7767090e+00   1.1177055e-03  -4.0077785e+08
   8.5361787e-11  -1.0881584e-01   5.7532080e+00   1.2092431e-03  -3.9703799e+08
   8.8029343e-11  -1.0776183e-01   5.7291447e+00   1.3071133e-03  -3.9330662e+08
   9.0696899e-11  -1.0671776e-01   5.7045224e+00   1.4116488e-03  -3.8958434e+08
   9.3364455e-11  -1.0568361e-01   5.6793451e+00   1.5231914e-03  -3.8587176e+08
   9.6032011e-11  -1.0465935e-01   5.6536180e+00   1.6420913e-03  -3.8216952e+08
   9.8699567e-11  -1.0364495e-01   5.6273467e+00   1.7687070e-03  -3.7847824e+08
   1.0136712e-10  -1.0264038e-01   5.6005381e+00   1.9034047e-03  -3.7479857e+08
   1.0403468e-10  -1.0164561e-01   5.5731997e+00   2.0465577e-03  -3.7113114e+08
   1.0670223e-10  -1.0066060e-01   5.5453397e+00   2.1985460e-03  -3.6747663e+08
   1.0936979e-10  -9.9685320e-02   5.5169674e+00   2.3597555e-03  -3.6383569e+08
   1.1203735e-10  -9.8719735e-02   5.4880927e+00   2.5305776e-03  -3.6020899e+08
   1.1470490e-10  -9.7763804e-02   5.4587263e+00   2.7114084e-03  -3.5659718e+08
   1.1737246e-10  -9.6817486e-02   5.4288797e+00   2.9026479e-03  -3.5300095e+08
   1.2004001e-10  -9.5880738e-02   5.3985650e+00   3.1046996e-03  -3.4942094e+08
   1.2270757e-10  -9.4953516e-02   5.3677952e+00   3.3179692e-03  -3.4585783e+08
   1.2537513e-10  -9.4035774e-02   5.3365837e+00   3.5428643e-03  -3.4231229e+08
   1.2804268e-10  -9.3127465e-02   5.3049448e+00   3.7797935e-03  -3.3878495e+08
   1.3071024e-10  -9.2228539e-02   5.2728931e+00   4.0291654e-03  -3.3527649e+08
   1.3337779e-10  -9.1338944e-02   5.2404441e+00   4.2913880e-03  -3.3178753e+08
   1.3604535e-10  -9.0458628e-02   5.2076134e+00   4.5668676e-03  -3.2831871e+08
   1.3871290e-10  -8.9587537e-02   5.1744174e+00   4.8560081e-03  -3.2487066e+08
   1.4138046e-10  -8.8725613e-02   5.1408728e+00   5.1592104e-03  -3.2144398e+08
   1.4404802e-10  -8.7872799e-02   5.1069966e+00   5.4768711e-03  -3.1803929e+08
   1.4671557e-10  -8.7029036e-02   5.0728064e+00   5.8093820e-03  -3.1465715e+08
   1.4938313e-10  -8.6194263e-02   5.0383198e+00   6.1571294e-03  -3.1129815e+08
   1.5205068e-10  -8.5368416e-02   5.0035548e+00   6.5204929e-03  -3.0796284e+08
   1.5471824e-10  -8.4551433e-02   4.9685295e+00   6.8998448e-03  -3.0465175e+08
   1.5738580e-10  -8.3743248e-02   4.9332624e+00   7.2955498e-03  -3.0136540e+08
   1.6005335e-10  -8.2943794e-02   4.8977717e+00   7.7079636e-03  -2.9810430e+08
   1.6272091e-10  -8.2153003e-02   4.8620762e+00   8.1374325e-03  -2.9486892e+08
   1.6538846e-10  -8.1370806e-02   4.8261942e+00   8.5842930e-03  -2.9165971e+08
   1.6805602e-10  -8.0597132e-02   4.7901443e+00   9.0488709e-03  -2.8847713e+08
   1.7072357e-10  -7.9831910e-02   4.7539450e+00   9.5314805e-03  -2.8532157e+08
   1.7339113e-10  -7.9075068e-02   4.7176146e+00   1.0032425e-02  -2.8219344e+08
   1.7605869e-10  -7.8326531e-02   4.6811713e+00   1.0551994e-02  -2.7909310e+08
   1.7872624e-10  -7.7586225e-02   4.6446333e+00   1.1090467e-02  -2.7602091e+08
   1.8139380e-10  -7.6854075e-02   4.6080182e+00   1.1648108e-02  -2.7297717e+08
   1.8406135e-10  -7.6130004e-02   4.5713438e+00   1.2225168e-02  -2.6996219e+08
   1.8672891e-10  -7.5413935e-02   4.5346274e+00   1.2821885e-02  -2.6697624e+08
   1.8939647e-10  -7.4705790e-02   4.4978859e+00   1.3438482e-02  -2.6401957e+08
   1.9206402e-10  -7.4005492e-02   4.4611361e+00   1.4075169e-02  -2.6109240e+08
   1.9473158e-10  -7.3312960e-02   4.4243944e+00   1.4732141e-02  -2.5819494e+08
   1.9739913e-10  -7.2628116e-02   4.3876767e+00   1.5409578e-02  -2.5532737e+08
   2.0006669e-10  -7.1950879e-02   4.3509986e+00   1.6107646e-02  -2.5248983e+08
   2.0273424e-10  -7.1281170e-02   4.3143753e+00   1.6826495e-02  -2.4968245e+08
   2.0540180e-10  -7.0618907e-02   4.2778214e+00   1.7566261e-02  -2.4690534e+08
   2.0806936e-10  -6.9964011e-02   4.2413514e+00   1.8327067e-02  -2.4415859e+08
   2.1073691e-10  -6.9316399e-02   4.2049790e+00   1.9109018e-02  -2.4144225e+08
   2.1340447e-10  -6.8675991e-02   4.1687176e+00   1.9912207e-02  -2.3875636e+08
   2.1607202e-10  -6.8042705e-02   4.1325801e+00   2.0736712e-02  -2.3610095e+08
   2.1873958e-10  -6.7416460e-02   4.0965789e+00   2.1582596e-02  -2.3347599e+08
   2.2140714e-10  -6.6797176e-02   4.0607259e+00   2.2449908e-02  -2.3088148e+08
   2.2407469e-10  -6.6184770e-02   4.0250326e+00   2.3338683e-02  -2.2831737e+08
   2.2674225e-10  -6.5579162e-02   3.9895099e+00   2.4248943e-02  -2.2578359e+08
   2.2940980e-10  -6.4980271e-02   3.9541683e+00   2.5180697e-02  -2.2328007e+08
   2.3207736e-10  -6.4388017e-02   3.9190178e+00   2.6133939e-02  -2.2080671e+08
   2.3474491e-10  -6.3802319e-02   3.8840678e+00   2.7108652e-02  -2.1836338e+08
   2.3741247e-10  -6.3223097e-02   3.8493273e+00   2.8104805e-02  -2.1594996e+08
   2.4008003e-10  -6.2650272e-02   3.8148048e+00   2.9122355e-02  -2.1356631e+08
   2.4274758e-10  -6.2083764e-02   3.7805085e+00   3.0161249e-02  -2.1121226e+08
   2.4541514e-10  -6.1523496e-02   3.7464458e+00   3.1221420e-02  -2.0888763e+08
   2.4808269e-10  -6.0969388e-02   3.7126238e+00   3.2302791e-02  -2.0659223e+08
   2.5075025e-10  -6.0421363e-02   3.6790494e+00   3.3405274e-02  -2.0432587e+08
   2.5341781e-10  -5.9879344e-02   3.6457286e+00   3.4528771e-02  -2.0208834e+08
   2.5608536e-10  -5.9343254e-02   3.6126674e+00   3.5673173e-02  -1.9987940e+08
   2.5875292e-10  -5.8813018e-02   3.5798710e+00   3.6838362e-02  -1.9769882e+08
   2.6142047e-10  -5.8288560e-02   3.5473445e+00   3.8024210e-02  -1.9554637e+08
   2.6408803e-10  -5.7769805e-02   3.5150924e+00   3.9230581e-02  -1.9342178e+08
   2.6675559e-10  -5.7256679e-02   3.4831190e+00   4.0457330e-02  -1.9132479e+08
   2.6942314e-10  -5.6749110e-02   3.4514281e+00   4.1704303e-02  -1.8925515e+08
   2.7209070e-10  -5.6247024e-02   3.4200230e+00   4.2971340e-02  -1.8721257e+08
   2.7475825e-10  -5.5750350e-02   3.3889070e+00   4.4258272e-02  -1.8519676e+08
   2.7742581e-10  -5.5259017e-02   3.3580828e+00   4.5564923e-02  -1.8320746e+08
   2.8009336e-10  -5.4772955e-02   3.3275529e+00   4.6891112e-02  -1.8124435e+08
   2.8276092e-10  -5.4292094e-02   3.2973193e+00   4.8236648e-02  -1.7930715e+08
   2.8542848e-10  -5.3816365e-02   3.2673839e+00   4.9601338e-02  -1.7739556e+08
   2.8809603e-10  -5.3345700e-02   3.2377483e+00   5.0984981e-02  -1.7550926e+08
   2.9076359e-10  -5.2880033e-02   3.2084137e+00   5.2387370e-02  -1.7364796e+08
   2.9343114e-10  -5.2419298e-02   3.1793811e+00   5.3808296e-02  -1.7181134e+08
   2.9609870e-10  -5.1963428e-02   3.1506513e+00   5.5247543e-02  -1.6999909e+08
   2.9876626e-10  -5.1512360e-02   3.1222248e+00   5.6704890e-02  -1.6821091e+08
   3.0143381e-10  -5.1066029e-02   3.0941019e+00   5.8180112e-02  -1.6644647e+08
   3.0410137e-10  -5.0624373e-02   3.0662826e+00   5.9672984e-02  -1.6470546e+08
   3.0676892e-10  -5.0187329e-02   3.0387667e+00   6.1183271e-02  -1.6298756e+08
   3.0943648e-10  -4.9754837e-02   3.0115540e+00   6.2710740e-02  -1.6129247e+08
   3.1210403e-10  -4.9326835e-02   2.9846439e+00   6.4255153e-02  -1.5961986e+08
   3.1477159e-10  -4.8903265e-02   2.9580357e+00   6.5816268e-02  -1.5796941e+08
   3.1743915e-10  -4.8484068e-02   2.9317285e+00   6.7393843e-02  -1.5634083e+08
   3.2010670e-10  -4.8069186e-02   2.9057213e+00   6.8987632e-02  -1.5473379e+08
   3.2277426e-10  -4.7658562e-02   2.8800129e+00   7.0597387e-02  -1.5314798e+08
   3.2544181e-10  -4.7252139e-02   2.8546020e+00   7.2222859e-02  -1.5158310e+08
   3.2810937e-10  -4.6849863e-02   2.8294870e+00   7.3863797e-02  -1.5003884e+08
   3.3077693e-10  -4.6451678e-02   2.8046665e+00   7.5519947e-02  -1.4851488e+08
   3.3344448e-10  -4.6057531e-02   2.7801388e+00   7.7191057e-02  -1.4701094e+08
   3.3611204e-10  -4.5667370e-02   2.7559020e+00   7.8876871e-02  -1.4552670e+08
   3.3877959e-10  -4.5281141e-02   2.7319543e+00   8.0577134e-02  -1.4406188e+08
   3.4144715e-10  -4.4898793e-02   2.7082936e+00   8.2291588e-02  -1.4261617e+08
   3.4411470e-10  -4.4520276e-02   2.6849179e+00   8.4019977e-02  -1.4118928e+08
   3.4678226e-10  -4.4145541e-02   2.6618250e+00   8.5762043e-02  -1.3978092e+08
   3.4944982e-10  -4.3774537e-02   2.6390127e+00   8.7517529e-02  -1.3839082e+08
   3.5211737e-10  -4.3407217e-02   2.6164787e+00   8.9286176e-02  -1.3701868e+08
   3.5478493e-10  -4.3043534e-02   2.5942206e+00   9.1067728e-02  -1.3566422e+08
   3.5745248e-10  -4.2683439e-02   2.5722360e+00   9.2861925e-02  -1.3432717e+08
   3.6012004e-10  -4.2326888e-02   2.5505225e+00   9.4668511e-02  -1.3300726e+08
   3.6278760e-10  -4.1973836e-02   2.5290775e+00   9.6487229e-02  -1.3170422e+08
   3.6545515e-10  -4.1624236e-02   2.5078984e+00   9.8317821e-02  -1.3041778e+08
   3.6812271e-10  -4.1278046e-02   2.4869828e+00   1.0016003e-01  -1.2914767e+08
   3.7079026e-10  -4.0935222e-02   2.4663279e+00   1.0201361e-01  -1.2789365e+08
   3.7345782e-10  -4.0595722e-02   2.4459310e+00   1.0387829e-01  -1.2665546e+08
   3.7612538e-10  -4.0259504e-02   2.4257896e+00   1.0575384e-01  -1.2543284e+08
   3.7879293e-10  -3.9926526e-02   2.4059009e+00   1.0763998e-01  -1.2422556e+08
   3.8146049e-10  -3.9596748e-02   2.3862622e+00   1.0953648e-01  -1.2303335e+08
   3.8412804e-10  -3.9270130e-02   2.3668708e+00   1.1144308e-01  -1.2185600e+08
   3.8679560e-10  -3.8946634e-02   2.3477239e+00   1.1335953e-01  -1.2069325e+08
   3.8946315e-10  -3.8626219e-02   2.3288187e+00   1.1528558e-01  -1.1954488e+08
   3.9213071e-10  -3.8308849e-02   2.3101525e+00   1.1722100e-01  -1.1841066e+08
   3.9479827e-10  -3.7994485e-02   2.2917226e+00   1.1916552e-01  -1.1729036e+08
   3.9746582e-10  -3.7683091e-02   2.2735262e+00   1.2111892e-01  -1.1618376e+08
   4.0013338e-10  -3.7374631e-02   2.2555604e+00   1.2308094e-01  -1.1509065e+08
   4.0280093e-10  -3.7069069e-02   2.2378227e+00   1.2505135e-01  -1.1401081e+08
   4.0546849e-10  -3.6766370e-02   2.2203101e+00   1.2702990e-01  -1.1294403e+08
   4.0813605e-10  -3.6466499e-02   2.2030200e+00   1.2901637e-01  -1.1189011e+08
   4.1080360e-10  -3.6169422e-02   2.1859496e+00   1.3101051e-01  -1.1084883e+08
   4.1347116e-10  -3.5875106e-02   2.1690962e+00   1.3301209e-01  -1.0982001e+08
   4.1613871e-10  -3.5583518e-02   2.1524570e+00   1.3502087e-01  -1.0880344e+08
   4.1880627e-10  -3.5294625e-02   2.1360295e+00   1.3703664e-01  -1.0779893e+08
   4.2147382e-10  -3.5008396e-02   2.1198108e+00   1.3905915e-01  -1.0680629e+08
   4.2414138e-10  -3.4724799e-02   2.1037984e+00   1.4108819e-01  -1.0582534e+08
   4.2680894e-10  -3.4443804e-02   2.0879895e+00   1.4312352e-01  -1.0485589e+08
   4.2947649e-10  -3.4165379e-02   2.0723816e+00   1.4516493e-01  -1.0389776e+08
   4.3214405e-10  -3.3889495e-02   2.0569720e+00   1.4721219e-01  -1.0295079e+08
   4.3481160e-10  -3.3616122e-02   2.0417581e+00   1.4926509e-01  -1.0201478e+08
   4.3747916e-10  -3.3345231e-02   2.0267374e+00   1.5132340e-01  -1.0108958e+08
   4.4014672e-10  -3.3076794e-02   2.0119073e+00   1.5338692e-01  -1.0017502e+08
   4.4281427e-10  -3.2810783e-02   1.9972652e+00   1.5545542e-01  -9.9270925e+07
   4.4548183e-10  -3.2547169e-02   1.9828088e+00   1.5752871e-01  -9.8377146e+07
   4.4814938e-10  -3.2285926e-02   1.9685354e+00   1.5960656e-01  -9.7493520e+07
   4.5081694e-10  -3.2027026e-02   1.9544427e+00   1.6168877e-01  -9.6619894e+07
   4.5348449e-10  -3.1770444e-02   1.9405282e+00   1.6377515e-01  -9.5756114e+07
   4.5615205e-10  -3.1516153e-02   1.9267895e+00   1.6586548e-01  -9.4902031e+07
   4.5881961e-10  -3.1264127e-02   1.9132242e+00   1.6795956e-01  -9.4057498e+07
   4.6148716e-10  -3.1014341e-02   1.8998300e+00   1.7005720e-01  -9.3222371e+07
   4.6415472e-10  -3.0766771e-02   1.8866045e+00   1.7215820e-01  -9.2396510e+07
   4.6682227e-10  -3.0521391e-02   1.8735454e+00   1.7426236e-01  -9.1579774e+07
   4.6948983e-10  -3.0278178e-02   1.8606505e+00   1.7636949e-01  -9.0772028e+07
   4.7215739e-10  -3.0037108e-02   1.8479174e+00   1.7847941e-01  -8.9973139e+07
   4.7482494e-10  -2.9798157e-02   1.8353440e+00   1.8059192e-01  -8.9182974e+07
   4.7749250e-10  -2.9561303e-02   1.8229281e+00   1.8270685e-01  -8.8401405e+07
   4.8016005e-10  -2.9326521e-02   1.8106676e+00   1.8482399e-01  -8.7628307e+07
   4.8282761e-10  -2.9093791e-02   1.7985601e+00   1.8694318e-01  -8.6863554e+07
   4.8549517e-10  -2.8863090e-02   1.7866037e+00   1.8906423e-01  -8.6107024e+07
   4.8816272e-10  -2.8634396e-02   1.7747963e+00   1.9118697e-01  -8.5358599e+07
   4.9083028e-10  -2.8407688e-02   1.7631357e+00   1.9331122e-01  -8.4618161e+07
   4.9349783e-10  -2.8182944e-02   1.7516200e+00   1.9543680e-01  -8.3885595e+07
   4.9616539e-10  -2.7960144e-02   1.7402471e+00   1.9756355e-01  -8.3160787e+07
   4.9883294e-10  -2.7739267e-02   1.7290150e+00   1.9969130e-01  -8.2443627e+07
   5.0150050e-10  -2.7520293e-02   1.7179219e+00   2.0181988e-01  -8.1734006e+07
   5.0416806e-10  -2.7303202e-02   1.7069657e+00   2.0394912e-01  -8.1031817e+07
   5.0683561e-10  -2.7087974e-02   1.6961446e+00   2.0607887e-01  -8.0336955e+07
   5.0950317e-10  -2.6874591e-02   1.6854566e+00   2.0820896e-01  -7.9649316e+07
   5.1217072e-10  -2.6663032e-02   1.6749000e+00   2.1033923e-01  -7.8968800e+07
   5.1483828e-10  -2.6453278e-02   1.6644728e+00   2.1246953e-01  -7.8295307e+07
   5.1750584e-10  -2.6245312e-02   1.6541733e+00   2.1459970e-01  -7.7628739e+07
   5.2017339e-10  -2.6039115e-02   1.6439998e+00   2.1672958e-01  -7.6969001e+07
   5.2284095e-10  -2.5834669e-02   1.6339503e+00   2.1885904e-01  -7.6316000e+07
   5.2550850e-10  -2.5631956e-02   1.6240234e+00   2.2098792e-01  -7.5669641e+07
   5.2817606e-10  -2.5430958e-02   1.6142171e+00   2.2311607e-01  -7.5029836e+07
   5.3084361e-10  -2.5231659e-02   1.6045299e+00   2.2524336e-01  -7.4396494e+07
   5.3351117e-10  -2.5034040e-02   1.5949600e+00   2.2736963e-01  -7.3769528e+07
   5.3617873e-10  -2.4838085e-02   1.5855059e+00   2.2949475e-01  -7.3148853e+07
   5.3884628e-10  -2.4643778e-02   1.5761660e+00   2.3161857e-01  -7.2534383e+07
   5.4151384e-10  -2.4451101e-02   1.5669386e+00   2.3374098e-01  -7.1926037e+07
   5.4418139e-10  -2.4260040e-02   1.5578222e+00   2.3586181e-01  -7.1323732e+07
   5.4684895e-10  -2.4070576e-02   1.5488152e+00   2.3798096e-01  -7.0727390e+07
   5.4951651e-10  -2.3882696e-02   1.5399162e+00   2.4009828e-01  -7.0136930e+07
   5.5218406e-10  -2.3696383e-02   1.5311237e+00   2.4221365e-01  -6.9552277e+07
   5.5485162e-10  -2.3511622e-02   1.5224361e+00   2.4432693e-01  -6.8973353e+07
   5.5751917e-10  -2.3328398e-02   1.5138520e+00   2.4643802e-01  -6.8400086e+07
   5.6018673e-10  -2.3146695e-02   1.5053700e+00   2.4854677e-01  -6.7832401e+07
   5.6285428e-10  -2.2966500e-02   1.4969887e+00   2.5065308e-01  -6.7270227e+07
   5.6552184e-10  -2.2787797e-02   1.4887067e+00   2.5275682e-01  -6.6713493e+07
   5.6818940e-10  -2.2610571e-02   1.4805227e+00   2.5485788e-01  -6.6162129e+07
   5.7085695e-10  -2.2434810e-02   1.4724351e+00   2.5695613e-01  -6.5616068e+07
   5.7352451e-10  -2.2260498e-02   1.4644429e+00   2.5905147e-01  -6.5075242e+07
   5.7619206e-10  -2.2087621e-02   1.4565446e+00   2.6114379e-01  -6.4539585e+07
   5.7885962e-10  -2.1916167e-02   1.4487389e+00   2.6323298e-01  -6.4009033e+07
   5.8152718e-10  -2.1746121e-02   1.4410247e+00   2.6531892e-01  -6.3483521e+07
   5.8419473e-10  -2.1577471e-02   1.4334005e+00   2.6740151e-01  -6.2962988e+07
   5.8686229e-10  -2.1410202e-02   1.4258653e+00   2.6948065e-01  -6.2447371e+07
   5.8952984e-10  -2.1244303e-02   1.4184178e+00   2.7155623e-01  -6.1936611e+07
   5.9219740e-10  -2.1079759e-02   1.4110568e+00   2.7362816e-01  -6.1430646e+07
   5.9486495e-10  -2.0916559e-02   1.4037811e+00   2.7569633e-01  -6.0929420e+07
   5.9753251e-10  -2.0754689e-02   1.3965895e+00   2.7776065e-01  -6.0432874e+07
   6.0020007e-10  -2.0594138e-02   1.3894810e+00   2.7982102e-01  -5.9940951e+07
   6.0286762e-10  -2.0434893e-02   1.3824544e+00   2.8187734e-01  -5.9453597e+07
   6.0553518e-10  -2.0276942e-02   1.3755086e+00   2.8392953e-01  -5.8970756e+07
   6.0820273e-10  -2.0120274e-02   1.3686425e+00   2.8597749e-01  -5.8492374e+07
   6.1087029e-10  -1.9964875e-02   1.3618551e+00   2.8802114e-01  -5.8018399e+07
   6.1353785e-10  -1.9810735e-02   1.3551452e+00   2.9006038e-01  -5.7548778e+07
   6.1620540e-10  -1.9657842e-02   1.3485119e+00   2.9209513e-01  -5.7083460e+07
   6.1887296e-10  -1.9506184e-02   1.3419540e+00   2.9412532e-01  -5.6622394e+07
   6.2154051e-10  -1.9355751e-02   1.3354707e+00   2.9615084e-01  -5.6165531e+07
   6.2420807e-10  -1.9206530e-02   1.3290608e+00   2.9817163e-01  -5.5712822e+07
   6.2687563e-10  -1.9058512e-02   1.3227235e+00   3.0018761e-01  -5.5264218e+07
   6.2954318e-10  -1.8911686e-02   1.3164577e+00   3.0219869e-01  -5.4819673e+07
   6.3221074e-10  -1.8766039e-02   1.3102626e+00   3.0420480e-01  -5.4379140e+07
   6.3487829e-10  -1.8621563e-02   1.3041371e+00   3.0620586e-01  -5.3942573e+07
   6.3754585e-10  -1.8478246e-02   1.2980803e+00   3.0820181e-01  -5.3509926e+07
   6.4021340e-10  -1.8336077e-02   1.2920914e+00   3.1019257e-01  -5.3081156e+07
   6.4288096e-10  -1.8195048e-02   1.2861694e+00   3.1217806e-01  -5.2656219e+07
   6.4554852e-10  -1.8055147e-02   1.2803135e+00   3.1415823e-01  -5.2235071e+07
   6.4821607e-10  -1.7916364e-02   1.2745228e+00   3.1613300e-01  -5.1817670e+07
   6.5088363e-10  -1.7778690e-02   1.2687964e+00   3.1810231e-01  -5.1403974e+07
   6.5355118e-10  -1.7642114e-02   1.2631336e+00   3.2006610e-01  -5.0993943e+07
   6.5621874e-10  -1.7506628e-02   1.2575333e+00   3.2202429e-01  -5.0587535e+07
   6.5888630e-10  -1.7372221e-02   1.2519950e+00   3.2397684e-01  -5.0184711e+07
   6.6155385e-10  -1.7238883e-02   1.2465176e+00   3.2592367e-01  -4.9785431e+07
   6.6422141e-10  -1.7106606e-02   1.2411005e+00   3.2786473e-01  -4.9389657e+07
   6.6688896e-10  -1.6975380e-02   1.2357429e+00   3.2979996e-01  -4.8997350e+07
   6.6955652e-10  -1.6845196e-02   1.2304440e+00   3.3172931e-01  -4.8608473e+07
   6.7222407e-10  -1.6716045e-02   1.2252030e+00   3.3365273e-01  -4.8222990e+07
   6.7489163e-10  -1.6587918e-02   1.2200192e+00   3.3557015e-01  -4.7840862e+07
   6.7755919e-10  -1.6460805e-02   1.2148919e+00   3.3748152e-01  -4.7462056e+07
   6.8022674e-10  -1.6334699e-02   1.2098203e+00   3.3938680e-01  -4.7086534e+07
   6.8289430e-10  -1.6209590e-02   1.2048037e+00   3.4128594e-01  -4.6714262e+07
   6.8556185e-10  -1.6085470e-02   1.1998414e+00   3.4317888e-01  -4.6345206e+07
   6.8822941e-10  -1.5962330e-02   1.1949327e+00   3.4506558e-01  -4.5979332e+07
   6.9089697e-10  -1.5840162e-02   1.1900770e+00   3.4694600e-01  -4.5616606e+07
   6.9356452e-10  -1.5718957e-02   1.1852735e+00   3.4882008e-01  -4.5256996e+07
   6.9623208e-10  -1.5598707e-02   1.1805216e+00   3.5068779e-01  -4.4900468e+07
   6.9889963e-10  -1.5479405e-02   1.1758207e+00   3.5254909e-01  -4.4546992e+07
   7.0156719e-10  -1.5361041e-02   1.1711701e+00   3.5440392e-01  -4.4196535e+07
   7.0423474e-10  -1.5243608e-02   1.1665691e+00   3.5625226e-01  -4.3849066e+07
   7.0690230e-10  -1.5127098e-02   1.1620172e+00   3.5809407e-01  -4.3504554e+07
   7.0956986e-10  -1.5011503e-02   1.1575137e+00   3.5992930e-01  -4.3162969e+07
   7.1223741e-10  -1.4896816e-02   1.1530580e+00   3.6175792e-01  -4.2824282e+07
   7.1490497e-10  -1.4783028e-02   1.1486495e+00   3.6357989e-01  -4.2488463e+07
   7.1757252e-10  -1.4670132e-02   1.1442877e+00   3.6539519e-01  -4.2155482e+07
   7.2024008e-10  -1.4558121e-02   1.1399719e+00   3.6720377e-01  -4.1825311e+07
   7.2290764e-10  -1.4446987e-02   1.1357016e+00   3.6900561e-01  -4.1497923e+07
   7.2557519e-10  -1.4336722e-02   1.1314762e+00   3.7080067e-01  -4.1173288e+07
   7.2824275e-10  -1.4227320e-02   1.1272952e+00   3.7258893e-01  -4.0851379e+07
   7.3091030e-10  -1.4118772e-02   1.1231579e+00   3.7437035e-01  -4.0532170e+07
   7.3357786e-10  -1.4011073e-02   1.1190640e+00   3.7614491e-01  -4.0215634e+07
   7.3624542e-10  -1.3904215e-02   1.1150127e+00   3.7791258e-01  -3.9901743e+07
   7.3891297e-10  -1.3798190e-02   1.1110037e+00   3.7967334e-01  -3.9590472e+07
   7.4158053e-10  -1.3692992e-02   1.1070364e+00   3.8142715e-01  -3.9281796e+07
   7.4424808e-10  -1.3588615e-02   1.1031102e+00   3.8317400e-01  -3.8975688e+07
   7.4691564e-10  -1.3485050e-02   1.0992248e+00   3.8491387e-01  -3.8672124e+07
   7.4958319e-10  -1.3382292e-02   1.0953795e+00   3.8664672e-01  -3.8371079e+07
   7.5225075e-10  -1.3280334e-02   1.0915739e+00   3.8837255e-01  -3.8072528e+07
   7.5491831e-10  -1.3179168e-02   1.0878075e+00   3.9009132e-01  -3.7776448e+07
   7.5758586e-10  -1.3078789e-02   1.0840799e+00   3.9180303e-01  -3.7482814e+07
   7.6025342e-10  -1.2979191e-02   1.0803905e+00   3.9350765e-01  -3.7191603e+07
   7.6292097e-10  -1.2880366e-02   1.0767390e+00   3.9520516e-01  -3.6902792e+07
   7.6558853e-10  -1.2782308e-02   1.0731248e+00   3.9689555e-01  -3.6616358e+07
   7.6825609e-10  -1.2685011e-02   1.0695475e+00   3.9857881e-01  -3.6332278e+07
   7.7092364e-10  -1.2588469e-02   1.0660067e+00   4.0025491e-01  -3.6050530e+07
   7.7359120e-10  -1.2492675e-02   1.0625019e+00   4.0192384e-01  -3.5771092e+07
   7.7625875e-10  -1.2397623e-02   1.0590327e+00   4.0358560e-01  -3.5493942e+07
   7.7892631e-10  -1.2303308e-02   1.0555987e+00   4.0524016e-01  -3.5219058e+07
   7.8159386e-10  -1.2209723e-02   1.0521994e+00   4.0688753e-01  -3.4946419e+07
   7.8426142e-10  -1.2116863e-02   1.0488345e+00   4.0852767e-01  -3.4676004e+07
   7.8692898e-10  -1.2024721e-02   1.0455036e+00   4.1016059e-01  -3.4407793e+07
   7.8959653e-10  -1.1933291e-02   1.0422061e+00   4.1178628e-01  -3.4141765e+07
   7.9226409e-10  -1.1842568e-02   1.0389419e+00   4.1340473e-01  -3.3877899e+07
   7.9493164e-10  -1.1752547e-02   1.0357103e+00   4.1501593e-01  -3.3616175e+07
   7.9759920e-10  -1.1663220e-02   1.0325112e+00   4.1661987e-01  -3.3356575e+07
   8.0026676e-10  -1.1574583e-02   1.0293440e+00   4.1821655e-01  -3.3099078e+07
   8.0293431e-10  -1.1486631e-02   1.0262085e+00   4.1980596e-01  -3.2843664e+07
   8.0560187e-10  -1.1399357e-02   1.0231042e+00   4.2138809e-01  -3.2590315e+07
   8.0826942e-10  -1.1312756e-02   1.0200308e+00   4.2296295e-01  -3.2339013e+07
   8.1093698e-10  -1.1226822e-02   1.0169879e+00   4.2453053e-01  -3.2089737e+07
   8.1360453e-10  -1.1141551e-02   1.0139752e+00   4.2609082e-01  -3.1842471e+07
   8.1627209e-10  -1.1056937e-02   1.0109923e+00   4.2764383e-01  -3.1597195e+07
   8.1893965e-10  -1.0972975e-02   1.0080389e+00   4.2918955e-01  -3.1353891e+07
   8.2160720e-10  -1.0889659e-02   1.0051147e+00   4.3072799e-01  -3.1112543e+07
   8.2427476e-10  -1.0806984e-02   1.0022192e+00   4.3225913e-01  -3.0873131e+07
   8.2694231e-10  -1.0724945e-02   9.9935227e-01   4.3378299e-01  -3.0635640e+07
   8.2960987e-10  -1.0643538e-02   9.9651345e-01   4.3529956e-01  -3.0400051e+07
   8.3227743e-10  -1.0562756e-02   9.9370246e-01   4.3680885e-01  -3.0166348e+07
   8.3494498e-10  -1.0482595e-02   9.9091898e-01   4.3831085e-01  -2.9934513e+07
   8.3761254e-10  -1.0403050e-02   9.8816270e-01   4.3980557e-01  -2.9704531e+07
   8.4028009e-10  -1.0324116e-02   9.8543332e-01   4.4129301e-01  -2.9476384e+07
   8.4294765e-10  -1.0245788e-02   9.8273051e-01   4.4277319e-01  -2.9250057e+07
   8.4561521e-10  -1.0168062e-02   9.8005400e-01   4.4424609e-01  -2.9025533e+07
   8.4828276e-10  -1.0090932e-02   9.7740347e-01   4.4571173e-01  -2.8802797e+07
   8.5095032e-10  -1.0014394e-02   9.7477864e-01   4.4717011e-01  -2.8581832e+07
   8.5361787e-10  -9.9384431e-03   9.7217921e-01   4.4862124e-01  -2.8362623e+07
   8.5628543e-10  -9.8630745e-03   9.6960491e-01   4.5006513e-01  -2.8145156e+07
   8.5895298e-10  -9.7882838e-03   9.6705545e-01   4.5150178e-01  -2.7929414e+07
   8.6162054e-10  -9.7140663e-03   9.6453055e-01   4.5293119e-01  -2.7715382e+07
   8.6428810e-10  -9.6404175e-03   9.6202994e-01   4.5435339e-01  -2.7503046e+07
   8.6695565e-10  -9.5673328e-03   9.5955335e-01   4.5576837e-01  -2.7292391e+07
   8.6962321e-10  -9.4948079e-03   9.5710051e-01   4.5717615e-01  -2.7083402e+07
   8.7229076e-10  -9.4228383e-03   9.5467116e-01   4.5857673e-01  -2.6876065e+07
   8.7495832e-10  -9.3514195e-03   9.5226505e-01   4.5997012e-01  -2.6670366e+07
   8.7762588e-10  -9.2805473e-03   9.4988190e-01   4.6135634e-01  -2.6466290e+07
   8.8029343e-10  -9.2102173e-03   9.4752148e-01   4.6273540e-01  -2.6263824e+07
   8.8296099e-10  -9.1404253e-03   9.4518352e-01   4.6410730e-01  -2.6062953e+07
   8.8562854e-10  -9.0711670e-03   9.4286779e-01   4.6547207e-01  -2.5863665e+07
   8.8829610e-10  -9.0024383e-03   9.4057404e-01   4.6682970e-01  -2.5665944e+07
   8.9096365e-10  -8.9342349e-03   9.3830203e-01   4.6818022e-01  -2.5469779e+07
   8.9363121e-10  -8.8665527e-03   9.3605152e-01   4.6952363e-01  -2.5275156e+07
   8.9629877e-10  -8.7993876e-03   9.3382228e-01   4.7085995e-01  -2.5082061e+07
   8.9896632e-10  -8.7327356e-03   9.3161408e-01   4.7218920e-01  -2.4890482e+07
   9.0163388e-10  -8.6665927e-03   9.2942669e-01   4.7351138e-01  -2.4700406e+07
   9.0430143e-10  -8.6009548e-03   9.2725988e-01   4.7482652e-01  -2.4511820e+07
   9.0696899e-10  -8.5358180e-03   9.2511343e-01   4.7613462e-01  -2.4324711e+07
   9.0963655e-10  -8.4711783e-03   9.2298712e-01   4.7743570e-01  -2.4139068e+07
   9.1230410e-10  -8.4070320e-03   9.2088074e-01   4.7872978e-01  -2.3954877e+07
   9.1497166e-10  -8.3433750e-03   9.1879407e-01   4.8001687e-01  -2.3772127e+07
   9.1763921e-10  -8.2802037e-03   9.1672690e-01   4.8129700e-01  -2.3590805e+07
   9.2030677e-10  -8.2175141e-03   9.1467902e-01   4.8257016e-01  -2.3410899e+07
   9.2297432e-10  -8.1553026e-03   9.1265022e-01   4.8383639e-01  -2.3232398e+07
   9.2564188e-10  -8.0935653e-03   9.1064031e-01   4.8509570e-01  -2.3055290e+07
   9.2830944e-10  -8.0322987e-03   9.0864907e-01   4.8634811e-01  -2.2879562e+07
   9.3097699e-10  -7.9714990e-03   9.0667632e-01   4.8759363e-01  -2.2705205e+07
   9.3364455e-10  -7.9111626e-03   9.0472185e-01   4.8883228e-01  -2.2532206e+07
   9.3631210e-10  -7.8512859e-03   9.0278547e-01   4.9006408e-01  -2.2360553e+07
   9.3897966e-10  -7.7918654e-03   9.0086699e-01   4.9128905e-01  -2.2190237e+07
   9.4164722e-10  -7.7328973e-03   8.9896623e-01   4.9250721e-01  -2.2021245e+07
   9.4431477e-10  -7.6743783e-03   8.9708299e-01   4.9371858e-01  -2.1853567e+07
   9.4698233e-10  -7.6163049e-03   8.9521709e-01   4.9492317e-01  -2.1687192e+07
   9.4964988e-10  -7.5586735e-03   8.9336835e-01   4.9612101e-01  -2.1522109e+07
   9.5231744e-10  -7.5014809e-03   8.9153659e-01   4.9731211e-01  -2.1358307e+07
   9.5498499e-10  -7.4447234e-03   8.8972163e-01   4.9849650e-01  -2.1195776e+07
   9.5765255e-10  -7.3883979e-03   8.8792330e-01   4.9967419e-01  -2.1034506e+07
   9.6032011e-10  -7.3325008e-03   8.8614142e-01   5.0084521e-01  -2.0874486e+07
   9.6298766e-10  -7.2770290e-03   8.8437582e-01   5.0200958e-01  -2.0715706e+07
   9.6565522e-10  -7.2219791e-03   8.8262634e-01   5.0316731e-01  -2.0558156e+07
   9.6832277e-10  -7.1673478e-03   8.8089280e-01   5.0431843e-01  -2.0401825e+07
   9.7099033e-10  -7.1131320e-03   8.7917505e-01   5.0546297e-01  -2.0246704e+07
   9.7365789e-10  -7.0593283e-03   8.7747291e-01   5.0660093e-01  -2.0092783e+07
   9.7632544e-10  -7.0059336e-03   8.7578623e-01   5.0773235e-01  -1.9940052e+07
   9.7899300e-10  -6.9529448e-03   8.7411485e-01   5.0885724e-01  -1.9788502e+07
   9.8166055e-10  -6.9003587e-03   8.7245861e-01   5.0997564e-01  -1.9638122e+07
   9.8432811e-10  -6.8481722e-03   8.7081736e-01   5.1108755e-01  -1.9488903e+07
   9.8699567e-10  -6.7963822e-03   8.6919094e-01   5.1219300e-01  -1.9340837e+07
   9.8966322e-10  -6.7449856e-03   8.6757920e-01   5.1329202e-01  -1.9193913e+07
   9.9233078e-10  -6.6939795e-03   8.6598200e-01   5.1438462e-01  -1.9048122e+07
   9.9499833e-10  -6.6433607e-03   8.6439917e-01   5.1547083e-01  -1.8903455e+07
   9.9766589e-10  -6.5931264e-03   8.6283059e-01   5.1655068e-01  -1.8759904e+07
   1.0003334e-09  -6.5432736e-03   8.6127609e-01   5.1762419e-01  -1.8617458e+07
   1.0030010e-09  -6.4937992e-03   8.5973555e-01   5.1869137e-01  -1.8476110e+07
   1.0056686e-09  -6.4447005e-03   8.5820881e-01   5.1975226e-01  -1.8335850e+07
   1.0083361e-09  -6.3959744e-03   8.5669575e-01   5.2080688e-01  -1.8196670e+07
   1.0110037e-09  -6.3476182e-03   8.5519622e-01   5.2185524e-01  -1.8058560e+07
   1.0136712e-09  -6.2996291e-03   8.5371008e-01   5.2289738e-01  -1.7921513e+07
   1.0163388e-09  -6.2520040e-03   8.5223720e-01   5.2393332e-01  -1.7785520e+07
   1.0190063e-09  -6.2047404e-03   8.5077745e-01   5.2496308e-01  -1.7650572e+07
   1.0216739e-09  -6.1578353e-03   8.4933070e-01   5.2598669e-01  -1.7516661e+07
   1.0243414e-09  -6.1112861e-03   8.4789682e-01   5.2700417e-01  -1.7383778e+07
   1.0270090e-09  -6.0650900e-03   8.4647567e-01   5.2801554e-01  -1.7251916e+07
   1.0296766e-09  -6.0192443e-03   8.4506713e-01   5.2902084e-01  -1.7121067e+07
   1.0323441e-09  -5.9737463e-03   8.4367108e-01   5.3002008e-01  -1.6991222e+07
   1.0350117e-09  -5.9285934e-03   8.4228739e-01   5.3101329e-01  -1.6862373e+07
   1.0376792e-09  -5.8837828e-03   8.4091594e-01   5.3200049e-01  -1.6734512e+07
   1.0403468e-09  -5.8393120e-03   8.3955661e-01   5.3298171e-01  -1.6607632e+07
   1.0430143e-09  -5.7951784e-03   8.3820928e-01   5.3395698e-01  -1.6481724e+07
   1.0456819e-09  -5.7513793e-03   8.3687382e-01   5.3492632e-01  -1.6356782e+07
   1.0483494e-09  -5.7079123e-03   8.3555013e-01   5.3588975e-01  -1.6232796e+07
   1.0510170e-09  -5.6647747e-03   8.3423809e-01   5.3684730e-01  -1.6109761e+07
   1.0536846e-09  -5.6219641e-03   8.3293757e-01   5.3779899e-01  -1.5987667e+07
   1.0563521e-09  -5.5794779e-03   8.3164848e-01   5.3874485e-01  -1.5866509e+07
   1.0590197e-09  -5.5373137e-03   8.3037069e-01   5.3968491e-01  -1.5746278e+07
   1.0616872e-09  -5.4954689e-03   8.2910411e-01   5.4061919e-01  -1.5626966e+07
   1.0643548e-09  -5.4539412e-03   8.2784860e-01   5.4154771e-01  -1.5508568e+07
   1.0670223e-09  -5.4127282e-03   8.2660408e-01   5.4247051e-01  -1.5391075e+07
   1.0696899e-09  -5.3718274e-03   8.2537043e-01   5.4338760e-01  -1.5274480e+07
   1.0723575e-09  -5.3312363e-03   8.2414755e-01   5.4429902e-01  -1.5158777e+07
   1.0750250e-09  -5.2909528e-03   8.2293533e-01   5.4520478e-01  -1.5043958e+07
   1.0776926e-09  -5.2509744e-03   8.2173367e-01   5.4610492e-01  -1.4930017e+07
   1.0803601e-09  -5.2112987e-03   8.2054247e-01   5.4699946e-01  -1.4816946e+07
   1.0830277e-09  -5.1719236e-03   8.1936162e-01   5.4788842e-01  -1.4704738e+07
   1.0856952e-09  -5.1328466e-03   8.1819103e-01   5.4877183e-01  -1.4593388e+07
   1.0883628e-09  -5.0940655e-03   8.1703060e-01   5.4964972e-01  -1.4482887e+07
   1.0910303e-09  -5.0555780e-03   8.1588022e-01   5.5052211e-01  -1.4373230e+07
   1.0936979e-09  -5.0173820e-03   8.1473981e-01   5.5138903e-01  -1.4264410e+07
   1.0963655e-09  -4.9794751e-03   8.1360926e-01   5.5225051e-01  -1.4156420e+07
   1.0990330e-09  -4.9418552e-03   8.1248849e-01   5.5310656e-01  -1.4049254e+07
   1.1017006e-09  -4.9045200e-03   8.1137740e-01   5.5395722e-01  -1.3942905e+07
   1.1043681e-09  -4.8674675e-03   8.1027590e-01   5.5480251e-01  -1.3837368e+07
   1.1070357e-09  -4.8306954e-03   8.0918389e-01   5.5564246e-01  -1.3732634e+07
   1.1097032e-09  -4.7942017e-03   8.0810128e-01   5.5647709e-01  -1.3628700e+07
   1.1123708e-09  -4.7579841e-03   8.0702799e-01   5.5730643e-01  -1.3525557e+07
   1.1150383e-09  -4.7220406e-03   8.0596393e-01   5.5813050e-01  -1.3423200e+07
   1.1177059e-09  -4.6863691e-03   8.0490901e-01   5.5894934e-01  -1.3321623e+07
   1.1203735e-09  -4.6509676e-03   8.0386314e-01   5.5976296e-01  -1.3220820e+07
   1.1230410e-09  -4.6158339e-03   8.0282624e-01   5.6057139e-01  -1.3120784e+07
   1.1257086e-09  -4.5809661e-03   8.0179822e-01   5.6137467e-01  -1.3021511e+07
   1.1283761e-09  -4.5463621e-03   8.0077900e-01   5.6217280e-01  -1.2922993e+07
   1.1310437e-09  -4.5120198e-03   7.9976850e-01   5.6296583e-01  -1.2825225e+07
   1.1337112e-09  -4.4779374e-03   7.9876663e-01   5.6375377e-01  -1.2728201e+07
   1.1363788e-09  -4.4441128e-03   7.9777332e-01   5.6453665e-01  -1.2631915e+07
   1.1390463e-09  -4.4105441e-03   7.9678847e-01   5.6531449e-01  -1.2536362e+07
   1.1417139e-09  -4.3772293e-03   7.9581202e-01   5.6608733e-01  -1.2441536e+07
   1.1443815e-09  -4.3441665e-03   7.9484389e-01   5.6685519e-01  -1.2347431e+07
   1.1470490e-09  -4.3113538e-03   7.9388399e-01   5.6761809e-01  -1.2254042e+07
   1.1497166e-09  -4.2787892e-03   7.9293226e-01   5.6837606e-01  -1.2161363e+07
   1.1523841e-09  -4.2464709e-03   7.9198861e-01   5.6912913e-01  -1.2069389e+07
   1.1550517e-09  -4.2143971e-03   7.9105297e-01   5.6987731e-01  -1.1978113e+07
   1.1577192e-09  -4.1825658e-03   7.9012526e-01   5.7062064e-01  -1.1887532e+07
   1.1603868e-09  -4.1509752e-03   7.8920542e-01   5.7135915e-01  -1.1797639e+07
   1.1630544e-09  -4.1196234e-03   7.8829336e-01   5.7209284e-01  -1.1708429e+07
   1.1657219e-09  -4.0885088e-03   7.8738902e-01   5.7282176e-01  -1.1619897e+07
   1.1683895e-09  -4.0576294e-03   7.8649232e-01   5.7354593e-01  -1.1532037e+07
   1.1710570e-09  -4.0269835e-03   7.8560320e-01   5.7426537e-01  -1.1444845e+07
   1.1737246e-09  -3.9965693e-03   7.8472158e-01   5.7498011e-01  -1.1358315e+07
   1.1763921e-09  -3.9663851e-03   7.8384740e-01   5.7569017e-01  -1.1272442e+07
   1.1790597e-09  -3.9364290e-03   7.8298059e-01   5.7639558e-01  -1.1187222e+07
   1.1817272e-09  -3.9066994e-03   7.8212107e-01   5.7709636e-01  -1.1102648e+07
   1.1843948e-09  -3.8771946e-03   7.8126879e-01   5.7779254e-01  -1.1018716e+07
   1.1870624e-09  -3.8479128e-03   7.8042367e-01   5.7848414e-01  -1.0935421e+07
   1.1897299e-09  -3.8188524e-03   7.7958566e-01   5.7917119e-01  -1.0852759e+07
   1.1923975e-09  -3.7900116e-03   7.7875468e-01   5.7985371e-01  -1.0770724e+07
   1.1950650e-09  -3.7613888e-03   7.7793067e-01   5.8053173e-01  -1.0689311e+07
   1.1977326e-09  -3.7329824e-03   7.7711357e-01   5.8120528e-01  -1.0608516e+07
   1.2004001e-09  -3.7047907e-03   7.7630331e-01   5.8187437e-01  -1.0528334e+07
   1.2030677e-09  -3.6768120e-03   7.7549984e-01   5.8253903e-01  -1.0448761e+07
   1.2057352e-09  -3.6490449e-03   7.7470308e-01   5.8319929e-01  -1.0369790e+07
   1.2084028e-09  -3.6214875e-03   7.7391299e-01   5.8385517e-01  -1.0291419e+07
   1.2110704e-09  -3.5941385e-03   7.7312950e-01   5.8450669e-01  -1.0213642e+07
   1.2137379e-09  -3.5669961e-03   7.7235254e-01   5.8515388e-01  -1.0136455e+07
   1.2164055e-09  -3.5400589e-03   7.7158207e-01   5.8579677e-01  -1.0059853e+07
   1.2190730e-09  -3.5133252e-03   7.7081802e-01   5.8643538e-01  -9.9838319e+06
   1.2217406e-09  -3.4867935e-03   7.7006033e-01   5.8706972e-01  -9.9083870e+06
   1.2244081e-09  -3.4604623e-03   7.6930895e-01   5.8769984e-01  -9.8335140e+06
   1.2270757e-09  -3.4343301e-03   7.6856382e-01   5.8832574e-01  -9.7592085e+06
   1.2297432e-09  -3.4083954e-03   7.6782488e-01   5.8894746e-01  -9.6854661e+06
   1.2324108e-09  -3.3826566e-03   7.6709209e-01   5.8956502e-01  -9.6122826e+06
   1.2350784e-09  -3.3571123e-03   7.6636537e-01   5.9017844e-01  -9.5396536e+06
   1.2377459e-09  -3.3317610e-03   7.6564468e-01   5.9078774e-01  -9.4675749e+06
   1.2404135e-09  -3.3066013e-03   7.6492997e-01   5.9139296e-01  -9.3960422e+06
   1.2430810e-09  -3.2816316e-03   7.6422118e-01   5.9199411e-01  -9.3250515e+06
   1.2457486e-09  -3.2568506e-03   7.6351826e-01   5.9259121e-01  -9.2545986e+06
   1.2484161e-09  -3.2322569e-03   7.6282115e-01   5.9318429e-01  -9.1846793e+06
   1.2510837e-09  -3.2078489e-03   7.6212981e-01   5.9377338e-01  -9.1152896e+06
   1.2537513e-09  -3.1836253e-03   7.6144418e-01   5.9435849e-01  -9.0464254e+06
   1.2564188e-09  -3.1595848e-03   7.6076421e-01   5.9493966e-01  -8.9780826e+06
   1.2590864e-09  -3.1357258e-03   7.6008985e-01   5.9551689e-01  -8.9102575e+06
   1.2617539e-09  -3.1120471e-03   7.5942105e-01   5.9609023e-01  -8.8429458e+06
   1.2644215e-09  -3.0885473e-03   7.5875777e-01   5.9665968e-01  -8.7761438e+06
   1.2670890e-09  -3.0652250e-03   7.5809995e-01   5.9722527e-01  -8.7098476e+06
   1.2697566e-09  -3.0420788e-03   7.5744755e-01   5.9778703e-01  -8.6440532e+06
   1.2724241e-09  -3.0191075e-03   7.5680051e-01   5.9834497e-01  -8.5787569e+06
   1.2750917e-09  -2.9963098e-03   7.5615879e-01   5.9889913e-01  -8.5139549e+06
   1.2777593e-09  -2.9736842e-03   7.5552235e-01   5.9944951e-01  -8.4496433e+06
   1.2804268e-09  -2.9512296e-03   7.5489113e-01   5.9999615e-01  -8.3858185e+06
   1.2830944e-09  -2.9289445e-03   7.5426509e-01   6.0053907e-01  -8.3224767e+06
   1.2857619e-09  -2.9068278e-03   7.5364419e-01   6.0107829e-01  -8.2596142e+06
   1.2884295e-09  -2.8848782e-03   7.5302838e-01   6.0161383e-01  -8.1972274e+06
   1.2910970e-09  -2.8630943e-03   7.5241761e-01   6.0214572e-01  -8.1353128e+06
   1.2937646e-09  -2.8414750e-03   7.5181185e-01   6.0267397e-01  -8.0738665e+06
   1.2964321e-09  -2.8200189e-03   7.5121104e-01   6.0319860e-01  -8.0128852e+06
   1.2990997e-09  -2.7987249e-03   7.5061515e-01   6.0371965e-01  -7.9523652e+06
   1.3017673e-09  -2.7775918e-03   7.5002412e-01   6.0423713e-01  -7.8923031e+06
   1.3044348e-09  -2.7566182e-03   7.4943793e-01   6.0475106e-01  -7.8326953e+06
   1.3071024e-09  -2.7358031e-03   7.4885652e-01   6.0526147e-01  -7.7735384e+06
   1.3097699e-09  -2.7151451e-03   7.4827985e-01   6.0576837e-01  -7.7148290e+06
   1.3124375e-09  -2.6946432e-03   7.4770789e-01   6.0627179e-01  -7.6565636e+06
   1.3151050e-09  -2.6742961e-03   7.4714059e-01   6.0677175e-01  -7.5987389e+06
   1.3177726e-09  -2.6541027e-03   7.4657791e-01   6.0726827e-01  -7.5413516e+06
   1.3204401e-09  -2.6340618e-03   7.4601981e-01   6.0776136e-01  -7.4843982e+06
   1.3231077e-09  -2.6141723e-03   7.4546626e-01   6.0825107e-01  -7.4278756e+06
   1.3257753e-09  -2.5944329e-03   7.4491721e-01   6.0873739e-01  -7.3717803e+06
   1.3284428e-09  -2.5748426e-03   7.4437262e-01   6.0922036e-01  -7.3161093e+06
   1.3311104e-09  -2.5554003e-03   7.4383245e-01   6.0969999e-01  -7.2608591e+06
   1.3337779e-09  -2.5361048e-03   7.4329668e-01   6.1017631e-01  -7.2060268e+06
   1.3364455e-09  -2.5169550e-03   7.4276525e-01   6.1064934e-01  -7.1516090e+06
   1.3391130e-09  -2.4979498e-03   7.4223813e-01   6.1111909e-01  -7.0976026e+06
   1.3417806e-09  -2.4790881e-03   7.4171529e-01   6.1158559e-01  -7.0440045e+06
   1.3444481e-09  -2.4603689e-03   7.4119668e-01   6.1204885e-01  -6.9908116e+06
   1.3471157e-09  -2.4417910e-03   7.4068227e-01   6.1250890e-01  -6.9380208e+06
   1.3497833e-09  -2.4233534e-03   7.4017203e-01   6.1296576e-01  -6.8856291e+06
   1.3524508e-09  -2.4050551e-03   7.3966592e-01   6.1341945e-01  -6.8336334e+06
   1.3551184e-09  -2.3868949e-03   7.3916390e-01   6.1386999e-01  -6.7820307e+06
   1.3577859e-09  -2.3688719e-03   7.3866594e-01   6.1431739e-01  -6.7308181e+06
   1.3604535e-09  -2.3509849e-03   7.3817200e-01   6.1476168e-01  -6.6799925e+06
   1.3631210e-09  -2.3332330e-03   7.3768205e-01   6.1520287e-01  -6.6295511e+06
   1.3657886e-09  -2.3156152e-03   7.3719606e-01   6.1564100e-01  -6.5794909e+06
   1.3684562e-09  -2.2981304e-03   7.3671399e-01   6.1607606e-01  -6.5298090e+06
   1.3711237e-09  -2.2807776e-03   7.3623580e-01   6.1650810e-01  -6.4805026e+06
   1.3737913e-09  -2.2635559e-03   7.3576147e-01   6.1693711e-01  -6.4315688e+06
   1.3764588e-09  -2.2464642e-03   7.3529096e-01   6.1736313e-01  -6.3830048e+06
   1.3791264e-09  -2.2295015e-03   7.3482424e-01   6.1778618e-01  -6.3348078e+06
   1.3817939e-09  -2.2126669e-03   7.3436128e-01   6.1820626e-01  -6.2869750e+06
   1.3844615e-09  -2.1959595e-03   7.3390204e-01   6.1862341e-01  -6.2395036e+06
   1.3871290e-09  -2.1793782e-03   7.3344649e-01   6.1903763e-01  -6.1923909e+06
   1.3897966e-09  -2.1629221e-03   7.3299461e-01   6.1944895e-01  -6.1456341e+06
   1.3924642e-09  -2.1465902e-03   7.3254636e-01   6.1985739e-01  -6.0992307e+06
   1.3951317e-09  -2.1303817e-03   7.3210170e-01   6.2026297e-01  -6.0531778e+06
   1.3977993e-09  -2.1142956e-03   7.3166062e-01   6.2066569e-01  -6.0074729e+06
   1.4004668e-09  -2.0983309e-03   7.3122308e-01   6.2106559e-01  -5.9621133e+06
   1.4031344e-09  -2.0824867e-03   7.3078904e-01   6.2146268e-01  -5.9170963e+06
   1.4058019e-09  -2.0667622e-03   7.3035849e-01   6.2185698e-01  -5.8724195e+06
   1.4084695e-09  -2.0511564e-03   7.2993138e-01   6.2224850e-01  -5.8280801e+06
   1.4111370e-09  -2.0356685e-03   7.2950770e-01   6.2263727e-01  -5.7840758e+06
   1.4138046e-09  -2.0202975e-03   7.2908740e-01   6.2302330e-01  -5.7404038e+06
   1.4164722e-09  -2.0050425e-03   7.2867048e-01   6.2340661e-01  -5.6970617e+06
   1.4191397e-09  -1.9899027e-03   7.2825688e-01   6.2378722e-01  -5.6540470e+06
   1.4218073e-09  -1.9748772e-03   7.2784660e-01   6.2416515e-01  -5.6113573e+06
   1.4244748e-09  -1.9599652e-03   7.2743959e-01   6.2454040e-01  -5.5689900e+06
   1.4271424e-09  -1.9451658e-03   7.2703584e-01   6.2491301e-01  -5.5269427e+06
   1.4298099e-09  -1.9304781e-03   7.2663531e-01   6.2528298e-01  -5.4852130e+06
   1.4324775e-09  -1.9159013e-03   7.2623798e-01   6.2565034e-01  -5.4437985e+06
   1.4351450e-09  -1.9014346e-03   7.2584382e-01   6.2601510e-01  -5.4026968e+06
   1.4378126e-09  -1.8870770e-03   7.2545280e-01   6.2637728e-01  -5.3619056e+06
   1.4404802e-09  -1.8728279e-03   7.2506490e-01   6.2673690e-01  -5.3214224e+06
   1.4431477e-09  -1.8586864e-03   7.2468009e-01   6.2709397e-01  -5.2812450e+06
   1.4458153e-09  -1.8446516e-03   7.2429835e-01   6.2744850e-01  -5.2413710e+06
   1.4484828e-09  -1.8307228e-03   7.2391965e-01   6.2780053e-01  -5.2017982e+06
   1.4511504e-09  -1.8168992e-03   7.2354397e-01   6.2815005e-01  -5.1625242e+06
   1.4538179e-09  -1.8031799e-03   7.2317127e-01   6.2849710e-01  -5.1235468e+06
   1.4564855e-09  -1.7895643e-03   7.2280154e-01   6.2884168e-01  -5.0848638e+06
   1.4591531e-09  -1.7760514e-03   7.2243475e-01   6.2918381e-01  -5.0464729e+06
   1.4618206e-09  -1.7626405e-03   7.2207088e-01   6.2952352e-01  -5.0083719e+06
   1.4644882e-09  -1.7493309e-03   7.2170989e-01   6.2986080e-01  -4.9705586e+06
   1.4671557e-09  -1.7361218e-03   7.2135178e-01   6.3019569e-01  -4.9330309e+06
   1.4698233e-09  -1.7230124e-03   7.2099650e-01   6.3052819e-01  -4.8957866e+06
   1.4724908e-09  -1.7100020e-03   7.2064405e-01   6.3085833e-01  -4.8588236e+06
   1.4751584e-09  -1.6970898e-03   7.2029440e-01   6.3118611e-01  -4.8221396e+06
   1.4778259e-09  -1.6842751e-03   7.1994752e-01   6.3151155e-01  -4.7857327e+06
   1.4804935e-09  -1.6715571e-03   7.1960338e-01   6.3183468e-01  -4.7496006e+06
   1.4831611e-09  -1.6589352e-03   7.1926198e-01   6.3215550e-01  -4.7137414e+06
   1.4858286e-09  -1.6464086e-03   7.1892328e-01   6.3247403e-01  -4.6781530e+06
   1.4884962e-09  -1.6339765e-03   7.1858727e-01   6.3279029e-01  -4.6428333e+06
   1.4911637e-09  -1.6216383e-03   7.1825391e-01   6.3310428e-01  -4.6077802e+06
   1.4938313e-09  -1.6093933e-03   7.1792319e-01   6.3341604e-01  -4.5729919e+06
   1.4964988e-09  -1.5972407e-03   7.1759509e-01   6.3372556e-01  -4.5384662e+06
   1.4991664e-09  -1.5851798e-03   7.1726959e-01   6.3403287e-01  -4.5042012e+06
   1.5018339e-09  -1.5732100e-03   7.1694666e-01   6.3433798e-01  -4.4701950e+06
   1.5045015e-09  -1.5613306e-03   7.1662628e-01   6.3464091e-01  -4.4364454e+06
   1.5071691e-09  -1.5495409e-03   7.1630843e-01   6.3494167e-01  -4.4029507e+06
   1.5098366e-09  -1.5378401e-03   7.1599310e-01   6.3524027e-01  -4.3697089e+06
   1.5125042e-09  -1.5262278e-03   7.1568025e-01   6.3553673e-01  -4.3367181e+06
   1.5151717e-09  -1.5147031e-03   7.1536987e-01   6.3583107e-01  -4.3039764e+06
   1.5178393e-09  -1.5032654e-03   7.1506195e-01   6.3612329e-01  -4.2714818e+06
   1.5205068e-09  -1.4919140e-03   7.1475645e-01   6.3641342e-01  -4.2392326e+06
   1.5231744e-09  -1.4806484e-03   7.1445336e-01   6.3670146e-01  -4.2072269e+06
   1.5258419e-09  -1.4694678e-03   7.1415266e-01   6.3698744e-01  -4.1754628e+06
   1.5285095e-09  -1.4583716e-03   7.1385433e-01   6.3727136e-01  -4.1439385e+06
   1.5311771e-09  -1.4473592e-03   7.1355836e-01   6.3755324e-01  -4.1126522e+06
   1.5338446e-09  -1.4364299e-03   7.1326471e-01   6.3783309e-01  -4.0816022e+06
   1.5365122e-09  -1.4255832e-03   7.1297337e-01   6.3811093e-01  -4.0507865e+06
   1.5391797e-09  -1.4148183e-03   7.1268433e-01   6.3838677e-01  -4.0202035e+06
   1.5418473e-09  -1.4041348e-03   7.1239757e-01   6.3866063e-01  -3.9898513e+06
   1.5445148e-09  -1.3935318e-03   7.1211306e-01   6.3893251e-01  -3.9597284e+06
   1.5471824e-09  -1.3830090e-03   7.1183078e-01   6.3920243e-01  -3.9298328e+06
   1.5498499e-09  -1.3725655e-03   7.1155073e-01   6.3947041e-01  -3.9001629e+06
   1.5525175e-09  -1.3622010e-03   7.1127288e-01   6.3973646e-01  -3.8707170e+06
   1.5551851e-09  -1.3519146e-03   7.1099721e-01   6.4000059e-01  -3.8414934e+06
   1.5578526e-09  -1.3417060e-03   7.1072370e-01   6.4026281e-01  -3.8124905e+06
   1.5605202e-09  -1.3315744e-03   7.1045235e-01   6.4052314e-01  -3.7837064e+06
   1.5631877e-09  -1.3215193e-03   7.1018312e-01   6.4078159e-01  -3.7551397e+06
   1.5658553e-09  -1.3115401e-03   7.0991601e-01   6.4103817e-01  -3.7267886e+06
   1.5685228e-09  -1.3016363e-03   7.0965099e-01   6.4129290e-01  -3.6986516e+06
   1.5711904e-09  -1.2918072e-03   7.0938806e-01   6.4154579e-01  -3.6707270e+06
   1.5738580e-09  -1.2820524e-03   7.0912718e-01   6.4179685e-01  -3.6430131e+06
   1.5765255e-09  -1.2723712e-03   7.0886835e-01   6.4204610e-01  -3.6155085e+06
   1.5791931e-09  -1.2627630e-03   7.0861155e-01   6.4229354e-01  -3.5882115e+06
   1.5818606e-09  -1.2532275e-03   7.0835676e-01   6.4253919e-01  -3.5611206e+06
   1.5845282e-09  -1.2437639e-03   7.0810397e-01   6.4278306e-01  -3.5342342e+06
   1.5871957e-09  -1.2343718e-03   7.0785315e-01   6.4302517e-01  -3.5075508e+06
   1.5898633e-09  -1.2250505e-03   7.0760430e-01   6.4326552e-01  -3.4810688e+06
   1.5925308e-09  -1.2157997e-03   7.0735740e-01   6.4350413e-01  -3.4547867e+06
   1.5951984e-09  -1.2066187e-03   7.0711243e-01   6.4374102e-01  -3.4287030e+06
   1.5978660e-09  -1.1975070e-03   7.0686938e-01   6.4397618e-01  -3.4028162e+06
   1.6005335e-09  -1.1884641e-03   7.0662822e-01   6.4420964e-01  -3.3771248e+06
   1.6032011e-09  -1.1794895e-03   7.0638896e-01   6.4444140e-01  -3.3516273e+06
   1.6058686e-09  -1.1705826e-03   7.0615156e-01   6.4467148e-01  -3.3263224e+06
   1.6085362e-09  -1.1617430e-03   7.0591602e-01   6.4489989e-01  -3.3012084e+06
   1.6112037e-09  -1.1529702e-03   7.0568232e-01   6.4512665e-01  -3.2762841e+06
   1.6138713e-09  -1.1442635e-03   7.0545044e-01   6.4535175e-01  -3.2515478e+06
   1.6165388e-09  -1.1356226e-03   7.0522038e-01   6.4557522e-01  -3.2269984e+06
   1.6192064e-09  -1.1270470e-03   7.0499211e-01   6.4579706e-01  -3.2026342e+06
   1.6218740e-09  -1.1185361e-03   7.0476563e-01   6.4601730e-01  -3.1784539e+06
   1.6245415e-09  -1.1100894e-03   7.0454091e-01   6.4623593e-01  -3.1544562e+06
   1.6272091e-09  -1.1017065e-03   7.0431794e-01   6.4645297e-01  -3.1306396e+06
   1.6298766e-09  -1.0933869e-03   7.0409671e-01   6.4666843e-01  -3.1070028e+06
   1.6325442e-09  -1.0851302e-03   7.0387721e-01   6.4688232e-01  -3.0835445e+06
   1.6352117e-09  -1.0769357e-03   7.0365942e-01   6.4709465e-01  -3.0602632e+06
   1.6378793e-09  -1.0688032e-03   7.0344333e-01   6.4730544e-01  -3.0371577e+06
   1.6405468e-09  -1.0607320e-03   7.0322892e-01   6.4751469e-01  -3.0142265e+06
   1.6432144e-09  -1.0527218e-03   7.0301618e-01   6.4772242e-01  -2.9914685e+06
   1.6458820e-09  -1.0447720e-03   7.0280510e-01   6.4792863e-01  -2.9688823e+06
   1.6485495e-09  -1.0368823e-03   7.0259566e-01   6.4813334e-01  -2.9464666e+06
   1.6512171e-09  -1.0290522e-03   7.0238786e-01   6.4833655e-01  -2.9242200e+06
   1.6538846e-09  -1.0212811e-03   7.0218167e-01   6.4853828e-01  -2.9021414e+06
   1.6565522e-09  -1.0135688e-03   7.0197708e-01   6.4873854e-01  -2.8802295e+06
   1.6592197e-09  -1.0059146e-03   7.0177409e-01   6.4893734e-01  -2.8584830e+06
   1.6618873e-09  -9.9831830e-04   7.0157267e-01   6.4913469e-01  -2.8369006e+06
   1.6645549e-09  -9.9077932e-04   7.0137283e-01   6.4933060e-01  -2.8154812e+06
   1.6672224e-09  -9.8329726e-04   7.0117453e-01   6.4952507e-01  -2.7942234e+06
   1.6698900e-09  -9.7587169e-04   7.0097778e-01   6.4971812e-01  -2.7731261e+06
   1.6725575e-09  -9.6850218e-04   7.0078256e-01   6.4990977e-01  -2.7521881e+06
   1.6752251e-09  -9.6118832e-04   7.0058885e-01   6.5010001e-01  -2.7314081e+06
   1.6778926e-09  -9.5392968e-04   7.0039665e-01   6.5028886e-01  -2.7107849e+06
   1.6805602e-09  -9.4672584e-04   7.0020594e-01   6.5047633e-01  -2.6903175e+06
   1.6832277e-09  -9.3957640e-04   7.0001671e-01   6.5066242e-01  -2.6700045e+06
   1.6858953e-09  -9.3248094e-04   6.9982895e-01   6.5084716e-01  -2.6498449e+06
   1.6885629e-09  -9.2543905e-04   6.9964265e-01   6.5103054e-01  -2.6298375e+06
   1.6912304e-09  -9.1845033e-04   6.9945780e-01   6.5121258e-01  -2.6099811e+06
   1.6938980e-09  -9.1151438e-04   6.9927438e-01   6.5139329e-01  -2.5902746e+06
   1.6965655e-09  -9.0463079e-04   6.9909238e-01   6.5157267e-01  -2.5707168e+06
   1.6992331e-09  -8.9779919e-04   6.9891179e-01   6.5175074e-01  -2.5513067e+06
   1.7019006e-09  -8.9101916e-04   6.9873261e-01   6.5192750e-01  -2.5320431e+06
   1.7045682e-09  -8.8429033e-04   6.9855481e-01   6.5210297e-01  -2.5129249e+06
   1.7072357e-09  -8.7761230e-04   6.9837839e-01   6.5227715e-01  -2.4939510e+06
   1.7099033e-09  -8.7098469e-04   6.9820334e-01   6.5245006e-01  -2.4751204e+06
   1.7125709e-09  -8.6440713e-04   6.9802965e-01   6.5262169e-01  -2.4564319e+06
   1.7152384e-09  -8.5787923e-04   6.9785730e-01   6.5279207e-01  -2.4378845e+06
   1.7179060e-09  -8.5140062e-04   6.9768628e-01   6.5296120e-01  -2.4194770e+06
   1.7205735e-09  -8.4497093e-04   6.9751659e-01   6.5312908e-01  -2.4012086e+06
   1.7232411e-09  -8.3858979e-04   6.9734822e-01   6.5329573e-01  -2.3830780e+06
   1.7259086e-09  -8.3225682e-04   6.9718114e-01   6.5346116e-01  -2.3650843e+06
   1.7285762e-09  -8.2597168e-04   6.9701536e-01   6.5362537e-01  -2.3472265e+06
   1.7312437e-09  -8.1973399e-04   6.9685087e-01   6.5378838e-01  -2.3295034e+06
   1.7339113e-09  -8.1354340e-04   6.9668764e-01   6.5395019e-01  -2.3119142e+06
   1.7365789e-09  -8.0739955e-04   6.9652568e-01   6.5411081e-01  -2.2944577e+06
   1.7392464e-09  -8.0130210e-04   6.9636497e-01   6.5427025e-01  -2.2771329e+06
   1.7419140e-09  -7.9525068e-04   6.9620551e-01   6.5442851e-01  -2.2599390e+06
   1.7445815e-09  -7.8924496e-04   6.9604727e-01   6.5458561e-01  -2.2428749e+06
   1.7472491e-09  -7.8328458e-04   6.9589026e-01   6.5474156e-01  -2.2259395e+06
   1.7499166e-09  -7.7736921e-04   6.9573447e-01   6.5489636e-01  -2.2091321e+06
   1.7525842e-09  -7.7149850e-04   6.9557988e-01   6.5505002e-01  -2.1924515e+06
   1.7552518e-09  -7.6567212e-04   6.9542648e-01   6.5520255e-01  -2.1758968e+06
   1.7579193e-09  -7.5988974e-04   6.9527427e-01   6.5535396e-01  -2.1594671e+06
   1.7605869e-09  -7.5415102e-04   6.9512323e-01   6.5550425e-01  -2.1431614e+06
   1.7632544e-09  -7.4845563e-04   6.9497336e-01   6.5565343e-01  -2.1269788e+06
   1.7659220e-09  -7.4280324e-04   6.9482464e-01   6.5580152e-01  -2.1109183e+06
   1.7685895e-09  -7.3719353e-04   6.9467708e-01   6.5594851e-01  -2.0949791e+06
   1.7712571e-09  -7.3162619e-04   6.9453065e-01   6.5609442e-01  -2.0791602e+06
   1.7739246e-09  -7.2610088e-04   6.9438536e-01   6.5623926e-01  -2.0634608e+06
   1.7765922e-09  -7.2061729e-04   6.9424118e-01   6.5638303e-01  -2.0478798e+06
   1.7792598e-09  -7.1517511e-04   6.9409812e-01   6.5652573e-01  -2.0324165e+06
   1.7819273e-09  -7.0977402e-04   6.9395616e-01   6.5666739e-01  -2.0170699e+06
   1.7845949e-09  -7.0441371e-04   6.9381529e-01   6.5680800e-01  -2.0018392e+06
   1.7872624e-09  -6.9909388e-04   6.9367552e-01   6.5694757e-01  -1.9867234e+06
   1.7899300e-09  -6.9381422e-04   6.9353682e-01   6.5708612e-01  -1.9717218e+06
   1.7925975e-09  -6.8857442e-04   6.9339918e-01   6.5722364e-01  -1.9568334e+06
   1.7952651e-09  -6.8337420e-04   6.9326261e-01   6.5736014e-01  -1.9420574e+06
   1.7979326e-09  -6.7821323e-04   6.9312710e-01   6.5749564e-01  -1.9273929e+06
   1.8006002e-09  -6.7309124e-04   6.9299262e-01   6.5763014e-01  -1.9128392e+06
   1.8032678e-09  -6.6800793e-04   6.9285919e-01   6.5776364e-01  -1.8983953e+06
   1.8059353e-09  -6.6296299e-04   6.9272678e-01   6.5789616e-01  -1.8840604e+06
   1.8086029e-09  -6.5795616e-04   6.9259539e-01   6.5802770e-01  -1.8698338e+06
   1.8112704e-09  -6.5298713e-04   6.9246501e-01   6.5815827e-01  -1.8557146e+06
   1.8139380e-09  -6.4805562e-04   6.9233563e-01   6.5828787e-01  -1.8417019e+06
   1.8166055e-09  -6.4316135e-04   6.9220726e-01   6.5841652e-01  -1.8277951e+06
   1.8192731e-09  -6.3830404e-04   6.9207987e-01   6.5854421e-01  -1.8139932e+06
   1.8219406e-09  -6.3348340e-04   6.9195346e-01   6.5867096e-01  -1.8002955e+06
   1.8246082e-09  -6.2869917e-04   6.9182802e-01   6.5879677e-01  -1.7867012e+06
   1.8272758e-09  -6.2395106e-04   6.9170355e-01   6.5892165e-01  -1.7732096e+06
   1.8299433e-09  -6.1923881e-04   6.9158004e-01   6.5904561e-01  -1.7598198e+06
   1.8326109e-09  -6.1456213e-04   6.9145747e-01   6.5916865e-01  -1.7465311e+06
   1.8352784e-09  -6.0992078e-04   6.9133585e-01   6.5929078e-01  -1.7333427e+06
   1.8379460e-09  -6.0531447e-04   6.9121517e-01   6.5941201e-01  -1.7202539e+06
   1.8406135e-09  -6.0074294e-04   6.9109541e-01   6.5953233e-01  -1.7072639e+06
   1.8432811e-09  -5.9620594e-04   6.9097657e-01   6.5965177e-01  -1.6943719e+06
   1.8459486e-09  -5.9170319e-04   6.9085865e-01   6.5977033e-01  -1.6815773e+06
   1.8486162e-09  -5.8723445e-04   6.9074163e-01   6.5988800e-01  -1.6688793e+06
   1.8512838e-09  -5.8279945e-04   6.9062551e-01   6.6000481e-01  -1.6562771e+06
   1.8539513e-09  -5.7839794e-04   6.9051029e-01   6.6012074e-01  -1.6437701e+06
   1.8566189e-09  -5.7402967e-04   6.9039595e-01   6.6023582e-01  -1.6313575e+06
   1.8592864e-09  -5.6969439e-04   6.9028249e-01   6.6035005e-01  -1.6190386e+06
   1.8619540e-09  -5.6539184e-04   6.9016990e-01   6.6046343e-01  -1.6068127e+06
   1.8646215e-09  -5.6112178e-04   6.9005817e-01   6.6057597e-01  -1.5946792e+06
   1.8672891e-09  -5.5688396e-04   6.8994730e-01   6.6068768e-01  -1.5826372e+06
   1.8699567e-09  -5.5267815e-04   6.8983729e-01   6.6079855e-01  -1.5706861e+06
   1.8726242e-09  -5.4850410e-04   6.8972812e-01   6.6090861e-01  -1.5588253e+06
   1.8752918e-09  -5.4436156e-04   6.8961978e-01   6.6101785e-01  -1.5470540e+06
   1.8779593e-09  -5.4025031e-04   6.8951228e-01   6.6112628e-01  -1.5353715e+06
   1.8806269e-09  -5.3617011e-04   6.8940560e-01   6.6123390e-01  -1.5237773e+06
   1.8832944e-09  -5.3212071e-04   6.8929975e-01   6.6134073e-01  -1.5122706e+06
   1.8859620e-09  -5.2810190e-04   6.8919470e-01   6.6144676e-01  -1.5008508e+06
   1.8886295e-09  -5.2411343e-04   6.8909046e-01   6.6155201e-01  -1.4895172e+06
   1.8912971e-09  -5.2015508e-04   6.8898702e-01   6.6165647e-01  -1.4782691e+06
   1.8939647e-09  -5.1622662e-04   6.8888437e-01   6.6176016e-01  -1.4671060e+06
   1.8966322e-09  -5.1232783e-04   6.8878251e-01   6.6186308e-01  -1.4560272e+06
   1.8992998e-09  -5.0845848e-04   6.8868143e-01   6.6196524e-01  -1.4450320e+06
   1.9019673e-09  -5.0461835e-04   6.8858113e-01   6.6206663e-01  -1.4341198e+06
   1.9046349e-09  -5.0080722e-04   6.8848160e-01   6.6216728e-01  -1.4232900e+06
   1.9073024e-09  -4.9702487e-04   6.8838282e-01   6.6226717e-01  -1.4125419e+06
   1.9099700e-09  -4.9327108e-04   6.8828481e-01   6.6236633e-01  -1.4018750e+06
   1.9126375e-09  -4.8954564e-04   6.8818755e-01   6.6246475e-01  -1.3912887e+06
   1.9153051e-09  -4.8584833e-04   6.8809103e-01   6.6256243e-01  -1.3807822e+06
   1.9179727e-09  -4.8217894e-04   6.8799525e-01   6.6265939e-01  -1.3703551e+06
   1.9206402e-09  -4.7853726e-04   6.8790021e-01   6.6275563e-01  -1.3600067e+06
   1.9233078e-09  -4.7492308e-04   6.8780589e-01   6.6285115e-01  -1.3497365e+06
   1.9259753e-09  -4.7133619e-04   6.8771230e-01   6.6294597e-01  -1.3395438e+06
   1.9286429e-09  -4.6777640e-04   6.8761942e-01   6.6304008e-01  -1.3294280e+06
   1.9313104e-09  -4.6424348e-04   6.8752725e-01   6.6313349e-01  -1.3193886e+06
   1.9339780e-09  -4.6073724e-04   6.8743579e-01   6.6322620e-01  -1.3094250e+06
   1.9366455e-09  -4.5725748e-04   6.8734503e-01   6.6331822e-01  -1.2995367e+06
   1.9393131e-09  -4.5380400e-04   6.8725497e-01   6.6340956e-01  -1.2897229e+06
   1.9419807e-09  -4.5037660e-04   6.8716559e-01   6.6350022e-01  -1.2799833e+06
   1.9446482e-09  -4.4697508e-04   6.8707690e-01   6.6359021e-01  -1.2703173e+06
   1.9473158e-09  -4.4359925e-04   6.8698889e-01   6.6367952e-01  -1.2607242e+06
   1.9499833e-09  -4.4024891e-04   6.8690155e-01   6.6376818e-01  -1.2512035e+06
   1.9526509e-09  -4.3692388e-04   6.8681488e-01   6.6385617e-01  -1.2417547e+06
   1.9553184e-09  -4.3362395e-04   6.8672887e-01   6.6394350e-01  -1.2323773e+06
   1.9579860e-09  -4.3034894e-04   6.8664352e-01   6.6403019e-01  -1.2230706e+06
   1.9606536e-09  -4.2709867e-04   6.8655883e-01   6.6411623e-01  -1.2138343e+06
   1.9633211e-09  -4.2387294e-04   6.8647478e-01   6.6420163e-01  -1.2046676e+06
   1.9659887e-09  -4.2067157e-04   6.8639137e-01   6.6428639e-01  -1.1955702e+06
   1.9686562e-09  -4.1749438e-04   6.8630861e-01   6.6437053e-01  -1.1865415e+06
   1.9713238e-09  -4.1434118e-04   6.8622647e-01   6.6445403e-01  -1.1775809e+06
   1.9739913e-09  -4.1121179e-04   6.8614497e-01   6.6453691e-01  -1.1686880e+06
   1.9766589e-09  -4.0810603e-04   6.8606408e-01   6.6461918e-01  -1.1598622e+06
   1.9793264e-09  -4.0502373e-04   6.8598382e-01   6.6470083e-01  -1.1511031e+06
   1.9819940e-09  -4.0196471e-04   6.8590417e-01   6.6478188e-01  -1.1424101e+06
   1.9846616e-09  -3.9892879e-04   6.8582512e-01   6.6486232e-01  -1.1337827e+06
   1.9873291e-09  -3.9591580e-04   6.8574668e-01   6.6494216e-01  -1.1252205e+06
   1.9899967e-09  -3.9292555e-04   6.8566885e-01   6.6502141e-01  -1.1167229e+06
   1.9926642e-09  -3.8995790e-04   6.8559160e-01   6.6510006e-01  -1.1082895e+06
   1.9953318e-09  -3.8701265e-04   6.8551495e-01   6.6517813e-01  -1.0999198e+06
   1.9979993e-09  -3.8408964e-04   6.8543888e-01   6.6525561e-01  -1.0916132e+06
   2.0006669e-09  -3.8118871e-04   6.8536339e-01   6.6533252e-01  -1.0833694e+06
   2.0033344e-09  -3.7830969e-04   6.8528848e-01   6.6540886e-01  -1.0751879e+06
   2.0060020e-09  -3.7545241e-04   6.8521414e-01   6.6548462e-01  -1.0670681e+06
   2.0086696e-09  -3.7261671e-04   6.8514037e-01   6.6555982e-01  -1.0590096e+06
   2.0113371e-09  -3.6980242e-04   6.8506717e-01   6.6563446e-01  -1.0510119e+06
   2.0140047e-09  -3.6700939e-04   6.8499452e-01   6.6570854e-01  -1.0430747e+06
   2.0166722e-09  -3.6423745e-04   6.8492242e-01   6.6578207e-01  -1.0351973e+06
   2.0193398e-09  -3.6148644e-04   6.8485088e-01   6.6585506e-01  -1.0273795e+06
   2.0220073e-09  -3.5875621e-04   6.8477989e-01   6.6592749e-01  -1.0196207e+06
   2.0246749e-09  -3.5604660e-04   6.8470943e-01   6.6599939e-01  -1.0119204e+06
   2.0273424e-09  -3.5335745e-04   6.8463951e-01   6.6607075e-01  -1.0042784e+06
   2.0300100e-09  -3.5068861e-04   6.8457013e-01   6.6614157e-01  -9.9669397e+05
   2.0326776e-09  -3.4803992e-04   6.8450128e-01   6.6621187e-01  -9.8916685e+05
   2.0353451e-09  -3.4541124e-04   6.8443295e-01   6.6628164e-01  -9.8169656e+05
   2.0380127e-09  -3.4280241e-04   6.8436514e-01   6.6635089e-01  -9.7428269e+05
   2.0406802e-09  -3.4021328e-04   6.8429785e-01   6.6641963e-01  -9.6692479e+05
   2.0433478e-09  -3.3764371e-04   6.8423108e-01   6.6648785e-01  -9.5962245e+05
   2.0460153e-09  -3.3509354e-04   6.8416481e-01   6.6655556e-01  -9.5237525e+05
   2.0486829e-09  -3.3256263e-04   6.8409905e-01   6.6662276e-01  -9.4518277e+05
   2.0513505e-09  -3.3005084e-04   6.8403379e-01   6.6668947e-01  -9.3804460e+05
   2.0540180e-09  -3.2755801e-04   6.8396903e-01   6.6675567e-01  -9.3096033e+05
   2.0566856e-09  -3.2508401e-04   6.8390476e-01   6.6682138e-01  -9.2392956e+05
   2.0593531e-09  -3.2262869e-04   6.8384098e-01   6.6688660e-01  -9.1695187e+05
   2.0620207e-09  -3.2019192e-04   6.8377769e-01   6.6695133e-01  -9.1002687e+05
   2.0646882e-09  -3.1777355e-04   6.8371489e-01   6.6701558e-01  -9.0315416e+05
   2.0673558e-09  -3.1537344e-04   6.8365256e-01   6.6707935e-01  -8.9633334e+05
   2.0700233e-09  -3.1299147e-04   6.8359070e-01   6.6714264e-01  -8.8956403e+05
   2.0726909e-09  -3.1062747e-04   6.8352932e-01   6.6720546e-01  -8.8284584e+05
   2.0753585e-09  -3.0828134e-04   6.8346840e-01   6.6726781e-01  -8.7617837e+05
   2.0780260e-09  -3.0595292e-04   6.8340795e-01   6.6732969e-01  -8.6956125e+05
   2.0806936e-09  -3.0364209e-04   6.8334796e-01   6.6739111e-01  -8.6299409e+05
   2.0833611e-09  -3.0134870e-04   6.8328843e-01   6.6745207e-01  -8.5647653e+05
   2.0860287e-09  -2.9907264e-04   6.8322935e-01   6.6751258e-01  -8.5000818e+05
   2.0886962e-09  -2.9681377e-04   6.8317073e-01   6.6757263e-01  -8.4358867e+05
   2.0913638e-09  -2.9457196e-04   6.8311254e-01   6.6763223e-01  -8.3721763e+05
   2.0940313e-09  -2.9234708e-04   6.8305481e-01   6.6769139e-01  -8.3089471e+05
   2.0966989e-09  -2.9013900e-04   6.8299751e-01   6.6775010e-01  -8.2461953e+05
   2.0993665e-09  -2.8794760e-04   6.8294064e-01   6.6780838e-01  -8.1839173e+05
   2.1020340e-09  -2.8577274e-04   6.8288422e-01   6.6786622e-01  -8.1221097e+05
   2.1047016e-09  -2.8361432e-04   6.8282822e-01   6.6792362e-01  -8.0607687e+05
   2.1073691e-09  -2.8147219e-04   6.8277265e-01   6.6798060e-01  -7.9998909e+05
   2.1100367e-09  -2.7934624e-04   6.8271750e-01   6.6803715e-01  -7.9394729e+05
   2.1127042e-09  -2.7723635e-04   6.8266277e-01   6.6809328e-01  -7.8795110e+05
   2.1153718e-09  -2.7514240e-04   6.8260846e-01   6.6814899e-01  -7.8200020e+05
   2.1180393e-09  -2.7306425e-04   6.8255456e-01   6.6820428e-01  -7.7609423e+05
   2.1207069e-09  -2.7100181e-04   6.8250107e-01   6.6825915e-01  -7.7023286e+05
   2.1233745e-09  -2.6895493e-04   6.8244799e-01   6.6831362e-01  -7.6441575e+05
   2.1260420e-09  -2.6692352e-04   6.8239531e-01   6.6836768e-01  -7.5864257e+05
   2.1287096e-09  -2.6490745e-04   6.8234304e-01   6.6842133e-01  -7.5291298e+05
   2.1313771e-09  -2.6290661e-04   6.8229116e-01   6.6847458e-01  -7.4722666e+05
   2.1340447e-09  -2.6092087e-04   6.8223968e-01   6.6852744e-01  -7.4158327e+05
   2.1367122e-09  -2.5895014e-04   6.8218858e-01   6.6857989e-01  -7.3598251e+05
   2.1393798e-09  -2.5699429e-04   6.8213788e-01   6.6863196e-01  -7.3042403e+05
   2.1420473e-09  -2.5505321e-04   6.8208757e-01   6.6868363e-01  -7.2490753e+05
   2.1447149e-09  -2.5312679e-04   6.8203763e-01   6.6873492e-01  -7.1943269e+05
   2.1473825e-09  -2.5121491e-04   6.8198808e-01   6.6878582e-01  -7.1399919e+05
   2.1500500e-09  -2.4931748e-04   6.8193890e-01   6.6883634e-01  -7.0860672e+05
   2.1527176e-09  -2.4743438e-04   6.8189010e-01   6.6888649e-01  -7.0325498e+05
   2.1553851e-09  -2.4556550e-04   6.8184167e-01   6.6893625e-01  -6.9794364e+05
   2.1580527e-09  -2.4371074e-04   6.8179361e-01   6.6898565e-01  -6.9267242e+05
   2.1607202e-09  -2.4186998e-04   6.8174591e-01   6.6903467e-01  -6.8744099e+05
   2.1633878e-09  -2.4004313e-04   6.8169858e-01   6.6908333e-01  -6.8224908e+05
   2.1660554e-09  -2.3823007e-04   6.8165161e-01   6.6913162e-01  -6.7709637e+05
   2.1687229e-09  -2.3643070e-04   6.8160499e-01   6.6917955e-01  -6.7198257e+05
   2.1713905e-09  -2.3464493e-04   6.8155873e-01   6.6922713e-01  -6.6690739e+05
   2.1740580e-09  -2.3287264e-04   6.8151282e-01   6.6927434e-01  -6.6187054e+05
   2.1767256e-09  -2.3111374e-04   6.8146726e-01   6.6932120e-01  -6.5687172e+05
   2.1793931e-09  -2.2936813e-04   6.8142205e-01   6.6936771e-01  -6.5191065e+05
   2.1820607e-09  -2.2763569e-04   6.8137718e-01   6.6941387e-01  -6.4698704e+05
   2.1847282e-09  -2.2591634e-04   6.8133265e-01   6.6945969e-01  -6.4210062e+05
   2.1873958e-09  -2.2420998e-04   6.8128846e-01   6.6950516e-01  -6.3725109e+05
   2.1900634e-09  -2.2251650e-04   6.8124460e-01   6.6955029e-01  -6.3243819e+05
   2.1927309e-09  -2.2083582e-04   6.8120108e-01   6.6959508e-01  -6.2766163e+05
   2.1953985e-09  -2.1916782e-04   6.8115789e-01   6.6963954e-01  -6.2292115e+05
   2.1980660e-09  -2.1751243e-04   6.8111503e-01   6.6968366e-01  -6.1821646e+05
   2.2007336e-09  -2.1586954e-04   6.8107250e-01   6.6972745e-01  -6.1354730e+05
   2.2034011e-09  -2.1423905e-04   6.8103029e-01   6.6977092e-01  -6.0891340e+05
   2.2060687e-09  -2.1262088e-04   6.8098839e-01   6.6981405e-01  -6.0431450e+05
   2.2087362e-09  -2.1101494e-04   6.8094682e-01   6.6985687e-01  -5.9975032e+05
   2.2114038e-09  -2.0942112e-04   6.8090557e-01   6.6989936e-01  -5.9522061e+05
   2.2140714e-09  -2.0783934e-04   6.8086462e-01   6.6994154e-01  -5.9072511e+05
   2.2167389e-09  -2.0626950e-04   6.8082399e-01   6.6998339e-01  -5.8626356e+05
   2.2194065e-09  -2.0471152e-04   6.8078367e-01   6.7002494e-01  -5.8183570e+05
   2.2220740e-09  -2.0316531e-04   6.8074365e-01   6.7006617e-01  -5.7744128e+05
   2.2247416e-09  -2.0163078e-04   6.8070394e-01   6.7010709e-01  -5.7308005e+05
   2.2274091e-09  -2.0010783e-04   6.8066453e-01   6.7014771e-01  -5.6875175e+05
   2.2300767e-09  -1.9859639e-04   6.8062541e-01   6.7018802e-01  -5.6445613e+05
   2.2327442e-09  -1.9709637e-04   6.8058660e-01   6.7022803e-01  -5.6019296e+05
   2.2354118e-09  -1.9560767e-04   6.8054808e-01   6.7026774e-01  -5.5596198e+05
   2.2380794e-09  -1.9413022e-04   6.8050985e-01   6.7030715e-01  -5.5176296e+05
   2.2407469e-09  -1.9266392e-04   6.8047192e-01   6.7034626e-01  -5.4759564e+05
   2.2434145e-09  -1.9120871e-04   6.8043427e-01   6.7038508e-01  -5.4345979e+05
   2.2460820e-09  -1.8976448e-04   6.8039691e-01   6.7042361e-01  -5.3935518e+05
   2.2487496e-09  -1.8833116e-04   6.8035983e-01   6.7046185e-01  -5.3528157e+05
   2.2514171e-09  -1.8690866e-04   6.8032303e-01   6.7049981e-01  -5.3123872e+05
   2.2540847e-09  -1.8549691e-04   6.8028652e-01   6.7053747e-01  -5.2722640e+05
   2.2567523e-09  -1.8409582e-04   6.8025028e-01   6.7057486e-01  -5.2324438e+05
   2.2594198e-09  -1.8270531e-04   6.8021431e-01   6.7061196e-01  -5.1929244e+05
   2.2620874e-09  -1.8132531e-04   6.8017862e-01   6.7064879e-01  -5.1537033e+05
   2.2647549e-09  -1.7995573e-04   6.8014320e-01   6.7068534e-01  -5.1147785e+05
   2.2674225e-09  -1.7859649e-04   6.8010805e-01   6.7072162e-01  -5.0761477e+05
   2.2700900e-09  -1.7724752e-04   6.8007316e-01   6.7075762e-01  -5.0378086e+05
   2.2727576e-09  -1.7590874e-04   6.8003854e-01   6.7079335e-01  -4.9997590e+05
   2.2754251e-09  -1.7458007e-04   6.8000419e-01   6.7082882e-01  -4.9619968e+05
   2.2780927e-09  -1.7326143e-04   6.7997009e-01   6.7086401e-01  -4.9245197e+05
   2.2807603e-09  -1.7195275e-04   6.7993626e-01   6.7089895e-01  -4.8873257e+05
   2.2834278e-09  -1.7065396e-04   6.7990268e-01   6.7093362e-01  -4.8504126e+05
   2.2860954e-09  -1.6936498e-04   6.7986935e-01   6.7096803e-01  -4.8137782e+05
   2.2887629e-09  -1.6808573e-04   6.7983628e-01   6.7100218e-01  -4.7774205e+05
   2.2914305e-09  -1.6681614e-04   6.7980346e-01   6.7103608e-01  -4.7413374e+05
   2.2940980e-09  -1.6555615e-04   6.7977088e-01   6.7106972e-01  -4.7055268e+05
   2.2967656e-09  -1.6430567e-04   6.7973856e-01   6.7110311e-01  -4.6699867e+05
   2.2994331e-09  -1.6306463e-04   6.7970648e-01   6.7113625e-01  -4.6347149e+05
   2.3021007e-09  -1.6183297e-04   6.7967465e-01   6.7116913e-01  -4.5997095e+05
   2.3047683e-09  -1.6061061e-04   6.7964305e-01   6.7120178e-01  -4.5649685e+05
   2.3074358e-09  -1.5939748e-04   6.7961170e-01   6.7123417e-01  -4.5304899e+05
   2.3101034e-09  -1.5819352e-04   6.7958058e-01   6.7126632e-01  -4.4962716e+05
   2.3127709e-09  -1.5699865e-04   6.7954970e-01   6.7129824e-01  -4.4623118e+05
   2.3154385e-09  -1.5581280e-04   6.7951905e-01   6.7132991e-01  -4.4286084e+05
   2.3181060e-09  -1.5463591e-04   6.7948864e-01   6.7136134e-01  -4.3951596e+05
   2.3207736e-09  -1.5346791e-04   6.7945846e-01   6.7139254e-01  -4.3619634e+05
   2.3234411e-09  -1.5230873e-04   6.7942850e-01   6.7142350e-01  -4.3290179e+05
   2.3261087e-09  -1.5115831e-04   6.7939878e-01   6.7145423e-01  -4.2963212e+05
   2.3287763e-09  -1.5001657e-04   6.7936928e-01   6.7148473e-01  -4.2638714e+05
   2.3314438e-09  -1.4888346e-04   6.7934000e-01   6.7151500e-01  -4.2316667e+05
   2.3341114e-09  -1.4775891e-04   6.7931095e-01   6.7154504e-01  -4.1997052e+05
   2.3367789e-09  -1.4664285e-04   6.7928211e-01   6.7157486e-01  -4.1679851e+05
   2.3394465e-09  -1.4553522e-04   6.7925350e-01   6.7160445e-01  -4.1365046e+05
   2.3421140e-09  -1.4443596e-04   6.7922510e-01   6.7163382e-01  -4.1052618e+05
   2.3447816e-09  -1.4334499e-04   6.7919691e-01   6.7166297e-01  -4.0742550e+05
   2.3474491e-09  -1.4226227e-04   6.7916895e-01   6.7169190e-01  -4.0434823e+05
   2.3501167e-09  -1.4118773e-04   6.7914119e-01   6.7172061e-01  -4.0129421e+05
   2.3527843e-09  -1.4012130e-04   6.7911364e-01   6.7174911e-01  -3.9826325e+05
   2.3554518e-09  -1.3906293e-04   6.7908630e-01   6.7177739e-01  -3.9525518e+05
   2.3581194e-09  -1.3801255e-04   6.7905917e-01   6.7180546e-01  -3.9226983e+05
   2.3607869e-09  -1.3697010e-04   6.7903225e-01   6.7183332e-01  -3.8930702e+05
   2.3634545e-09  -1.3593553e-04   6.7900553e-01   6.7186097e-01  -3.8636659e+05
   2.3661220e-09  -1.3490877e-04   6.7897901e-01   6.7188841e-01  -3.8344837e+05
   2.3687896e-09  -1.3388977e-04   6.7895270e-01   6.7191565e-01  -3.8055219e+05
   2.3714572e-09  -1.3287846e-04   6.7892658e-01   6.7194268e-01  -3.7767788e+05
   2.3741247e-09  -1.3187480e-04   6.7890066e-01   6.7196950e-01  -3.7482528e+05
   2.3767923e-09  -1.3087871e-04   6.7887494e-01   6.7199613e-01  -3.7199422e+05
   2.3794598e-09  -1.2989015e-04   6.7884941e-01   6.7202255e-01  -3.6918454e+05
   2.3821274e-09  -1.2890905e-04   6.7882408e-01   6.7204878e-01  -3.6639609e+05
   2.3847949e-09  -1.2793536e-04   6.7879893e-01   6.7207481e-01  -3.6362869e+05
   2.3874625e-09  -1.2696903e-04   6.7877398e-01   6.7210064e-01  -3.6088220e+05
   2.3901300e-09  -1.2600999e-04   6.7874922e-01   6.7212628e-01  -3.5815644e+05
   2.3927976e-09  -1.2505820e-04   6.7872465e-01   6.7215173e-01  -3.5545128e+05
   2.3954652e-09  -1.2411360e-04   6.7870026e-01   6.7217698e-01  -3.5276654e+05
   2.3981327e-09  -1.2317614e-04   6.7867606e-01   6.7220205e-01  -3.5010208e+05
   2.4008003e-09  -1.2224575e-04   6.7865204e-01   6.7222692e-01  -3.4745774e+05
   2.4034678e-09  -1.2132239e-04   6.7862820e-01   6.7225161e-01  -3.4483338e+05
   2.4061354e-09  -1.2040601e-04   6.7860454e-01   6.7227611e-01  -3.4222883e+05
   2.4088029e-09  -1.1949654e-04   6.7858107e-01   6.7230043e-01  -3.3964396e+05
   2.4114705e-09  -1.1859395e-04   6.7855777e-01   6.7232457e-01  -3.3707861e+05
   2.4141380e-09  -1.1769817e-04   6.7853464e-01   6.7234852e-01  -3.3453263e+05
   2.4168056e-09  -1.1680916e-04   6.7851170e-01   6.7237230e-01  -3.3200588e+05
   2.4194732e-09  -1.1592687e-04   6.7848892e-01   6.7239589e-01  -3.2949822e+05
   2.4221407e-09  -1.1505123e-04   6.7846632e-01   6.7241931e-01  -3.2700949e+05
   2.4248083e-09  -1.1418222e-04   6.7844389e-01   6.7244255e-01  -3.2453956e+05
   2.4274758e-09  -1.1331976e-04   6.7842163e-01   6.7246562e-01  -3.2208829e+05
   2.4301434e-09  -1.1246382e-04   6.7839954e-01   6.7248851e-01  -3.1965553e+05
   2.4328109e-09  -1.1161435e-04   6.7837762e-01   6.7251123e-01  -3.1724114e+05
   2.4354785e-09  -1.1077129e-04   6.7835586e-01   6.7253378e-01  -3.1484498e+05
   2.4381460e-09  -1.0993459e-04   6.7833427e-01   6.7255616e-01  -3.1246693e+05
   2.4408136e-09  -1.0910422e-04   6.7831284e-01   6.7257837e-01  -3.1010683e+05
   2.4434812e-09  -1.0828012e-04   6.7829158e-01   6.7260042e-01  -3.0776456e+05
   2.4461487e-09  -1.0746225e-04   6.7827047e-01   6.7262229e-01  -3.0543998e+05
   2.4488163e-09  -1.0665055e-04   6.7824953e-01   6.7264401e-01  -3.0313296e+05
   2.4514838e-09  -1.0584498e-04   6.7822874e-01   6.7266556e-01  -3.0084336e+05
   2.4541514e-09  -1.0504550e-04   6.7820811e-01   6.7268695e-01  -2.9857105e+05
   2.4568189e-09  -1.0425206e-04   6.7818764e-01   6.7270817e-01  -2.9631591e+05
   2.4594865e-09  -1.0346461e-04   6.7816732e-01   6.7272924e-01  -2.9407779e+05
   2.4621541e-09  -1.0268310e-04   6.7814716e-01   6.7275015e-01  -2.9185659e+05
   2.4648216e-09  -1.0190750e-04   6.7812715e-01   6.7277090e-01  -2.8965215e+05
   2.4674892e-09  -1.0113776e-04   6.7810729e-01   6.7279149e-01  -2.8746437e+05
   2.4701567e-09  -1.0037383e-04   6.7808758e-01   6.7281193e-01  -2.8529311e+05
   2.4728243e-09  -9.9615673e-05   6.7806802e-01   6.7283222e-01  -2.8313825e+05
   2.4754918e-09  -9.8863241e-05   6.7804861e-01   6.7285235e-01  -2.8099966e+05
   2.4781594e-09  -9.8116492e-05   6.7802934e-01   6.7287234e-01  -2.7887723e+05
   2.4808269e-09  -9.7375384e-05   6.7801022e-01   6.7289217e-01  -2.7677082e+05
   2.4834945e-09  -9.6639874e-05   6.7799125e-01   6.7291185e-01  -2.7468033e+05
   2.4861621e-09  -9.5909919e-05   6.7797242e-01   6.7293138e-01  -2.7260562e+05
   2.4888296e-09  -9.5185477e-05   6.7795373e-01   6.7295077e-01  -2.7054659e+05
   2.4914972e-09  -9.4466507e-05   6.7793519e-01   6.7297001e-01  -2.6850310e+05
   2.4941647e-09  -9.3752968e-05   6.7791678e-01   6.7298911e-01  -2.6647505e+05
   2.4968323e-09  -9.3044818e-05   6.7789852e-01   6.7300806e-01  -2.6446232e+05
   2.4994998e-09  -9.2342017e-05   6.7788039e-01   6.7302687e-01  -2.6246479e+05
   2.5021674e-09  -9.1644525e-05   6.7786240e-01   6.7304554e-01  -2.6048234e+05
   2.5048349e-09  -9.0952300e-05   6.7784455e-01   6.7306406e-01  -2.5851487e+05
   2.5075025e-09  -9.0265305e-05   6.7782683e-01   6.7308245e-01  -2.5656226e+05
   2.5101701e-09  -8.9583498e-05   6.7780924e-01   6.7310070e-01  -2.5462439e+05
   2.5128376e-09  -8.8906841e-05   6.7779179e-01   6.7311881e-01  -2.5270116e+05
   2.5155052e-09  -8.8235295e-05   6.7777447e-01   6.7313679e-01  -2.5079246e+05
   2.5181727e-09  -8.7568821e-05   6.7775729e-01   6.7315463e-01  -2.4889818e+05
   2.5208403e-09  -8.6907381e-05   6.7774023e-01   6.7317233e-01  -2.4701820e+05
   2.5235078e-09  -8.6250938e-05   6.7772330e-01   6.7318990e-01  -2.4515242e+05
   2.5261754e-09  -8.5599452e-05   6.7770650e-01   6.7320734e-01  -2.4330073e+05
   2.5288429e-09  -8.4952887e-05   6.7768983e-01   6.7322465e-01  -2.4146302e+05
   2.5315105e-09  -8.4311206e-05   6.7767328e-01   6.7324183e-01  -2.3963920e+05
   2.5341781e-09  -8.3674372e-05   6.7765686e-01   6.7325888e-01  -2.3782915e+05
   2.5368456e-09  -8.3042348e-05   6.7764056e-01   6.7327580e-01  -2.3603278e+05
   2.5395132e-09  -8.2415098e-05   6.7762439e-01   6.7329259e-01  -2.3424997e+05
   2.5421807e-09  -8.1792585e-05   6.7760834e-01   6.7330926e-01  -2.3248062e+05
   2.5448483e-09  -8.1174774e-05   6.7759241e-01   6.7332580e-01  -2.3072464e+05
   2.5475158e-09  -8.0561630e-05   6.7757660e-01   6.7334221e-01  -2.2898193e+05
   2.5501834e-09  -7.9953117e-05   6.7756091e-01   6.7335851e-01  -2.2725237e+05
   2.5528510e-09  -7.9349201e-05   6.7754534e-01   6.7337468e-01  -2.2553588e+05
   2.5555185e-09  -7.8749846e-05   6.7752988e-01   6.7339073e-01  -2.2383235e+05
   2.5581861e-09  -7.8155018e-05   6.7751455e-01   6.7340665e-01  -2.2214169e+05
   2.5608536e-09  -7.7564682e-05   6.7749933e-01   6.7342246e-01  -2.2046380e+05
   2.5635212e-09  -7.6978806e-05   6.7748423e-01   6.7343815e-01  -2.1879858e+05
   2.5661887e-09  -7.6397355e-05   6.7746924e-01   6.7345372e-01  -2.1714594e+05
   2.5688563e-09  -7.5820296e-05   6.7745436e-01   6.7346917e-01  -2.1550578e+05
   2.5715238e-09  -7.5247596e-05   6.7743960e-01   6.7348451e-01  -2.1387801e+05
   2.5741914e-09  -7.4679221e-05   6.7742494e-01   6.7349973e-01  -2.1226253e+05
   2.5768590e-09  -7.4115139e-05   6.7741040e-01   6.7351483e-01  -2.1065926e+05
   2.5795265e-09  -7.3555318e-05   6.7739597e-01   6.7352982e-01  -2.0906809e+05
   2.5821941e-09  -7.2999726e-05   6.7738165e-01   6.7354470e-01  -2.0748894e+05
   2.5848616e-09  -7.2448330e-05   6.7736744e-01   6.7355947e-01  -2.0592172e+05
   2.5875292e-09  -7.1901099e-05   6.7735333e-01   6.7357412e-01  -2.0436634e+05
   2.5901967e-09  -7.1358001e-05   6.7733933e-01   6.7358867e-01  -2.0282271e+05
   2.5928643e-09  -7.0819006e-05   6.7732544e-01   6.7360311e-01  -2.0129073e+05
   2.5955318e-09  -7.0284081e-05   6.7731165e-01   6.7361743e-01  -1.9977032e+05
   2.5981994e-09  -6.9753197e-05   6.7729797e-01   6.7363165e-01  -1.9826140e+05
   2.6008670e-09  -6.9226323e-05   6.7728439e-01   6.7364576e-01  -1.9676388e+05
   2.6035345e-09  -6.8703429e-05   6.7727091e-01   6.7365977e-01  -1.9527766e+05
   2.6062021e-09  -6.8184484e-05   6.7725753e-01   6.7367367e-01  -1.9380267e+05
   2.6088696e-09  -6.7669459e-05   6.7724426e-01   6.7368746e-01  -1.9233882e+05
   2.6115372e-09  -6.7158324e-05   6.7723109e-01   6.7370115e-01  -1.9088603e+05
   2.6142047e-09  -6.6651050e-05   6.7721801e-01   6.7371474e-01  -1.8944421e+05
   2.6168723e-09  -6.6147607e-05   6.7720504e-01   6.7372823e-01  -1.8801328e+05
   2.6195398e-09  -6.5647967e-05   6.7719216e-01   6.7374161e-01  -1.8659316e+05
   2.6222074e-09  -6.5152101e-05   6.7717938e-01   6.7375489e-01  -1.8518377e+05
   2.6248750e-09  -6.4659981e-05   6.7716670e-01   6.7376808e-01  -1.8378502e+05
   2.6275425e-09  -6.4171577e-05   6.7715411e-01   6.7378116e-01  -1.8239683e+05
   2.6302101e-09  -6.3686863e-05   6.7714162e-01   6.7379414e-01  -1.8101913e+05
   2.6328776e-09  -6.3205810e-05   6.7712922e-01   6.7380703e-01  -1.7965184e+05
   2.6355452e-09  -6.2728390e-05   6.7711692e-01   6.7381982e-01  -1.7829487e+05
   2.6382127e-09  -6.2254577e-05   6.7710471e-01   6.7383251e-01  -1.7694815e+05
   2.6408803e-09  -6.1784342e-05   6.7709259e-01   6.7384511e-01  -1.7561161e+05
   2.6435478e-09  -6.1317659e-05   6.7708057e-01   6.7385761e-01  -1.7428516e+05
   2.6462154e-09  -6.0854501e-05   6.7706863e-01   6.7387002e-01  -1.7296872e+05
   2.6488830e-09  -6.0394842e-05   6.7705679e-01   6.7388234e-01  -1.7166223e+05
   2.6515505e-09  -5.9938654e-05   6.7704504e-01   6.7389456e-01  -1.7036561e+05
   2.6542181e-09  -5.9485913e-05   6.7703337e-01   6.7390669e-01  -1.6907878e+05
   2.6568856e-09  -5.9036591e-05   6.7702179e-01   6.7391873e-01  -1.6780168e+05
   2.6595532e-09  -5.8590662e-05   6.7701030e-01   6.7393068e-01  -1.6653421e+05
   2.6622207e-09  -5.8148102e-05   6.7699890e-01   6.7394253e-01  -1.6527633e+05
   2.6648883e-09  -5.7708885e-05   6.7698758e-01   6.7395430e-01  -1.6402794e+05
   2.6675559e-09  -5.7272986e-05   6.7697635e-01   6.7396598e-01  -1.6278898e+05
   2.6702234e-09  -5.6840379e-05   6.7696521e-01   6.7397757e-01  -1.6155938e+05
   2.6728910e-09  -5.6411039e-05   6.7695414e-01   6.7398908e-01  -1.6033906e+05
   2.6755585e-09  -5.5984943e-05   6.7694317e-01   6.7400049e-01  -1.5912797e+05
   2.6782261e-09  -5.5562065e-05   6.7693227e-01   6.7401183e-01  -1.5792602e+05
   2.6808936e-09  -5.5142381e-05   6.7692146e-01   6.7402307e-01  -1.5673315e+05
   2.6835612e-09  -5.4725867e-05   6.7691073e-01   6.7403423e-01  -1.5554929e+05
   2.6862287e-09  -5.4312499e-05   6.7690008e-01   6.7404531e-01  -1.5437437e+05
   2.6888963e-09  -5.3902254e-05   6.7688951e-01   6.7405630e-01  -1.5320832e+05
   2.6915639e-09  -5.3495107e-05   6.7687902e-01   6.7406721e-01  -1.5205109e+05
   2.6942314e-09  -5.3091035e-05   6.7686861e-01   6.7407804e-01  -1.5090259e+05
   2.6968990e-09  -5.2690016e-05   6.7685828e-01   6.7408879e-01  -1.4976277e+05
   2.6995665e-09  -5.2292026e-05   6.7684803e-01   6.7409945e-01  -1.4863156e+05
   2.7022341e-09  -5.1897041e-05   6.7683785e-01   6.7411004e-01  -1.4750889e+05
   2.7049016e-09  -5.1505041e-05   6.7682775e-01   6.7412054e-01  -1.4639470e+05
   2.7075692e-09  -5.1116001e-05   6.7681773e-01   6.7413097e-01  -1.4528893e+05
   2.7102367e-09  -5.0729900e-05   6.7680779e-01   6.7414132e-01  -1.4419151e+05
   2.7129043e-09  -5.0346715e-05   6.7679791e-01   6.7415159e-01  -1.4310237e+05
   2.7155719e-09  -4.9966424e-05   6.7678812e-01   6.7416178e-01  -1.4202147e+05
   2.7182394e-09  -4.9589006e-05   6.7677840e-01   6.7417189e-01  -1.4094873e+05
   2.7209070e-09  -4.9214439e-05   6.7676875e-01   6.7418193e-01  -1.3988409e+05
   2.7235745e-09  -4.8842701e-05   6.7675917e-01   6.7419190e-01  -1.3882749e+05
   2.7262421e-09  -4.8473771e-05   6.7674967e-01   6.7420178e-01  -1.3777888e+05
   2.7289096e-09  -4.8107628e-05   6.7674024e-01   6.7421160e-01  -1.3673818e+05
   2.7315772e-09  -4.7744250e-05   6.7673088e-01   6.7422134e-01  -1.3570534e+05
   2.7342447e-09  -4.7383617e-05   6.7672159e-01   6.7423100e-01  -1.3468031e+05
   2.7369123e-09  -4.7025708e-05   6.7671237e-01   6.7424060e-01  -1.3366302e+05
   2.7395799e-09  -4.6670502e-05   6.7670322e-01   6.7425012e-01  -1.3265341e+05
   2.7422474e-09  -4.6317979e-05   6.7669414e-01   6.7425956e-01  -1.3165143e+05
   2.7449150e-09  -4.5968119e-05   6.7668513e-01   6.7426894e-01  -1.3065701e+05
   2.7475825e-09  -4.5620902e-05   6.7667619e-01   6.7427825e-01  -1.2967011e+05
   2.7502501e-09  -4.5276307e-05   6.7666731e-01   6.7428749e-01  -1.2869066e+05
   2.7529176e-09  -4.4934315e-05   6.7665850e-01   6.7429665e-01  -1.2771861e+05
   2.7555852e-09  -4.4594907e-05   6.7664976e-01   6.7430575e-01  -1.2675390e+05
   2.7582528e-09  -4.4258062e-05   6.7664109e-01   6.7431478e-01  -1.2579648e+05
   2.7609203e-09  -4.3923761e-05   6.7663248e-01   6.7432374e-01  -1.2484629e+05
   2.7635879e-09  -4.3591986e-05   6.7662393e-01   6.7433264e-01  -1.2390327e+05
   2.7662554e-09  -4.3262716e-05   6.7661545e-01   6.7434146e-01  -1.2296738e+05
   2.7689230e-09  -4.2935934e-05   6.7660704e-01   6.7435022e-01  -1.2203856e+05
   2.7715905e-09  -4.2611620e-05   6.7659869e-01   6.7435892e-01  -1.2111675e+05
   2.7742581e-09  -4.2289756e-05   6.7659040e-01   6.7436754e-01  -1.2020191e+05
   2.7769256e-09  -4.1970323e-05   6.7658217e-01   6.7437611e-01  -1.1929397e+05
   2.7795932e-09  -4.1653302e-05   6.7657401e-01   6.7438461e-01  -1.1839290e+05
   2.7822608e-09  -4.1338676e-05   6.7656590e-01   6.7439304e-01  -1.1749863e+05
   2.7849283e-09  -4.1026427e-05   6.7655786e-01   6.7440141e-01  -1.1661111e+05
   2.7875959e-09  -4.0716536e-05   6.7654988e-01   6.7440972e-01  -1.1573030e+05
   2.7902634e-09  -4.0408986e-05   6.7654196e-01   6.7441796e-01  -1.1485614e+05
   2.7929310e-09  -4.0103759e-05   6.7653410e-01   6.7442615e-01  -1.1398859e+05
   2.7955985e-09  -3.9800838e-05   6.7652630e-01   6.7443427e-01  -1.1312758e+05
   2.7982661e-09  -3.9500205e-05   6.7651856e-01   6.7444233e-01  -1.1227308e+05
   2.8009336e-09  -3.9201842e-05   6.7651088e-01   6.7445033e-01  -1.1142504e+05
   2.8036012e-09  -3.8905733e-05   6.7650325e-01   6.7445827e-01  -1.1058340e+05
   2.8062688e-09  -3.8611861e-05   6.7649568e-01   6.7446614e-01  -1.0974812e+05
   2.8089363e-09  -3.8320208e-05   6.7648817e-01   6.7447396e-01  -1.0891914e+05
   2.8116039e-09  -3.8030759e-05   6.7648072e-01   6.7448172e-01  -1.0809643e+05
   2.8142714e-09  -3.7743496e-05   6.7647332e-01   6.7448943e-01  -1.0727993e+05
   2.8169390e-09  -3.7458402e-05   6.7646598e-01   6.7449707e-01  -1.0646960e+05
   2.8196065e-09  -3.7175462e-05   6.7645870e-01   6.7450466e-01  -1.0566539e+05
   2.8222741e-09  -3.6894659e-05   6.7645147e-01   6.7451218e-01  -1.0486726e+05
   2.8249416e-09  -3.6615978e-05   6.7644429e-01   6.7451966e-01  -1.0407515e+05
   2.8276092e-09  -3.6339401e-05   6.7643717e-01   6.7452707e-01  -1.0328902e+05
   2.8302768e-09  -3.6064913e-05   6.7643010e-01   6.7453443e-01  -1.0250884e+05
   2.8329443e-09  -3.5792499e-05   6.7642309e-01   6.7454174e-01  -1.0173454e+05
   2.8356119e-09  -3.5522142e-05   6.7641613e-01   6.7454899e-01  -1.0096610e+05
   2.8382794e-09  -3.5253827e-05   6.7640922e-01   6.7455618e-01  -1.0020346e+05
   2.8409470e-09  -3.4987540e-05   6.7640236e-01   6.7456332e-01  -9.9446579e+04
   2.8436145e-09  -3.4723263e-05   6.7639556e-01   6.7457041e-01  -9.8695415e+04
   2.8462821e-09  -3.4460983e-05   6.7638880e-01   6.7457744e-01  -9.7949926e+04
   2.8489496e-09  -3.4200684e-05   6.7638210e-01   6.7458442e-01  -9.7210067e+04
   2.8516172e-09  -3.3942351e-05   6.7637545e-01   6.7459135e-01  -9.6475797e+04
   2.8542848e-09  -3.3685969e-05   6.7636885e-01   6.7459822e-01  -9.5747073e+04
   2.8569523e-09  -3.3431524e-05   6.7636230e-01   6.7460504e-01  -9.5023854e+04
   2.8596199e-09  -3.3179001e-05   6.7635580e-01   6.7461182e-01  -9.4306097e+04
   2.8622874e-09  -3.2928385e-05   6.7634934e-01   6.7461854e-01  -9.3593761e+04
   2.8649550e-09  -3.2679662e-05   6.7634294e-01   6.7462521e-01  -9.2886806e+04
   2.8676225e-09  -3.2432818e-05   6.7633659e-01   6.7463182e-01  -9.2185191e+04
   2.8702901e-09  -3.2187838e-05   6.7633028e-01   6.7463839e-01  -9.1488875e+04
   2.8729577e-09  -3.1944709e-05   6.7632402e-01   6.7464491e-01  -9.0797819e+04
   2.8756252e-09  -3.1703417e-05   6.7631781e-01   6.7465138e-01  -9.0111983e+04
   2.8782928e-09  -3.1463946e-05   6.7631164e-01   6.7465781e-01  -8.9431326e+04
   2.8809603e-09  -3.1226285e-05   6.7630552e-01   6.7466418e-01  -8.8755812e+04
   2.8836279e-09  -3.0990419e-05   6.7629945e-01   6.7467050e-01  -8.8085399e+04
   2.8862954e-09  -3.0756335e-05   6.7629343e-01   6.7467678e-01  -8.7420051e+04
   2.8889630e-09  -3.0524018e-05   6.7628744e-01   6.7468301e-01  -8.6759728e+04
   2.8916305e-09  -3.0293457e-05   6.7628151e-01   6.7468920e-01  -8.6104392e+04
   2.8942981e-09  -3.0064637e-05   6.7627562e-01   6.7469533e-01  -8.5454007e+04
   2.8969657e-09  -2.9837545e-05   6.7626977e-01   6.7470142e-01  -8.4808534e+04
   2.8996332e-09  -2.9612169e-05   6.7626397e-01   6.7470747e-01  -8.4167937e+04
   2.9023008e-09  -2.9388495e-05   6.7625821e-01   6.7471346e-01  -8.3532178e+04
   2.9049683e-09  -2.9166511e-05   6.7625250e-01   6.7471942e-01  -8.2901222e+04
   2.9076359e-09  -2.8946203e-05   6.7624683e-01   6.7472533e-01  -8.2275031e+04
   2.9103034e-09  -2.8727559e-05   6.7624120e-01   6.7473119e-01  -8.1653570e+04
   2.9129710e-09  -2.8510567e-05   6.7623561e-01   6.7473701e-01  -8.1036804e+04
   2.9156385e-09  -2.8295214e-05   6.7623007e-01   6.7474279e-01  -8.0424696e+04
   2.9183061e-09  -2.8081488e-05   6.7622457e-01   6.7474852e-01  -7.9817211e+04
   2.9209737e-09  -2.7869376e-05   6.7621911e-01   6.7475421e-01  -7.9214315e+04
   2.9236412e-09  -2.7658866e-05   6.7621369e-01   6.7475985e-01  -7.8615973e+04
   2.9263088e-09  -2.7449946e-05   6.7620831e-01   6.7476546e-01  -7.8022150e+04
   2.9289763e-09  -2.7242605e-05   6.7620297e-01   6.7477102e-01  -7.7432813e+04
   2.9316439e-09  -2.7036829e-05   6.7619768e-01   6.7477654e-01  -7.6847927e+04
   2.9343114e-09  -2.6832608e-05   6.7619242e-01   6.7478201e-01  -7.6267459e+04
   2.9369790e-09  -2.6629929e-05   6.7618720e-01   6.7478745e-01  -7.5691376e+04
   2.9396465e-09  -2.6428782e-05   6.7618202e-01   6.7479284e-01  -7.5119644e+04
   2.9423141e-09  -2.6229153e-05   6.7617688e-01   6.7479820e-01  -7.4552230e+04
   2.9449817e-09  -2.6031033e-05   6.7617178e-01   6.7480351e-01  -7.3989103e+04
   2.9476492e-09  -2.5834409e-05   6.7616672e-01   6.7480879e-01  -7.3430229e+04
   2.9503168e-09  -2.5639270e-05   6.7616170e-01   6.7481402e-01  -7.2875576e+04
   2.9529843e-09  -2.5445605e-05   6.7615672e-01   6.7481921e-01  -7.2325113e+04
   2.9556519e-09  -2.5253403e-05   6.7615177e-01   6.7482437e-01  -7.1778807e+04
   2.9583194e-09  -2.5062653e-05   6.7614686e-01   6.7482949e-01  -7.1236629e+04
   2.9609870e-09  -2.4873344e-05   6.7614199e-01   6.7483456e-01  -7.0698545e+04
   2.9636546e-09  -2.4685464e-05   6.7613715e-01   6.7483960e-01  -7.0164526e+04
   2.9663221e-09  -2.4499004e-05   6.7613235e-01   6.7484460e-01  -6.9634540e+04
   2.9689897e-09  -2.4313952e-05   6.7612759e-01   6.7484957e-01  -6.9108558e+04
   2.9716572e-09  -2.4130298e-05   6.7612286e-01   6.7485449e-01  -6.8586548e+04
   2.9743248e-09  -2.3948031e-05   6.7611817e-01   6.7485938e-01  -6.8068482e+04
   2.9769923e-09  -2.3767141e-05   6.7611351e-01   6.7486424e-01  -6.7554329e+04
   2.9796599e-09  -2.3587618e-05   6.7610889e-01   6.7486905e-01  -6.7044059e+04
   2.9823274e-09  -2.3409450e-05   6.7610431e-01   6.7487383e-01  -6.6537643e+04
   2.9849950e-09  -2.3232628e-05   6.7609976e-01   6.7487857e-01  -6.6035053e+04
   2.9876626e-09  -2.3057142e-05   6.7609524e-01   6.7488328e-01  -6.5536259e+04
   2.9903301e-09  -2.2882981e-05   6.7609076e-01   6.7488795e-01  -6.5041233e+04
   2.9929977e-09  -2.2710136e-05   6.7608631e-01   6.7489259e-01  -6.4549946e+04
   2.9956652e-09  -2.2538596e-05   6.7608189e-01   6.7489719e-01  -6.4062369e+04
   2.9983328e-09  -2.2368352e-05   6.7607751e-01   6.7490176e-01  -6.3578476e+04
   3.0010003e-09  -2.2199394e-05   6.7607316e-01   6.7490629e-01  -6.3098237e+04
   3.0036679e-09  -2.2031712e-05   6.7606885e-01   6.7491079e-01  -6.2621626e+04
   3.0063354e-09  -2.1865297e-05   6.7606456e-01   6.7491525e-01  -6.2148615e+04
   3.0090030e-09  -2.1700139e-05   6.7606031e-01   6.7491968e-01  -6.1679177e+04
   3.0116706e-09  -2.1536228e-05   6.7605609e-01   6.7492408e-01  -6.1213285e+04
   3.0143381e-09  -2.1373556e-05   6.7605191e-01   6.7492844e-01  -6.0750912e+04
   3.0170057e-09  -2.1212112e-05   6.7604775e-01   6.7493277e-01  -6.0292031e+04
   3.0196732e-09  -2.1051887e-05   6.7604363e-01   6.7493707e-01  -5.9836617e+04
   3.0223408e-09  -2.0892873e-05   6.7603954e-01   6.7494134e-01  -5.9384642e+04
   3.0250083e-09  -2.0735060e-05   6.7603548e-01   6.7494557e-01  -5.8936081e+04
   3.0276759e-09  -2.0578439e-05   6.7603144e-01   6.7494977e-01  -5.8490909e+04
   3.0303434e-09  -2.0423001e-05   6.7602744e-01   6.7495394e-01  -5.8049099e+04
   3.0330110e-09  -2.0268737e-05   6.7602347e-01   6.7495808e-01  -5.7610626e+04
   3.0356786e-09  -2.0115639e-05   6.7601953e-01   6.7496219e-01  -5.7175466e+04
   3.0383461e-09  -1.9963697e-05   6.7601562e-01   6.7496626e-01  -5.6743592e+04
   3.0410137e-09  -1.9812902e-05   6.7601174e-01   6.7497031e-01  -5.6314980e+04
   3.0436812e-09  -1.9663247e-05   6.7600789e-01   6.7497432e-01  -5.5889606e+04
   3.0463488e-09  -1.9514722e-05   6.7600407e-01   6.7497831e-01  -5.5467445e+04
   3.0490163e-09  -1.9367318e-05   6.7600028e-01   6.7498226e-01  -5.5048473e+04
   3.0516839e-09  -1.9221029e-05   6.7599651e-01   6.7498619e-01  -5.4632665e+04
   3.0543515e-09  -1.9075844e-05   6.7599277e-01   6.7499008e-01  -5.4219998e+04
   3.0570190e-09  -1.8931756e-05   6.7598907e-01   6.7499395e-01  -5.3810449e+04
   3.0596866e-09  -1.8788756e-05   6.7598539e-01   6.7499778e-01  -5.3403992e+04
   3.0623541e-09  -1.8646836e-05   6.7598173e-01   6.7500159e-01  -5.3000606e+04
   3.0650217e-09  -1.8505989e-05   6.7597811e-01   6.7500537e-01  -5.2600267e+04
   3.0676892e-09  -1.8366205e-05   6.7597451e-01   6.7500912e-01  -5.2202952e+04
   3.0703568e-09  -1.8227477e-05   6.7597094e-01   6.7501284e-01  -5.1808638e+04
   3.0730243e-09  -1.8089797e-05   6.7596740e-01   6.7501654e-01  -5.1417302e+04
   3.0756919e-09  -1.7953157e-05   6.7596388e-01   6.7502020e-01  -5.1028922e+04
   3.0783595e-09  -1.7817549e-05   6.7596039e-01   6.7502384e-01  -5.0643476e+04
   3.0810270e-09  -1.7682966e-05   6.7595693e-01   6.7502745e-01  -5.0260942e+04
   3.0836946e-09  -1.7549399e-05   6.7595349e-01   6.7503103e-01  -4.9881296e+04
   3.0863621e-09  -1.7416840e-05   6.7595008e-01   6.7503459e-01  -4.9504519e+04
   3.0890297e-09  -1.7285284e-05   6.7594670e-01   6.7503812e-01  -4.9130587e+04
   3.0916972e-09  -1.7154720e-05   6.7594334e-01   6.7504162e-01  -4.8759480e+04
   3.0943648e-09  -1.7025143e-05   6.7594000e-01   6.7504510e-01  -4.8391176e+04
   3.0970323e-09  -1.6896545e-05   6.7593669e-01   6.7504855e-01  -4.8025654e+04
   3.0996999e-09  -1.6768918e-05   6.7593341e-01   6.7505197e-01  -4.7662893e+04
   3.1023675e-09  -1.6642256e-05   6.7593015e-01   6.7505537e-01  -4.7302872e+04
   3.1050350e-09  -1.6516550e-05   6.7592691e-01   6.7505874e-01  -4.6945571e+04
   3.1077026e-09  -1.6391793e-05   6.7592370e-01   6.7506209e-01  -4.6590968e+04
   3.1103701e-09  -1.6267979e-05   6.7592052e-01   6.7506541e-01  -4.6239044e+04
   3.1130377e-09  -1.6145100e-05   6.7591735e-01   6.7506871e-01  -4.5889778e+04
   3.1157052e-09  -1.6023149e-05   6.7591422e-01   6.7507198e-01  -4.5543150e+04
   3.1183728e-09  -1.5902120e-05   6.7591110e-01   6.7507523e-01  -4.5199140e+04
   3.1210403e-09  -1.5782004e-05   6.7590801e-01   6.7507845e-01  -4.4857729e+04
   3.1237079e-09  -1.5662796e-05   6.7590494e-01   6.7508165e-01  -4.4518897e+04
   3.1263755e-09  -1.5544488e-05   6.7590190e-01   6.7508483e-01  -4.4182624e+04
   3.1290430e-09  -1.5427074e-05   6.7589888e-01   6.7508798e-01  -4.3848891e+04
   3.1317106e-09  -1.5310547e-05   6.7589588e-01   6.7509110e-01  -4.3517679e+04
   3.1343781e-09  -1.5194900e-05   6.7589290e-01   6.7509421e-01  -4.3188969e+04
   3.1370457e-09  -1.5080127e-05   6.7588995e-01   6.7509728e-01  -4.2862742e+04
   3.1397132e-09  -1.4966220e-05   6.7588702e-01   6.7510034e-01  -4.2538979e+04
   3.1423808e-09  -1.4853174e-05   6.7588411e-01   6.7510337e-01  -4.2217661e+04
   3.1450483e-09  -1.4740982e-05   6.7588122e-01   6.7510638e-01  -4.1898771e+04
   3.1477159e-09  -1.4629637e-05   6.7587836e-01   6.7510937e-01  -4.1582289e+04
   3.1503835e-09  -1.4519133e-05   6.7587552e-01   6.7511234e-01  -4.1268198e+04
   3.1530510e-09  -1.4409464e-05   6.7587269e-01   6.7511528e-01  -4.0956479e+04
   3.1557186e-09  -1.4300623e-05   6.7586989e-01   6.7511820e-01  -4.0647115e+04
   3.1583861e-09  -1.4192605e-05   6.7586711e-01   6.7512110e-01  -4.0340087e+04
   3.1610537e-09  -1.4085402e-05   6.7586435e-01   6.7512397e-01  -4.0035379e+04
   3.1637212e-09  -1.3979009e-05   6.7586162e-01   6.7512683e-01  -3.9732973e+04
   3.1663888e-09  -1.3873420e-05   6.7585890e-01   6.7512966e-01  -3.9432850e+04
   3.1690564e-09  -1.3768628e-05   6.7585620e-01   6.7513247e-01  -3.9134995e+04
   3.1717239e-09  -1.3664628e-05   6.7585353e-01   6.7513526e-01  -3.8839389e+04
   3.1743915e-09  -1.3561414e-05   6.7585087e-01   6.7513803e-01  -3.8546016e+04
   3.1770590e-09  -1.3458979e-05   6.7584824e-01   6.7514078e-01  -3.8254859e+04
   3.1797266e-09  -1.3357318e-05   6.7584562e-01   6.7514351e-01  -3.7965902e+04
   3.1823941e-09  -1.3256424e-05   6.7584302e-01   6.7514622e-01  -3.7679127e+04
   3.1850617e-09  -1.3156293e-05   6.7584045e-01   6.7514890e-01  -3.7394518e+04
   3.1877292e-09  -1.3056918e-05   6.7583789e-01   6.7515157e-01  -3.7112059e+04
   3.1903968e-09  -1.2958294e-05   6.7583535e-01   6.7515422e-01  -3.6831734e+04
   3.1930644e-09  -1.2860415e-05   6.7583284e-01   6.7515684e-01  -3.6553526e+04
   3.1957319e-09  -1.2763275e-05   6.7583034e-01   6.7515945e-01  -3.6277420e+04
   3.1983995e-09  -1.2666869e-05   6.7582786e-01   6.7516204e-01  -3.6003399e+04
   3.2010670e-09  -1.2571191e-05   6.7582539e-01   6.7516460e-01  -3.5731448e+04
   3.2037346e-09  -1.2476235e-05   6.7582295e-01   6.7516715e-01  -3.5461551e+04
   3.2064021e-09  -1.2381997e-05   6.7582053e-01   6.7516968e-01  -3.5193692e+04
   3.2090697e-09  -1.2288471e-05   6.7581812e-01   6.7517219e-01  -3.4927857e+04
   3.2117372e-09  -1.2195651e-05   6.7581573e-01   6.7517468e-01  -3.4664030e+04
   3.2144048e-09  -1.2103533e-05   6.7581336e-01   6.7517715e-01  -3.4402196e+04
   3.2170724e-09  -1.2012110e-05   6.7581101e-01   6.7517961e-01  -3.4142340e+04
   3.2197399e-09  -1.1921377e-05   6.7580867e-01   6.7518204e-01  -3.3884446e+04
   3.2224075e-09  -1.1831330e-05   6.7580636e-01   6.7518446e-01  -3.3628501e+04
   3.2250750e-09  -1.1741964e-05   6.7580406e-01   6.7518686e-01  -3.3374488e+04
   3.2277426e-09  -1.1653272e-05   6.7580178e-01   6.7518924e-01  -3.3122395e+04
   3.2304101e-09  -1.1565250e-05   6.7579951e-01   6.7519160e-01  -3.2872205e+04
   3.2330777e-09  -1.1477893e-05   6.7579726e-01   6.7519394e-01  -3.2623906e+04
   3.2357452e-09  -1.1391196e-05   6.7579503e-01   6.7519627e-01  -3.2377481e+04
   3.2384128e-09  -1.1305154e-05   6.7579282e-01   6.7519858e-01  -3.2132919e+04
   3.2410804e-09  -1.1219762e-05   6.7579062e-01   6.7520087e-01  -3.1890203e+04
   3.2437479e-09  -1.1135014e-05   6.7578844e-01   6.7520314e-01  -3.1649321e+04
   3.2464155e-09  -1.1050907e-05   6.7578628e-01   6.7520540e-01  -3.1410259e+04
   3.2490830e-09  -1.0967435e-05   6.7578413e-01   6.7520764e-01  -3.1173002e+04
   3.2517506e-09  -1.0884594e-05   6.7578200e-01   6.7520986e-01  -3.0937537e+04
   3.2544181e-09  -1.0802378e-05   6.7577988e-01   6.7521207e-01  -3.0703851e+04
   3.2570857e-09  -1.0720784e-05   6.7577778e-01   6.7521426e-01  -3.0471930e+04
   3.2597533e-09  -1.0639805e-05   6.7577570e-01   6.7521643e-01  -3.0241761e+04
   3.2624208e-09  -1.0559439e-05   6.7577363e-01   6.7521859e-01  -3.0013331e+04
   3.2650884e-09  -1.0479679e-05   6.7577158e-01   6.7522073e-01  -2.9786626e+04
   3.2677559e-09  -1.0400522e-05   6.7576954e-01   6.7522285e-01  -2.9561633e+04
   3.2704235e-09  -1.0321963e-05   6.7576752e-01   6.7522496e-01  -2.9338340e+04
   3.2730910e-09  -1.0243997e-05   6.7576552e-01   6.7522705e-01  -2.9116733e+04
   3.2757586e-09  -1.0166620e-05   6.7576353e-01   6.7522913e-01  -2.8896801e+04
   3.2784261e-09  -1.0089828e-05   6.7576155e-01   6.7523119e-01  -2.8678529e+04
   3.2810937e-09  -1.0013616e-05   6.7575959e-01   6.7523324e-01  -2.8461907e+04
   3.2837613e-09  -9.9379789e-06   6.7575764e-01   6.7523527e-01  -2.8246920e+04
   3.2864288e-09  -9.8629135e-06   6.7575571e-01   6.7523728e-01  -2.8033558e+04
   3.2890964e-09  -9.7884152e-06   6.7575380e-01   6.7523928e-01  -2.7821807e+04
   3.2917639e-09  -9.7144795e-06   6.7575189e-01   6.7524126e-01  -2.7611656e+04
   3.2944315e-09  -9.6411024e-06   6.7575001e-01   6.7524323e-01  -2.7403092e+04
   3.2970990e-09  -9.5682795e-06   6.7574813e-01   6.7524519e-01  -2.7196103e+04
   3.2997666e-09  -9.4960066e-06   6.7574627e-01   6.7524713e-01  -2.6990678e+04
   3.3024341e-09  -9.4242797e-06   6.7574443e-01   6.7524905e-01  -2.6786805e+04
   3.3051017e-09  -9.3530945e-06   6.7574260e-01   6.7525096e-01  -2.6584471e+04
   3.3077693e-09  -9.2824471e-06   6.7574078e-01   6.7525286e-01  -2.6383666e+04
   3.3104368e-09  -9.2123333e-06   6.7573897e-01   6.7525474e-01  -2.6184378e+04
   3.3131044e-09  -9.1427491e-06   6.7573718e-01   6.7525661e-01  -2.5986595e+04
   3.3157719e-09  -9.0736904e-06   6.7573541e-01   6.7525846e-01  -2.5790306e+04
   3.3184395e-09  -9.0051535e-06   6.7573364e-01   6.7526030e-01  -2.5595499e+04
   3.3211070e-09  -8.9371342e-06   6.7573189e-01   6.7526212e-01  -2.5402164e+04
   3.3237746e-09  -8.8696287e-06   6.7573016e-01   6.7526394e-01  -2.5210290e+04
   3.3264421e-09  -8.8026331e-06   6.7572843e-01   6.7526573e-01  -2.5019865e+04
   3.3291097e-09  -8.7361435e-06   6.7572672e-01   6.7526752e-01  -2.4830878e+04
   3.3317773e-09  -8.6701562e-06   6.7572503e-01   6.7526929e-01  -2.4643318e+04
   3.3344448e-09  -8.6046673e-06   6.7572334e-01   6.7527105e-01  -2.4457176e+04
   3.3371124e-09  -8.5396731e-06   6.7572167e-01   6.7527279e-01  -2.4272439e+04
   3.3397799e-09  -8.4751698e-06   6.7572001e-01   6.7527452e-01  -2.4089098e+04
   3.3424475e-09  -8.4111537e-06   6.7571836e-01   6.7527624e-01  -2.3907142e+04
   3.3451150e-09  -8.3476212e-06   6.7571673e-01   6.7527794e-01  -2.3726560e+04
   3.3477826e-09  -8.2845686e-06   6.7571511e-01   6.7527964e-01  -2.3547342e+04
   3.3504502e-09  -8.2219922e-06   6.7571350e-01   6.7528132e-01  -2.3369478e+04
   3.3531177e-09  -8.1598885e-06   6.7571190e-01   6.7528298e-01  -2.3192958e+04
   3.3557853e-09  -8.0982539e-06   6.7571031e-01   6.7528464e-01  -2.3017770e+04
   3.3584528e-09  -8.0370849e-06   6.7570874e-01   6.7528628e-01  -2.2843906e+04
   3.3611204e-09  -7.9763779e-06   6.7570718e-01   6.7528791e-01  -2.2671356e+04
   3.3637879e-09  -7.9161294e-06   6.7570563e-01   6.7528952e-01  -2.2500109e+04
   3.3664555e-09  -7.8563361e-06   6.7570409e-01   6.7529113e-01  -2.2330155e+04
   3.3691230e-09  -7.7969943e-06   6.7570256e-01   6.7529272e-01  -2.2161485e+04
   3.3717906e-09  -7.7381009e-06   6.7570105e-01   6.7529430e-01  -2.1994089e+04
   3.3744582e-09  -7.6796522e-06   6.7569954e-01   6.7529587e-01  -2.1827957e+04
   3.3771257e-09  -7.6216451e-06   6.7569805e-01   6.7529743e-01  -2.1663081e+04
   3.3797933e-09  -7.5640761e-06   6.7569657e-01   6.7529897e-01  -2.1499449e+04
   3.3824608e-09  -7.5069420e-06   6.7569510e-01   6.7530051e-01  -2.1337054e+04
   3.3851284e-09  -7.4502394e-06   6.7569364e-01   6.7530203e-01  -2.1175885e+04
   3.3877959e-09  -7.3939651e-06   6.7569219e-01   6.7530354e-01  -2.1015934e+04
   3.3904635e-09  -7.3381159e-06   6.7569076e-01   6.7530504e-01  -2.0857191e+04
   3.3931310e-09  -7.2826885e-06   6.7568933e-01   6.7530652e-01  -2.0699647e+04
   3.3957986e-09  -7.2276798e-06   6.7568792e-01   6.7530800e-01  -2.0543293e+04
   3.3984662e-09  -7.1730867e-06   6.7568651e-01   6.7530947e-01  -2.0388120e+04
   3.4011337e-09  -7.1189058e-06   6.7568512e-01   6.7531092e-01  -2.0234120e+04
   3.4038013e-09  -7.0651343e-06   6.7568374e-01   6.7531236e-01  -2.0081282e+04
   3.4064688e-09  -7.0117689e-06   6.7568236e-01   6.7531380e-01  -1.9929599e+04
   3.4091364e-09  -6.9588066e-06   6.7568100e-01   6.7531522e-01  -1.9779062e+04
   3.4118039e-09  -6.9062443e-06   6.7567965e-01   6.7531663e-01  -1.9629661e+04
   3.4144715e-09  -6.8540791e-06   6.7567831e-01   6.7531803e-01  -1.9481390e+04
   3.4171390e-09  -6.8023079e-06   6.7567697e-01   6.7531942e-01  -1.9334238e+04
   3.4198066e-09  -6.7509277e-06   6.7567565e-01   6.7532080e-01  -1.9188198e+04
   3.4224742e-09  -6.6999357e-06   6.7567434e-01   6.7532216e-01  -1.9043260e+04
   3.4251417e-09  -6.6493288e-06   6.7567304e-01   6.7532352e-01  -1.8899418e+04
   3.4278093e-09  -6.5991042e-06   6.7567175e-01   6.7532487e-01  -1.8756662e+04
   3.4304768e-09  -6.5492589e-06   6.7567046e-01   6.7532621e-01  -1.8614985e+04
   3.4331444e-09  -6.4997902e-06   6.7566919e-01   6.7532754e-01  -1.8474377e+04
   3.4358119e-09  -6.4506951e-06   6.7566793e-01   6.7532885e-01  -1.8334832e+04
   3.4384795e-09  -6.4019708e-06   6.7566667e-01   6.7533016e-01  -1.8196341e+04
   3.4411470e-09  -6.3536146e-06   6.7566543e-01   6.7533146e-01  -1.8058896e+04
   3.4438146e-09  -6.3056236e-06   6.7566420e-01   6.7533275e-01  -1.7922489e+04
   3.4464822e-09  -6.2579952e-06   6.7566297e-01   6.7533403e-01  -1.7787112e+04
   3.4491497e-09  -6.2107265e-06   6.7566176e-01   6.7533529e-01  -1.7652758e+04
   3.4518173e-09  -6.1638148e-06   6.7566055e-01   6.7533655e-01  -1.7519419e+04
   3.4544848e-09  -6.1172575e-06   6.7565935e-01   6.7533780e-01  -1.7387087e+04
   3.4571524e-09  -6.0710518e-06   6.7565816e-01   6.7533904e-01  -1.7255755e+04
   3.4598199e-09  -6.0251952e-06   6.7565698e-01   6.7534027e-01  -1.7125414e+04
   3.4624875e-09  -5.9796849e-06   6.7565581e-01   6.7534150e-01  -1.6996058e+04
   3.4651551e-09  -5.9345184e-06   6.7565465e-01   6.7534271e-01  -1.6867680e+04
   3.4678226e-09  -5.8896931e-06   6.7565350e-01   6.7534391e-01  -1.6740271e+04
   3.4704902e-09  -5.8452064e-06   6.7565235e-01   6.7534510e-01  -1.6613824e+04
   3.4731577e-09  -5.8010556e-06   6.7565122e-01   6.7534629e-01  -1.6488332e+04
   3.4758253e-09  -5.7572384e-06   6.7565009e-01   6.7534747e-01  -1.6363789e+04
   3.4784928e-09  -5.7137521e-06   6.7564897e-01   6.7534863e-01  -1.6240186e+04
   3.4811604e-09  -5.6705944e-06   6.7564786e-01   6.7534979e-01  -1.6117517e+04
   3.4838279e-09  -5.6277626e-06   6.7564676e-01   6.7535094e-01  -1.5995774e+04
   3.4864955e-09  -5.5852543e-06   6.7564567e-01   6.7535208e-01  -1.5874951e+04
   3.4891631e-09  -5.5430671e-06   6.7564458e-01   6.7535321e-01  -1.5755040e+04
   3.4918306e-09  -5.5011986e-06   6.7564350e-01   6.7535434e-01  -1.5636036e+04
   3.4944982e-09  -5.4596463e-06   6.7564243e-01   6.7535545e-01  -1.5517930e+04
   3.4971657e-09  -5.4184079e-06   6.7564137e-01   6.7535656e-01  -1.5400716e+04
   3.4998333e-09  -5.3774810e-06   6.7564032e-01   6.7535766e-01  -1.5284388e+04
   3.5025008e-09  -5.3368632e-06   6.7563928e-01   6.7535875e-01  -1.5168938e+04
   3.5051684e-09  -5.2965522e-06   6.7563824e-01   6.7535983e-01  -1.5054361e+04
   3.5078359e-09  -5.2565457e-06   6.7563721e-01   6.7536090e-01  -1.4940649e+04
   3.5105035e-09  -5.2168414e-06   6.7563619e-01   6.7536197e-01  -1.4827796e+04
   3.5131711e-09  -5.1774370e-06   6.7563517e-01   6.7536303e-01  -1.4715795e+04
   3.5158386e-09  -5.1383303e-06   6.7563417e-01   6.7536408e-01  -1.4604640e+04
   3.5185062e-09  -5.0995189e-06   6.7563317e-01   6.7536512e-01  -1.4494325e+04
   3.5211737e-09  -5.0610007e-06   6.7563218e-01   6.7536615e-01  -1.4384843e+04
   3.5238413e-09  -5.0227734e-06   6.7563120e-01   6.7536718e-01  -1.4276188e+04
   3.5265088e-09  -4.9848349e-06   6.7563022e-01   6.7536820e-01  -1.4168354e+04
   3.5291764e-09  -4.9471829e-06   6.7562925e-01   6.7536921e-01  -1.4061335e+04
   3.5318439e-09  -4.9098154e-06   6.7562829e-01   6.7537021e-01  -1.3955123e+04
   3.5345115e-09  -4.8727301e-06   6.7562734e-01   6.7537121e-01  -1.3849714e+04
   3.5371791e-09  -4.8359249e-06   6.7562639e-01   6.7537219e-01  -1.3745102e+04
   3.5398466e-09  -4.7993978e-06   6.7562545e-01   6.7537317e-01  -1.3641279e+04
   3.5425142e-09  -4.7631465e-06   6.7562452e-01   6.7537415e-01  -1.3538241e+04
   3.5451817e-09  -4.7271691e-06   6.7562359e-01   6.7537511e-01  -1.3435981e+04
   3.5478493e-09  -4.6914634e-06   6.7562267e-01   6.7537607e-01  -1.3334493e+04
   3.5505168e-09  -4.6560274e-06   6.7562176e-01   6.7537702e-01  -1.3233772e+04
   3.5531844e-09  -4.6208591e-06   6.7562086e-01   6.7537797e-01  -1.3133812e+04
   3.5558520e-09  -4.5859564e-06   6.7561996e-01   6.7537890e-01  -1.3034607e+04
   3.5585195e-09  -4.5513173e-06   6.7561907e-01   6.7537983e-01  -1.2936151e+04
   3.5611871e-09  -4.5169399e-06   6.7561818e-01   6.7538076e-01  -1.2838439e+04
   3.5638546e-09  -4.4828222e-06   6.7561731e-01   6.7538167e-01  -1.2741465e+04
   3.5665222e-09  -4.4489622e-06   6.7561644e-01   6.7538258e-01  -1.2645223e+04
   3.5691897e-09  -4.4153579e-06   6.7561557e-01   6.7538348e-01  -1.2549709e+04
   3.5718573e-09  -4.3820074e-06   6.7561471e-01   6.7538438e-01  -1.2454916e+04
   3.5745248e-09  -4.3489089e-06   6.7561386e-01   6.7538527e-01  -1.2360838e+04
   3.5771924e-09  -4.3160604e-06   6.7561302e-01   6.7538615e-01  -1.2267472e+04
   3.5798600e-09  -4.2834600e-06   6.7561218e-01   6.7538702e-01  -1.2174811e+04
   3.5825275e-09  -4.2511058e-06   6.7561135e-01   6.7538789e-01  -1.2082849e+04
   3.5851951e-09  -4.2189960e-06   6.7561052e-01   6.7538875e-01  -1.1991583e+04
   3.5878626e-09  -4.1871288e-06   6.7560970e-01   6.7538961e-01  -1.1901005e+04
   3.5905302e-09  -4.1555023e-06   6.7560889e-01   6.7539046e-01  -1.1811112e+04
   3.5931977e-09  -4.1241146e-06   6.7560808e-01   6.7539130e-01  -1.1721898e+04
   3.5958653e-09  -4.0929641e-06   6.7560728e-01   6.7539213e-01  -1.1633358e+04
   3.5985328e-09  -4.0620488e-06   6.7560648e-01   6.7539296e-01  -1.1545487e+04
   3.6012004e-09  -4.0313670e-06   6.7560569e-01   6.7539379e-01  -1.1458279e+04
   3.6038680e-09  -4.0009170e-06   6.7560491e-01   6.7539461e-01  -1.1371730e+04
   3.6065355e-09  -3.9706970e-06   6.7560413e-01   6.7539542e-01  -1.1285835e+04
   3.6092031e-09  -3.9407053e-06   6.7560336e-01   6.7539622e-01  -1.1200588e+04
   3.6118706e-09  -3.9109401e-06   6.7560260e-01   6.7539702e-01  -1.1115986e+04
   3.6145382e-09  -3.8813998e-06   6.7560184e-01   6.7539781e-01  -1.1032022e+04
   3.6172057e-09  -3.8520825e-06   6.7560108e-01   6.7539860e-01  -1.0948693e+04
   3.6198733e-09  -3.8229867e-06   6.7560033e-01   6.7539938e-01  -1.0865993e+04
   3.6225408e-09  -3.7941107e-06   6.7559959e-01   6.7540016e-01  -1.0783918e+04
   3.6252084e-09  -3.7654528e-06   6.7559885e-01   6.7540093e-01  -1.0702463e+04
   3.6278760e-09  -3.7370114e-06   6.7559812e-01   6.7540169e-01  -1.0621623e+04
   3.6305435e-09  -3.7087848e-06   6.7559740e-01   6.7540245e-01  -1.0541394e+04
   3.6332111e-09  -3.6807714e-06   6.7559667e-01   6.7540320e-01  -1.0461770e+04
   3.6358786e-09  -3.6529696e-06   6.7559596e-01   6.7540394e-01  -1.0382749e+04
   3.6385462e-09  -3.6253778e-06   6.7559525e-01   6.7540469e-01  -1.0304324e+04
   3.6412137e-09  -3.5979944e-06   6.7559455e-01   6.7540542e-01  -1.0226491e+04
   3.6438813e-09  -3.5708178e-06   6.7559385e-01   6.7540615e-01  -1.0149247e+04
   3.6465488e-09  -3.5438465e-06   6.7559315e-01   6.7540687e-01  -1.0072585e+04
   3.6492164e-09  -3.5170790e-06   6.7559246e-01   6.7540759e-01  -9.9965032e+03
   3.6518840e-09  -3.4905136e-06   6.7559178e-01   6.7540831e-01  -9.9209958e+03
   3.6545515e-09  -3.4641489e-06   6.7559110e-01   6.7540901e-01  -9.8460587e+03
   3.6572191e-09  -3.4379833e-06   6.7559043e-01   6.7540972e-01  -9.7716877e+03
   3.6598866e-09  -3.4120154e-06   6.7558976e-01   6.7541041e-01  -9.6978784e+03
   3.6625542e-09  -3.3862436e-06   6.7558910e-01   6.7541110e-01  -9.6246266e+03
   3.6652217e-09  -3.3606665e-06   6.7558844e-01   6.7541179e-01  -9.5519282e+03
   3.6678893e-09  -3.3352826e-06   6.7558779e-01   6.7541247e-01  -9.4797789e+03
   3.6705569e-09  -3.3100904e-06   6.7558714e-01   6.7541315e-01  -9.4081745e+03
   3.6732244e-09  -3.2850885e-06   6.7558650e-01   6.7541382e-01  -9.3371110e+03
   3.6758920e-09  -3.2602754e-06   6.7558586e-01   6.7541448e-01  -9.2665843e+03
   3.6785595e-09  -3.2356498e-06   6.7558523e-01   6.7541515e-01  -9.1965904e+03
   3.6812271e-09  -3.2112102e-06   6.7558460e-01   6.7541580e-01  -9.1271251e+03
   3.6838946e-09  -3.1869552e-06   6.7558397e-01   6.7541645e-01  -9.0581845e+03
   3.6865622e-09  -3.1628834e-06   6.7558335e-01   6.7541710e-01  -8.9897647e+03
   3.6892297e-09  -3.1389934e-06   6.7558274e-01   6.7541774e-01  -8.9218617e+03
   3.6918973e-09  -3.1152838e-06   6.7558213e-01   6.7541838e-01  -8.8544716e+03
   3.6945649e-09  -3.0917534e-06   6.7558152e-01   6.7541901e-01  -8.7875905e+03
   3.6972324e-09  -3.0684007e-06   6.7558092e-01   6.7541964e-01  -8.7212146e+03
   3.6999000e-09  -3.0452243e-06   6.7558033e-01   6.7542026e-01  -8.6553401e+03
   3.7025675e-09  -3.0222231e-06   6.7557974e-01   6.7542087e-01  -8.5899631e+03
   3.7052351e-09  -2.9993956e-06   6.7557915e-01   6.7542149e-01  -8.5250800e+03
   3.7079026e-09  -2.9767404e-06   6.7557857e-01   6.7542210e-01  -8.4606870e+03
   3.7105702e-09  -2.9542565e-06   6.7557799e-01   6.7542270e-01  -8.3967804e+03
   3.7132377e-09  -2.9319423e-06   6.7557741e-01   6.7542330e-01  -8.3333565e+03
   3.7159053e-09  -2.9097967e-06   6.7557684e-01   6.7542389e-01  -8.2704116e+03
   3.7185729e-09  -2.8878184e-06   6.7557628e-01   6.7542448e-01  -8.2079423e+03
   3.7212404e-09  -2.8660061e-06   6.7557572e-01   6.7542507e-01  -8.1459447e+03
   3.7239080e-09  -2.8443585e-06   6.7557516e-01   6.7542565e-01  -8.0844155e+03
   3.7265755e-09  -2.8228745e-06   6.7557461e-01   6.7542623e-01  -8.0233511e+03
   3.7292431e-09  -2.8015527e-06   6.7557406e-01   6.7542680e-01  -7.9627478e+03
   3.7319106e-09  -2.7803920e-06   6.7557351e-01   6.7542737e-01  -7.9026024e+03
   3.7345782e-09  -2.7593911e-06   6.7557297e-01   6.7542793e-01  -7.8429113e+03
   3.7372457e-09  -2.7385488e-06   6.7557244e-01   6.7542849e-01  -7.7836710e+03
   3.7399133e-09  -2.7178640e-06   6.7557191e-01   6.7542904e-01  -7.7248782e+03
   3.7425809e-09  -2.6973354e-06   6.7557138e-01   6.7542960e-01  -7.6665295e+03
   3.7452484e-09  -2.6769619e-06   6.7557085e-01   6.7543014e-01  -7.6086216e+03
   3.7479160e-09  -2.6567423e-06   6.7557033e-01   6.7543068e-01  -7.5511510e+03
   3.7505835e-09  -2.6366753e-06   6.7556982e-01   6.7543122e-01  -7.4941146e+03
   3.7532511e-09  -2.6167600e-06   6.7556931e-01   6.7543176e-01  -7.4375090e+03
   3.7559186e-09  -2.5969951e-06   6.7556880e-01   6.7543229e-01  -7.3813309e+03
   3.7585862e-09  -2.5773795e-06   6.7556829e-01   6.7543282e-01  -7.3255772e+03
   3.7612538e-09  -2.5579120e-06   6.7556779e-01   6.7543334e-01  -7.2702446e+03
   3.7639213e-09  -2.5385916e-06   6.7556730e-01   6.7543386e-01  -7.2153300e+03
   3.7665889e-09  -2.5194171e-06   6.7556680e-01   6.7543437e-01  -7.1608302e+03
   3.7692564e-09  -2.5003875e-06   6.7556631e-01   6.7543488e-01  -7.1067420e+03
   3.7719240e-09  -2.4815016e-06   6.7556583e-01   6.7543539e-01  -7.0530624e+03
   3.7745915e-09  -2.4627583e-06   6.7556534e-01   6.7543589e-01  -6.9997883e+03
   3.7772591e-09  -2.4441566e-06   6.7556487e-01   6.7543639e-01  -6.9469165e+03
   3.7799266e-09  -2.4256955e-06   6.7556439e-01   6.7543689e-01  -6.8944442e+03
   3.7825942e-09  -2.4073737e-06   6.7556392e-01   6.7543738e-01  -6.8423681e+03
   3.7852618e-09  -2.3891904e-06   6.7556345e-01   6.7543787e-01  -6.7906855e+03
   3.7879293e-09  -2.3711444e-06   6.7556299e-01   6.7543835e-01  -6.7393932e+03
   3.7905969e-09  -2.3532347e-06   6.7556253e-01   6.7543883e-01  -6.6884884e+03
   3.7932644e-09  -2.3354603e-06   6.7556207e-01   6.7543931e-01  -6.6379680e+03
   3.7959320e-09  -2.3178201e-06   6.7556162e-01   6.7543978e-01  -6.5878293e+03
   3.7985995e-09  -2.3003132e-06   6.7556117e-01   6.7544025e-01  -6.5380693e+03
   3.8012671e-09  -2.2829385e-06   6.7556072e-01   6.7544072e-01  -6.4886852e+03
   3.8039346e-09  -2.2656951e-06   6.7556028e-01   6.7544118e-01  -6.4396740e+03
   3.8066022e-09  -2.2485819e-06   6.7555984e-01   6.7544164e-01  -6.3910331e+03
   3.8092698e-09  -2.2315980e-06   6.7555940e-01   6.7544210e-01  -6.3427596e+03
   3.8119373e-09  -2.2147423e-06   6.7555897e-01   6.7544255e-01  -6.2948507e+03
   3.8146049e-09  -2.1980140e-06   6.7555853e-01   6.7544300e-01  -6.2473037e+03
   3.8172724e-09  -2.1814120e-06   6.7555811e-01   6.7544344e-01  -6.2001159e+03
   3.8199400e-09  -2.1649354e-06   6.7555768e-01   6.7544389e-01  -6.1532845e+03
   3.8226075e-09  -2.1485833e-06   6.7555726e-01   6.7544432e-01  -6.1068068e+03
   3.8252751e-09  -2.1323547e-06   6.7555685e-01   6.7544476e-01  -6.0606802e+03
   3.8279426e-09  -2.1162487e-06   6.7555643e-01   6.7544519e-01  -6.0149020e+03
   3.8306102e-09  -2.1002643e-06   6.7555602e-01   6.7544562e-01  -5.9694696e+03
   3.8332778e-09  -2.0844007e-06   6.7555561e-01   6.7544605e-01  -5.9243803e+03
   3.8359453e-09  -2.0686569e-06   6.7555521e-01   6.7544647e-01  -5.8796317e+03
   3.8386129e-09  -2.0530320e-06   6.7555481e-01   6.7544689e-01  -5.8352210e+03
   3.8412804e-09  -2.0375251e-06   6.7555441e-01   6.7544731e-01  -5.7911458e+03
   3.8439480e-09  -2.0221353e-06   6.7555401e-01   6.7544772e-01  -5.7474035e+03
   3.8466155e-09  -2.0068618e-06   6.7555362e-01   6.7544813e-01  -5.7039917e+03
   3.8492831e-09  -1.9917037e-06   6.7555323e-01   6.7544854e-01  -5.6609077e+03
   3.8519507e-09  -1.9766600e-06   6.7555284e-01   6.7544894e-01  -5.6181492e+03
   3.8546182e-09  -1.9617300e-06   6.7555246e-01   6.7544934e-01  -5.5757136e+03
   3.8572858e-09  -1.9469128e-06   6.7555208e-01   6.7544974e-01  -5.5335986e+03
   3.8599533e-09  -1.9322075e-06   6.7555170e-01   6.7545013e-01  -5.4918017e+03
   3.8626209e-09  -1.9176132e-06   6.7555132e-01   6.7545052e-01  -5.4503205e+03
   3.8652884e-09  -1.9031292e-06   6.7555095e-01   6.7545091e-01  -5.4091526e+03
   3.8679560e-09  -1.8887546e-06   6.7555058e-01   6.7545130e-01  -5.3682957e+03
   3.8706235e-09  -1.8744885e-06   6.7555021e-01   6.7545168e-01  -5.3277474e+03
   3.8732911e-09  -1.8603303e-06   6.7554985e-01   6.7545206e-01  -5.2875054e+03
   3.8759587e-09  -1.8462789e-06   6.7554949e-01   6.7545244e-01  -5.2475674e+03
   3.8786262e-09  -1.8323337e-06   6.7554913e-01   6.7545281e-01  -5.2079310e+03
   3.8812938e-09  -1.8184938e-06   6.7554877e-01   6.7545319e-01  -5.1685940e+03
   3.8839613e-09  -1.8047585e-06   6.7554842e-01   6.7545355e-01  -5.1295542e+03
   3.8866289e-09  -1.7911269e-06   6.7554807e-01   6.7545392e-01  -5.0908092e+03
   3.8892964e-09  -1.7775983e-06   6.7554772e-01   6.7545428e-01  -5.0523569e+03
   3.8919640e-09  -1.7641719e-06   6.7554738e-01   6.7545464e-01  -5.0141950e+03
   3.8946315e-09  -1.7508468e-06   6.7554703e-01   6.7545500e-01  -4.9763214e+03
   3.8972991e-09  -1.7376225e-06   6.7554669e-01   6.7545536e-01  -4.9387339e+03
   3.8999667e-09  -1.7244980e-06   6.7554636e-01   6.7545571e-01  -4.9014303e+03
