   0.0000000e+00  -1.5201083e-01   6.2327672e+00   4.5448945e-05  -5.1812842e+08
   2.6675559e-12  -1.5063388e-01   6.2241423e+00   5.0519133e-05  -5.1432984e+08
   5.3351117e-12  -1.4926707e-01   6.2151369e+00   5.6107115e-05  -5.1052916e+08
   8.0026676e-12  -1.4791041e-01   6.2057396e+00   6.2259963e-05  -5.0672649e+08
   1.0670223e-11  -1.4656389e-01   6.1959391e+00   6.9028361e-05  -5.0292194e+08
   1.3337779e-11  -1.4522752e-01   6.1857242e+00   7.6466807e-05  -4.9911565e+08
   1.6005335e-11  -1.4390132e-01   6.1750836e+00   8.4633824e-05  -4.9530777e+08
   1.8672891e-11  -1.4258527e-01   6.1640063e+00   9.3592167e-05  -4.9149845e+08
   2.1340447e-11  -1.4127939e-01   6.1524813e+00   1.0340904e-04  -4.8768787e+08
   2.4008003e-11  -1.3998368e-01   6.1404979e+00   1.1415632e-04  -4.8387623e+08
   2.6675559e-11  -1.3869814e-01   6.1280455e+00   1.2591074e-04  -4.8006374e+08
   2.9343114e-11  -1.3742277e-01   6.1151139e+00   1.3875416e-04  -4.7625063e+08
   3.2010670e-11  -1.3615758e-01   6.1016928e+00   1.5277371e-04  -4.7243712e+08
   3.4678226e-11  -1.3490256e-01   6.0877727e+00   1.6806207e-04  -4.6862350e+08
   3.7345782e-11  -1.3365771e-01   6.0733442e+00   1.8471762e-04  -4.6481004e+08
   4.0013338e-11  -1.3242304e-01   6.0583982e+00   2.0284467e-04  -4.6099703e+08
   4.2680894e-11  -1.3119854e-01   6.0429261e+00   2.2255362e-04  -4.5718479e+08
   4.5348449e-11  -1.2998421e-01   6.0269198e+00   2.4396118e-04  -4.5337367e+08
   4.8016005e-11  -1.2878005e-01   6.0103718e+00   2.6719051e-04  -4.4956400e+08
   5.0683561e-11  -1.2758604e-01   5.9932749e+00   2.9237140e-04  -4.4575617e+08
   5.3351117e-11  -1.2640219e-01   5.9756225e+00   3.1964037e-04  -4.4195057e+08
   5.6018673e-11  -1.2522849e-01   5.9574088e+00   3.4914086e-04  -4.3814761e+08
   5.8686229e-11  -1.2406493e-01   5.9386284e+00   3.8102327e-04  -4.3434772e+08
   6.1353785e-11  -1.2291151e-01   5.9192768e+00   4.1544510e-04  -4.3055135e+08
   6.4021340e-11  -1.2176821e-01   5.8993499e+00   4.5257100e-04  -4.2675897e+08
   6.6688896e-11  -1.2063501e-01   5.8788447e+00   4.9257279e-04  -4.2297107e+08
   6.9356452e-11  -1.1951192e-01   5.8577587e+00   5.3562952e-04  -4.1918814e+08
   7.2024008e-11  -1.1839891e-01   5.8360901e+00   5.8192742e-04  -4.1541072e+08
   7.4691564e-11  -1.1729597e-01   5.8138382e+00   6.3165991e-04  -4.1163934e+08
   7.7359120e-11  -1.1620308e-01   5.7910029e+00   6.8502748e-04  -4.0787457e+08
   8.0026676e-11  -1.1512022e-01   5.7675851e+00   7.4223766e-04  -4.0411696e+08
   8.2694231e-11  -1.1404738e-01   5.7435864e+00   8.0350485e-04  -4.0036711e+08
   8.5361787e-11  -1.1298453e-01   5.7190094e+00   8.6905017e-04  -3.9662561e+08
   8.8029343e-11  -1.1193165e-01   5.6938574e+00   9.3910131e-04  -3.9289309e+08
   9.0696899e-11  -1.1088871e-01   5.6681348e+00   1.0138923e-03  -3.8917017e+08
   9.3364455e-11  -1.0985569e-01   5.6418468e+00   1.0936631e-03  -3.8545749e+08
   9.6032011e-11  -1.0883256e-01   5.6149995e+00   1.1786597e-03  -3.8175569e+08
   9.8699567e-11  -1.0781928e-01   5.5875998e+00   1.2691334e-03  -3.7806543e+08
   1.0136712e-10  -1.0681584e-01   5.5596556e+00   1.3653406e-03  -3.7438738e+08
   1.0403468e-10  -1.0582218e-01   5.5311755e+00   1.4675427e-03  -3.7072221e+08
   1.0670223e-10  -1.0483829e-01   5.5021692e+00   1.5760053e-03  -3.6707060e+08
   1.0936979e-10  -1.0386411e-01   5.4726468e+00   1.6909978e-03  -3.6343323e+08
   1.1203735e-10  -1.0289962e-01   5.4426198e+00   1.8127934e-03  -3.5981078e+08
   1.1470490e-10  -1.0194477e-01   5.4120999e+00   1.9416681e-03  -3.5620393e+08
   1.1737246e-10  -1.0099952e-01   5.3810999e+00   2.0779005e-03  -3.5261337e+08
   1.2004001e-10  -1.0006382e-01   5.3496332e+00   2.2217711e-03  -3.4903979e+08
   1.2270757e-10  -9.9137630e-02   5.3177140e+00   2.3735619e-03  -3.4548386e+08
   1.2537513e-10  -9.8220900e-02   5.2853570e+00   2.5335561e-03  -3.4194626e+08
   1.2804268e-10  -9.7313580e-02   5.2525775e+00   2.7020368e-03  -3.3842765e+08
   1.3071024e-10  -9.6415618e-02   5.2193916e+00   2.8792873e-03  -3.3492870e+08
   1.3337779e-10  -9.5526962e-02   5.1858157e+00   3.0655900e-03  -3.3145006e+08
   1.3604535e-10  -9.4647555e-02   5.1518668e+00   3.2612260e-03  -3.2799237e+08
   1.3871290e-10  -9.3777341e-02   5.1175623e+00   3.4664744e-03  -3.2455626e+08
   1.4138046e-10  -9.2916262e-02   5.0829200e+00   3.6816121e-03  -3.2114234e+08
   1.4404802e-10  -9.2064258e-02   5.0479581e+00   3.9069127e-03  -3.1775123e+08
   1.4671557e-10  -9.1221266e-02   5.0126949e+00   4.1426464e-03  -3.1438350e+08
   1.4938313e-10  -9.0387224e-02   4.9771492e+00   4.3890792e-03  -3.1103973e+08
   1.5205068e-10  -8.9562068e-02   4.9413399e+00   4.6464727e-03  -3.0772047e+08
   1.5471824e-10  -8.8745730e-02   4.9052861e+00   4.9150832e-03  -3.0442625e+08
   1.5738580e-10  -8.7938144e-02   4.8690069e+00   5.1951613e-03  -3.0115759e+08
   1.6005335e-10  -8.7139240e-02   4.8325216e+00   5.4869517e-03  -2.9791497e+08
   1.6272091e-10  -8.6348949e-02   4.7958493e+00   5.7906924e-03  -2.9469888e+08
   1.6538846e-10  -8.5567199e-02   4.7590093e+00   6.1066147e-03  -2.9150976e+08
   1.6805602e-10  -8.4793918e-02   4.7220208e+00   6.4349424e-03  -2.8834803e+08
   1.7072357e-10  -8.4029031e-02   4.6849028e+00   6.7758916e-03  -2.8521410e+08
   1.7339113e-10  -8.3272465e-02   4.6476741e+00   7.1296704e-03  -2.8210834e+08
   1.7605869e-10  -8.2524143e-02   4.6103535e+00   7.4964786e-03  -2.7903112e+08
   1.7872624e-10  -8.1783989e-02   4.5729593e+00   7.8765073e-03  -2.7598275e+08
   1.8139380e-10  -8.1051926e-02   4.5355098e+00   8.2699388e-03  -2.7296355e+08
   1.8406135e-10  -8.0327875e-02   4.4980229e+00   8.6769464e-03  -2.6997380e+08
   1.8672891e-10  -7.9611758e-02   4.4605162e+00   9.0976939e-03  -2.6701374e+08
   1.8939647e-10  -7.8903494e-02   4.4230068e+00   9.5323359e-03  -2.6408361e+08
   1.9206402e-10  -7.8203005e-02   4.3855117e+00   9.9810174e-03  -2.6118362e+08
   1.9473158e-10  -7.7510209e-02   4.3480473e+00   1.0443874e-02  -2.5831393e+08
   1.9739913e-10  -7.6825026e-02   4.3106295e+00   1.0921030e-02  -2.5547471e+08
   2.0006669e-10  -7.6147373e-02   4.2732740e+00   1.1412603e-02  -2.5266608e+08
   2.0273424e-10  -7.5477169e-02   4.2359960e+00   1.1918699e-02  -2.4988816e+08
   2.0540180e-10  -7.4814332e-02   4.1988100e+00   1.2439413e-02  -2.4714102e+08
   2.0806936e-10  -7.4158781e-02   4.1617302e+00   1.2974832e-02  -2.4442472e+08
   2.1073691e-10  -7.3510432e-02   4.1247704e+00   1.3525033e-02  -2.4173930e+08
   2.1340447e-10  -7.2869203e-02   4.0879437e+00   1.4090084e-02  -2.3908477e+08
   2.1607202e-10  -7.2235012e-02   4.0512627e+00   1.4670043e-02  -2.3646113e+08
   2.1873958e-10  -7.1607776e-02   4.0147397e+00   1.5264957e-02  -2.3386835e+08
   2.2140714e-10  -7.0987414e-02   3.9783862e+00   1.5874866e-02  -2.3130638e+08
   2.2407469e-10  -7.0373843e-02   3.9422135e+00   1.6499801e-02  -2.2877514e+08
   2.2674225e-10  -6.9766982e-02   3.9062321e+00   1.7139782e-02  -2.2627456e+08
   2.2940980e-10  -6.9166748e-02   3.8704521e+00   1.7794822e-02  -2.2380453e+08
   2.3207736e-10  -6.8573061e-02   3.8348831e+00   1.8464925e-02  -2.2136493e+08
   2.3474491e-10  -6.7985839e-02   3.7995343e+00   1.9150087e-02  -2.1895562e+08
   2.3741247e-10  -6.7405002e-02   3.7644141e+00   1.9850295e-02  -2.1657643e+08
   2.4008003e-10  -6.6830470e-02   3.7295307e+00   2.0565529e-02  -2.1422722e+08
   2.4274758e-10  -6.6262164e-02   3.6948918e+00   2.1295761e-02  -2.1190778e+08
   2.4541514e-10  -6.5700003e-02   3.6605044e+00   2.2040955e-02  -2.0961792e+08
   2.4808269e-10  -6.5143910e-02   3.6263752e+00   2.2801069e-02  -2.0735743e+08
   2.5075025e-10  -6.4593806e-02   3.5925105e+00   2.3576053e-02  -2.0512609e+08
   2.5341781e-10  -6.4049615e-02   3.5589159e+00   2.4365850e-02  -2.0292367e+08
   2.5608536e-10  -6.3511258e-02   3.5255970e+00   2.5170398e-02  -2.0074992e+08
   2.5875292e-10  -6.2978661e-02   3.4925585e+00   2.5989627e-02  -1.9860459e+08
   2.6142047e-10  -6.2451747e-02   3.4598050e+00   2.6823464e-02  -1.9648742e+08
   2.6408803e-10  -6.1930443e-02   3.4273405e+00   2.7671826e-02  -1.9439812e+08
   2.6675559e-10  -6.1414673e-02   3.3951689e+00   2.8534628e-02  -1.9233644e+08
   2.6942314e-10  -6.0904366e-02   3.3632935e+00   2.9411778e-02  -1.9030208e+08
   2.7209070e-10  -6.0399447e-02   3.3317172e+00   3.0303179e-02  -1.8829474e+08
   2.7475825e-10  -5.9899847e-02   3.3004427e+00   3.1208731e-02  -1.8631414e+08
   2.7742581e-10  -5.9405493e-02   3.2694724e+00   3.2128327e-02  -1.8435997e+08
   2.8009336e-10  -5.8916316e-02   3.2388082e+00   3.3061858e-02  -1.8243193e+08
   2.8276092e-10  -5.8432246e-02   3.2084518e+00   3.4009208e-02  -1.8052969e+08
   2.8542848e-10  -5.7953215e-02   3.1784046e+00   3.4970261e-02  -1.7865296e+08
   2.8809603e-10  -5.7479156e-02   3.1486678e+00   3.5944894e-02  -1.7680141e+08
   2.9076359e-10  -5.7010002e-02   3.1192421e+00   3.6932981e-02  -1.7497472e+08
   2.9343114e-10  -5.6545687e-02   3.0901282e+00   3.7934395e-02  -1.7317257e+08
   2.9609870e-10  -5.6086145e-02   3.0613265e+00   3.8949004e-02  -1.7139464e+08
   2.9876626e-10  -5.5631314e-02   3.0328369e+00   3.9976674e-02  -1.6964061e+08
   3.0143381e-10  -5.5181129e-02   3.0046595e+00   4.1017267e-02  -1.6791015e+08
   3.0410137e-10  -5.4735528e-02   2.9767938e+00   4.2070644e-02  -1.6620293e+08
   3.0676892e-10  -5.4294449e-02   2.9492394e+00   4.3136662e-02  -1.6451864e+08
   3.0943648e-10  -5.3857833e-02   2.9219956e+00   4.4215179e-02  -1.6285695e+08
   3.1210403e-10  -5.3425618e-02   2.8950615e+00   4.5306047e-02  -1.6121754e+08
   3.1477159e-10  -5.2997747e-02   2.8684361e+00   4.6409120e-02  -1.5960008e+08
   3.1743915e-10  -5.2574160e-02   2.8421181e+00   4.7524247e-02  -1.5800425e+08
   3.2010670e-10  -5.2154801e-02   2.8161061e+00   4.8651276e-02  -1.5642974e+08
   3.2277426e-10  -5.1739614e-02   2.7903987e+00   4.9790057e-02  -1.5487622e+08
   3.2544181e-10  -5.1328542e-02   2.7649943e+00   5.0940434e-02  -1.5334339e+08
   3.2810937e-10  -5.0921531e-02   2.7398911e+00   5.2102254e-02  -1.5183093e+08
   3.3077693e-10  -5.0518527e-02   2.7150873e+00   5.3275359e-02  -1.5033852e+08
   3.3344448e-10  -5.0119477e-02   2.6905808e+00   5.4459592e-02  -1.4886587e+08
   3.3611204e-10  -4.9724329e-02   2.6663697e+00   5.5654798e-02  -1.4741267e+08
   3.3877959e-10  -4.9333032e-02   2.6424517e+00   5.6860815e-02  -1.4597861e+08
   3.4144715e-10  -4.8945533e-02   2.6188246e+00   5.8077487e-02  -1.4456339e+08
   3.4411470e-10  -4.8561785e-02   2.5954861e+00   5.9304653e-02  -1.4316673e+08
   3.4678226e-10  -4.8181737e-02   2.5724339e+00   6.0542154e-02  -1.4178833e+08
   3.4944982e-10  -4.7805342e-02   2.5496654e+00   6.1789829e-02  -1.4042789e+08
   3.5211737e-10  -4.7432552e-02   2.5271781e+00   6.3047518e-02  -1.3908514e+08
   3.5478493e-10  -4.7063319e-02   2.5049695e+00   6.4315060e-02  -1.3775979e+08
   3.5745248e-10  -4.6697599e-02   2.4830370e+00   6.5592294e-02  -1.3645156e+08
   3.6012004e-10  -4.6335346e-02   2.4613779e+00   6.6879061e-02  -1.3516019e+08
   3.6278760e-10  -4.5976514e-02   2.4399896e+00   6.8175200e-02  -1.3388539e+08
   3.6545515e-10  -4.5621061e-02   2.4188692e+00   6.9480550e-02  -1.3262690e+08
   3.6812271e-10  -4.5268944e-02   2.3980140e+00   7.0794951e-02  -1.3138447e+08
   3.7079026e-10  -4.4920119e-02   2.3774212e+00   7.2118243e-02  -1.3015782e+08
   3.7345782e-10  -4.4574545e-02   2.3570880e+00   7.3450266e-02  -1.2894670e+08
   3.7612538e-10  -4.4232181e-02   2.3370117e+00   7.4790862e-02  -1.2775087e+08
   3.7879293e-10  -4.3892986e-02   2.3171893e+00   7.6139871e-02  -1.2657007e+08
   3.8146049e-10  -4.3556921e-02   2.2976180e+00   7.7497136e-02  -1.2540406e+08
   3.8412804e-10  -4.3223947e-02   2.2782949e+00   7.8862498e-02  -1.2425260e+08
   3.8679560e-10  -4.2894024e-02   2.2592172e+00   8.0235800e-02  -1.2311546e+08
   3.8946315e-10  -4.2567116e-02   2.2403819e+00   8.1616886e-02  -1.2199239e+08
   3.9213071e-10  -4.2243185e-02   2.2217863e+00   8.3005599e-02  -1.2088318e+08
   3.9479827e-10  -4.1922195e-02   2.2034274e+00   8.4401784e-02  -1.1978760e+08
   3.9746582e-10  -4.1604109e-02   2.1853024e+00   8.5805287e-02  -1.1870543e+08
   4.0013338e-10  -4.1288891e-02   2.1674084e+00   8.7215953e-02  -1.1763644e+08
   4.0280093e-10  -4.0976508e-02   2.1497426e+00   8.8633630e-02  -1.1658044e+08
   4.0546849e-10  -4.0666924e-02   2.1323021e+00   9.0058165e-02  -1.1553720e+08
   4.0813605e-10  -4.0360106e-02   2.1150841e+00   9.1489407e-02  -1.1450652e+08
   4.1080360e-10  -4.0056020e-02   2.0980857e+00   9.2927205e-02  -1.1348820e+08
   4.1347116e-10  -3.9754635e-02   2.0813042e+00   9.4371410e-02  -1.1248203e+08
   4.1613871e-10  -3.9455917e-02   2.0647368e+00   9.5821871e-02  -1.1148783e+08
   4.1880627e-10  -3.9159835e-02   2.0483807e+00   9.7278443e-02  -1.1050541e+08
   4.2147382e-10  -3.8866359e-02   2.0322332e+00   9.8740976e-02  -1.0953457e+08
   4.2414138e-10  -3.8575457e-02   2.0162915e+00   1.0020933e-01  -1.0857512e+08
   4.2680894e-10  -3.8287098e-02   2.0005529e+00   1.0168335e-01  -1.0762689e+08
   4.2947649e-10  -3.8001255e-02   1.9850147e+00   1.0316290e-01  -1.0668970e+08
   4.3214405e-10  -3.7717897e-02   1.9696743e+00   1.0464783e-01  -1.0576338e+08
   4.3481160e-10  -3.7436995e-02   1.9545291e+00   1.0613800e-01  -1.0484774e+08
   4.3747916e-10  -3.7158521e-02   1.9395763e+00   1.0763328e-01  -1.0394263e+08
   4.4014672e-10  -3.6882448e-02   1.9248134e+00   1.0913351e-01  -1.0304787e+08
   4.4281427e-10  -3.6608748e-02   1.9102379e+00   1.1063857e-01  -1.0216331e+08
   4.4548183e-10  -3.6337394e-02   1.8958471e+00   1.1214831e-01  -1.0128878e+08
   4.4814938e-10  -3.6068360e-02   1.8816387e+00   1.1366260e-01  -1.0042413e+08
   4.5081694e-10  -3.5801619e-02   1.8676100e+00   1.1518130e-01  -9.9569208e+07
   4.5348449e-10  -3.5537145e-02   1.8537586e+00   1.1670428e-01  -9.8723856e+07
   4.5615205e-10  -3.5274914e-02   1.8400821e+00   1.1823139e-01  -9.7887928e+07
   4.5881961e-10  -3.5014900e-02   1.8265781e+00   1.1976252e-01  -9.7061281e+07
   4.6148716e-10  -3.4757079e-02   1.8132441e+00   1.2129753e-01  -9.6243771e+07
   4.6415472e-10  -3.4501426e-02   1.8000779e+00   1.2283628e-01  -9.5435259e+07
   4.6682227e-10  -3.4247919e-02   1.7870771e+00   1.2437866e-01  -9.4635607e+07
   4.6948983e-10  -3.3996532e-02   1.7742394e+00   1.2592453e-01  -9.3844681e+07
   4.7215739e-10  -3.3747244e-02   1.7615626e+00   1.2747376e-01  -9.3062348e+07
   4.7482494e-10  -3.3500032e-02   1.7490443e+00   1.2902622e-01  -9.2288479e+07
   4.7749250e-10  -3.3254872e-02   1.7366824e+00   1.3058181e-01  -9.1522947e+07
   4.8016005e-10  -3.3011744e-02   1.7244747e+00   1.3214038e-01  -9.0765626e+07
   4.8282761e-10  -3.2770624e-02   1.7124190e+00   1.3370182e-01  -9.0016395e+07
   4.8549517e-10  -3.2531493e-02   1.7005132e+00   1.3526600e-01  -8.9275132e+07
   4.8816272e-10  -3.2294328e-02   1.6887553e+00   1.3683281e-01  -8.8541721e+07
   4.9083028e-10  -3.2059110e-02   1.6771430e+00   1.3840213e-01  -8.7816045e+07
   4.9349783e-10  -3.1825817e-02   1.6656745e+00   1.3997383e-01  -8.7097991e+07
   4.9616539e-10  -3.1594429e-02   1.6543475e+00   1.4154781e-01  -8.6387447e+07
   4.9883294e-10  -3.1364927e-02   1.6431603e+00   1.4312395e-01  -8.5684304e+07
   5.0150050e-10  -3.1137290e-02   1.6321108e+00   1.4470212e-01  -8.4988454e+07
   5.0416806e-10  -3.0911501e-02   1.6211970e+00   1.4628222e-01  -8.4299793e+07
   5.0683561e-10  -3.0687538e-02   1.6104171e+00   1.4786414e-01  -8.3618216e+07
   5.0950317e-10  -3.0465385e-02   1.5997692e+00   1.4944777e-01  -8.2943623e+07
   5.1217072e-10  -3.0245021e-02   1.5892513e+00   1.5103298e-01  -8.2275913e+07
   5.1483828e-10  -3.0026430e-02   1.5788618e+00   1.5261969e-01  -8.1614989e+07
   5.1750584e-10  -2.9809592e-02   1.5685988e+00   1.5420777e-01  -8.0960755e+07
   5.2017339e-10  -2.9594491e-02   1.5584604e+00   1.5579712e-01  -8.0313117e+07
   5.2284095e-10  -2.9381109e-02   1.5484450e+00   1.5738764e-01  -7.9671982e+07
   5.2550850e-10  -2.9169429e-02   1.5385508e+00   1.5897922e-01  -7.9037260e+07
   5.2817606e-10  -2.8959433e-02   1.5287762e+00   1.6057176e-01  -7.8408861e+07
   5.3084361e-10  -2.8751105e-02   1.5191193e+00   1.6216515e-01  -7.7786698e+07
   5.3351117e-10  -2.8544429e-02   1.5095787e+00   1.6375930e-01  -7.7170686e+07
   5.3617873e-10  -2.8339387e-02   1.5001526e+00   1.6535410e-01  -7.6560739e+07
   5.3884628e-10  -2.8135965e-02   1.4908395e+00   1.6694945e-01  -7.5956775e+07
   5.4151384e-10  -2.7934145e-02   1.4816378e+00   1.6854527e-01  -7.5358713e+07
   5.4418139e-10  -2.7733914e-02   1.4725458e+00   1.7014144e-01  -7.4766472e+07
   5.4684895e-10  -2.7535254e-02   1.4635622e+00   1.7173788e-01  -7.4179976e+07
   5.4951651e-10  -2.7338152e-02   1.4546853e+00   1.7333449e-01  -7.3599145e+07
   5.5218406e-10  -2.7142591e-02   1.4459137e+00   1.7493118e-01  -7.3023906e+07
   5.5485162e-10  -2.6948557e-02   1.4372459e+00   1.7652786e-01  -7.2454183e+07
   5.5751917e-10  -2.6756036e-02   1.4286805e+00   1.7812442e-01  -7.1889905e+07
   5.6018673e-10  -2.6565013e-02   1.4202160e+00   1.7972079e-01  -7.1330998e+07
   5.6285428e-10  -2.6375473e-02   1.4118510e+00   1.8131688e-01  -7.0777393e+07
   5.6552184e-10  -2.6187403e-02   1.4035843e+00   1.8291259e-01  -7.0229020e+07
   5.6818940e-10  -2.6000790e-02   1.3954143e+00   1.8450784e-01  -6.9685812e+07
   5.7085695e-10  -2.5815618e-02   1.3873397e+00   1.8610254e-01  -6.9147702e+07
   5.7352451e-10  -2.5631875e-02   1.3793594e+00   1.8769661e-01  -6.8614624e+07
   5.7619206e-10  -2.5449548e-02   1.3714718e+00   1.8928997e-01  -6.8086515e+07
   5.7885962e-10  -2.5268622e-02   1.3636758e+00   1.9088252e-01  -6.7563310e+07
   5.8152718e-10  -2.5089086e-02   1.3559702e+00   1.9247420e-01  -6.7044947e+07
   5.8419473e-10  -2.4910926e-02   1.3483535e+00   1.9406491e-01  -6.6531365e+07
   5.8686229e-10  -2.4734130e-02   1.3408248e+00   1.9565459e-01  -6.6022505e+07
   5.8952984e-10  -2.4558685e-02   1.3333826e+00   1.9724314e-01  -6.5518307e+07
   5.9219740e-10  -2.4384579e-02   1.3260259e+00   1.9883050e-01  -6.5018713e+07
   5.9486495e-10  -2.4211799e-02   1.3187535e+00   2.0041658e-01  -6.4523666e+07
   5.9753251e-10  -2.4040334e-02   1.3115643e+00   2.0200131e-01  -6.4033110e+07
   6.0020007e-10  -2.3870172e-02   1.3044570e+00   2.0358462e-01  -6.3546990e+07
   6.0286762e-10  -2.3701300e-02   1.2974306e+00   2.0516643e-01  -6.3065251e+07
   6.0553518e-10  -2.3533708e-02   1.2904840e+00   2.0674667e-01  -6.2587840e+07
   6.0820273e-10  -2.3367384e-02   1.2836162e+00   2.0832527e-01  -6.2114706e+07
   6.1087029e-10  -2.3202316e-02   1.2768259e+00   2.0990215e-01  -6.1645795e+07
   6.1353785e-10  -2.3038493e-02   1.2701123e+00   2.1147725e-01  -6.1181058e+07
   6.1620540e-10  -2.2875904e-02   1.2634742e+00   2.1305050e-01  -6.0720445e+07
   6.1887296e-10  -2.2714539e-02   1.2569107e+00   2.1462182e-01  -6.0263906e+07
   6.2154051e-10  -2.2554386e-02   1.2504208e+00   2.1619116e-01  -5.9811393e+07
   6.2420807e-10  -2.2395435e-02   1.2440034e+00   2.1775845e-01  -5.9362860e+07
   6.2687563e-10  -2.2237675e-02   1.2376576e+00   2.1932362e-01  -5.8918258e+07
   6.2954318e-10  -2.2081096e-02   1.2313824e+00   2.2088661e-01  -5.8477543e+07
   6.3221074e-10  -2.1925687e-02   1.2251769e+00   2.2244735e-01  -5.8040670e+07
   6.3487829e-10  -2.1771439e-02   1.2190402e+00   2.2400579e-01  -5.7607592e+07
   6.3754585e-10  -2.1618341e-02   1.2129714e+00   2.2556185e-01  -5.7178268e+07
   6.4021340e-10  -2.1466383e-02   1.2069695e+00   2.2711549e-01  -5.6752653e+07
   6.4288096e-10  -2.1315556e-02   1.2010337e+00   2.2866664e-01  -5.6330706e+07
   6.4554852e-10  -2.1165849e-02   1.1951631e+00   2.3021524e-01  -5.5912385e+07
   6.4821607e-10  -2.1017254e-02   1.1893568e+00   2.3176124e-01  -5.5497648e+07
   6.5088363e-10  -2.0869760e-02   1.1836140e+00   2.3330458e-01  -5.5086456e+07
   6.5355118e-10  -2.0723358e-02   1.1779339e+00   2.3484520e-01  -5.4678768e+07
   6.5621874e-10  -2.0578039e-02   1.1723156e+00   2.3638304e-01  -5.4274546e+07
   6.5888630e-10  -2.0433794e-02   1.1667584e+00   2.3791806e-01  -5.3873751e+07
   6.6155385e-10  -2.0290614e-02   1.1612614e+00   2.3945020e-01  -5.3476344e+07
   6.6422141e-10  -2.0148489e-02   1.1558239e+00   2.4097941e-01  -5.3082289e+07
   6.6688896e-10  -2.0007411e-02   1.1504450e+00   2.4250564e-01  -5.2691548e+07
   6.6955652e-10  -1.9867371e-02   1.1451241e+00   2.4402882e-01  -5.2304087e+07
   6.7222407e-10  -1.9728360e-02   1.1398603e+00   2.4554893e-01  -5.1919867e+07
   6.7489163e-10  -1.9590369e-02   1.1346530e+00   2.4706590e-01  -5.1538856e+07
   6.7755919e-10  -1.9453391e-02   1.1295013e+00   2.4857969e-01  -5.1161017e+07
   6.8022674e-10  -1.9317416e-02   1.1244047e+00   2.5009025e-01  -5.0786318e+07
   6.8289430e-10  -1.9182437e-02   1.1193624e+00   2.5159754e-01  -5.0414724e+07
   6.8556185e-10  -1.9048445e-02   1.1143736e+00   2.5310150e-01  -5.0046202e+07
   6.8822941e-10  -1.8915432e-02   1.1094378e+00   2.5460210e-01  -4.9680719e+07
   6.9089697e-10  -1.8783390e-02   1.1045542e+00   2.5609929e-01  -4.9318244e+07
   6.9356452e-10  -1.8652311e-02   1.0997221e+00   2.5759303e-01  -4.8958745e+07
   6.9623208e-10  -1.8522187e-02   1.0949410e+00   2.5908326e-01  -4.8602190e+07
   6.9889963e-10  -1.8393010e-02   1.0902102e+00   2.6056996e-01  -4.8248550e+07
   7.0156719e-10  -1.8264773e-02   1.0855289e+00   2.6205308e-01  -4.7897793e+07
   7.0423474e-10  -1.8137467e-02   1.0808967e+00   2.6353259e-01  -4.7549889e+07
   7.0690230e-10  -1.8011086e-02   1.0763129e+00   2.6500843e-01  -4.7204810e+07
   7.0956986e-10  -1.7885622e-02   1.0717769e+00   2.6648057e-01  -4.6862526e+07
   7.1223741e-10  -1.7761067e-02   1.0672881e+00   2.6794898e-01  -4.6523009e+07
   7.1490497e-10  -1.7637413e-02   1.0628458e+00   2.6941362e-01  -4.6186230e+07
   7.1757252e-10  -1.7514655e-02   1.0584496e+00   2.7087444e-01  -4.5852162e+07
   7.2024008e-10  -1.7392784e-02   1.0540988e+00   2.7233143e-01  -4.5520777e+07
   7.2290764e-10  -1.7271794e-02   1.0497929e+00   2.7378453e-01  -4.5192048e+07
   7.2557519e-10  -1.7151677e-02   1.0455314e+00   2.7523372e-01  -4.4865949e+07
   7.2824275e-10  -1.7032427e-02   1.0413136e+00   2.7667895e-01  -4.4542454e+07
   7.3091030e-10  -1.6914036e-02   1.0371390e+00   2.7812021e-01  -4.4221535e+07
   7.3357786e-10  -1.6796497e-02   1.0330071e+00   2.7955746e-01  -4.3903168e+07
   7.3624542e-10  -1.6679805e-02   1.0289175e+00   2.8099066e-01  -4.3587328e+07
   7.3891297e-10  -1.6563952e-02   1.0248694e+00   2.8241978e-01  -4.3273990e+07
   7.4158053e-10  -1.6448931e-02   1.0208626e+00   2.8384480e-01  -4.2963129e+07
   7.4424808e-10  -1.6334736e-02   1.0168964e+00   2.8526568e-01  -4.2654720e+07
   7.4691564e-10  -1.6221361e-02   1.0129703e+00   2.8668240e-01  -4.2348741e+07
   7.4958319e-10  -1.6108799e-02   1.0090839e+00   2.8809493e-01  -4.2045167e+07
   7.5225075e-10  -1.5997043e-02   1.0052367e+00   2.8950323e-01  -4.1743976e+07
   7.5491831e-10  -1.5886087e-02   1.0014282e+00   2.9090729e-01  -4.1445144e+07
   7.5758586e-10  -1.5775926e-02   9.9765801e-01   2.9230708e-01  -4.1148648e+07
   7.6025342e-10  -1.5666553e-02   9.9392556e-01   2.9370257e-01  -4.0854467e+07
   7.6292097e-10  -1.5557961e-02   9.9023045e-01   2.9509373e-01  -4.0562578e+07
   7.6558853e-10  -1.5450144e-02   9.8657222e-01   2.9648055e-01  -4.0272959e+07
   7.6825609e-10  -1.5343098e-02   9.8295043e-01   2.9786300e-01  -3.9985590e+07
   7.7092364e-10  -1.5236815e-02   9.7936465e-01   2.9924105e-01  -3.9700448e+07
   7.7359120e-10  -1.5131289e-02   9.7581446e-01   3.0061468e-01  -3.9417514e+07
   7.7625875e-10  -1.5026516e-02   9.7229942e-01   3.0198387e-01  -3.9136765e+07
   7.7892631e-10  -1.4922488e-02   9.6881912e-01   3.0334861e-01  -3.8858182e+07
   7.8159386e-10  -1.4819201e-02   9.6537315e-01   3.0470886e-01  -3.8581745e+07
   7.8426142e-10  -1.4716648e-02   9.6196111e-01   3.0606461e-01  -3.8307434e+07
   7.8692898e-10  -1.4614824e-02   9.5858260e-01   3.0741584e-01  -3.8035229e+07
   7.8959653e-10  -1.4513724e-02   9.5523721e-01   3.0876253e-01  -3.7765110e+07
   7.9226409e-10  -1.4413341e-02   9.5192457e-01   3.1010466e-01  -3.7497059e+07
   7.9493164e-10  -1.4313671e-02   9.4864430e-01   3.1144222e-01  -3.7231057e+07
   7.9759920e-10  -1.4214707e-02   9.4539600e-01   3.1277518e-01  -3.6967085e+07
   8.0026676e-10  -1.4116445e-02   9.4217931e-01   3.1410353e-01  -3.6705124e+07
   8.0293431e-10  -1.4018880e-02   9.3899387e-01   3.1542726e-01  -3.6445156e+07
   8.0560187e-10  -1.3922005e-02   9.3583931e-01   3.1674634e-01  -3.6187164e+07
   8.0826942e-10  -1.3825815e-02   9.3271527e-01   3.1806077e-01  -3.5931129e+07
   8.1093698e-10  -1.3730306e-02   9.2962140e-01   3.1937052e-01  -3.5677034e+07
   8.1360453e-10  -1.3635472e-02   9.2655736e-01   3.2067559e-01  -3.5424862e+07
   8.1627209e-10  -1.3541309e-02   9.2352280e-01   3.2197596e-01  -3.5174594e+07
   8.1893965e-10  -1.3447810e-02   9.2051738e-01   3.2327161e-01  -3.4926216e+07
   8.2160720e-10  -1.3354972e-02   9.1754077e-01   3.2456254e-01  -3.4679709e+07
   8.2427476e-10  -1.3262788e-02   9.1459264e-01   3.2584873e-01  -3.4435057e+07
   8.2694231e-10  -1.3171255e-02   9.1167266e-01   3.2713017e-01  -3.4192244e+07
   8.2960987e-10  -1.3080367e-02   9.0878052e-01   3.2840685e-01  -3.3951253e+07
   8.3227743e-10  -1.2990119e-02   9.0591591e-01   3.2967876e-01  -3.3712069e+07
   8.3494498e-10  -1.2900508e-02   9.0307850e-01   3.3094589e-01  -3.3474676e+07
   8.3761254e-10  -1.2811527e-02   9.0026799e-01   3.3220822e-01  -3.3239058e+07
   8.4028009e-10  -1.2723172e-02   8.9748408e-01   3.3346576e-01  -3.3005200e+07
   8.4294765e-10  -1.2635439e-02   8.9472647e-01   3.3471848e-01  -3.2773086e+07
   8.4561521e-10  -1.2548322e-02   8.9199486e-01   3.3596639e-01  -3.2542702e+07
   8.4828276e-10  -1.2461818e-02   8.8928896e-01   3.3720947e-01  -3.2314032e+07
   8.5095032e-10  -1.2375921e-02   8.8660849e-01   3.3844772e-01  -3.2087062e+07
   8.5361787e-10  -1.2290628e-02   8.8395316e-01   3.3968113e-01  -3.1861777e+07
   8.5628543e-10  -1.2205934e-02   8.8132270e-01   3.4090969e-01  -3.1638163e+07
   8.5895298e-10  -1.2121834e-02   8.7871682e-01   3.4213339e-01  -3.1416206e+07
   8.6162054e-10  -1.2038323e-02   8.7613525e-01   3.4335224e-01  -3.1195891e+07
   8.6428810e-10  -1.1955398e-02   8.7357773e-01   3.4456622e-01  -3.0977204e+07
   8.6695565e-10  -1.1873055e-02   8.7104399e-01   3.4577533e-01  -3.0760132e+07
   8.6962321e-10  -1.1791288e-02   8.6853377e-01   3.4697957e-01  -3.0544661e+07
   8.7229076e-10  -1.1710094e-02   8.6604680e-01   3.4817893e-01  -3.0330778e+07
   8.7495832e-10  -1.1629469e-02   8.6358284e-01   3.4937341e-01  -3.0118469e+07
   8.7762588e-10  -1.1549407e-02   8.6114164e-01   3.5056300e-01  -2.9907721e+07
   8.8029343e-10  -1.1469906e-02   8.5872294e-01   3.5174770e-01  -2.9698521e+07
   8.8296099e-10  -1.1390961e-02   8.5632650e-01   3.5292751e-01  -2.9490856e+07
   8.8562854e-10  -1.1312568e-02   8.5395207e-01   3.5410242e-01  -2.9284714e+07
   8.8829610e-10  -1.1234722e-02   8.5159943e-01   3.5527244e-01  -2.9080081e+07
   8.9096365e-10  -1.1157421e-02   8.4926832e-01   3.5643756e-01  -2.8876945e+07
   8.9363121e-10  -1.1080659e-02   8.4695853e-01   3.5759779e-01  -2.8675294e+07
   8.9629877e-10  -1.1004434e-02   8.4466982e-01   3.5875311e-01  -2.8475116e+07
   8.9896632e-10  -1.0928740e-02   8.4240197e-01   3.5990353e-01  -2.8276399e+07
   9.0163388e-10  -1.0853575e-02   8.4015474e-01   3.6104905e-01  -2.8079129e+07
   9.0430143e-10  -1.0778933e-02   8.3792792e-01   3.6218968e-01  -2.7883297e+07
   9.0696899e-10  -1.0704813e-02   8.3572130e-01   3.6332540e-01  -2.7688889e+07
   9.0963655e-10  -1.0631209e-02   8.3353464e-01   3.6445622e-01  -2.7495895e+07
   9.1230410e-10  -1.0558118e-02   8.3136776e-01   3.6558214e-01  -2.7304302e+07
   9.1497166e-10  -1.0485536e-02   8.2922042e-01   3.6670317e-01  -2.7114100e+07
   9.1763921e-10  -1.0413460e-02   8.2709243e-01   3.6781930e-01  -2.6925277e+07
   9.2030677e-10  -1.0341885e-02   8.2498358e-01   3.6893054e-01  -2.6737822e+07
   9.2297432e-10  -1.0270809e-02   8.2289368e-01   3.7003689e-01  -2.6551724e+07
   9.2564188e-10  -1.0200228e-02   8.2082251e-01   3.7113835e-01  -2.6366973e+07
   9.2830944e-10  -1.0130137e-02   8.1876988e-01   3.7223492e-01  -2.6183556e+07
   9.3097699e-10  -1.0060534e-02   8.1673560e-01   3.7332662e-01  -2.6001464e+07
   9.3364455e-10  -9.9914154e-03   8.1471947e-01   3.7441343e-01  -2.5820686e+07
   9.3631210e-10  -9.9227770e-03   8.1272131e-01   3.7549537e-01  -2.5641212e+07
   9.3897966e-10  -9.8546156e-03   8.1074093e-01   3.7657244e-01  -2.5463030e+07
   9.4164722e-10  -9.7869277e-03   8.0877815e-01   3.7764464e-01  -2.5286132e+07
   9.4431477e-10  -9.7197101e-03   8.0683277e-01   3.7871198e-01  -2.5110506e+07
   9.4698233e-10  -9.6529592e-03   8.0490462e-01   3.7977447e-01  -2.4936142e+07
   9.4964988e-10  -9.5866719e-03   8.0299353e-01   3.8083210e-01  -2.4763031e+07
   9.5231744e-10  -9.5208446e-03   8.0109931e-01   3.8188488e-01  -2.4591163e+07
   9.5498499e-10  -9.4554742e-03   7.9922179e-01   3.8293283e-01  -2.4420528e+07
   9.5765255e-10  -9.3905573e-03   7.9736080e-01   3.8397594e-01  -2.4251116e+07
   9.6032011e-10  -9.3260907e-03   7.9551617e-01   3.8501422e-01  -2.4082918e+07
   9.6298766e-10  -9.2620711e-03   7.9368773e-01   3.8604768e-01  -2.3915924e+07
   9.6565522e-10  -9.1984955e-03   7.9187532e-01   3.8707632e-01  -2.3750124e+07
   9.6832277e-10  -9.1353605e-03   7.9007877e-01   3.8810015e-01  -2.3585510e+07
   9.7099033e-10  -9.0726631e-03   7.8829792e-01   3.8911919e-01  -2.3422072e+07
   9.7365789e-10  -9.0104001e-03   7.8653262e-01   3.9013342e-01  -2.3259801e+07
   9.7632544e-10  -8.9485685e-03   7.8478270e-01   3.9114287e-01  -2.3098687e+07
   9.7899300e-10  -8.8871650e-03   7.8304801e-01   3.9214754e-01  -2.2938723e+07
   9.8166055e-10  -8.8261868e-03   7.8132839e-01   3.9314744e-01  -2.2779899e+07
   9.8432811e-10  -8.7656307e-03   7.7962369e-01   3.9414258e-01  -2.2622206e+07
   9.8699567e-10  -8.7054938e-03   7.7793377e-01   3.9513296e-01  -2.2465635e+07
   9.8966322e-10  -8.6457731e-03   7.7625846e-01   3.9611859e-01  -2.2310179e+07
   9.9233078e-10  -8.5864656e-03   7.7459764e-01   3.9709948e-01  -2.2155827e+07
   9.9499833e-10  -8.5275683e-03   7.7295115e-01   3.9807565e-01  -2.2002573e+07
   9.9766589e-10  -8.4690784e-03   7.7131884e-01   3.9904709e-01  -2.1850407e+07
   1.0003334e-09  -8.4109930e-03   7.6970058e-01   4.0001383e-01  -2.1699320e+07
   1.0030010e-09  -8.3533092e-03   7.6809623e-01   4.0097586e-01  -2.1549306e+07
   1.0056686e-09  -8.2960242e-03   7.6650565e-01   4.0193320e-01  -2.1400355e+07
   1.0083361e-09  -8.2391350e-03   7.6492870e-01   4.0288586e-01  -2.1252460e+07
   1.0110037e-09  -8.1826390e-03   7.6336524e-01   4.0383385e-01  -2.1105612e+07
   1.0136712e-09  -8.1265333e-03   7.6181515e-01   4.0477718e-01  -2.0959804e+07
   1.0163388e-09  -8.0708152e-03   7.6027829e-01   4.0571586e-01  -2.0815027e+07
   1.0190063e-09  -8.0154819e-03   7.5875453e-01   4.0664989e-01  -2.0671274e+07
   1.0216739e-09  -7.9605308e-03   7.5724375e-01   4.0757929e-01  -2.0528537e+07
   1.0243414e-09  -7.9059590e-03   7.5574581e-01   4.0850408e-01  -2.0386809e+07
   1.0270090e-09  -7.8517640e-03   7.5426059e-01   4.0942426e-01  -2.0246081e+07
   1.0296766e-09  -7.7979431e-03   7.5278796e-01   4.1033984e-01  -2.0106347e+07
   1.0323441e-09  -7.7444936e-03   7.5132781e-01   4.1125083e-01  -1.9967598e+07
   1.0350117e-09  -7.6914129e-03   7.4988001e-01   4.1215725e-01  -1.9829827e+07
   1.0376792e-09  -7.6386984e-03   7.4844443e-01   4.1305911e-01  -1.9693028e+07
   1.0403468e-09  -7.5863476e-03   7.4702097e-01   4.1395641e-01  -1.9557192e+07
   1.0430143e-09  -7.5343578e-03   7.4560951e-01   4.1484918e-01  -1.9422313e+07
   1.0456819e-09  -7.4827265e-03   7.4420992e-01   4.1573742e-01  -1.9288382e+07
   1.0483494e-09  -7.4314513e-03   7.4282210e-01   4.1662114e-01  -1.9155395e+07
   1.0510170e-09  -7.3805296e-03   7.4144592e-01   4.1750036e-01  -1.9023342e+07
   1.0536846e-09  -7.3299589e-03   7.4008129e-01   4.1837509e-01  -1.8892218e+07
   1.0563521e-09  -7.2797367e-03   7.3872808e-01   4.1924534e-01  -1.8762014e+07
   1.0590197e-09  -7.2298606e-03   7.3738619e-01   4.2011112e-01  -1.8632726e+07
   1.0616872e-09  -7.1803283e-03   7.3605551e-01   4.2097245e-01  -1.8504345e+07
   1.0643548e-09  -7.1311371e-03   7.3473593e-01   4.2182934e-01  -1.8376865e+07
   1.0670223e-09  -7.0822849e-03   7.3342735e-01   4.2268181e-01  -1.8250279e+07
   1.0696899e-09  -7.0337691e-03   7.3212966e-01   4.2352986e-01  -1.8124581e+07
   1.0723575e-09  -6.9855875e-03   7.3084276e-01   4.2437350e-01  -1.7999764e+07
   1.0750250e-09  -6.9377376e-03   7.2956654e-01   4.2521276e-01  -1.7875821e+07
   1.0776926e-09  -6.8902172e-03   7.2830091e-01   4.2604765e-01  -1.7752747e+07
   1.0803601e-09  -6.8430240e-03   7.2704576e-01   4.2687817e-01  -1.7630534e+07
   1.0830277e-09  -6.7961557e-03   7.2580100e-01   4.2770435e-01  -1.7509177e+07
   1.0856952e-09  -6.7496099e-03   7.2456653e-01   4.2852619e-01  -1.7388669e+07
   1.0883628e-09  -6.7033845e-03   7.2334224e-01   4.2934371e-01  -1.7269003e+07
   1.0910303e-09  -6.6574771e-03   7.2212806e-01   4.3015692e-01  -1.7150175e+07
   1.0936979e-09  -6.6118857e-03   7.2092387e-01   4.3096584e-01  -1.7032176e+07
   1.0963655e-09  -6.5666079e-03   7.1972959e-01   4.3177048e-01  -1.6915003e+07
   1.0990330e-09  -6.5216416e-03   7.1854512e-01   4.3257086e-01  -1.6798647e+07
   1.1017006e-09  -6.4769845e-03   7.1737038e-01   4.3336699e-01  -1.6683104e+07
   1.1043681e-09  -6.4326347e-03   7.1620526e-01   4.3415888e-01  -1.6568368e+07
   1.1070357e-09  -6.3885898e-03   7.1504969e-01   4.3494654e-01  -1.6454432e+07
   1.1097032e-09  -6.3448478e-03   7.1390358e-01   4.3573000e-01  -1.6341291e+07
   1.1123708e-09  -6.3014065e-03   7.1276682e-01   4.3650927e-01  -1.6228938e+07
   1.1150383e-09  -6.2582639e-03   7.1163935e-01   4.3728435e-01  -1.6117369e+07
   1.1177059e-09  -6.2154179e-03   7.1052108e-01   4.3805527e-01  -1.6006578e+07
   1.1203735e-09  -6.1728664e-03   7.0941191e-01   4.3882204e-01  -1.5896558e+07
   1.1230410e-09  -6.1306073e-03   7.0831176e-01   4.3958468e-01  -1.5787305e+07
   1.1257086e-09  -6.0886387e-03   7.0722056e-01   4.4034319e-01  -1.5678813e+07
   1.1283761e-09  -6.0469585e-03   7.0613822e-01   4.4109760e-01  -1.5571075e+07
   1.1310437e-09  -6.0055647e-03   7.0506465e-01   4.4184792e-01  -1.5464088e+07
   1.1337112e-09  -5.9644552e-03   7.0399978e-01   4.4259416e-01  -1.5357844e+07
   1.1363788e-09  -5.9236282e-03   7.0294354e-01   4.4333634e-01  -1.5252340e+07
   1.1390463e-09  -5.8830817e-03   7.0189583e-01   4.4407447e-01  -1.5147569e+07
   1.1417139e-09  -5.8428137e-03   7.0085658e-01   4.4480857e-01  -1.5043527e+07
   1.1443815e-09  -5.8028222e-03   6.9982572e-01   4.4553865e-01  -1.4940207e+07
   1.1470490e-09  -5.7631054e-03   6.9880317e-01   4.4626473e-01  -1.4837606e+07
   1.1497166e-09  -5.7236613e-03   6.9778885e-01   4.4698683e-01  -1.4735717e+07
   1.1523841e-09  -5.6844881e-03   6.9678269e-01   4.4770496e-01  -1.4634535e+07
   1.1550517e-09  -5.6455839e-03   6.9578462e-01   4.4841913e-01  -1.4534057e+07
   1.1577192e-09  -5.6069467e-03   6.9479456e-01   4.4912935e-01  -1.4434275e+07
   1.1603868e-09  -5.5685748e-03   6.9381243e-01   4.4983566e-01  -1.4335186e+07
   1.1630544e-09  -5.5304664e-03   6.9283818e-01   4.5053805e-01  -1.4236784e+07
   1.1657219e-09  -5.4926194e-03   6.9187172e-01   4.5123655e-01  -1.4139065e+07
   1.1683895e-09  -5.4550323e-03   6.9091299e-01   4.5193117e-01  -1.4042023e+07
   1.1710570e-09  -5.4177031e-03   6.8996192e-01   4.5262192e-01  -1.3945655e+07
   1.1737246e-09  -5.3806301e-03   6.8901845e-01   4.5330883e-01  -1.3849954e+07
   1.1763921e-09  -5.3438115e-03   6.8808249e-01   4.5399190e-01  -1.3754916e+07
   1.1790597e-09  -5.3072456e-03   6.8715398e-01   4.5467116e-01  -1.3660537e+07
   1.1817272e-09  -5.2709305e-03   6.8623287e-01   4.5534661e-01  -1.3566811e+07
   1.1843948e-09  -5.2348646e-03   6.8531908e-01   4.5601828e-01  -1.3473735e+07
   1.1870624e-09  -5.1990461e-03   6.8441255e-01   4.5668618e-01  -1.3381303e+07
   1.1897299e-09  -5.1634733e-03   6.8351321e-01   4.5735032e-01  -1.3289511e+07
   1.1923975e-09  -5.1281446e-03   6.8262100e-01   4.5801072e-01  -1.3198354e+07
   1.1950650e-09  -5.0930581e-03   6.8173585e-01   4.5866740e-01  -1.3107828e+07
   1.1977326e-09  -5.0582123e-03   6.8085771e-01   4.5932036e-01  -1.3017928e+07
   1.2004001e-09  -5.0236055e-03   6.7998652e-01   4.5996964e-01  -1.2928650e+07
   1.2030677e-09  -4.9892360e-03   6.7912220e-01   4.6061523e-01  -1.2839989e+07
   1.2057352e-09  -4.9551022e-03   6.7826471e-01   4.6125717e-01  -1.2751942e+07
   1.2084028e-09  -4.9212025e-03   6.7741397e-01   4.6189546e-01  -1.2664503e+07
   1.2110704e-09  -4.8875352e-03   6.7656994e-01   4.6253011e-01  -1.2577668e+07
   1.2137379e-09  -4.8540987e-03   6.7573255e-01   4.6316116e-01  -1.2491434e+07
   1.2164055e-09  -4.8208915e-03   6.7490174e-01   4.6378860e-01  -1.2405795e+07
   1.2190730e-09  -4.7879120e-03   6.7407747e-01   4.6441246e-01  -1.2320748e+07
   1.2217406e-09  -4.7551585e-03   6.7325966e-01   4.6503275e-01  -1.2236288e+07
   1.2244081e-09  -4.7226295e-03   6.7244827e-01   4.6564949e-01  -1.2152412e+07
   1.2270757e-09  -4.6903235e-03   6.7164323e-01   4.6626269e-01  -1.2069114e+07
   1.2297432e-09  -4.6582390e-03   6.7084450e-01   4.6687237e-01  -1.1986392e+07
   1.2324108e-09  -4.6263743e-03   6.7005201e-01   4.6747854e-01  -1.1904241e+07
   1.2350784e-09  -4.5947281e-03   6.6926572e-01   4.6808123e-01  -1.1822656e+07
   1.2377459e-09  -4.5632987e-03   6.6848557e-01   4.6868044e-01  -1.1741635e+07
   1.2404135e-09  -4.5320847e-03   6.6771151e-01   4.6927619e-01  -1.1661173e+07
   1.2430810e-09  -4.5010846e-03   6.6694348e-01   4.6986849e-01  -1.1581265e+07
   1.2457486e-09  -4.4702969e-03   6.6618144e-01   4.7045737e-01  -1.1501909e+07
   1.2484161e-09  -4.4397202e-03   6.6542532e-01   4.7104284e-01  -1.1423100e+07
   1.2510837e-09  -4.4093529e-03   6.6467509e-01   4.7162491e-01  -1.1344834e+07
   1.2537513e-09  -4.3791938e-03   6.6393069e-01   4.7220360e-01  -1.1267108e+07
   1.2564188e-09  -4.3492412e-03   6.6319206e-01   4.7277893e-01  -1.1189918e+07
   1.2590864e-09  -4.3194939e-03   6.6245917e-01   4.7335090e-01  -1.1113259e+07
   1.2617539e-09  -4.2899503e-03   6.6173196e-01   4.7391954e-01  -1.1037129e+07
   1.2644215e-09  -4.2606091e-03   6.6101038e-01   4.7448486e-01  -1.0961523e+07
   1.2670890e-09  -4.2314689e-03   6.6029439e-01   4.7504688e-01  -1.0886439e+07
   1.2697566e-09  -4.2025284e-03   6.5958393e-01   4.7560561e-01  -1.0811871e+07
   1.2724241e-09  -4.1737860e-03   6.5887896e-01   4.7616107e-01  -1.0737817e+07
   1.2750917e-09  -4.1452405e-03   6.5817944e-01   4.7671327e-01  -1.0664273e+07
   1.2777593e-09  -4.1168905e-03   6.5748531e-01   4.7726223e-01  -1.0591236e+07
   1.2804268e-09  -4.0887347e-03   6.5679654e-01   4.7780796e-01  -1.0518701e+07
   1.2830944e-09  -4.0607717e-03   6.5611307e-01   4.7835048e-01  -1.0446666e+07
   1.2857619e-09  -4.0330001e-03   6.5543486e-01   4.7888981e-01  -1.0375126e+07
   1.2884295e-09  -4.0054188e-03   6.5476187e-01   4.7942595e-01  -1.0304079e+07
   1.2910970e-09  -3.9780263e-03   6.5409405e-01   4.7995893e-01  -1.0233520e+07
   1.2937646e-09  -3.9508214e-03   6.5343137e-01   4.8048876e-01  -1.0163448e+07
   1.2964321e-09  -3.9238028e-03   6.5277376e-01   4.8101546e-01  -1.0093857e+07
   1.2990997e-09  -3.8969692e-03   6.5212120e-01   4.8153903e-01  -1.0024745e+07
   1.3017673e-09  -3.8703193e-03   6.5147365e-01   4.8205951e-01  -9.9561084e+06
   1.3044348e-09  -3.8438519e-03   6.5083105e-01   4.8257689e-01  -9.8879438e+06
   1.3071024e-09  -3.8175656e-03   6.5019336e-01   4.8309120e-01  -9.8202481e+06
   1.3097699e-09  -3.7914594e-03   6.4956056e-01   4.8360245e-01  -9.7530178e+06
   1.3124375e-09  -3.7655318e-03   6.4893259e-01   4.8411066e-01  -9.6862497e+06
   1.3151050e-09  -3.7397818e-03   6.4830941e-01   4.8461584e-01  -9.6199407e+06
   1.3177726e-09  -3.7142080e-03   6.4769100e-01   4.8511800e-01  -9.5540875e+06
   1.3204401e-09  -3.6888093e-03   6.4707729e-01   4.8561717e-01  -9.4886870e+06
   1.3231077e-09  -3.6635844e-03   6.4646826e-01   4.8611335e-01  -9.4237359e+06
   1.3257753e-09  -3.6385323e-03   6.4586387e-01   4.8660656e-01  -9.3592312e+06
   1.3284428e-09  -3.6136515e-03   6.4526408e-01   4.8709682e-01  -9.2951697e+06
   1.3311104e-09  -3.5889411e-03   6.4466885e-01   4.8758414e-01  -9.2315484e+06
   1.3337779e-09  -3.5643999e-03   6.4407815e-01   4.8806854e-01  -9.1683642e+06
   1.3364455e-09  -3.5400265e-03   6.4349193e-01   4.8855003e-01  -9.1056141e+06
   1.3391130e-09  -3.5158200e-03   6.4291015e-01   4.8902862e-01  -9.0432949e+06
   1.3417806e-09  -3.4917792e-03   6.4233279e-01   4.8950433e-01  -8.9814039e+06
   1.3444481e-09  -3.4679029e-03   6.4175981e-01   4.8997718e-01  -8.9199378e+06
   1.3471157e-09  -3.4441900e-03   6.4119117e-01   4.9044717e-01  -8.8588939e+06
   1.3497833e-09  -3.4206394e-03   6.4062682e-01   4.9091433e-01  -8.7982692e+06
   1.3524508e-09  -3.3972499e-03   6.4006675e-01   4.9137867e-01  -8.7380607e+06
   1.3551184e-09  -3.3740205e-03   6.3951091e-01   4.9184020e-01  -8.6782655e+06
   1.3577859e-09  -3.3509501e-03   6.3895927e-01   4.9229893e-01  -8.6188809e+06
   1.3604535e-09  -3.3280375e-03   6.3841180e-01   4.9275489e-01  -8.5599039e+06
   1.3631210e-09  -3.3052817e-03   6.3786845e-01   4.9320808e-01  -8.5013318e+06
   1.3657886e-09  -3.2826816e-03   6.3732920e-01   4.9365853e-01  -8.4431616e+06
   1.3684562e-09  -3.2602362e-03   6.3679402e-01   4.9410624e-01  -8.3853907e+06
   1.3711237e-09  -3.2379443e-03   6.3626286e-01   4.9455123e-01  -8.3280162e+06
   1.3737913e-09  -3.2158050e-03   6.3573570e-01   4.9499351e-01  -8.2710354e+06
   1.3764588e-09  -3.1938171e-03   6.3521251e-01   4.9543310e-01  -8.2144456e+06
   1.3791264e-09  -3.1719797e-03   6.3469324e-01   4.9587001e-01  -8.1582441e+06
   1.3817939e-09  -3.1502917e-03   6.3417788e-01   4.9630425e-01  -8.1024281e+06
   1.3844615e-09  -3.1287520e-03   6.3366639e-01   4.9673585e-01  -8.0469951e+06
   1.3871290e-09  -3.1073598e-03   6.3315873e-01   4.9716481e-01  -7.9919422e+06
   1.3897966e-09  -3.0861138e-03   6.3265489e-01   4.9759114e-01  -7.9372670e+06
   1.3924642e-09  -3.0650133e-03   6.3215481e-01   4.9801487e-01  -7.8829669e+06
   1.3951317e-09  -3.0440570e-03   6.3165848e-01   4.9843600e-01  -7.8290391e+06
   1.3977993e-09  -3.0232442e-03   6.3116587e-01   4.9885455e-01  -7.7754811e+06
   1.4004668e-09  -3.0025737e-03   6.3067694e-01   4.9927054e-01  -7.7222904e+06
   1.4031344e-09  -2.9820446e-03   6.3019167e-01   4.9968397e-01  -7.6694645e+06
   1.4058019e-09  -2.9616559e-03   6.2971002e-01   5.0009486e-01  -7.6170007e+06
   1.4084695e-09  -2.9414068e-03   6.2923197e-01   5.0050323e-01  -7.5648967e+06
   1.4111370e-09  -2.9212961e-03   6.2875748e-01   5.0090908e-01  -7.5131499e+06
   1.4138046e-09  -2.9013230e-03   6.2828654e-01   5.0131243e-01  -7.4617578e+06
   1.4164722e-09  -2.8814865e-03   6.2781910e-01   5.0171330e-01  -7.4107180e+06
   1.4191397e-09  -2.8617857e-03   6.2735515e-01   5.0211170e-01  -7.3600281e+06
   1.4218073e-09  -2.8422197e-03   6.2689466e-01   5.0250764e-01  -7.3096857e+06
   1.4244748e-09  -2.8227874e-03   6.2643759e-01   5.0290113e-01  -7.2596882e+06
   1.4271424e-09  -2.8034881e-03   6.2598392e-01   5.0329219e-01  -7.2100335e+06
   1.4298099e-09  -2.7843208e-03   6.2553362e-01   5.0368083e-01  -7.1607190e+06
   1.4324775e-09  -2.7652846e-03   6.2508667e-01   5.0406707e-01  -7.1117425e+06
   1.4351450e-09  -2.7463786e-03   6.2464303e-01   5.0445092e-01  -7.0631016e+06
   1.4378126e-09  -2.7276019e-03   6.2420269e-01   5.0483238e-01  -7.0147940e+06
   1.4404802e-09  -2.7089537e-03   6.2376562e-01   5.0521148e-01  -6.9668174e+06
   1.4431477e-09  -2.6904329e-03   6.2333178e-01   5.0558823e-01  -6.9191695e+06
   1.4458153e-09  -2.6720389e-03   6.2290116e-01   5.0596264e-01  -6.8718481e+06
   1.4484828e-09  -2.6537706e-03   6.2247373e-01   5.0633472e-01  -6.8248509e+06
   1.4511504e-09  -2.6356273e-03   6.2204947e-01   5.0670448e-01  -6.7781756e+06
   1.4538179e-09  -2.6176080e-03   6.2162834e-01   5.0707195e-01  -6.7318201e+06
   1.4564855e-09  -2.5997120e-03   6.2121033e-01   5.0743712e-01  -6.6857821e+06
   1.4591531e-09  -2.5819384e-03   6.2079540e-01   5.0780002e-01  -6.6400594e+06
   1.4618206e-09  -2.5642863e-03   6.2038355e-01   5.0816066e-01  -6.5946500e+06
   1.4644882e-09  -2.5467550e-03   6.1997473e-01   5.0851904e-01  -6.5495515e+06
   1.4671557e-09  -2.5293435e-03   6.1956893e-01   5.0887519e-01  -6.5047619e+06
   1.4698233e-09  -2.5120511e-03   6.1916612e-01   5.0922911e-01  -6.4602791e+06
   1.4724908e-09  -2.4948769e-03   6.1876628e-01   5.0958082e-01  -6.4161009e+06
   1.4751584e-09  -2.4778202e-03   6.1836939e-01   5.0993033e-01  -6.3722253e+06
   1.4778259e-09  -2.4608802e-03   6.1797542e-01   5.1027765e-01  -6.3286501e+06
   1.4804935e-09  -2.4440559e-03   6.1758435e-01   5.1062280e-01  -6.2853733e+06
   1.4831611e-09  -2.4273468e-03   6.1719616e-01   5.1096578e-01  -6.2423928e+06
   1.4858286e-09  -2.4107519e-03   6.1681083e-01   5.1130661e-01  -6.1997066e+06
   1.4884962e-09  -2.3942704e-03   6.1642833e-01   5.1164530e-01  -6.1573127e+06
   1.4911637e-09  -2.3779017e-03   6.1604863e-01   5.1198186e-01  -6.1152090e+06
   1.4938313e-09  -2.3616449e-03   6.1567173e-01   5.1231631e-01  -6.0733936e+06
   1.4964988e-09  -2.3454992e-03   6.1529759e-01   5.1264865e-01  -6.0318644e+06
   1.4991664e-09  -2.3294640e-03   6.1492620e-01   5.1297891e-01  -5.9906196e+06
   1.5018339e-09  -2.3135384e-03   6.1455753e-01   5.1330708e-01  -5.9496571e+06
   1.5045015e-09  -2.2977217e-03   6.1419156e-01   5.1363319e-01  -5.9089750e+06
   1.5071691e-09  -2.2820131e-03   6.1382828e-01   5.1395724e-01  -5.8685714e+06
   1.5098366e-09  -2.2664120e-03   6.1346766e-01   5.1427925e-01  -5.8284444e+06
   1.5125042e-09  -2.2509175e-03   6.1310967e-01   5.1459923e-01  -5.7885920e+06
   1.5151717e-09  -2.2355290e-03   6.1275431e-01   5.1491719e-01  -5.7490124e+06
   1.5178393e-09  -2.2202457e-03   6.1240154e-01   5.1523313e-01  -5.7097037e+06
   1.5205068e-09  -2.2050669e-03   6.1205135e-01   5.1554709e-01  -5.6706641e+06
   1.5231744e-09  -2.1899918e-03   6.1170373e-01   5.1585905e-01  -5.6318916e+06
   1.5258419e-09  -2.1750199e-03   6.1135864e-01   5.1616904e-01  -5.5933845e+06
   1.5285095e-09  -2.1601503e-03   6.1101607e-01   5.1647707e-01  -5.5551409e+06
   1.5311771e-09  -2.1453824e-03   6.1067600e-01   5.1678315e-01  -5.5171591e+06
   1.5338446e-09  -2.1307154e-03   6.1033841e-01   5.1708728e-01  -5.4794371e+06
   1.5365122e-09  -2.1161488e-03   6.1000328e-01   5.1738949e-01  -5.4419733e+06
   1.5391797e-09  -2.1016817e-03   6.0967060e-01   5.1768978e-01  -5.4047659e+06
   1.5418473e-09  -2.0873136e-03   6.0934034e-01   5.1798817e-01  -5.3678130e+06
   1.5445148e-09  -2.0730436e-03   6.0901249e-01   5.1828466e-01  -5.3311130e+06
   1.5471824e-09  -2.0588713e-03   6.0868702e-01   5.1857926e-01  -5.2946642e+06
   1.5498499e-09  -2.0447958e-03   6.0836392e-01   5.1887199e-01  -5.2584647e+06
   1.5525175e-09  -2.0308166e-03   6.0804317e-01   5.1916286e-01  -5.2225129e+06
   1.5551851e-09  -2.0169329e-03   6.0772475e-01   5.1945188e-01  -5.1868071e+06
   1.5578526e-09  -2.0031442e-03   6.0740864e-01   5.1973906e-01  -5.1513456e+06
   1.5605202e-09  -1.9894498e-03   6.0709484e-01   5.2002440e-01  -5.1161267e+06
   1.5631877e-09  -1.9758489e-03   6.0678331e-01   5.2030793e-01  -5.0811487e+06
   1.5658553e-09  -1.9623411e-03   6.0647404e-01   5.2058965e-01  -5.0464100e+06
   1.5685228e-09  -1.9489256e-03   6.0616702e-01   5.2086957e-01  -5.0119090e+06
   1.5711904e-09  -1.9356018e-03   6.0586222e-01   5.2114771e-01  -4.9776441e+06
   1.5738580e-09  -1.9223691e-03   6.0555964e-01   5.2142407e-01  -4.9436135e+06
   1.5765255e-09  -1.9092269e-03   6.0525924e-01   5.2169866e-01  -4.9098157e+06
   1.5791931e-09  -1.8961745e-03   6.0496103e-01   5.2197149e-01  -4.8762491e+06
   1.5818606e-09  -1.8832114e-03   6.0466497e-01   5.2224259e-01  -4.8429122e+06
   1.5845282e-09  -1.8703369e-03   6.0437105e-01   5.2251194e-01  -4.8098032e+06
   1.5871957e-09  -1.8575504e-03   6.0407927e-01   5.2277957e-01  -4.7769208e+06
   1.5898633e-09  -1.8448513e-03   6.0378959e-01   5.2304549e-01  -4.7442633e+06
   1.5925308e-09  -1.8322390e-03   6.0350201e-01   5.2330971e-01  -4.7118291e+06
   1.5951984e-09  -1.8197130e-03   6.0321651e-01   5.2357223e-01  -4.6796168e+06
   1.5978660e-09  -1.8072726e-03   6.0293307e-01   5.2383306e-01  -4.6476248e+06
   1.6005335e-09  -1.7949172e-03   6.0265167e-01   5.2409222e-01  -4.6158517e+06
   1.6032011e-09  -1.7826463e-03   6.0237231e-01   5.2434972e-01  -4.5842958e+06
   1.6058686e-09  -1.7704593e-03   6.0209497e-01   5.2460556e-01  -4.5529558e+06
   1.6085362e-09  -1.7583556e-03   6.0181963e-01   5.2485976e-01  -4.5218302e+06
   1.6112037e-09  -1.7463347e-03   6.0154627e-01   5.2511233e-01  -4.4909174e+06
   1.6138713e-09  -1.7343959e-03   6.0127488e-01   5.2536327e-01  -4.4602160e+06
   1.6165388e-09  -1.7225388e-03   6.0100545e-01   5.2561260e-01  -4.4297246e+06
   1.6192064e-09  -1.7107627e-03   6.0073796e-01   5.2586032e-01  -4.3994417e+06
   1.6218740e-09  -1.6990671e-03   6.0047240e-01   5.2610645e-01  -4.3693659e+06
   1.6245415e-09  -1.6874515e-03   6.0020875e-01   5.2635099e-01  -4.3394958e+06
   1.6272091e-09  -1.6759153e-03   5.9994700e-01   5.2659395e-01  -4.3098300e+06
   1.6298766e-09  -1.6644579e-03   5.9968713e-01   5.2683535e-01  -4.2803671e+06
   1.6325442e-09  -1.6530789e-03   5.9942913e-01   5.2707519e-01  -4.2511056e+06
   1.6352117e-09  -1.6417776e-03   5.9917299e-01   5.2731348e-01  -4.2220442e+06
   1.6378793e-09  -1.6305537e-03   5.9891868e-01   5.2755024e-01  -4.1931816e+06
   1.6405468e-09  -1.6194064e-03   5.9866621e-01   5.2778546e-01  -4.1645163e+06
   1.6432144e-09  -1.6083354e-03   5.9841554e-01   5.2801917e-01  -4.1360471e+06
   1.6458820e-09  -1.5973400e-03   5.9816668e-01   5.2825136e-01  -4.1077725e+06
   1.6485495e-09  -1.5864198e-03   5.9791961e-01   5.2848206e-01  -4.0796913e+06
   1.6512171e-09  -1.5755742e-03   5.9767430e-01   5.2871126e-01  -4.0518020e+06
   1.6538846e-09  -1.5648028e-03   5.9743076e-01   5.2893898e-01  -4.0241035e+06
   1.6565522e-09  -1.5541050e-03   5.9718896e-01   5.2916522e-01  -3.9965944e+06
   1.6592197e-09  -1.5434804e-03   5.9694890e-01   5.2939000e-01  -3.9692734e+06
   1.6618873e-09  -1.5329284e-03   5.9671056e-01   5.2961332e-01  -3.9421392e+06
   1.6645549e-09  -1.5224485e-03   5.9647392e-01   5.2983520e-01  -3.9151905e+06
   1.6672224e-09  -1.5120403e-03   5.9623899e-01   5.3005563e-01  -3.8884261e+06
   1.6698900e-09  -1.5017032e-03   5.9600573e-01   5.3027464e-01  -3.8618447e+06
   1.6725575e-09  -1.4914368e-03   5.9577414e-01   5.3049222e-01  -3.8354450e+06
   1.6752251e-09  -1.4812405e-03   5.9554421e-01   5.3070840e-01  -3.8092259e+06
   1.6778926e-09  -1.4711140e-03   5.9531593e-01   5.3092317e-01  -3.7831860e+06
   1.6805602e-09  -1.4610567e-03   5.9508927e-01   5.3113654e-01  -3.7573241e+06
   1.6832277e-09  -1.4510681e-03   5.9486424e-01   5.3134853e-01  -3.7316390e+06
   1.6858953e-09  -1.4411478e-03   5.9464082e-01   5.3155914e-01  -3.7061296e+06
   1.6885629e-09  -1.4312954e-03   5.9441899e-01   5.3176838e-01  -3.6807946e+06
   1.6912304e-09  -1.4215102e-03   5.9419875e-01   5.3197626e-01  -3.6556328e+06
   1.6938980e-09  -1.4117920e-03   5.9398008e-01   5.3218278e-01  -3.6306430e+06
   1.6965655e-09  -1.4021402e-03   5.9376297e-01   5.3238797e-01  -3.6058241e+06
   1.6992331e-09  -1.3925544e-03   5.9354741e-01   5.3259181e-01  -3.5811748e+06
   1.7019006e-09  -1.3830341e-03   5.9333339e-01   5.3279433e-01  -3.5566941e+06
   1.7045682e-09  -1.3735789e-03   5.9312090e-01   5.3299553e-01  -3.5323807e+06
   1.7072357e-09  -1.3641884e-03   5.9290992e-01   5.3319541e-01  -3.5082336e+06
   1.7099033e-09  -1.3548620e-03   5.9270044e-01   5.3339400e-01  -3.4842515e+06
   1.7125709e-09  -1.3455994e-03   5.9249246e-01   5.3359129e-01  -3.4604334e+06
   1.7152384e-09  -1.3364001e-03   5.9228596e-01   5.3378729e-01  -3.4367781e+06
   1.7179060e-09  -1.3272637e-03   5.9208093e-01   5.3398201e-01  -3.4132846e+06
   1.7205735e-09  -1.3181897e-03   5.9187736e-01   5.3417546e-01  -3.3899516e+06
   1.7232411e-09  -1.3091778e-03   5.9167524e-01   5.3436765e-01  -3.3667782e+06
   1.7259086e-09  -1.3002274e-03   5.9147456e-01   5.3455858e-01  -3.3437632e+06
   1.7285762e-09  -1.2913383e-03   5.9127531e-01   5.3474826e-01  -3.3209055e+06
   1.7312437e-09  -1.2825099e-03   5.9107747e-01   5.3493670e-01  -3.2982041e+06
   1.7339113e-09  -1.2737419e-03   5.9088104e-01   5.3512391e-01  -3.2756579e+06
   1.7365789e-09  -1.2650338e-03   5.9068601e-01   5.3530990e-01  -3.2532658e+06
   1.7392464e-09  -1.2563853e-03   5.9049237e-01   5.3549467e-01  -3.2310268e+06
   1.7419140e-09  -1.2477958e-03   5.9030010e-01   5.3567823e-01  -3.2089398e+06
   1.7445815e-09  -1.2392651e-03   5.9010919e-01   5.3586059e-01  -3.1870038e+06
   1.7472491e-09  -1.2307927e-03   5.8991964e-01   5.3604175e-01  -3.1652177e+06
   1.7499166e-09  -1.2223782e-03   5.8973144e-01   5.3622172e-01  -3.1435806e+06
   1.7525842e-09  -1.2140212e-03   5.8954458e-01   5.3640052e-01  -3.1220914e+06
   1.7552518e-09  -1.2057214e-03   5.8935904e-01   5.3657815e-01  -3.1007491e+06
   1.7579193e-09  -1.1974783e-03   5.8917481e-01   5.3675461e-01  -3.0795526e+06
   1.7605869e-09  -1.1892915e-03   5.8899190e-01   5.3692991e-01  -3.0585011e+06
   1.7632544e-09  -1.1811607e-03   5.8881028e-01   5.3710406e-01  -3.0375935e+06
   1.7659220e-09  -1.1730855e-03   5.8862995e-01   5.3727707e-01  -3.0168288e+06
   1.7685895e-09  -1.1650655e-03   5.8845089e-01   5.3744894e-01  -2.9962060e+06
   1.7712571e-09  -1.1571003e-03   5.8827311e-01   5.3761969e-01  -2.9757242e+06
   1.7739246e-09  -1.1491896e-03   5.8809659e-01   5.3778931e-01  -2.9553825e+06
   1.7765922e-09  -1.1413329e-03   5.8792131e-01   5.3795782e-01  -2.9351797e+06
   1.7792598e-09  -1.1335300e-03   5.8774728e-01   5.3812522e-01  -2.9151151e+06
   1.7819273e-09  -1.1257803e-03   5.8757448e-01   5.3829152e-01  -2.8951876e+06
   1.7845949e-09  -1.1180837e-03   5.8740290e-01   5.3845673e-01  -2.8753964e+06
   1.7872624e-09  -1.1104397e-03   5.8723254e-01   5.3862085e-01  -2.8557404e+06
   1.7899300e-09  -1.1028479e-03   5.8706338e-01   5.3878389e-01  -2.8362188e+06
   1.7925975e-09  -1.0953080e-03   5.8689542e-01   5.3894585e-01  -2.8168306e+06
   1.7952651e-09  -1.0878197e-03   5.8672864e-01   5.3910675e-01  -2.7975750e+06
   1.7979326e-09  -1.0803826e-03   5.8656305e-01   5.3926660e-01  -2.7784509e+06
   1.8006002e-09  -1.0729963e-03   5.8639863e-01   5.3942538e-01  -2.7594576e+06
   1.8032678e-09  -1.0656605e-03   5.8623536e-01   5.3958313e-01  -2.7405942e+06
   1.8059353e-09  -1.0583748e-03   5.8607326e-01   5.3973983e-01  -2.7218596e+06
   1.8086029e-09  -1.0511389e-03   5.8591229e-01   5.3989550e-01  -2.7032532e+06
   1.8112704e-09  -1.0439526e-03   5.8575247e-01   5.4005014e-01  -2.6847739e+06
   1.8139380e-09  -1.0368153e-03   5.8559377e-01   5.4020376e-01  -2.6664209e+06
   1.8166055e-09  -1.0297268e-03   5.8543619e-01   5.4035637e-01  -2.6481934e+06
   1.8192731e-09  -1.0226868e-03   5.8527973e-01   5.4050798e-01  -2.6300904e+06
   1.8219406e-09  -1.0156949e-03   5.8512436e-01   5.4065858e-01  -2.6121112e+06
   1.8246082e-09  -1.0087508e-03   5.8497010e-01   5.4080819e-01  -2.5942549e+06
   1.8272758e-09  -1.0018542e-03   5.8481692e-01   5.4095681e-01  -2.5765207e+06
   1.8299433e-09  -9.9500468e-04   5.8466483e-01   5.4110445e-01  -2.5589077e+06
   1.8326109e-09  -9.8820201e-04   5.8451380e-01   5.4125111e-01  -2.5414150e+06
   1.8352784e-09  -9.8144586e-04   5.8436384e-01   5.4139680e-01  -2.5240420e+06
   1.8379460e-09  -9.7473588e-04   5.8421494e-01   5.4154153e-01  -2.5067876e+06
   1.8406135e-09  -9.6807178e-04   5.8406708e-01   5.4168531e-01  -2.4896513e+06
   1.8432811e-09  -9.6145323e-04   5.8392027e-01   5.4182813e-01  -2.4726320e+06
   1.8459486e-09  -9.5487993e-04   5.8377449e-01   5.4197001e-01  -2.4557291e+06
   1.8486162e-09  -9.4835156e-04   5.8362974e-01   5.4211095e-01  -2.4389417e+06
   1.8512838e-09  -9.4186782e-04   5.8348601e-01   5.4225096e-01  -2.4222691e+06
   1.8539513e-09  -9.3542840e-04   5.8334329e-01   5.4239004e-01  -2.4057104e+06
   1.8566189e-09  -9.2903300e-04   5.8320157e-01   5.4252820e-01  -2.3892649e+06
   1.8592864e-09  -9.2268132e-04   5.8306085e-01   5.4266544e-01  -2.3729318e+06
   1.8619540e-09  -9.1637306e-04   5.8292113e-01   5.4280178e-01  -2.3567104e+06
   1.8646215e-09  -9.1010793e-04   5.8278238e-01   5.4293721e-01  -2.3405998e+06
   1.8672891e-09  -9.0388562e-04   5.8264461e-01   5.4307175e-01  -2.3245994e+06
   1.8699567e-09  -8.9770585e-04   5.8250781e-01   5.4320539e-01  -2.3087083e+06
   1.8726242e-09  -8.9156832e-04   5.8237197e-01   5.4333815e-01  -2.2929258e+06
   1.8752918e-09  -8.8547276e-04   5.8223708e-01   5.4347002e-01  -2.2772512e+06
   1.8779593e-09  -8.7941886e-04   5.8210315e-01   5.4360103e-01  -2.2616838e+06
   1.8806269e-09  -8.7340634e-04   5.8197015e-01   5.4373116e-01  -2.2462227e+06
   1.8832944e-09  -8.6743493e-04   5.8183809e-01   5.4386043e-01  -2.2308674e+06
   1.8859620e-09  -8.6150434e-04   5.8170695e-01   5.4398884e-01  -2.2156170e+06
   1.8886295e-09  -8.5561429e-04   5.8157674e-01   5.4411640e-01  -2.2004708e+06
   1.8912971e-09  -8.4976451e-04   5.8144744e-01   5.4424311e-01  -2.1854282e+06
   1.8939647e-09  -8.4395471e-04   5.8131905e-01   5.4436899e-01  -2.1704883e+06
   1.8966322e-09  -8.3818464e-04   5.8119156e-01   5.4449402e-01  -2.1556506e+06
   1.8992998e-09  -8.3245400e-04   5.8106496e-01   5.4461823e-01  -2.1409143e+06
   1.9019673e-09  -8.2676255e-04   5.8093925e-01   5.4474161e-01  -2.1262788e+06
   1.9046349e-09  -8.2111000e-04   5.8081443e-01   5.4486417e-01  -2.1117433e+06
   1.9073024e-09  -8.1549609e-04   5.8069048e-01   5.4498591e-01  -2.0973071e+06
   1.9099700e-09  -8.0992056e-04   5.8056739e-01   5.4510685e-01  -2.0829696e+06
   1.9126375e-09  -8.0438314e-04   5.8044518e-01   5.4522698e-01  -2.0687301e+06
   1.9153051e-09  -7.9888358e-04   5.8032381e-01   5.4534631e-01  -2.0545879e+06
   1.9179727e-09  -7.9342162e-04   5.8020330e-01   5.4546485e-01  -2.0405424e+06
   1.9206402e-09  -7.8799699e-04   5.8008364e-01   5.4558260e-01  -2.0265929e+06
   1.9233078e-09  -7.8260945e-04   5.7996481e-01   5.4569956e-01  -2.0127387e+06
   1.9259753e-09  -7.7725874e-04   5.7984681e-01   5.4581575e-01  -1.9989793e+06
   1.9286429e-09  -7.7194460e-04   5.7972964e-01   5.4593117e-01  -1.9853138e+06
   1.9313104e-09  -7.6666680e-04   5.7961330e-01   5.4604581e-01  -1.9717418e+06
   1.9339780e-09  -7.6142507e-04   5.7949776e-01   5.4615969e-01  -1.9582626e+06
   1.9366455e-09  -7.5621918e-04   5.7938304e-01   5.4627282e-01  -1.9448755e+06
   1.9393131e-09  -7.5104888e-04   5.7926911e-01   5.4638519e-01  -1.9315799e+06
   1.9419807e-09  -7.4591392e-04   5.7915599e-01   5.4649681e-01  -1.9183751e+06
   1.9446482e-09  -7.4081407e-04   5.7904366e-01   5.4660769e-01  -1.9052607e+06
   1.9473158e-09  -7.3574908e-04   5.7893211e-01   5.4671782e-01  -1.8922358e+06
   1.9499833e-09  -7.3071871e-04   5.7882134e-01   5.4682723e-01  -1.8793000e+06
   1.9526509e-09  -7.2572274e-04   5.7871135e-01   5.4693590e-01  -1.8664526e+06
   1.9553184e-09  -7.2076092e-04   5.7860213e-01   5.4704385e-01  -1.8536931e+06
   1.9579860e-09  -7.1583302e-04   5.7849367e-01   5.4715108e-01  -1.8410207e+06
   1.9606536e-09  -7.1093880e-04   5.7838597e-01   5.4725759e-01  -1.8284350e+06
   1.9633211e-09  -7.0607805e-04   5.7827902e-01   5.4736340e-01  -1.8159352e+06
   1.9659887e-09  -7.0125053e-04   5.7817282e-01   5.4746850e-01  -1.8035210e+06
   1.9686562e-09  -6.9645600e-04   5.7806736e-01   5.4757289e-01  -1.7911915e+06
   1.9713238e-09  -6.9169426e-04   5.7796264e-01   5.4767659e-01  -1.7789464e+06
   1.9739913e-09  -6.8696507e-04   5.7785865e-01   5.4777960e-01  -1.7667849e+06
   1.9766589e-09  -6.8226820e-04   5.7775538e-01   5.4788191e-01  -1.7547066e+06
   1.9793264e-09  -6.7760345e-04   5.7765284e-01   5.4798355e-01  -1.7427109e+06
   1.9819940e-09  -6.7297059e-04   5.7755101e-01   5.4808451e-01  -1.7307971e+06
   1.9846616e-09  -6.6836940e-04   5.7744990e-01   5.4818479e-01  -1.7189647e+06
   1.9873291e-09  -6.6379966e-04   5.7734949e-01   5.4828440e-01  -1.7072133e+06
   1.9899967e-09  -6.5926116e-04   5.7724978e-01   5.4838334e-01  -1.6955421e+06
   1.9926642e-09  -6.5475370e-04   5.7715076e-01   5.4848163e-01  -1.6839508e+06
   1.9953318e-09  -6.5027704e-04   5.7705244e-01   5.4857925e-01  -1.6724386e+06
   1.9979993e-09  -6.4583099e-04   5.7695481e-01   5.4867623e-01  -1.6610052e+06
   2.0006669e-09  -6.4141534e-04   5.7685785e-01   5.4877255e-01  -1.6496499e+06
   2.0033344e-09  -6.3702987e-04   5.7676157e-01   5.4886823e-01  -1.6383722e+06
   2.0060020e-09  -6.3267438e-04   5.7666597e-01   5.4896328e-01  -1.6271716e+06
   2.0086696e-09  -6.2834867e-04   5.7657102e-01   5.4905768e-01  -1.6160476e+06
   2.0113371e-09  -6.2405253e-04   5.7647675e-01   5.4915145e-01  -1.6049996e+06
   2.0140047e-09  -6.1978577e-04   5.7638312e-01   5.4924460e-01  -1.5940271e+06
   2.0166722e-09  -6.1554817e-04   5.7629016e-01   5.4933712e-01  -1.5831296e+06
   2.0193398e-09  -6.1133954e-04   5.7619784e-01   5.4942903e-01  -1.5723067e+06
   2.0220073e-09  -6.0715968e-04   5.7610616e-01   5.4952031e-01  -1.5615576e+06
   2.0246749e-09  -6.0300840e-04   5.7601512e-01   5.4961099e-01  -1.5508821e+06
   2.0273424e-09  -5.9888550e-04   5.7592471e-01   5.4970106e-01  -1.5402795e+06
   2.0300100e-09  -5.9479079e-04   5.7583494e-01   5.4979052e-01  -1.5297494e+06
   2.0326776e-09  -5.9072406e-04   5.7574579e-01   5.4987939e-01  -1.5192913e+06
   2.0353451e-09  -5.8668515e-04   5.7565726e-01   5.4996766e-01  -1.5089047e+06
   2.0380127e-09  -5.8267384e-04   5.7556935e-01   5.5005534e-01  -1.4985890e+06
   2.0406802e-09  -5.7868995e-04   5.7548205e-01   5.5014243e-01  -1.4883439e+06
   2.0433478e-09  -5.7473331e-04   5.7539536e-01   5.5022894e-01  -1.4781688e+06
   2.0460153e-09  -5.7080371e-04   5.7530927e-01   5.5031486e-01  -1.4680633e+06
   2.0486829e-09  -5.6690098e-04   5.7522378e-01   5.5040022e-01  -1.4580268e+06
   2.0513505e-09  -5.6302492e-04   5.7513889e-01   5.5048500e-01  -1.4480589e+06
   2.0540180e-09  -5.5917537e-04   5.7505458e-01   5.5056921e-01  -1.4381592e+06
   2.0566856e-09  -5.5535214e-04   5.7497087e-01   5.5065285e-01  -1.4283271e+06
   2.0593531e-09  -5.5155504e-04   5.7488773e-01   5.5073593e-01  -1.4185623e+06
   2.0620207e-09  -5.4778390e-04   5.7480517e-01   5.5081846e-01  -1.4088642e+06
   2.0646882e-09  -5.4403854e-04   5.7472319e-01   5.5090043e-01  -1.3992324e+06
   2.0673558e-09  -5.4031879e-04   5.7464178e-01   5.5098186e-01  -1.3896664e+06
   2.0700233e-09  -5.3662447e-04   5.7456093e-01   5.5106273e-01  -1.3801658e+06
   2.0726909e-09  -5.3295541e-04   5.7448065e-01   5.5114307e-01  -1.3707301e+06
   2.0753585e-09  -5.2931142e-04   5.7440092e-01   5.5122286e-01  -1.3613590e+06
   2.0780260e-09  -5.2569236e-04   5.7432175e-01   5.5130212e-01  -1.3520519e+06
   2.0806936e-09  -5.2209803e-04   5.7424313e-01   5.5138084e-01  -1.3428084e+06
   2.0833611e-09  -5.1852828e-04   5.7416506e-01   5.5145904e-01  -1.3336281e+06
   2.0860287e-09  -5.1498293e-04   5.7408752e-01   5.5153671e-01  -1.3245106e+06
   2.0886962e-09  -5.1146182e-04   5.7401053e-01   5.5161386e-01  -1.3154554e+06
   2.0913638e-09  -5.0796479e-04   5.7393407e-01   5.5169049e-01  -1.3064620e+06
   2.0940313e-09  -5.0449166e-04   5.7385814e-01   5.5176661e-01  -1.2975302e+06
   2.0966989e-09  -5.0104227e-04   5.7378274e-01   5.5184222e-01  -1.2886594e+06
   2.0993665e-09  -4.9761647e-04   5.7370787e-01   5.5191731e-01  -1.2798492e+06
   2.1020340e-09  -4.9421409e-04   5.7363351e-01   5.5199190e-01  -1.2710993e+06
   2.1047016e-09  -4.9083497e-04   5.7355967e-01   5.5206599e-01  -1.2624092e+06
   2.1073691e-09  -4.8747895e-04   5.7348634e-01   5.5213959e-01  -1.2537785e+06
   2.1100367e-09  -4.8414588e-04   5.7341353e-01   5.5221268e-01  -1.2452067e+06
   2.1127042e-09  -4.8083559e-04   5.7334121e-01   5.5228529e-01  -1.2366936e+06
   2.1153718e-09  -4.7754794e-04   5.7326940e-01   5.5235741e-01  -1.2282387e+06
   2.1180393e-09  -4.7428276e-04   5.7319809e-01   5.5242904e-01  -1.2198415e+06
   2.1207069e-09  -4.7103991e-04   5.7312727e-01   5.5250019e-01  -1.2115018e+06
   2.1233745e-09  -4.6781922e-04   5.7305694e-01   5.5257086e-01  -1.2032191e+06
   2.1260420e-09  -4.6462056e-04   5.7298711e-01   5.5264106e-01  -1.1949929e+06
   2.1287096e-09  -4.6144376e-04   5.7291775e-01   5.5271078e-01  -1.1868231e+06
   2.1313771e-09  -4.5828869e-04   5.7284888e-01   5.5278004e-01  -1.1787090e+06
   2.1340447e-09  -4.5515518e-04   5.7278048e-01   5.5284882e-01  -1.1706504e+06
   2.1367122e-09  -4.5204309e-04   5.7271256e-01   5.5291715e-01  -1.1626470e+06
   2.1393798e-09  -4.4895229e-04   5.7264511e-01   5.5298501e-01  -1.1546982e+06
   2.1420473e-09  -4.4588261e-04   5.7257813e-01   5.5305242e-01  -1.1468037e+06
   2.1447149e-09  -4.4283392e-04   5.7251161e-01   5.5311937e-01  -1.1389633e+06
   2.1473825e-09  -4.3980608e-04   5.7244556e-01   5.5318588e-01  -1.1311764e+06
   2.1500500e-09  -4.3679893e-04   5.7237996e-01   5.5325193e-01  -1.1234427e+06
   2.1527176e-09  -4.3381235e-04   5.7231482e-01   5.5331754e-01  -1.1157619e+06
   2.1553851e-09  -4.3084618e-04   5.7225012e-01   5.5338271e-01  -1.1081337e+06
   2.1580527e-09  -4.2790029e-04   5.7218588e-01   5.5344744e-01  -1.1005575e+06
   2.1607202e-09  -4.2497454e-04   5.7212208e-01   5.5351173e-01  -1.0930332e+06
   2.1633878e-09  -4.2206880e-04   5.7205872e-01   5.5357559e-01  -1.0855603e+06
   2.1660554e-09  -4.1918292e-04   5.7199581e-01   5.5363902e-01  -1.0781384e+06
   2.1687229e-09  -4.1631677e-04   5.7193332e-01   5.5370202e-01  -1.0707673e+06
   2.1713905e-09  -4.1347022e-04   5.7187128e-01   5.5376460e-01  -1.0634466e+06
   2.1740580e-09  -4.1064313e-04   5.7180966e-01   5.5382675e-01  -1.0561760e+06
   2.1767256e-09  -4.0783537e-04   5.7174846e-01   5.5388849e-01  -1.0489550e+06
   2.1793931e-09  -4.0504680e-04   5.7168769e-01   5.5394981e-01  -1.0417834e+06
   2.1820607e-09  -4.0227730e-04   5.7162735e-01   5.5401072e-01  -1.0346608e+06
   2.1847282e-09  -3.9952674e-04   5.7156742e-01   5.5407121e-01  -1.0275869e+06
   2.1873958e-09  -3.9679498e-04   5.7150790e-01   5.5413130e-01  -1.0205614e+06
   2.1900634e-09  -3.9408189e-04   5.7144880e-01   5.5419098e-01  -1.0135839e+06
   2.1927309e-09  -3.9138736e-04   5.7139010e-01   5.5425026e-01  -1.0066541e+06
   2.1953985e-09  -3.8871125e-04   5.7133182e-01   5.5430914e-01  -9.9977168e+05
   2.1980660e-09  -3.8605343e-04   5.7127393e-01   5.5436762e-01  -9.9293629e+05
   2.2007336e-09  -3.8341379e-04   5.7121645e-01   5.5442571e-01  -9.8614763e+05
   2.2034011e-09  -3.8079219e-04   5.7115936e-01   5.5448340e-01  -9.7940538e+05
   2.2060687e-09  -3.7818852e-04   5.7110267e-01   5.5454071e-01  -9.7270921e+05
   2.2087362e-09  -3.7560264e-04   5.7104637e-01   5.5459763e-01  -9.6605883e+05
   2.2114038e-09  -3.7303445e-04   5.7099046e-01   5.5465416e-01  -9.5945390e+05
   2.2140714e-09  -3.7048382e-04   5.7093494e-01   5.5471031e-01  -9.5289413e+05
   2.2167389e-09  -3.6795062e-04   5.7087980e-01   5.5476609e-01  -9.4637919e+05
   2.2194065e-09  -3.6543475e-04   5.7082505e-01   5.5482149e-01  -9.3990880e+05
   2.2220740e-09  -3.6293607e-04   5.7077067e-01   5.5487651e-01  -9.3348264e+05
   2.2247416e-09  -3.6045448e-04   5.7071667e-01   5.5493116e-01  -9.2710040e+05
   2.2274091e-09  -3.5798986e-04   5.7066304e-01   5.5498544e-01  -9.2076180e+05
   2.2300767e-09  -3.5554208e-04   5.7060978e-01   5.5503936e-01  -9.1446653e+05
   2.2327442e-09  -3.5311104e-04   5.7055689e-01   5.5509291e-01  -9.0821429e+05
   2.2354118e-09  -3.5069663e-04   5.7050437e-01   5.5514610e-01  -9.0200479e+05
   2.2380794e-09  -3.4829872e-04   5.7045221e-01   5.5519893e-01  -8.9583774e+05
   2.2407469e-09  -3.4591720e-04   5.7040040e-01   5.5525140e-01  -8.8971285e+05
   2.2434145e-09  -3.4355197e-04   5.7034896e-01   5.5530352e-01  -8.8362983e+05
   2.2460820e-09  -3.4120291e-04   5.7029788e-01   5.5535529e-01  -8.7758840e+05
   2.2487496e-09  -3.3886991e-04   5.7024714e-01   5.5540670e-01  -8.7158827e+05
   2.2514171e-09  -3.3655286e-04   5.7019676e-01   5.5545777e-01  -8.6562915e+05
   2.2540847e-09  -3.3425165e-04   5.7014672e-01   5.5550850e-01  -8.5971077e+05
   2.2567523e-09  -3.3196617e-04   5.7009704e-01   5.5555888e-01  -8.5383285e+05
   2.2594198e-09  -3.2969632e-04   5.7004769e-01   5.5560892e-01  -8.4799511e+05
   2.2620874e-09  -3.2744200e-04   5.6999868e-01   5.5565862e-01  -8.4219728e+05
   2.2647549e-09  -3.2520308e-04   5.6995002e-01   5.5570799e-01  -8.3643909e+05
   2.2674225e-09  -3.2297947e-04   5.6990169e-01   5.5575702e-01  -8.3072026e+05
   2.2700900e-09  -3.2077106e-04   5.6985369e-01   5.5580572e-01  -8.2504053e+05
   2.2727576e-09  -3.1857776e-04   5.6980603e-01   5.5585409e-01  -8.1939962e+05
   2.2754251e-09  -3.1639945e-04   5.6975869e-01   5.5590213e-01  -8.1379728e+05
   2.2780927e-09  -3.1423603e-04   5.6971168e-01   5.5594985e-01  -8.0823323e+05
   2.2807603e-09  -3.1208741e-04   5.6966500e-01   5.5599725e-01  -8.0270722e+05
   2.2834278e-09  -3.0995347e-04   5.6961864e-01   5.5604432e-01  -7.9721899e+05
   2.2860954e-09  -3.0783413e-04   5.6957259e-01   5.5609108e-01  -7.9176828e+05
   2.2887629e-09  -3.0572927e-04   5.6952687e-01   5.5613752e-01  -7.8635483e+05
   2.2914305e-09  -3.0363881e-04   5.6948146e-01   5.5618365e-01  -7.8097839e+05
   2.2940980e-09  -3.0156264e-04   5.6943637e-01   5.5622946e-01  -7.7563871e+05
   2.2967656e-09  -2.9950066e-04   5.6939158e-01   5.5627497e-01  -7.7033553e+05
   2.2994331e-09  -2.9745278e-04   5.6934711e-01   5.5632016e-01  -7.6506860e+05
   2.3021007e-09  -2.9541891e-04   5.6930294e-01   5.5636505e-01  -7.5983768e+05
   2.3047683e-09  -2.9339894e-04   5.6925908e-01   5.5640964e-01  -7.5464252e+05
   2.3074358e-09  -2.9139278e-04   5.6921552e-01   5.5645392e-01  -7.4948288e+05
   2.3101034e-09  -2.8940034e-04   5.6917226e-01   5.5649791e-01  -7.4435851e+05
   2.3127709e-09  -2.8742152e-04   5.6912930e-01   5.5654159e-01  -7.3926917e+05
   2.3154385e-09  -2.8545623e-04   5.6908664e-01   5.5658498e-01  -7.3421462e+05
   2.3181060e-09  -2.8350438e-04   5.6904427e-01   5.5662808e-01  -7.2919463e+05
   2.3207736e-09  -2.8156587e-04   5.6900219e-01   5.5667089e-01  -7.2420896e+05
   2.3234411e-09  -2.7964061e-04   5.6896040e-01   5.5671340e-01  -7.1925737e+05
   2.3261087e-09  -2.7772852e-04   5.6891890e-01   5.5675563e-01  -7.1433963e+05
   2.3287763e-09  -2.7582951e-04   5.6887769e-01   5.5679757e-01  -7.0945552e+05
   2.3314438e-09  -2.7394348e-04   5.6883676e-01   5.5683923e-01  -7.0460479e+05
   2.3341114e-09  -2.7207034e-04   5.6879611e-01   5.5688060e-01  -6.9978722e+05
   2.3367789e-09  -2.7021001e-04   5.6875575e-01   5.5692170e-01  -6.9500259e+05
   2.3394465e-09  -2.6836240e-04   5.6871566e-01   5.5696251e-01  -6.9025067e+05
   2.3421140e-09  -2.6652742e-04   5.6867585e-01   5.5700305e-01  -6.8553124e+05
   2.3447816e-09  -2.6470499e-04   5.6863631e-01   5.5704332e-01  -6.8084407e+05
   2.3474491e-09  -2.6289502e-04   5.6859705e-01   5.5708331e-01  -6.7618895e+05
   2.3501167e-09  -2.6109742e-04   5.6855805e-01   5.5712303e-01  -6.7156565e+05
   2.3527843e-09  -2.5931211e-04   5.6851933e-01   5.5716248e-01  -6.6697395e+05
   2.3554518e-09  -2.5753902e-04   5.6848087e-01   5.5720167e-01  -6.6241365e+05
   2.3581194e-09  -2.5577804e-04   5.6844268e-01   5.5724059e-01  -6.5788453e+05
   2.3607869e-09  -2.5402911e-04   5.6840475e-01   5.5727924e-01  -6.5338637e+05
   2.3634545e-09  -2.5229213e-04   5.6836708e-01   5.5731763e-01  -6.4891896e+05
   2.3661220e-09  -2.5056703e-04   5.6832967e-01   5.5735577e-01  -6.4448209e+05
   2.3687896e-09  -2.4885372e-04   5.6829252e-01   5.5739364e-01  -6.4007555e+05
   2.3714572e-09  -2.4715213e-04   5.6825563e-01   5.5743126e-01  -6.3569914e+05
   2.3741247e-09  -2.4546217e-04   5.6821899e-01   5.5746862e-01  -6.3135266e+05
   2.3767923e-09  -2.4378377e-04   5.6818260e-01   5.5750573e-01  -6.2703588e+05
   2.3794598e-09  -2.4211684e-04   5.6814646e-01   5.5754259e-01  -6.2274862e+05
   2.3821274e-09  -2.4046132e-04   5.6811057e-01   5.5757919e-01  -6.1849067e+05
   2.3847949e-09  -2.3881711e-04   5.6807493e-01   5.5761555e-01  -6.1426183e+05
   2.3874625e-09  -2.3718414e-04   5.6803954e-01   5.5765166e-01  -6.1006190e+05
   2.3901300e-09  -2.3556234e-04   5.6800439e-01   5.5768753e-01  -6.0589068e+05
   2.3927976e-09  -2.3395162e-04   5.6796948e-01   5.5772316e-01  -6.0174798e+05
   2.3954652e-09  -2.3235192e-04   5.6793481e-01   5.5775854e-01  -5.9763360e+05
   2.3981327e-09  -2.3076316e-04   5.6790038e-01   5.5779368e-01  -5.9354735e+05
   2.4008003e-09  -2.2918526e-04   5.6786618e-01   5.5782859e-01  -5.8948904e+05
   2.4034678e-09  -2.2761815e-04   5.6783223e-01   5.5786325e-01  -5.8545847e+05
   2.4061354e-09  -2.2606175e-04   5.6779850e-01   5.5789768e-01  -5.8145546e+05
   2.4088029e-09  -2.2451600e-04   5.6776501e-01   5.5793188e-01  -5.7747982e+05
   2.4114705e-09  -2.2298081e-04   5.6773175e-01   5.5796585e-01  -5.7353135e+05
   2.4141380e-09  -2.2145612e-04   5.6769872e-01   5.5799958e-01  -5.6960989e+05
   2.4168056e-09  -2.1994186e-04   5.6766592e-01   5.5803309e-01  -5.6571523e+05
   2.4194732e-09  -2.1843795e-04   5.6763334e-01   5.5806637e-01  -5.6184719e+05
   2.4221407e-09  -2.1694432e-04   5.6760098e-01   5.5809942e-01  -5.5800561e+05
   2.4248083e-09  -2.1546091e-04   5.6756885e-01   5.5813225e-01  -5.5419028e+05
   2.4274758e-09  -2.1398764e-04   5.6753694e-01   5.5816486e-01  -5.5040105e+05
   2.4301434e-09  -2.1252444e-04   5.6750525e-01   5.5819725e-01  -5.4663771e+05
   2.4328109e-09  -2.1107124e-04   5.6747378e-01   5.5822941e-01  -5.4290011e+05
   2.4354785e-09  -2.0962798e-04   5.6744252e-01   5.5826136e-01  -5.3918806e+05
   2.4381460e-09  -2.0819459e-04   5.6741148e-01   5.5829309e-01  -5.3550139e+05
   2.4408136e-09  -2.0677101e-04   5.6738065e-01   5.5832460e-01  -5.3183992e+05
   2.4434812e-09  -2.0535715e-04   5.6735004e-01   5.5835590e-01  -5.2820349e+05
   2.4461487e-09  -2.0395296e-04   5.6731964e-01   5.5838699e-01  -5.2459191e+05
   2.4488163e-09  -2.0255837e-04   5.6728944e-01   5.5841787e-01  -5.2100503e+05
   2.4514838e-09  -2.0117332e-04   5.6725945e-01   5.5844853e-01  -5.1744268e+05
   2.4541514e-09  -1.9979774e-04   5.6722967e-01   5.5847899e-01  -5.1390467e+05
   2.4568189e-09  -1.9843157e-04   5.6720010e-01   5.5850924e-01  -5.1039086e+05
   2.4594865e-09  -1.9707473e-04   5.6717073e-01   5.5853929e-01  -5.0690107e+05
   2.4621541e-09  -1.9572717e-04   5.6714156e-01   5.5856913e-01  -5.0343514e+05
   2.4648216e-09  -1.9438883e-04   5.6711259e-01   5.5859877e-01  -4.9999290e+05
   2.4674892e-09  -1.9305964e-04   5.6708382e-01   5.5862821e-01  -4.9657420e+05
   2.4701567e-09  -1.9173953e-04   5.6705524e-01   5.5865745e-01  -4.9317887e+05
   2.4728243e-09  -1.9042846e-04   5.6702687e-01   5.5868649e-01  -4.8980676e+05
   2.4754918e-09  -1.8912634e-04   5.6699869e-01   5.5871533e-01  -4.8645770e+05
   2.4781594e-09  -1.8783313e-04   5.6697070e-01   5.5874398e-01  -4.8313154e+05
   2.4808269e-09  -1.8654876e-04   5.6694291e-01   5.5877243e-01  -4.7982812e+05
   2.4834945e-09  -1.8527318e-04   5.6691530e-01   5.5880069e-01  -4.7654728e+05
   2.4861621e-09  -1.8400631e-04   5.6688789e-01   5.5882876e-01  -4.7328888e+05
   2.4888296e-09  -1.8274811e-04   5.6686067e-01   5.5885663e-01  -4.7005275e+05
   2.4914972e-09  -1.8149851e-04   5.6683363e-01   5.5888432e-01  -4.6683875e+05
   2.4941647e-09  -1.8025746e-04   5.6680678e-01   5.5891182e-01  -4.6364672e+05
   2.4968323e-09  -1.7902489e-04   5.6678011e-01   5.5893913e-01  -4.6047652e+05
   2.4994998e-09  -1.7780075e-04   5.6675363e-01   5.5896625e-01  -4.5732799e+05
   2.5021674e-09  -1.7658498e-04   5.6672732e-01   5.5899319e-01  -4.5420098e+05
   2.5048349e-09  -1.7537752e-04   5.6670120e-01   5.5901995e-01  -4.5109536e+05
   2.5075025e-09  -1.7417831e-04   5.6667526e-01   5.5904653e-01  -4.4801097e+05
   2.5101701e-09  -1.7298731e-04   5.6664950e-01   5.5907292e-01  -4.4494766e+05
   2.5128376e-09  -1.7180445e-04   5.6662392e-01   5.5909914e-01  -4.4190531e+05
   2.5155052e-09  -1.7062968e-04   5.6659851e-01   5.5912518e-01  -4.3888375e+05
   2.5181727e-09  -1.6946294e-04   5.6657327e-01   5.5915104e-01  -4.3588285e+05
   2.5208403e-09  -1.6830418e-04   5.6654821e-01   5.5917672e-01  -4.3290246e+05
   2.5235078e-09  -1.6715334e-04   5.6652332e-01   5.5920223e-01  -4.2994246e+05
   2.5261754e-09  -1.6601037e-04   5.6649860e-01   5.5922757e-01  -4.2700269e+05
   2.5288429e-09  -1.6487522e-04   5.6647405e-01   5.5925274e-01  -4.2408302e+05
   2.5315105e-09  -1.6374783e-04   5.6644967e-01   5.5927773e-01  -4.2118331e+05
   2.5341781e-09  -1.6262815e-04   5.6642546e-01   5.5930255e-01  -4.1830343e+05
   2.5368456e-09  -1.6151612e-04   5.6640142e-01   5.5932721e-01  -4.1544324e+05
   2.5395132e-09  -1.6041169e-04   5.6637754e-01   5.5935170e-01  -4.1260261e+05
   2.5421807e-09  -1.5931482e-04   5.6635382e-01   5.5937602e-01  -4.0978139e+05
   2.5448483e-09  -1.5822545e-04   5.6633027e-01   5.5940017e-01  -4.0697947e+05
   2.5475158e-09  -1.5714353e-04   5.6630688e-01   5.5942416e-01  -4.0419670e+05
   2.5501834e-09  -1.5606900e-04   5.6628365e-01   5.5944799e-01  -4.0143295e+05
   2.5528510e-09  -1.5500182e-04   5.6626058e-01   5.5947166e-01  -3.9868811e+05
   2.5555185e-09  -1.5394194e-04   5.6623766e-01   5.5949516e-01  -3.9596203e+05
   2.5581861e-09  -1.5288930e-04   5.6621491e-01   5.5951851e-01  -3.9325459e+05
   2.5608536e-09  -1.5184387e-04   5.6619231e-01   5.5954169e-01  -3.9056566e+05
   2.5635212e-09  -1.5080558e-04   5.6616987e-01   5.5956472e-01  -3.8789511e+05
   2.5661887e-09  -1.4977439e-04   5.6614758e-01   5.5958759e-01  -3.8524283e+05
   2.5688563e-09  -1.4875025e-04   5.6612544e-01   5.5961031e-01  -3.8260867e+05
   2.5715238e-09  -1.4773311e-04   5.6610346e-01   5.5963287e-01  -3.7999253e+05
   2.5741914e-09  -1.4672293e-04   5.6608163e-01   5.5965528e-01  -3.7739428e+05
   2.5768590e-09  -1.4571966e-04   5.6605994e-01   5.5967753e-01  -3.7481378e+05
   2.5795265e-09  -1.4472325e-04   5.6603841e-01   5.5969964e-01  -3.7225094e+05
   2.5821941e-09  -1.4373365e-04   5.6601702e-01   5.5972159e-01  -3.6970561e+05
   2.5848616e-09  -1.4275081e-04   5.6599578e-01   5.5974340e-01  -3.6717769e+05
   2.5875292e-09  -1.4177470e-04   5.6597469e-01   5.5976505e-01  -3.6466705e+05
   2.5901967e-09  -1.4080526e-04   5.6595374e-01   5.5978656e-01  -3.6217358e+05
   2.5928643e-09  -1.3984245e-04   5.6593294e-01   5.5980792e-01  -3.5969716e+05
   2.5955318e-09  -1.3888622e-04   5.6591228e-01   5.5982914e-01  -3.5723766e+05
   2.5981994e-09  -1.3793653e-04   5.6589176e-01   5.5985021e-01  -3.5479499e+05
   2.6008670e-09  -1.3699334e-04   5.6587138e-01   5.5987114e-01  -3.5236901e+05
   2.6035345e-09  -1.3605659e-04   5.6585114e-01   5.5989193e-01  -3.4995963e+05
   2.6062021e-09  -1.3512625e-04   5.6583104e-01   5.5991257e-01  -3.4756671e+05
   2.6088696e-09  -1.3420227e-04   5.6581108e-01   5.5993308e-01  -3.4519016e+05
   2.6115372e-09  -1.3328461e-04   5.6579125e-01   5.5995344e-01  -3.4282985e+05
   2.6142047e-09  -1.3237322e-04   5.6577156e-01   5.5997367e-01  -3.4048569e+05
   2.6168723e-09  -1.3146807e-04   5.6575201e-01   5.5999376e-01  -3.3815755e+05
   2.6195398e-09  -1.3056910e-04   5.6573259e-01   5.6001371e-01  -3.3584533e+05
   2.6222074e-09  -1.2967628e-04   5.6571331e-01   5.6003352e-01  -3.3354892e+05
   2.6248750e-09  -1.2878957e-04   5.6569415e-01   5.6005321e-01  -3.3126821e+05
   2.6275425e-09  -1.2790891e-04   5.6567513e-01   5.6007275e-01  -3.2900309e+05
   2.6302101e-09  -1.2703428e-04   5.6565624e-01   5.6009217e-01  -3.2675346e+05
   2.6328776e-09  -1.2616564e-04   5.6563748e-01   5.6011145e-01  -3.2451921e+05
   2.6355452e-09  -1.2530293e-04   5.6561884e-01   5.6013060e-01  -3.2230024e+05
   2.6382127e-09  -1.2444612e-04   5.6560034e-01   5.6014962e-01  -3.2009644e+05
   2.6408803e-09  -1.2359516e-04   5.6558196e-01   5.6016851e-01  -3.1790771e+05
   2.6435478e-09  -1.2275003e-04   5.6556371e-01   5.6018727e-01  -3.1573394e+05
   2.6462154e-09  -1.2191068e-04   5.6554558e-01   5.6020591e-01  -3.1357504e+05
   2.6488830e-09  -1.2107706e-04   5.6552758e-01   5.6022441e-01  -3.1143090e+05
   2.6515505e-09  -1.2024914e-04   5.6550970e-01   5.6024280e-01  -3.0930141e+05
   2.6542181e-09  -1.1942689e-04   5.6549195e-01   5.6026105e-01  -3.0718649e+05
   2.6568856e-09  -1.1861026e-04   5.6547431e-01   5.6027918e-01  -3.0508603e+05
   2.6595532e-09  -1.1779921e-04   5.6545680e-01   5.6029719e-01  -3.0299993e+05
   2.6622207e-09  -1.1699371e-04   5.6543941e-01   5.6031508e-01  -3.0092809e+05
   2.6648883e-09  -1.1619371e-04   5.6542214e-01   5.6033284e-01  -2.9887042e+05
   2.6675559e-09  -1.1539919e-04   5.6540498e-01   5.6035048e-01  -2.9682682e+05
   2.6702234e-09  -1.1461010e-04   5.6538794e-01   5.6036801e-01  -2.9479719e+05
   2.6728910e-09  -1.1382640e-04   5.6537102e-01   5.6038541e-01  -2.9278144e+05
   2.6755585e-09  -1.1304807e-04   5.6535422e-01   5.6040269e-01  -2.9077947e+05
   2.6782261e-09  -1.1227505e-04   5.6533753e-01   5.6041986e-01  -2.8879119e+05
   2.6808936e-09  -1.1150732e-04   5.6532096e-01   5.6043691e-01  -2.8681650e+05
   2.6835612e-09  -1.1074484e-04   5.6530450e-01   5.6045385e-01  -2.8485531e+05
   2.6862287e-09  -1.0998757e-04   5.6528815e-01   5.6047066e-01  -2.8290754e+05
   2.6888963e-09  -1.0923549e-04   5.6527191e-01   5.6048737e-01  -2.8097308e+05
   2.6915639e-09  -1.0848854e-04   5.6525579e-01   5.6050396e-01  -2.7905185e+05
   2.6942314e-09  -1.0774670e-04   5.6523978e-01   5.6052044e-01  -2.7714375e+05
   2.6968990e-09  -1.0700994e-04   5.6522387e-01   5.6053680e-01  -2.7524871e+05
   2.6995665e-09  -1.0627821e-04   5.6520808e-01   5.6055305e-01  -2.7336661e+05
   2.7022341e-09  -1.0555148e-04   5.6519239e-01   5.6056920e-01  -2.7149739e+05
   2.7049016e-09  -1.0482973e-04   5.6517682e-01   5.6058523e-01  -2.6964095e+05
   2.7075692e-09  -1.0411291e-04   5.6516134e-01   5.6060115e-01  -2.6779720e+05
   2.7102367e-09  -1.0340099e-04   5.6514598e-01   5.6061697e-01  -2.6596606e+05
   2.7129043e-09  -1.0269394e-04   5.6513072e-01   5.6063268e-01  -2.6414744e+05
   2.7155719e-09  -1.0199172e-04   5.6511556e-01   5.6064828e-01  -2.6234125e+05
   2.7182394e-09  -1.0129431e-04   5.6510051e-01   5.6066377e-01  -2.6054741e+05
   2.7209070e-09  -1.0060166e-04   5.6508557e-01   5.6067916e-01  -2.5876584e+05
   2.7235745e-09  -9.9913755e-05   5.6507072e-01   5.6069444e-01  -2.5699645e+05
   2.7262421e-09  -9.9230549e-05   5.6505598e-01   5.6070962e-01  -2.5523916e+05
   2.7289096e-09  -9.8552015e-05   5.6504133e-01   5.6072470e-01  -2.5349388e+05
   2.7315772e-09  -9.7878121e-05   5.6502679e-01   5.6073967e-01  -2.5176054e+05
   2.7342447e-09  -9.7208835e-05   5.6501235e-01   5.6075454e-01  -2.5003904e+05
   2.7369123e-09  -9.6544125e-05   5.6499801e-01   5.6076931e-01  -2.4832932e+05
   2.7395799e-09  -9.5883960e-05   5.6498376e-01   5.6078398e-01  -2.4663129e+05
   2.7422474e-09  -9.5228310e-05   5.6496961e-01   5.6079855e-01  -2.4494487e+05
   2.7449150e-09  -9.4577142e-05   5.6495556e-01   5.6081302e-01  -2.4326998e+05
   2.7475825e-09  -9.3930427e-05   5.6494161e-01   5.6082739e-01  -2.4160654e+05
   2.7502501e-09  -9.3288135e-05   5.6492775e-01   5.6084166e-01  -2.3995448e+05
   2.7529176e-09  -9.2650234e-05   5.6491399e-01   5.6085584e-01  -2.3831371e+05
   2.7555852e-09  -9.2016695e-05   5.6490032e-01   5.6086992e-01  -2.3668416e+05
   2.7582528e-09  -9.1387488e-05   5.6488675e-01   5.6088390e-01  -2.3506575e+05
   2.7609203e-09  -9.0762583e-05   5.6487326e-01   5.6089779e-01  -2.3345841e+05
   2.7635879e-09  -9.0141952e-05   5.6485988e-01   5.6091158e-01  -2.3186206e+05
   2.7662554e-09  -8.9525564e-05   5.6484658e-01   5.6092528e-01  -2.3027662e+05
   2.7689230e-09  -8.8913391e-05   5.6483337e-01   5.6093889e-01  -2.2870203e+05
   2.7715905e-09  -8.8305404e-05   5.6482026e-01   5.6095240e-01  -2.2713820e+05
   2.7742581e-09  -8.7701574e-05   5.6480723e-01   5.6096582e-01  -2.2558506e+05
   2.7769256e-09  -8.7101873e-05   5.6479429e-01   5.6097915e-01  -2.2404254e+05
   2.7795932e-09  -8.6506273e-05   5.6478145e-01   5.6099239e-01  -2.2251057e+05
   2.7822608e-09  -8.5914745e-05   5.6476869e-01   5.6100554e-01  -2.2098908e+05
   2.7849283e-09  -8.5327262e-05   5.6475601e-01   5.6101860e-01  -2.1947799e+05
   2.7875959e-09  -8.4743796e-05   5.6474343e-01   5.6103157e-01  -2.1797723e+05
   2.7902634e-09  -8.4164320e-05   5.6473093e-01   5.6104445e-01  -2.1648673e+05
   2.7929310e-09  -8.3588807e-05   5.6471852e-01   5.6105724e-01  -2.1500642e+05
   2.7955985e-09  -8.3017228e-05   5.6470619e-01   5.6106995e-01  -2.1353624e+05
   2.7982661e-09  -8.2449558e-05   5.6469394e-01   5.6108257e-01  -2.1207611e+05
   2.8009336e-09  -8.1885770e-05   5.6468178e-01   5.6109510e-01  -2.1062596e+05
   2.8036012e-09  -8.1325837e-05   5.6466971e-01   5.6110755e-01  -2.0918572e+05
   2.8062688e-09  -8.0769732e-05   5.6465771e-01   5.6111991e-01  -2.0775534e+05
   2.8089363e-09  -8.0217430e-05   5.6464580e-01   5.6113219e-01  -2.0633473e+05
   2.8116039e-09  -7.9668905e-05   5.6463397e-01   5.6114438e-01  -2.0492384e+05
   2.8142714e-09  -7.9124130e-05   5.6462222e-01   5.6115650e-01  -2.0352260e+05
   2.8169390e-09  -7.8583080e-05   5.6461056e-01   5.6116852e-01  -2.0213094e+05
   2.8196065e-09  -7.8045730e-05   5.6459897e-01   5.6118047e-01  -2.0074879e+05
   2.8222741e-09  -7.7512055e-05   5.6458746e-01   5.6119234e-01  -1.9937609e+05
   2.8249416e-09  -7.6982028e-05   5.6457603e-01   5.6120412e-01  -1.9801278e+05
   2.8276092e-09  -7.6455626e-05   5.6456468e-01   5.6121583e-01  -1.9665879e+05
   2.8302768e-09  -7.5932824e-05   5.6455341e-01   5.6122745e-01  -1.9531406e+05
   2.8329443e-09  -7.5413596e-05   5.6454221e-01   5.6123900e-01  -1.9397852e+05
   2.8356119e-09  -7.4897918e-05   5.6453109e-01   5.6125046e-01  -1.9265212e+05
   2.8382794e-09  -7.4385767e-05   5.6452005e-01   5.6126185e-01  -1.9133479e+05
   2.8409470e-09  -7.3877118e-05   5.6450908e-01   5.6127316e-01  -1.9002646e+05
   2.8436145e-09  -7.3371947e-05   5.6449819e-01   5.6128440e-01  -1.8872708e+05
   2.8462821e-09  -7.2870230e-05   5.6448737e-01   5.6129555e-01  -1.8743658e+05
   2.8489496e-09  -7.2371944e-05   5.6447662e-01   5.6130663e-01  -1.8615491e+05
   2.8516172e-09  -7.1877065e-05   5.6446595e-01   5.6131764e-01  -1.8488200e+05
   2.8542848e-09  -7.1385570e-05   5.6445536e-01   5.6132857e-01  -1.8361779e+05
   2.8569523e-09  -7.0897436e-05   5.6444483e-01   5.6133942e-01  -1.8236223e+05
   2.8596199e-09  -7.0412640e-05   5.6443438e-01   5.6135021e-01  -1.8111525e+05
   2.8622874e-09  -6.9931158e-05   5.6442400e-01   5.6136091e-01  -1.7987680e+05
   2.8649550e-09  -6.9452969e-05   5.6441369e-01   5.6137155e-01  -1.7864682e+05
   2.8676225e-09  -6.8978050e-05   5.6440345e-01   5.6138211e-01  -1.7742525e+05
   2.8702901e-09  -6.8506378e-05   5.6439328e-01   5.6139260e-01  -1.7621203e+05
   2.8729577e-09  -6.8037931e-05   5.6438318e-01   5.6140302e-01  -1.7500711e+05
   2.8756252e-09  -6.7572688e-05   5.6437315e-01   5.6141337e-01  -1.7381042e+05
   2.8782928e-09  -6.7110626e-05   5.6436319e-01   5.6142365e-01  -1.7262192e+05
   2.8809603e-09  -6.6651724e-05   5.6435330e-01   5.6143385e-01  -1.7144155e+05
   2.8836279e-09  -6.6195959e-05   5.6434348e-01   5.6144399e-01  -1.7026924e+05
   2.8862954e-09  -6.5743311e-05   5.6433372e-01   5.6145406e-01  -1.6910496e+05
   2.8889630e-09  -6.5293758e-05   5.6432403e-01   5.6146406e-01  -1.6794863e+05
   2.8916305e-09  -6.4847279e-05   5.6431440e-01   5.6147399e-01  -1.6680021e+05
   2.8942981e-09  -6.4403853e-05   5.6430484e-01   5.6148385e-01  -1.6565964e+05
   2.8969657e-09  -6.3963459e-05   5.6429535e-01   5.6149365e-01  -1.6452687e+05
   2.8996332e-09  -6.3526077e-05   5.6428592e-01   5.6150338e-01  -1.6340185e+05
   2.9023008e-09  -6.3091685e-05   5.6427656e-01   5.6151304e-01  -1.6228452e+05
   2.9049683e-09  -6.2660264e-05   5.6426726e-01   5.6152264e-01  -1.6117483e+05
   2.9076359e-09  -6.2231792e-05   5.6425803e-01   5.6153217e-01  -1.6007272e+05
   2.9103034e-09  -6.1806251e-05   5.6424885e-01   5.6154164e-01  -1.5897815e+05
   2.9129710e-09  -6.1383619e-05   5.6423974e-01   5.6155104e-01  -1.5789107e+05
   2.9156385e-09  -6.0963878e-05   5.6423070e-01   5.6156038e-01  -1.5681142e+05
   2.9183061e-09  -6.0547006e-05   5.6422171e-01   5.6156965e-01  -1.5573915e+05
   2.9209737e-09  -6.0132985e-05   5.6421279e-01   5.6157886e-01  -1.5467422e+05
   2.9236412e-09  -5.9721795e-05   5.6420393e-01   5.6158801e-01  -1.5361657e+05
   2.9263088e-09  -5.9313417e-05   5.6419513e-01   5.6159709e-01  -1.5256614e+05
   2.9289763e-09  -5.8907831e-05   5.6418638e-01   5.6160612e-01  -1.5152290e+05
   2.9316439e-09  -5.8505019e-05   5.6417770e-01   5.6161508e-01  -1.5048680e+05
   2.9343114e-09  -5.8104961e-05   5.6416908e-01   5.6162398e-01  -1.4945778e+05
   2.9369790e-09  -5.7707638e-05   5.6416052e-01   5.6163282e-01  -1.4843579e+05
   2.9396465e-09  -5.7313033e-05   5.6415201e-01   5.6164160e-01  -1.4742079e+05
   2.9423141e-09  -5.6921125e-05   5.6414357e-01   5.6165032e-01  -1.4641274e+05
   2.9449817e-09  -5.6531898e-05   5.6413518e-01   5.6165898e-01  -1.4541157e+05
   2.9476492e-09  -5.6145332e-05   5.6412685e-01   5.6166758e-01  -1.4441726e+05
   2.9503168e-09  -5.5761409e-05   5.6411858e-01   5.6167612e-01  -1.4342974e+05
   2.9529843e-09  -5.5380112e-05   5.6411036e-01   5.6168461e-01  -1.4244897e+05
   2.9556519e-09  -5.5001422e-05   5.6410220e-01   5.6169303e-01  -1.4147491e+05
   2.9583194e-09  -5.4625321e-05   5.6409409e-01   5.6170140e-01  -1.4050751e+05
   2.9609870e-09  -5.4251793e-05   5.6408604e-01   5.6170971e-01  -1.3954672e+05
   2.9636546e-09  -5.3880818e-05   5.6407805e-01   5.6171797e-01  -1.3859251e+05
   2.9663221e-09  -5.3512380e-05   5.6407011e-01   5.6172617e-01  -1.3764482e+05
   2.9689897e-09  -5.3146461e-05   5.6406223e-01   5.6173431e-01  -1.3670361e+05
   2.9716572e-09  -5.2783045e-05   5.6405440e-01   5.6174240e-01  -1.3576883e+05
   2.9743248e-09  -5.2422113e-05   5.6404662e-01   5.6175043e-01  -1.3484045e+05
   2.9769923e-09  -5.2063650e-05   5.6403889e-01   5.6175840e-01  -1.3391841e+05
   2.9796599e-09  -5.1707638e-05   5.6403122e-01   5.6176633e-01  -1.3300268e+05
   2.9823274e-09  -5.1354060e-05   5.6402361e-01   5.6177420e-01  -1.3209321e+05
   2.9849950e-09  -5.1002900e-05   5.6401604e-01   5.6178201e-01  -1.3118996e+05
   2.9876626e-09  -5.0654141e-05   5.6400852e-01   5.6178977e-01  -1.3029289e+05
   2.9903301e-09  -5.0307767e-05   5.6400106e-01   5.6179748e-01  -1.2940195e+05
   2.9929977e-09  -4.9963761e-05   5.6399365e-01   5.6180514e-01  -1.2851710e+05
   2.9956652e-09  -4.9622108e-05   5.6398629e-01   5.6181274e-01  -1.2763831e+05
   2.9983328e-09  -4.9282791e-05   5.6397898e-01   5.6182029e-01  -1.2676552e+05
   3.0010003e-09  -4.8945794e-05   5.6397172e-01   5.6182779e-01  -1.2589870e+05
   3.0036679e-09  -4.8611102e-05   5.6396451e-01   5.6183524e-01  -1.2503780e+05
   3.0063354e-09  -4.8278698e-05   5.6395734e-01   5.6184264e-01  -1.2418280e+05
   3.0090030e-09  -4.7948567e-05   5.6395023e-01   5.6184998e-01  -1.2333364e+05
   3.0116706e-09  -4.7620694e-05   5.6394317e-01   5.6185728e-01  -1.2249028e+05
   3.0143381e-09  -4.7295062e-05   5.6393615e-01   5.6186453e-01  -1.2165270e+05
   3.0170057e-09  -4.6971657e-05   5.6392919e-01   5.6187173e-01  -1.2082084e+05
   3.0196732e-09  -4.6650464e-05   5.6392227e-01   5.6187888e-01  -1.1999467e+05
   3.0223408e-09  -4.6331467e-05   5.6391539e-01   5.6188598e-01  -1.1917414e+05
   3.0250083e-09  -4.6014651e-05   5.6390857e-01   5.6189303e-01  -1.1835923e+05
   3.0276759e-09  -4.5700002e-05   5.6390179e-01   5.6190003e-01  -1.1754989e+05
   3.0303434e-09  -4.5387504e-05   5.6389506e-01   5.6190699e-01  -1.1674609e+05
   3.0330110e-09  -4.5077143e-05   5.6388837e-01   5.6191389e-01  -1.1594778e+05
   3.0356786e-09  -4.4768905e-05   5.6388173e-01   5.6192076e-01  -1.1515493e+05
   3.0383461e-09  -4.4462774e-05   5.6387514e-01   5.6192757e-01  -1.1436750e+05
   3.0410137e-09  -4.4158736e-05   5.6386859e-01   5.6193434e-01  -1.1358545e+05
   3.0436812e-09  -4.3856777e-05   5.6386208e-01   5.6194106e-01  -1.1280876e+05
   3.0463488e-09  -4.3556884e-05   5.6385562e-01   5.6194773e-01  -1.1203737e+05
   3.0490163e-09  -4.3259040e-05   5.6384921e-01   5.6195436e-01  -1.1127126e+05
   3.0516839e-09  -4.2963234e-05   5.6384283e-01   5.6196095e-01  -1.1051039e+05
   3.0543515e-09  -4.2669450e-05   5.6383651e-01   5.6196749e-01  -1.0975472e+05
   3.0570190e-09  -4.2377675e-05   5.6383022e-01   5.6197398e-01  -1.0900421e+05
   3.0596866e-09  -4.2087895e-05   5.6382398e-01   5.6198043e-01  -1.0825884e+05
   3.0623541e-09  -4.1800097e-05   5.6381778e-01   5.6198684e-01  -1.0751857e+05
   3.0650217e-09  -4.1514267e-05   5.6381162e-01   5.6199320e-01  -1.0678335e+05
   3.0676892e-09  -4.1230391e-05   5.6380551e-01   5.6199952e-01  -1.0605317e+05
   3.0703568e-09  -4.0948457e-05   5.6379944e-01   5.6200580e-01  -1.0532798e+05
   3.0730243e-09  -4.0668450e-05   5.6379340e-01   5.6201203e-01  -1.0460774e+05
   3.0756919e-09  -4.0390358e-05   5.6378741e-01   5.6201822e-01  -1.0389243e+05
   3.0783595e-09  -4.0114167e-05   5.6378147e-01   5.6202437e-01  -1.0318202e+05
   3.0810270e-09  -3.9839865e-05   5.6377556e-01   5.6203048e-01  -1.0247646e+05
   3.0836946e-09  -3.9567439e-05   5.6376969e-01   5.6203654e-01  -1.0177572e+05
   3.0863621e-09  -3.9296876e-05   5.6376386e-01   5.6204257e-01  -1.0107978e+05
   3.0890297e-09  -3.9028163e-05   5.6375807e-01   5.6204855e-01  -1.0038859e+05
   3.0916972e-09  -3.8761287e-05   5.6375233e-01   5.6205449e-01  -9.9702134e+04
   3.0943648e-09  -3.8496236e-05   5.6374662e-01   5.6206039e-01  -9.9020370e+04
   3.0970323e-09  -3.8232997e-05   5.6374095e-01   5.6206625e-01  -9.8343267e+04
   3.0996999e-09  -3.7971559e-05   5.6373532e-01   5.6207207e-01  -9.7670794e+04
   3.1023675e-09  -3.7711908e-05   5.6372973e-01   5.6207785e-01  -9.7002919e+04
   3.1050350e-09  -3.7454033e-05   5.6372417e-01   5.6208359e-01  -9.6339611e+04
   3.1077026e-09  -3.7197921e-05   5.6371866e-01   5.6208930e-01  -9.5680839e+04
   3.1103701e-09  -3.6943561e-05   5.6371318e-01   5.6209496e-01  -9.5026572e+04
   3.1130377e-09  -3.6690939e-05   5.6370774e-01   5.6210058e-01  -9.4376778e+04
   3.1157052e-09  -3.6440046e-05   5.6370233e-01   5.6210617e-01  -9.3731428e+04
   3.1183728e-09  -3.6190867e-05   5.6369697e-01   5.6211172e-01  -9.3090490e+04
   3.1210403e-09  -3.5943393e-05   5.6369164e-01   5.6211723e-01  -9.2453935e+04
   3.1237079e-09  -3.5697611e-05   5.6368634e-01   5.6212270e-01  -9.1821733e+04
   3.1263755e-09  -3.5453510e-05   5.6368109e-01   5.6212814e-01  -9.1193854e+04
   3.1290430e-09  -3.5211077e-05   5.6367587e-01   5.6213353e-01  -9.0570268e+04
   3.1317106e-09  -3.4970303e-05   5.6367068e-01   5.6213890e-01  -8.9950946e+04
   3.1343781e-09  -3.4731175e-05   5.6366553e-01   5.6214422e-01  -8.9335859e+04
   3.1370457e-09  -3.4493682e-05   5.6366042e-01   5.6214951e-01  -8.8724978e+04
   3.1397132e-09  -3.4257813e-05   5.6365534e-01   5.6215476e-01  -8.8118274e+04
   3.1423808e-09  -3.4023557e-05   5.6365029e-01   5.6215998e-01  -8.7515719e+04
   3.1450483e-09  -3.3790903e-05   5.6364528e-01   5.6216516e-01  -8.6917283e+04
   3.1477159e-09  -3.3559839e-05   5.6364031e-01   5.6217030e-01  -8.6322940e+04
   3.1503835e-09  -3.3330356e-05   5.6363536e-01   5.6217541e-01  -8.5732661e+04
   3.1530510e-09  -3.3102442e-05   5.6363046e-01   5.6218049e-01  -8.5146419e+04
   3.1557186e-09  -3.2876086e-05   5.6362558e-01   5.6218553e-01  -8.4564185e+04
   3.1583861e-09  -3.2651278e-05   5.6362074e-01   5.6219053e-01  -8.3985932e+04
   3.1610537e-09  -3.2428008e-05   5.6361593e-01   5.6219550e-01  -8.3411634e+04
   3.1637212e-09  -3.2206264e-05   5.6361116e-01   5.6220044e-01  -8.2841262e+04
   3.1663888e-09  -3.1986037e-05   5.6360642e-01   5.6220535e-01  -8.2274790e+04
   3.1690564e-09  -3.1767315e-05   5.6360171e-01   5.6221022e-01  -8.1712193e+04
   3.1717239e-09  -3.1550089e-05   5.6359703e-01   5.6221505e-01  -8.1153442e+04
   3.1743915e-09  -3.1334348e-05   5.6359238e-01   5.6221986e-01  -8.0598511e+04
   3.1770590e-09  -3.1120083e-05   5.6358777e-01   5.6222463e-01  -8.0047376e+04
   3.1797266e-09  -3.0907283e-05   5.6358319e-01   5.6222937e-01  -7.9500009e+04
   3.1823941e-09  -3.0695938e-05   5.6357864e-01   5.6223407e-01  -7.8956385e+04
   3.1850617e-09  -3.0486038e-05   5.6357412e-01   5.6223875e-01  -7.8416478e+04
   3.1877292e-09  -3.0277573e-05   5.6356963e-01   5.6224339e-01  -7.7880263e+04
   3.1903968e-09  -3.0070534e-05   5.6356517e-01   5.6224800e-01  -7.7347714e+04
   3.1930644e-09  -2.9864911e-05   5.6356074e-01   5.6225258e-01  -7.6818808e+04
   3.1957319e-09  -2.9660694e-05   5.6355635e-01   5.6225713e-01  -7.6293517e+04
   3.1983995e-09  -2.9457873e-05   5.6355198e-01   5.6226165e-01  -7.5771819e+04
   3.2010670e-09  -2.9256439e-05   5.6354764e-01   5.6226613e-01  -7.5253688e+04
   3.2037346e-09  -2.9056382e-05   5.6354333e-01   5.6227059e-01  -7.4739100e+04
   3.2064021e-09  -2.8857694e-05   5.6353906e-01   5.6227501e-01  -7.4228031e+04
   3.2090697e-09  -2.8660364e-05   5.6353481e-01   5.6227941e-01  -7.3720456e+04
   3.2117372e-09  -2.8464383e-05   5.6353059e-01   5.6228377e-01  -7.3216353e+04
   3.2144048e-09  -2.8269743e-05   5.6352640e-01   5.6228811e-01  -7.2715696e+04
   3.2170724e-09  -2.8076433e-05   5.6352223e-01   5.6229241e-01  -7.2218463e+04
   3.2197399e-09  -2.7884446e-05   5.6351810e-01   5.6229669e-01  -7.1724630e+04
   3.2224075e-09  -2.7693771e-05   5.6351400e-01   5.6230093e-01  -7.1234173e+04
   3.2250750e-09  -2.7504400e-05   5.6350992e-01   5.6230515e-01  -7.0747071e+04
   3.2277426e-09  -2.7316324e-05   5.6350587e-01   5.6230934e-01  -7.0263299e+04
   3.2304101e-09  -2.7129534e-05   5.6350185e-01   5.6231350e-01  -6.9782835e+04
   3.2330777e-09  -2.6944021e-05   5.6349785e-01   5.6231763e-01  -6.9305657e+04
   3.2357452e-09  -2.6759777e-05   5.6349389e-01   5.6232174e-01  -6.8831741e+04
   3.2384128e-09  -2.6576793e-05   5.6348995e-01   5.6232581e-01  -6.8361066e+04
   3.2410804e-09  -2.6395060e-05   5.6348603e-01   5.6232986e-01  -6.7893610e+04
   3.2437479e-09  -2.6214570e-05   5.6348215e-01   5.6233388e-01  -6.7429350e+04
   3.2464155e-09  -2.6035314e-05   5.6347829e-01   5.6233787e-01  -6.6968265e+04
   3.2490830e-09  -2.5857283e-05   5.6347446e-01   5.6234184e-01  -6.6510332e+04
   3.2517506e-09  -2.5680470e-05   5.6347065e-01   5.6234577e-01  -6.6055531e+04
   3.2544181e-09  -2.5504866e-05   5.6346687e-01   5.6234969e-01  -6.5603840e+04
   3.2570857e-09  -2.5330463e-05   5.6346311e-01   5.6235357e-01  -6.5155237e+04
   3.2597533e-09  -2.5157253e-05   5.6345939e-01   5.6235743e-01  -6.4709702e+04
   3.2624208e-09  -2.4985227e-05   5.6345568e-01   5.6236126e-01  -6.4267214e+04
   3.2650884e-09  -2.4814377e-05   5.6345200e-01   5.6236507e-01  -6.3827751e+04
   3.2677559e-09  -2.4644695e-05   5.6344835e-01   5.6236884e-01  -6.3391294e+04
   3.2704235e-09  -2.4476174e-05   5.6344472e-01   5.6237260e-01  -6.2957821e+04
   3.2730910e-09  -2.4308805e-05   5.6344112e-01   5.6237633e-01  -6.2527312e+04
   3.2757586e-09  -2.4142581e-05   5.6343754e-01   5.6238003e-01  -6.2099746e+04
   3.2784261e-09  -2.3977493e-05   5.6343399e-01   5.6238371e-01  -6.1675105e+04
   3.2810937e-09  -2.3813534e-05   5.6343046e-01   5.6238736e-01  -6.1253367e+04
   3.2837613e-09  -2.3650696e-05   5.6342695e-01   5.6239098e-01  -6.0834513e+04
   3.2864288e-09  -2.3488972e-05   5.6342347e-01   5.6239459e-01  -6.0418523e+04
   3.2890964e-09  -2.3328354e-05   5.6342001e-01   5.6239817e-01  -6.0005378e+04
   3.2917639e-09  -2.3168834e-05   5.6341658e-01   5.6240172e-01  -5.9595058e+04
   3.2944315e-09  -2.3010405e-05   5.6341317e-01   5.6240525e-01  -5.9187543e+04
   3.2970990e-09  -2.2853059e-05   5.6340978e-01   5.6240875e-01  -5.8782815e+04
   3.2997666e-09  -2.2696789e-05   5.6340642e-01   5.6241223e-01  -5.8380855e+04
   3.3024341e-09  -2.2541587e-05   5.6340308e-01   5.6241569e-01  -5.7981643e+04
   3.3051017e-09  -2.2387447e-05   5.6339976e-01   5.6241912e-01  -5.7585162e+04
   3.3077693e-09  -2.2234361e-05   5.6339646e-01   5.6242253e-01  -5.7191391e+04
   3.3104368e-09  -2.2082322e-05   5.6339319e-01   5.6242592e-01  -5.6800313e+04
   3.3131044e-09  -2.1931322e-05   5.6338994e-01   5.6242928e-01  -5.6411909e+04
   3.3157719e-09  -2.1781355e-05   5.6338671e-01   5.6243262e-01  -5.6026161e+04
   3.3184395e-09  -2.1632414e-05   5.6338350e-01   5.6243594e-01  -5.5643050e+04
   3.3211070e-09  -2.1484491e-05   5.6338032e-01   5.6243924e-01  -5.5262560e+04
   3.3237746e-09  -2.1337579e-05   5.6337716e-01   5.6244251e-01  -5.4884671e+04
   3.3264421e-09  -2.1191672e-05   5.6337402e-01   5.6244576e-01  -5.4509366e+04
   3.3291097e-09  -2.1046763e-05   5.6337090e-01   5.6244899e-01  -5.4136628e+04
   3.3317773e-09  -2.0902844e-05   5.6336780e-01   5.6245219e-01  -5.3766438e+04
   3.3344448e-09  -2.0759910e-05   5.6336472e-01   5.6245538e-01  -5.3398780e+04
   3.3371124e-09  -2.0617953e-05   5.6336167e-01   5.6245854e-01  -5.3033636e+04
   3.3397799e-09  -2.0476967e-05   5.6335863e-01   5.6246168e-01  -5.2670989e+04
   3.3424475e-09  -2.0336945e-05   5.6335562e-01   5.6246480e-01  -5.2310821e+04
   3.3451150e-09  -2.0197880e-05   5.6335263e-01   5.6246790e-01  -5.1953116e+04
   3.3477826e-09  -2.0059767e-05   5.6334965e-01   5.6247098e-01  -5.1597858e+04
   3.3504502e-09  -1.9922597e-05   5.6334670e-01   5.6247403e-01  -5.1245028e+04
   3.3531177e-09  -1.9786366e-05   5.6334377e-01   5.6247707e-01  -5.0894612e+04
   3.3557853e-09  -1.9651066e-05   5.6334085e-01   5.6248008e-01  -5.0546591e+04
   3.3584528e-09  -1.9516692e-05   5.6333796e-01   5.6248307e-01  -5.0200950e+04
   3.3611204e-09  -1.9383236e-05   5.6333509e-01   5.6248605e-01  -4.9857673e+04
   3.3637879e-09  -1.9250693e-05   5.6333224e-01   5.6248900e-01  -4.9516743e+04
   3.3664555e-09  -1.9119056e-05   5.6332940e-01   5.6249193e-01  -4.9178144e+04
   3.3691230e-09  -1.8988320e-05   5.6332659e-01   5.6249484e-01  -4.8841861e+04
   3.3717906e-09  -1.8858477e-05   5.6332379e-01   5.6249774e-01  -4.8507877e+04
   3.3744582e-09  -1.8729522e-05   5.6332102e-01   5.6250061e-01  -4.8176177e+04
   3.3771257e-09  -1.8601449e-05   5.6331826e-01   5.6250346e-01  -4.7846745e+04
   3.3797933e-09  -1.8474252e-05   5.6331552e-01   5.6250630e-01  -4.7519566e+04
   3.3824608e-09  -1.8347925e-05   5.6331281e-01   5.6250911e-01  -4.7194624e+04
   3.3851284e-09  -1.8222461e-05   5.6331011e-01   5.6251191e-01  -4.6871904e+04
   3.3877959e-09  -1.8097855e-05   5.6330742e-01   5.6251468e-01  -4.6551391e+04
   3.3904635e-09  -1.7974102e-05   5.6330476e-01   5.6251744e-01  -4.6233070e+04
   3.3931310e-09  -1.7851194e-05   5.6330211e-01   5.6252018e-01  -4.5916925e+04
   3.3957986e-09  -1.7729128e-05   5.6329949e-01   5.6252290e-01  -4.5602942e+04
   3.3984662e-09  -1.7607895e-05   5.6329688e-01   5.6252560e-01  -4.5291106e+04
   3.4011337e-09  -1.7487492e-05   5.6329429e-01   5.6252828e-01  -4.4981402e+04
   3.4038013e-09  -1.7367912e-05   5.6329171e-01   5.6253095e-01  -4.4673816e+04
   3.4064688e-09  -1.7249150e-05   5.6328916e-01   5.6253359e-01  -4.4368334e+04
   3.4091364e-09  -1.7131200e-05   5.6328662e-01   5.6253622e-01  -4.4064940e+04
   3.4118039e-09  -1.7014056e-05   5.6328410e-01   5.6253883e-01  -4.3763621e+04
   3.4144715e-09  -1.6897714e-05   5.6328159e-01   5.6254142e-01  -4.3464363e+04
   3.4171390e-09  -1.6782167e-05   5.6327910e-01   5.6254400e-01  -4.3167150e+04
   3.4198066e-09  -1.6667410e-05   5.6327664e-01   5.6254655e-01  -4.2871971e+04
   3.4224742e-09  -1.6553438e-05   5.6327418e-01   5.6254909e-01  -4.2578809e+04
   3.4251417e-09  -1.6440245e-05   5.6327175e-01   5.6255161e-01  -4.2287652e+04
   3.4278093e-09  -1.6327826e-05   5.6326933e-01   5.6255412e-01  -4.1998487e+04
   3.4304768e-09  -1.6216176e-05   5.6326692e-01   5.6255661e-01  -4.1711298e+04
   3.4331444e-09  -1.6105290e-05   5.6326454e-01   5.6255908e-01  -4.1426073e+04
   3.4358119e-09  -1.5995162e-05   5.6326217e-01   5.6256153e-01  -4.1142799e+04
   3.4384795e-09  -1.5885786e-05   5.6325981e-01   5.6256397e-01  -4.0861462e+04
   3.4411470e-09  -1.5777159e-05   5.6325747e-01   5.6256639e-01  -4.0582048e+04
   3.4438146e-09  -1.5669275e-05   5.6325515e-01   5.6256879e-01  -4.0304546e+04
   3.4464822e-09  -1.5562128e-05   5.6325285e-01   5.6257118e-01  -4.0028940e+04
   3.4491497e-09  -1.5455714e-05   5.6325056e-01   5.6257355e-01  -3.9755220e+04
   3.4518173e-09  -1.5350027e-05   5.6324828e-01   5.6257590e-01  -3.9483371e+04
   3.4544848e-09  -1.5245063e-05   5.6324602e-01   5.6257824e-01  -3.9213381e+04
   3.4571524e-09  -1.5140817e-05   5.6324378e-01   5.6258056e-01  -3.8945237e+04
   3.4598199e-09  -1.5037284e-05   5.6324155e-01   5.6258287e-01  -3.8678927e+04
   3.4624875e-09  -1.4934459e-05   5.6323934e-01   5.6258516e-01  -3.8414438e+04
   3.4651551e-09  -1.4832337e-05   5.6323714e-01   5.6258744e-01  -3.8151757e+04
   3.4678226e-09  -1.4730913e-05   5.6323496e-01   5.6258970e-01  -3.7890873e+04
   3.4704902e-09  -1.4630183e-05   5.6323279e-01   5.6259194e-01  -3.7631773e+04
   3.4731577e-09  -1.4530141e-05   5.6323064e-01   5.6259417e-01  -3.7374444e+04
   3.4758253e-09  -1.4430784e-05   5.6322850e-01   5.6259639e-01  -3.7118875e+04
   3.4784928e-09  -1.4332106e-05   5.6322637e-01   5.6259858e-01  -3.6865054e+04
   3.4811604e-09  -1.4234103e-05   5.6322427e-01   5.6260077e-01  -3.6612968e+04
   3.4838279e-09  -1.4136770e-05   5.6322217e-01   5.6260294e-01  -3.6362606e+04
   3.4864955e-09  -1.4040102e-05   5.6322009e-01   5.6260509e-01  -3.6113956e+04
   3.4891631e-09  -1.3944096e-05   5.6321802e-01   5.6260723e-01  -3.5867006e+04
   3.4918306e-09  -1.3848746e-05   5.6321597e-01   5.6260935e-01  -3.5621745e+04
   3.4944982e-09  -1.3754048e-05   5.6321393e-01   5.6261146e-01  -3.5378161e+04
   3.4971657e-09  -1.3659998e-05   5.6321191e-01   5.6261356e-01  -3.5136243e+04
   3.4998333e-09  -1.3566591e-05   5.6320990e-01   5.6261564e-01  -3.4895979e+04
   3.5025008e-09  -1.3473822e-05   5.6320790e-01   5.6261771e-01  -3.4657358e+04
   3.5051684e-09  -1.3381688e-05   5.6320592e-01   5.6261976e-01  -3.4420369e+04
   3.5078359e-09  -1.3290184e-05   5.6320395e-01   5.6262180e-01  -3.4185000e+04
   3.5105035e-09  -1.3199305e-05   5.6320200e-01   5.6262382e-01  -3.3951241e+04
   3.5131711e-09  -1.3109048e-05   5.6320005e-01   5.6262584e-01  -3.3719080e+04
   3.5158386e-09  -1.3019409e-05   5.6319812e-01   5.6262783e-01  -3.3488506e+04
   3.5185062e-09  -1.2930382e-05   5.6319621e-01   5.6262982e-01  -3.3259510e+04
   3.5211737e-09  -1.2841964e-05   5.6319431e-01   5.6263179e-01  -3.3032079e+04
   3.5238413e-09  -1.2754150e-05   5.6319242e-01   5.6263374e-01  -3.2806203e+04
   3.5265088e-09  -1.2666937e-05   5.6319054e-01   5.6263569e-01  -3.2581872e+04
   3.5291764e-09  -1.2580321e-05   5.6318867e-01   5.6263762e-01  -3.2359075e+04
   3.5318439e-09  -1.2494296e-05   5.6318682e-01   5.6263953e-01  -3.2137802e+04
   3.5345115e-09  -1.2408860e-05   5.6318499e-01   5.6264144e-01  -3.1918042e+04
   3.5371791e-09  -1.2324008e-05   5.6318316e-01   5.6264333e-01  -3.1699784e+04
   3.5398466e-09  -1.2239737e-05   5.6318135e-01   5.6264521e-01  -3.1483019e+04
   3.5425142e-09  -1.2156041e-05   5.6317954e-01   5.6264707e-01  -3.1267736e+04
   3.5451817e-09  -1.2072918e-05   5.6317776e-01   5.6264892e-01  -3.1053925e+04
   3.5478493e-09  -1.1990363e-05   5.6317598e-01   5.6265076e-01  -3.0841576e+04
   3.5505168e-09  -1.1908373e-05   5.6317421e-01   5.6265259e-01  -3.0630679e+04
   3.5531844e-09  -1.1826944e-05   5.6317246e-01   5.6265440e-01  -3.0421225e+04
   3.5558520e-09  -1.1746071e-05   5.6317072e-01   5.6265621e-01  -3.0213202e+04
   3.5585195e-09  -1.1665751e-05   5.6316899e-01   5.6265800e-01  -3.0006603e+04
   3.5611871e-09  -1.1585981e-05   5.6316728e-01   5.6265977e-01  -2.9801415e+04
   3.5638546e-09  -1.1506756e-05   5.6316557e-01   5.6266154e-01  -2.9597631e+04
   3.5665222e-09  -1.1428073e-05   5.6316388e-01   5.6266329e-01  -2.9395241e+04
   3.5691897e-09  -1.1349927e-05   5.6316220e-01   5.6266503e-01  -2.9194234e+04
   3.5718573e-09  -1.1272317e-05   5.6316053e-01   5.6266676e-01  -2.8994602e+04
   3.5745248e-09  -1.1195236e-05   5.6315887e-01   5.6266848e-01  -2.8796335e+04
   3.5771924e-09  -1.1118683e-05   5.6315722e-01   5.6267019e-01  -2.8599424e+04
   3.5798600e-09  -1.1042654e-05   5.6315558e-01   5.6267188e-01  -2.8403859e+04
   3.5825275e-09  -1.0967144e-05   5.6315396e-01   5.6267356e-01  -2.8209632e+04
   3.5851951e-09  -1.0892151e-05   5.6315235e-01   5.6267524e-01  -2.8016733e+04
   3.5878626e-09  -1.0817670e-05   5.6315074e-01   5.6267689e-01  -2.7825153e+04
   3.5905302e-09  -1.0743699e-05   5.6314915e-01   5.6267854e-01  -2.7634882e+04
   3.5931977e-09  -1.0670234e-05   5.6314757e-01   5.6268018e-01  -2.7445913e+04
   3.5958653e-09  -1.0597271e-05   5.6314600e-01   5.6268181e-01  -2.7258236e+04
   3.5985328e-09  -1.0524806e-05   5.6314444e-01   5.6268342e-01  -2.7071843e+04
   3.6012004e-09  -1.0452838e-05   5.6314289e-01   5.6268502e-01  -2.6886724e+04
   3.6038680e-09  -1.0381361e-05   5.6314135e-01   5.6268662e-01  -2.6702871e+04
   3.6065355e-09  -1.0310374e-05   5.6313983e-01   5.6268820e-01  -2.6520275e+04
   3.6092031e-09  -1.0239871e-05   5.6313831e-01   5.6268977e-01  -2.6338928e+04
   3.6118706e-09  -1.0169851e-05   5.6313680e-01   5.6269133e-01  -2.6158820e+04
   3.6145382e-09  -1.0100310e-05   5.6313531e-01   5.6269288e-01  -2.5979945e+04
   3.6172057e-09  -1.0031244e-05   5.6313382e-01   5.6269442e-01  -2.5802292e+04
   3.6198733e-09  -9.9626502e-06   5.6313234e-01   5.6269595e-01  -2.5625855e+04
   3.6225408e-09  -9.8945257e-06   5.6313088e-01   5.6269747e-01  -2.5450624e+04
   3.6252084e-09  -9.8268670e-06   5.6312942e-01   5.6269897e-01  -2.5276591e+04
   3.6278760e-09  -9.7596709e-06   5.6312798e-01   5.6270047e-01  -2.5103748e+04
   3.6305435e-09  -9.6929343e-06   5.6312654e-01   5.6270196e-01  -2.4932087e+04
   3.6332111e-09  -9.6266541e-06   5.6312511e-01   5.6270344e-01  -2.4761600e+04
   3.6358786e-09  -9.5608271e-06   5.6312370e-01   5.6270490e-01  -2.4592279e+04
   3.6385462e-09  -9.4954503e-06   5.6312229e-01   5.6270636e-01  -2.4424115e+04
   3.6412137e-09  -9.4305205e-06   5.6312089e-01   5.6270781e-01  -2.4257102e+04
   3.6438813e-09  -9.3660347e-06   5.6311951e-01   5.6270924e-01  -2.4091230e+04
   3.6465488e-09  -9.3019898e-06   5.6311813e-01   5.6271067e-01  -2.3926493e+04
   3.6492164e-09  -9.2383829e-06   5.6311676e-01   5.6271209e-01  -2.3762882e+04
   3.6518840e-09  -9.1752109e-06   5.6311540e-01   5.6271350e-01  -2.3600390e+04
   3.6545515e-09  -9.1124709e-06   5.6311405e-01   5.6271489e-01  -2.3439009e+04
   3.6572191e-09  -9.0501600e-06   5.6311271e-01   5.6271628e-01  -2.3278732e+04
   3.6598866e-09  -8.9882751e-06   5.6311138e-01   5.6271766e-01  -2.3119551e+04
   3.6625542e-09  -8.9268134e-06   5.6311006e-01   5.6271903e-01  -2.2961458e+04
   3.6652217e-09  -8.8657719e-06   5.6310874e-01   5.6272039e-01  -2.2804446e+04
   3.6678893e-09  -8.8051479e-06   5.6310744e-01   5.6272174e-01  -2.2648508e+04
   3.6705569e-09  -8.7449384e-06   5.6310614e-01   5.6272309e-01  -2.2493636e+04
   3.6732244e-09  -8.6851406e-06   5.6310486e-01   5.6272442e-01  -2.2339824e+04
   3.6758920e-09  -8.6257518e-06   5.6310358e-01   5.6272574e-01  -2.2187063e+04
   3.6785595e-09  -8.5667690e-06   5.6310231e-01   5.6272706e-01  -2.2035346e+04
   3.6812271e-09  -8.5081896e-06   5.6310105e-01   5.6272836e-01  -2.1884667e+04
   3.6838946e-09  -8.4500107e-06   5.6309980e-01   5.6272966e-01  -2.1735019e+04
   3.6865622e-09  -8.3922297e-06   5.6309855e-01   5.6273095e-01  -2.1586394e+04
   3.6892297e-09  -8.3348438e-06   5.6309732e-01   5.6273222e-01  -2.1438785e+04
   3.6918973e-09  -8.2778502e-06   5.6309609e-01   5.6273349e-01  -2.1292185e+04
   3.6945649e-09  -8.2212465e-06   5.6309487e-01   5.6273476e-01  -2.1146588e+04
   3.6972324e-09  -8.1650297e-06   5.6309366e-01   5.6273601e-01  -2.1001987e+04
   3.6999000e-09  -8.1091974e-06   5.6309246e-01   5.6273725e-01  -2.0858374e+04
   3.7025675e-09  -8.0537469e-06   5.6309127e-01   5.6273849e-01  -2.0715743e+04
   3.7052351e-09  -7.9986755e-06   5.6309008e-01   5.6273972e-01  -2.0574088e+04
   3.7079026e-09  -7.9439807e-06   5.6308891e-01   5.6274094e-01  -2.0433401e+04
   3.7105702e-09  -7.8896600e-06   5.6308774e-01   5.6274215e-01  -2.0293677e+04
   3.7132377e-09  -7.8357106e-06   5.6308658e-01   5.6274335e-01  -2.0154907e+04
   3.7159053e-09  -7.7821302e-06   5.6308543e-01   5.6274454e-01  -2.0017087e+04
   3.7185729e-09  -7.7289162e-06   5.6308428e-01   5.6274573e-01  -1.9880209e+04
   3.7212404e-09  -7.6760660e-06   5.6308314e-01   5.6274691e-01  -1.9744267e+04
   3.7239080e-09  -7.6235773e-06   5.6308201e-01   5.6274808e-01  -1.9609255e+04
   3.7265755e-09  -7.5714474e-06   5.6308089e-01   5.6274924e-01  -1.9475166e+04
   3.7292431e-09  -7.5196741e-06   5.6307978e-01   5.6275039e-01  -1.9341994e+04
   3.7319106e-09  -7.4682547e-06   5.6307867e-01   5.6275154e-01  -1.9209732e+04
   3.7345782e-09  -7.4171870e-06   5.6307757e-01   5.6275268e-01  -1.9078375e+04
   3.7372457e-09  -7.3664685e-06   5.6307648e-01   5.6275381e-01  -1.8947917e+04
   3.7399133e-09  -7.3160968e-06   5.6307540e-01   5.6275493e-01  -1.8818350e+04
   3.7425809e-09  -7.2660695e-06   5.6307432e-01   5.6275604e-01  -1.8689669e+04
   3.7452484e-09  -7.2163843e-06   5.6307325e-01   5.6275715e-01  -1.8561868e+04
   3.7479160e-09  -7.1670389e-06   5.6307219e-01   5.6275825e-01  -1.8434941e+04
   3.7505835e-09  -7.1180309e-06   5.6307114e-01   5.6275934e-01  -1.8308882e+04
   3.7532511e-09  -7.0693580e-06   5.6307009e-01   5.6276043e-01  -1.8183685e+04
   3.7559186e-09  -7.0210179e-06   5.6306905e-01   5.6276151e-01  -1.8059345e+04
   3.7585862e-09  -6.9730084e-06   5.6306802e-01   5.6276258e-01  -1.7935854e+04
   3.7612538e-09  -6.9253272e-06   5.6306699e-01   5.6276364e-01  -1.7813208e+04
   3.7639213e-09  -6.8779720e-06   5.6306597e-01   5.6276469e-01  -1.7691400e+04
   3.7665889e-09  -6.8309407e-06   5.6306496e-01   5.6276574e-01  -1.7570426e+04
   3.7692564e-09  -6.7842309e-06   5.6306395e-01   5.6276678e-01  -1.7450279e+04
   3.7719240e-09  -6.7378406e-06   5.6306296e-01   5.6276782e-01  -1.7330953e+04
   3.7745915e-09  -6.6917674e-06   5.6306196e-01   5.6276884e-01  -1.7212443e+04
   3.7772591e-09  -6.6460094e-06   5.6306098e-01   5.6276986e-01  -1.7094744e+04
   3.7799266e-09  -6.6005642e-06   5.6306000e-01   5.6277088e-01  -1.6977849e+04
   3.7825942e-09  -6.5554298e-06   5.6305903e-01   5.6277188e-01  -1.6861754e+04
   3.7852618e-09  -6.5106040e-06   5.6305807e-01   5.6277288e-01  -1.6746452e+04
   3.7879293e-09  -6.4660847e-06   5.6305711e-01   5.6277387e-01  -1.6631940e+04
   3.7905969e-09  -6.4218698e-06   5.6305616e-01   5.6277486e-01  -1.6518210e+04
   3.7932644e-09  -6.3779573e-06   5.6305521e-01   5.6277584e-01  -1.6405258e+04
   3.7959320e-09  -6.3343451e-06   5.6305427e-01   5.6277681e-01  -1.6293078e+04
   3.7985995e-09  -6.2910311e-06   5.6305334e-01   5.6277777e-01  -1.6181665e+04
   3.8012671e-09  -6.2480133e-06   5.6305242e-01   5.6277873e-01  -1.6071014e+04
   3.8039346e-09  -6.2052896e-06   5.6305150e-01   5.6277969e-01  -1.5961120e+04
   3.8066022e-09  -6.1628581e-06   5.6305058e-01   5.6278063e-01  -1.5851977e+04
   3.8092698e-09  -6.1207167e-06   5.6304968e-01   5.6278157e-01  -1.5743581e+04
   3.8119373e-09  -6.0788635e-06   5.6304878e-01   5.6278250e-01  -1.5635926e+04
   3.8146049e-09  -6.0372965e-06   5.6304788e-01   5.6278343e-01  -1.5529007e+04
   3.8172724e-09  -5.9960137e-06   5.6304700e-01   5.6278435e-01  -1.5422819e+04
   3.8199400e-09  -5.9550132e-06   5.6304611e-01   5.6278526e-01  -1.5317357e+04
   3.8226075e-09  -5.9142931e-06   5.6304524e-01   5.6278617e-01  -1.5212617e+04
   3.8252751e-09  -5.8738514e-06   5.6304437e-01   5.6278707e-01  -1.5108592e+04
   3.8279426e-09  -5.8336863e-06   5.6304350e-01   5.6278797e-01  -1.5005279e+04
   3.8306102e-09  -5.7937958e-06   5.6304264e-01   5.6278886e-01  -1.4902673e+04
   3.8332778e-09  -5.7541781e-06   5.6304179e-01   5.6278974e-01  -1.4800768e+04
   3.8359453e-09  -5.7148313e-06   5.6304095e-01   5.6279062e-01  -1.4699560e+04
   3.8386129e-09  -5.6757535e-06   5.6304010e-01   5.6279149e-01  -1.4599044e+04
   3.8412804e-09  -5.6369430e-06   5.6303927e-01   5.6279235e-01  -1.4499215e+04
   3.8439480e-09  -5.5983979e-06   5.6303844e-01   5.6279321e-01  -1.4400069e+04
   3.8466155e-09  -5.5601163e-06   5.6303762e-01   5.6279406e-01  -1.4301601e+04
   3.8492831e-09  -5.5220965e-06   5.6303680e-01   5.6279491e-01  -1.4203806e+04
   3.8519507e-09  -5.4843367e-06   5.6303599e-01   5.6279575e-01  -1.4106680e+04
   3.8546182e-09  -5.4468350e-06   5.6303518e-01   5.6279659e-01  -1.4010218e+04
   3.8572858e-09  -5.4095899e-06   5.6303438e-01   5.6279742e-01  -1.3914416e+04
   3.8599533e-09  -5.3725994e-06   5.6303358e-01   5.6279824e-01  -1.3819269e+04
   3.8626209e-09  -5.3358618e-06   5.6303279e-01   5.6279906e-01  -1.3724772e+04
   3.8652884e-09  -5.2993755e-06   5.6303201e-01   5.6279988e-01  -1.3630922e+04
   3.8679560e-09  -5.2631386e-06   5.6303123e-01   5.6280068e-01  -1.3537713e+04
   3.8706235e-09  -5.2271496e-06   5.6303045e-01   5.6280149e-01  -1.3445142e+04
   3.8732911e-09  -5.1914066e-06   5.6302968e-01   5.6280228e-01  -1.3353204e+04
   3.8759587e-09  -5.1559080e-06   5.6302892e-01   5.6280307e-01  -1.3261894e+04
   3.8786262e-09  -5.1206522e-06   5.6302816e-01   5.6280386e-01  -1.3171209e+04
   3.8812938e-09  -5.0856375e-06   5.6302741e-01   5.6280464e-01  -1.3081144e+04
   3.8839613e-09  -5.0508622e-06   5.6302666e-01   5.6280542e-01  -1.2991695e+04
   3.8866289e-09  -5.0163247e-06   5.6302592e-01   5.6280618e-01  -1.2902858e+04
   3.8892964e-09  -4.9820233e-06   5.6302518e-01   5.6280695e-01  -1.2814628e+04
   3.8919640e-09  -4.9479566e-06   5.6302445e-01   5.6280771e-01  -1.2727001e+04
   3.8946315e-09  -4.9141227e-06   5.6302372e-01   5.6280846e-01  -1.2639973e+04
   3.8972991e-09  -4.8805202e-06   5.6302300e-01   5.6280921e-01  -1.2553541e+04
   3.8999667e-09  -4.8471475e-06   5.6302228e-01   5.6280996e-01  -1.2467700e+04
