   0.0000000e+00  -1.5870643e-01   6.2209074e+00   2.6941439e-05  -5.1780471e+08
   2.6675559e-12  -1.5733039e-01   6.2116727e+00   2.9941849e-05  -5.1399869e+08
   5.3351117e-12  -1.5596450e-01   6.2020333e+00   3.3247872e-05  -5.1019047e+08
   8.0026676e-12  -1.5460878e-01   6.1919772e+00   3.6887168e-05  -5.0638014e+08
   1.0670223e-11  -1.5326322e-01   6.1814927e+00   4.0889506e-05  -5.0256785e+08
   1.3337779e-11  -1.5192785e-01   6.1705682e+00   4.5286874e-05  -4.9875374e+08
   1.6005335e-11  -1.5060265e-01   6.1591920e+00   5.0113602e-05  -4.9493796e+08
   1.8672891e-11  -1.4928763e-01   6.1473529e+00   5.5406479e-05  -4.9112070e+08
   2.1340447e-11  -1.4798280e-01   6.1350394e+00   6.1204879e-05  -4.8730214e+08
   2.4008003e-11  -1.4668816e-01   6.1222408e+00   6.7550877e-05  -4.8348250e+08
   2.6675559e-11  -1.4540372e-01   6.1089460e+00   7.4489374e-05  -4.7966200e+08
   2.9343114e-11  -1.4412947e-01   6.0951448e+00   8.2068216e-05  -4.7584089e+08
   3.2010670e-11  -1.4286541e-01   6.0808269e+00   9.0338312e-05  -4.7201943e+08
   3.4678226e-11  -1.4161155e-01   6.0659825e+00   9.9353753e-05  -4.6819791e+08
   3.7345782e-11  -1.4036789e-01   6.0506023e+00   1.0917192e-04  -4.6437662e+08
   4.0013338e-11  -1.3913442e-01   6.0346774e+00   1.1985360e-04  -4.6055589e+08
   4.2680894e-11  -1.3791114e-01   6.0181992e+00   1.3146309e-04  -4.5673606e+08
   4.5348449e-11  -1.3669805e-01   6.0011598e+00   1.4406827e-04  -4.5291748e+08
   4.8016005e-11  -1.3549515e-01   5.9835520e+00   1.5774074e-04  -4.4910054e+08
   5.0683561e-11  -1.3430243e-01   5.9653689e+00   1.7255585e-04  -4.4528564e+08
   5.3351117e-11  -1.3311989e-01   5.9466043e+00   1.8859283e-04  -4.4147320e+08
   5.6018673e-11  -1.3194751e-01   5.9272529e+00   2.0593479e-04  -4.3766365e+08
   5.8686229e-11  -1.3078529e-01   5.9073099e+00   2.2466884e-04  -4.3385747e+08
   6.1353785e-11  -1.2963322e-01   5.8867713e+00   2.4488607e-04  -4.3005513e+08
   6.4021340e-11  -1.2849129e-01   5.8656337e+00   2.6668161e-04  -4.2625713e+08
   6.6688896e-11  -1.2735948e-01   5.8438949e+00   2.9015464e-04  -4.2246398e+08
   6.9356452e-11  -1.2623779e-01   5.8215532e+00   3.1540841e-04  -4.1867623e+08
   7.2024008e-11  -1.2512619e-01   5.7986078e+00   3.4255017e-04  -4.1489443e+08
   7.4691564e-11  -1.2402468e-01   5.7750589e+00   3.7169119e-04  -4.1111914e+08
   7.7359120e-11  -1.2293322e-01   5.7509074e+00   4.0294669e-04  -4.0735097e+08
   8.0026676e-11  -1.2185181e-01   5.7261554e+00   4.3643577e-04  -4.0359052e+08
   8.2694231e-11  -1.2078042e-01   5.7008055e+00   4.7228136e-04  -3.9983839e+08
   8.5361787e-11  -1.1971902e-01   5.6748617e+00   5.1061007e-04  -3.9609524e+08
   8.8029343e-11  -1.1866760e-01   5.6483286e+00   5.5155211e-04  -3.9236169e+08
   9.0696899e-11  -1.1762612e-01   5.6212119e+00   5.9524114e-04  -3.8863843e+08
   9.3364455e-11  -1.1659456e-01   5.5935180e+00   6.4181414e-04  -3.8492610e+08
   9.6032011e-11  -1.1557289e-01   5.5652547e+00   6.9141118e-04  -3.8122540e+08
   9.8699567e-11  -1.1456107e-01   5.5364302e+00   7.4417530e-04  -3.7753700e+08
   1.0136712e-10  -1.1355907e-01   5.5070538e+00   8.0025229e-04  -3.7386161e+08
   1.0403468e-10  -1.1256686e-01   5.4771359e+00   8.5979042e-04  -3.7019992e+08
   1.0670223e-10  -1.1158440e-01   5.4466876e+00   9.2294030e-04  -3.6655264e+08
   1.0936979e-10  -1.1061164e-01   5.4157206e+00   9.8985452e-04  -3.6292047e+08
   1.1203735e-10  -1.0964855e-01   5.3842479e+00   1.0606875e-03  -3.5930413e+08
   1.1470490e-10  -1.0869509e-01   5.3522828e+00   1.1355951e-03  -3.5570432e+08
   1.1737246e-10  -1.0775120e-01   5.3198398e+00   1.2147346e-03  -3.5212174e+08
   1.2004001e-10  -1.0681684e-01   5.2869339e+00   1.2982638e-03  -3.4855710e+08
   1.2270757e-10  -1.0589197e-01   5.2535806e+00   1.3863416e-03  -3.4501110e+08
   1.2537513e-10  -1.0497653e-01   5.2197963e+00   1.4791270e-03  -3.4148443e+08
   1.2804268e-10  -1.0407047e-01   5.1855980e+00   1.5767790e-03  -3.3797777e+08
   1.3071024e-10  -1.0317373e-01   5.1510030e+00   1.6794564e-03  -3.3449179e+08
   1.3337779e-10  -1.0228626e-01   5.1160294e+00   1.7873173e-03  -3.3102716e+08
   1.3604535e-10  -1.0140800e-01   5.0806954e+00   1.9005191e-03  -3.2758452e+08
   1.3871290e-10  -1.0053890e-01   5.0450200e+00   2.0192177e-03  -3.2416452e+08
   1.4138046e-10  -9.9678881e-02   5.0090222e+00   2.1435676e-03  -3.2076778e+08
   1.4404802e-10  -9.8827891e-02   4.9727214e+00   2.2737215e-03  -3.1739489e+08
   1.4671557e-10  -9.7985864e-02   4.9361373e+00   2.4098300e-03  -3.1404646e+08
   1.4938313e-10  -9.7152734e-02   4.8992899e+00   2.5520412e-03  -3.1072303e+08
   1.5205068e-10  -9.6328432e-02   4.8621990e+00   2.7005006e-03  -3.0742518e+08
   1.5471824e-10  -9.5512891e-02   4.8248848e+00   2.8553507e-03  -3.0415341e+08
   1.5738580e-10  -9.4706039e-02   4.7873675e+00   3.0167309e-03  -3.0090825e+08
   1.6005335e-10  -9.3907805e-02   4.7496671e+00   3.1847770e-03  -2.9769016e+08
   1.6272091e-10  -9.3118117e-02   4.7118038e+00   3.3596213e-03  -2.9449962e+08
   1.6538846e-10  -9.2336899e-02   4.6737976e+00   3.5413921e-03  -2.9133705e+08
   1.6805602e-10  -9.1564078e-02   4.6356681e+00   3.7302138e-03  -2.8820286e+08
   1.7072357e-10  -9.0799576e-02   4.5974353e+00   3.9262062e-03  -2.8509745e+08
   1.7339113e-10  -9.0043316e-02   4.5591183e+00   4.1294851e-03  -2.8202118e+08
   1.7605869e-10  -8.9295220e-02   4.5207365e+00   4.3401615e-03  -2.7897437e+08
   1.7872624e-10  -8.8555210e-02   4.4823087e+00   4.5583417e-03  -2.7595733e+08
   1.8139380e-10  -8.7823204e-02   4.4438535e+00   4.7841272e-03  -2.7297035e+08
   1.8406135e-10  -8.7099124e-02   4.4053889e+00   5.0176147e-03  -2.7001368e+08
   1.8672891e-10  -8.6382887e-02   4.3669328e+00   5.2588958e-03  -2.6708756e+08
   1.8939647e-10  -8.5674412e-02   4.3285027e+00   5.5080570e-03  -2.6419218e+08
   1.9206402e-10  -8.4973617e-02   4.2901153e+00   5.7651798e-03  -2.6132771e+08
   1.9473158e-10  -8.4280418e-02   4.2517873e+00   6.0303405e-03  -2.5849433e+08
   1.9739913e-10  -8.3594734e-02   4.2135345e+00   6.3036103e-03  -2.5569213e+08
   2.0006669e-10  -8.2916480e-02   4.1753725e+00   6.5850550e-03  -2.5292124e+08
   2.0273424e-10  -8.2245573e-02   4.1373163e+00   6.8747355e-03  -2.5018172e+08
   2.0540180e-10  -8.1581929e-02   4.0993804e+00   7.1727075e-03  -2.4747363e+08
   2.0806936e-10  -8.0925464e-02   4.0615787e+00   7.4790215e-03  -2.4479699e+08
   2.1073691e-10  -8.0276095e-02   4.0239247e+00   7.7937231e-03  -2.4215181e+08
   2.1340447e-10  -7.9633738e-02   3.9864311e+00   8.1168525e-03  -2.3953808e+08
   2.1607202e-10  -7.8998308e-02   3.9491104e+00   8.4484455e-03  -2.3695575e+08
   2.1873958e-10  -7.8369723e-02   3.9119743e+00   8.7885327e-03  -2.3440477e+08
   2.2140714e-10  -7.7747898e-02   3.8750341e+00   9.1371399e-03  -2.3188506e+08
   2.2407469e-10  -7.7132750e-02   3.8383004e+00   9.4942884e-03  -2.2939651e+08
   2.2674225e-10  -7.6524197e-02   3.8017834e+00   9.8599947e-03  -2.2693901e+08
   2.2940980e-10  -7.5922156e-02   3.7654927e+00   1.0234271e-02  -2.2451243e+08
   2.3207736e-10  -7.5326544e-02   3.7294373e+00   1.0617125e-02  -2.2211662e+08
   2.3474491e-10  -7.4737280e-02   3.6936260e+00   1.1008560e-02  -2.1975140e+08
   2.3741247e-10  -7.4154283e-02   3.6580666e+00   1.1408575e-02  -2.1741659e+08
   2.4008003e-10  -7.3577471e-02   3.6227667e+00   1.1817166e-02  -2.1511199e+08
   2.4274758e-10  -7.3006765e-02   3.5877335e+00   1.2234324e-02  -2.1283740e+08
   2.4541514e-10  -7.2442084e-02   3.5529734e+00   1.2660037e-02  -2.1059258e+08
   2.4808269e-10  -7.1883350e-02   3.5184925e+00   1.3094288e-02  -2.0837731e+08
   2.5075025e-10  -7.1330484e-02   3.4842965e+00   1.3537058e-02  -2.0619133e+08
   2.5341781e-10  -7.0783409e-02   3.4503906e+00   1.3988324e-02  -2.0403438e+08
   2.5608536e-10  -7.0242046e-02   3.4167794e+00   1.4448060e-02  -2.0190620e+08
   2.5875292e-10  -6.9706321e-02   3.3834674e+00   1.4916236e-02  -1.9980651e+08
   2.6142047e-10  -6.9176158e-02   3.3504583e+00   1.5392819e-02  -1.9773502e+08
   2.6408803e-10  -6.8651481e-02   3.3177559e+00   1.5877776e-02  -1.9569145e+08
   2.6675559e-10  -6.8132216e-02   3.2853631e+00   1.6371067e-02  -1.9367548e+08
   2.6942314e-10  -6.7618291e-02   3.2532828e+00   1.6872652e-02  -1.9168682e+08
   2.7209070e-10  -6.7109634e-02   3.2215173e+00   1.7382488e-02  -1.8972516e+08
   2.7475825e-10  -6.6606171e-02   3.1900688e+00   1.7900529e-02  -1.8779017e+08
   2.7742581e-10  -6.6107834e-02   3.1589390e+00   1.8426728e-02  -1.8588154e+08
   2.8009336e-10  -6.5614551e-02   3.1281294e+00   1.8961034e-02  -1.8399894e+08
   2.8276092e-10  -6.5126255e-02   3.0976411e+00   1.9503395e-02  -1.8214205e+08
   2.8542848e-10  -6.4642876e-02   3.0674749e+00   2.0053758e-02  -1.8031054e+08
   2.8809603e-10  -6.4164348e-02   3.0376315e+00   2.0612067e-02  -1.7850407e+08
   2.9076359e-10  -6.3690605e-02   3.0081112e+00   2.1178263e-02  -1.7672231e+08
   2.9343114e-10  -6.3221580e-02   2.9789141e+00   2.1752289e-02  -1.7496493e+08
   2.9609870e-10  -6.2757210e-02   2.9500400e+00   2.2334083e-02  -1.7323158e+08
   2.9876626e-10  -6.2297431e-02   2.9214886e+00   2.2923584e-02  -1.7152195e+08
   3.0143381e-10  -6.1842180e-02   2.8932593e+00   2.3520727e-02  -1.6983567e+08
   3.0410137e-10  -6.1391395e-02   2.8653513e+00   2.4125448e-02  -1.6817244e+08
   3.0676892e-10  -6.0945015e-02   2.8377636e+00   2.4737682e-02  -1.6653190e+08
   3.0943648e-10  -6.0502980e-02   2.8104952e+00   2.5357360e-02  -1.6491372e+08
   3.1210403e-10  -6.0065231e-02   2.7835446e+00   2.5984417e-02  -1.6331757e+08
   3.1477159e-10  -5.9631710e-02   2.7569106e+00   2.6618781e-02  -1.6174313e+08
   3.1743915e-10  -5.9202360e-02   2.7305914e+00   2.7260384e-02  -1.6019006e+08
   3.2010670e-10  -5.8777123e-02   2.7045853e+00   2.7909155e-02  -1.5865803e+08
   3.2277426e-10  -5.8355944e-02   2.6788906e+00   2.8565023e-02  -1.5714673e+08
   3.2544181e-10  -5.7938768e-02   2.6535050e+00   2.9227916e-02  -1.5565582e+08
   3.2810937e-10  -5.7525542e-02   2.6284267e+00   2.9897760e-02  -1.5418500e+08
   3.3077693e-10  -5.7116211e-02   2.6036534e+00   3.0574484e-02  -1.5273394e+08
   3.3344448e-10  -5.6710725e-02   2.5791827e+00   3.1258013e-02  -1.5130233e+08
   3.3611204e-10  -5.6309031e-02   2.5550124e+00   3.1948273e-02  -1.4988986e+08
   3.3877959e-10  -5.5911079e-02   2.5311400e+00   3.2645190e-02  -1.4849623e+08
   3.4144715e-10  -5.5516819e-02   2.5075629e+00   3.3348689e-02  -1.4712113e+08
   3.4411470e-10  -5.5126202e-02   2.4842786e+00   3.4058695e-02  -1.4576426e+08
   3.4678226e-10  -5.4739179e-02   2.4612843e+00   3.4775132e-02  -1.4442532e+08
   3.4944982e-10  -5.4355704e-02   2.4385775e+00   3.5497925e-02  -1.4310404e+08
   3.5211737e-10  -5.3975730e-02   2.4161552e+00   3.6226999e-02  -1.4180010e+08
   3.5478493e-10  -5.3599211e-02   2.3940148e+00   3.6962276e-02  -1.4051324e+08
   3.5745248e-10  -5.3226101e-02   2.3721533e+00   3.7703682e-02  -1.3924317e+08
   3.6012004e-10  -5.2856356e-02   2.3505679e+00   3.8451139e-02  -1.3798962e+08
   3.6278760e-10  -5.2489933e-02   2.3292557e+00   3.9204573e-02  -1.3675230e+08
   3.6545515e-10  -5.2126789e-02   2.3082137e+00   3.9963906e-02  -1.3553096e+08
   3.6812271e-10  -5.1766881e-02   2.2874391e+00   4.0729063e-02  -1.3432533e+08
   3.7079026e-10  -5.1410168e-02   2.2669288e+00   4.1499967e-02  -1.3313515e+08
   3.7345782e-10  -5.1056609e-02   2.2466797e+00   4.2276543e-02  -1.3196015e+08
   3.7612538e-10  -5.0706163e-02   2.2266891e+00   4.3058715e-02  -1.3080010e+08
   3.7879293e-10  -5.0358792e-02   2.2069537e+00   4.3846406e-02  -1.2965474e+08
   3.8146049e-10  -5.0014457e-02   2.1874707e+00   4.4639542e-02  -1.2852383e+08
   3.8412804e-10  -4.9673119e-02   2.1682370e+00   4.5438046e-02  -1.2740712e+08
   3.8679560e-10  -4.9334741e-02   2.1492496e+00   4.6241843e-02  -1.2630438e+08
   3.8946315e-10  -4.8999285e-02   2.1305055e+00   4.7050858e-02  -1.2521538e+08
   3.9213071e-10  -4.8666716e-02   2.1120016e+00   4.7865016e-02  -1.2413989e+08
   3.9479827e-10  -4.8336997e-02   2.0937351e+00   4.8684242e-02  -1.2307769e+08
   3.9746582e-10  -4.8010095e-02   2.0757029e+00   4.9508463e-02  -1.2202855e+08
   4.0013338e-10  -4.7685973e-02   2.0579020e+00   5.0337602e-02  -1.2099226e+08
   4.0280093e-10  -4.7364598e-02   2.0403294e+00   5.1171588e-02  -1.1996860e+08
   4.0546849e-10  -4.7045938e-02   2.0229824e+00   5.2010345e-02  -1.1895737e+08
   4.0813605e-10  -4.6729957e-02   2.0058578e+00   5.2853800e-02  -1.1795836e+08
   4.1080360e-10  -4.6416626e-02   1.9889528e+00   5.3701881e-02  -1.1697137e+08
   4.1347116e-10  -4.6105911e-02   1.9722645e+00   5.4554514e-02  -1.1599620e+08
   4.1613871e-10  -4.5797782e-02   1.9557901e+00   5.5411627e-02  -1.1503266e+08
   4.1880627e-10  -4.5492207e-02   1.9395266e+00   5.6273148e-02  -1.1408056e+08
   4.2147382e-10  -4.5189157e-02   1.9234713e+00   5.7139004e-02  -1.1313970e+08
   4.2414138e-10  -4.4888601e-02   1.9076214e+00   5.8009125e-02  -1.1220991e+08
   4.2680894e-10  -4.4590511e-02   1.8919740e+00   5.8883439e-02  -1.1129100e+08
   4.2947649e-10  -4.4294857e-02   1.8765265e+00   5.9761876e-02  -1.1038280e+08
   4.3214405e-10  -4.4001612e-02   1.8612761e+00   6.0644364e-02  -1.0948513e+08
   4.3481160e-10  -4.3710748e-02   1.8462202e+00   6.1530834e-02  -1.0859782e+08
   4.3747916e-10  -4.3422236e-02   1.8313559e+00   6.2421217e-02  -1.0772071e+08
   4.4014672e-10  -4.3136050e-02   1.8166808e+00   6.3315442e-02  -1.0685364e+08
   4.4281427e-10  -4.2852164e-02   1.8021921e+00   6.4213440e-02  -1.0599643e+08
   4.4548183e-10  -4.2570552e-02   1.7878873e+00   6.5115144e-02  -1.0514893e+08
   4.4814938e-10  -4.2291187e-02   1.7737639e+00   6.6020485e-02  -1.0431099e+08
   4.5081694e-10  -4.2014045e-02   1.7598192e+00   6.6929395e-02  -1.0348246e+08
   4.5348449e-10  -4.1739100e-02   1.7460509e+00   6.7841806e-02  -1.0266318e+08
   4.5615205e-10  -4.1466328e-02   1.7324564e+00   6.8757653e-02  -1.0185301e+08
   4.5881961e-10  -4.1195706e-02   1.7190332e+00   6.9676867e-02  -1.0105181e+08
   4.6148716e-10  -4.0927208e-02   1.7057791e+00   7.0599384e-02  -1.0025943e+08
   4.6415472e-10  -4.0660813e-02   1.6926915e+00   7.1525136e-02  -9.9475741e+07
   4.6682227e-10  -4.0396497e-02   1.6797682e+00   7.2454059e-02  -9.8700601e+07
   4.6948983e-10  -4.0134236e-02   1.6670068e+00   7.3386088e-02  -9.7933878e+07
   4.7215739e-10  -3.9874010e-02   1.6544050e+00   7.4321158e-02  -9.7175443e+07
   4.7482494e-10  -3.9615796e-02   1.6419606e+00   7.5259205e-02  -9.6425168e+07
   4.7749250e-10  -3.9359573e-02   1.6296714e+00   7.6200164e-02  -9.5682926e+07
   4.8016005e-10  -3.9105318e-02   1.6175350e+00   7.7143974e-02  -9.4948596e+07
   4.8282761e-10  -3.8853012e-02   1.6055494e+00   7.8090570e-02  -9.4222055e+07
   4.8549517e-10  -3.8602634e-02   1.5937125e+00   7.9039891e-02  -9.3503186e+07
   4.8816272e-10  -3.8354163e-02   1.5820220e+00   7.9991874e-02  -9.2791873e+07
   4.9083028e-10  -3.8107580e-02   1.5704759e+00   8.0946457e-02  -9.2088001e+07
   4.9349783e-10  -3.7862864e-02   1.5590722e+00   8.1903580e-02  -9.1391458e+07
   4.9616539e-10  -3.7619997e-02   1.5478088e+00   8.2863181e-02  -9.0702134e+07
   4.9883294e-10  -3.7378958e-02   1.5366837e+00   8.3825200e-02  -9.0019923e+07
   5.0150050e-10  -3.7139730e-02   1.5256950e+00   8.4789577e-02  -8.9344718e+07
   5.0416806e-10  -3.6902294e-02   1.5148408e+00   8.5756252e-02  -8.8676415e+07
   5.0683561e-10  -3.6666632e-02   1.5041190e+00   8.6725166e-02  -8.8014914e+07
   5.0950317e-10  -3.6432725e-02   1.4935278e+00   8.7696261e-02  -8.7360113e+07
   5.1217072e-10  -3.6200555e-02   1.4830654e+00   8.8669477e-02  -8.6711916e+07
   5.1483828e-10  -3.5970107e-02   1.4727299e+00   8.9644758e-02  -8.6070226e+07
   5.1750584e-10  -3.5741361e-02   1.4625195e+00   9.0622045e-02  -8.5434948e+07
   5.2017339e-10  -3.5514301e-02   1.4524325e+00   9.1601282e-02  -8.4805992e+07
   5.2284095e-10  -3.5288911e-02   1.4424670e+00   9.2582411e-02  -8.4183264e+07
   5.2550850e-10  -3.5065173e-02   1.4326214e+00   9.3565377e-02  -8.3566677e+07
   5.2817606e-10  -3.4843072e-02   1.4228940e+00   9.4550124e-02  -8.2956143e+07
   5.3084361e-10  -3.4622592e-02   1.4132830e+00   9.5536596e-02  -8.2351577e+07
   5.3351117e-10  -3.4403716e-02   1.4037869e+00   9.6524738e-02  -8.1752893e+07
   5.3617873e-10  -3.4186430e-02   1.3944040e+00   9.7514496e-02  -8.1160009e+07
   5.3884628e-10  -3.3970718e-02   1.3851326e+00   9.8505815e-02  -8.0572845e+07
   5.4151384e-10  -3.3756564e-02   1.3759714e+00   9.9498642e-02  -7.9991320e+07
   5.4418139e-10  -3.3543954e-02   1.3669185e+00   1.0049292e-01  -7.9415356e+07
   5.4684895e-10  -3.3332873e-02   1.3579726e+00   1.0148861e-01  -7.8844877e+07
   5.4951651e-10  -3.3123306e-02   1.3491322e+00   1.0248564e-01  -7.8279807e+07
   5.5218406e-10  -3.2915240e-02   1.3403957e+00   1.0348397e-01  -7.7720071e+07
   5.5485162e-10  -3.2708659e-02   1.3317617e+00   1.0448354e-01  -7.7165598e+07
   5.5751917e-10  -3.2503551e-02   1.3232288e+00   1.0548431e-01  -7.6616316e+07
   5.6018673e-10  -3.2299901e-02   1.3147955e+00   1.0648622e-01  -7.6072155e+07
   5.6285428e-10  -3.2097696e-02   1.3064604e+00   1.0748922e-01  -7.5533046e+07
   5.6552184e-10  -3.1896922e-02   1.2982222e+00   1.0849327e-01  -7.4998922e+07
   5.6818940e-10  -3.1697567e-02   1.2900796e+00   1.0949831e-01  -7.4469716e+07
   5.7085695e-10  -3.1499617e-02   1.2820311e+00   1.1050429e-01  -7.3945363e+07
   5.7352451e-10  -3.1303059e-02   1.2740755e+00   1.1151116e-01  -7.3425798e+07
   5.7619206e-10  -3.1107880e-02   1.2662115e+00   1.1251889e-01  -7.2910960e+07
   5.7885962e-10  -3.0914069e-02   1.2584378e+00   1.1352741e-01  -7.2400786e+07
   5.8152718e-10  -3.0721612e-02   1.2507531e+00   1.1453668e-01  -7.1895216e+07
   5.8419473e-10  -3.0530498e-02   1.2431563e+00   1.1554665e-01  -7.1394189e+07
   5.8686229e-10  -3.0340714e-02   1.2356461e+00   1.1655728e-01  -7.0897648e+07
   5.8952984e-10  -3.0152249e-02   1.2282214e+00   1.1756852e-01  -7.0405535e+07
   5.9219740e-10  -2.9965091e-02   1.2208809e+00   1.1858033e-01  -6.9917793e+07
   5.9486495e-10  -2.9779228e-02   1.2136234e+00   1.1959265e-01  -6.9434366e+07
   5.9753251e-10  -2.9594649e-02   1.2064480e+00   1.2060545e-01  -6.8955200e+07
   6.0020007e-10  -2.9411342e-02   1.1993533e+00   1.2161867e-01  -6.8480242e+07
   6.0286762e-10  -2.9229297e-02   1.1923384e+00   1.2263228e-01  -6.8009439e+07
   6.0553518e-10  -2.9048503e-02   1.1854021e+00   1.2364623e-01  -6.7542738e+07
   6.0820273e-10  -2.8868947e-02   1.1785434e+00   1.2466048e-01  -6.7080088e+07
   6.1087029e-10  -2.8690621e-02   1.1717612e+00   1.2567497e-01  -6.6621441e+07
   6.1353785e-10  -2.8513512e-02   1.1650545e+00   1.2668968e-01  -6.6166745e+07
   6.1620540e-10  -2.8337612e-02   1.1584223e+00   1.2770456e-01  -6.5715954e+07
   6.1887296e-10  -2.8162909e-02   1.1518635e+00   1.2871956e-01  -6.5269019e+07
   6.2154051e-10  -2.7989392e-02   1.1453771e+00   1.2973464e-01  -6.4825893e+07
   6.2420807e-10  -2.7817053e-02   1.1389622e+00   1.3074977e-01  -6.4386531e+07
   6.2687563e-10  -2.7645881e-02   1.1326179e+00   1.3176490e-01  -6.3950887e+07
   6.2954318e-10  -2.7475866e-02   1.1263431e+00   1.3277999e-01  -6.3518916e+07
   6.3221074e-10  -2.7306998e-02   1.1201370e+00   1.3379500e-01  -6.3090576e+07
   6.3487829e-10  -2.7139269e-02   1.1139986e+00   1.3480989e-01  -6.2665822e+07
   6.3754585e-10  -2.6972667e-02   1.1079270e+00   1.3582462e-01  -6.2244612e+07
   6.4021340e-10  -2.6807185e-02   1.1019214e+00   1.3683916e-01  -6.1826906e+07
   6.4288096e-10  -2.6642812e-02   1.0959808e+00   1.3785346e-01  -6.1412661e+07
   6.4554852e-10  -2.6479539e-02   1.0901044e+00   1.3886748e-01  -6.1001837e+07
   6.4821607e-10  -2.6317358e-02   1.0842914e+00   1.3988120e-01  -6.0594395e+07
   6.5088363e-10  -2.6156259e-02   1.0785409e+00   1.4089456e-01  -6.0190296e+07
   6.5355118e-10  -2.5996234e-02   1.0728521e+00   1.4190753e-01  -5.9789501e+07
   6.5621874e-10  -2.5837274e-02   1.0672241e+00   1.4292009e-01  -5.9391973e+07
   6.5888630e-10  -2.5679369e-02   1.0616563e+00   1.4393218e-01  -5.8997674e+07
   6.6155385e-10  -2.5522513e-02   1.0561478e+00   1.4494377e-01  -5.8606567e+07
   6.6422141e-10  -2.5366695e-02   1.0506978e+00   1.4595484e-01  -5.8218618e+07
   6.6688896e-10  -2.5211908e-02   1.0453055e+00   1.4696533e-01  -5.7833789e+07
   6.6955652e-10  -2.5058143e-02   1.0399703e+00   1.4797523e-01  -5.7452047e+07
   6.7222407e-10  -2.4905393e-02   1.0346913e+00   1.4898449e-01  -5.7073357e+07
   6.7489163e-10  -2.4753648e-02   1.0294679e+00   1.4999307e-01  -5.6697684e+07
   6.7755919e-10  -2.4602902e-02   1.0242993e+00   1.5100096e-01  -5.6324997e+07
   6.8022674e-10  -2.4453146e-02   1.0191849e+00   1.5200810e-01  -5.5955262e+07
   6.8289430e-10  -2.4304373e-02   1.0141238e+00   1.5301447e-01  -5.5588446e+07
   6.8556185e-10  -2.4156574e-02   1.0091155e+00   1.5402004e-01  -5.5224518e+07
   6.8822941e-10  -2.4009742e-02   1.0041593e+00   1.5502477e-01  -5.4863447e+07
   6.9089697e-10  -2.3863869e-02   9.9925451e-01   1.5602864e-01  -5.4505202e+07
   6.9356452e-10  -2.3718948e-02   9.9440044e-01   1.5703160e-01  -5.4149752e+07
   6.9623208e-10  -2.3574972e-02   9.8959648e-01   1.5803363e-01  -5.3797068e+07
   6.9889963e-10  -2.3431933e-02   9.8484199e-01   1.5903470e-01  -5.3447120e+07
   7.0156719e-10  -2.3289824e-02   9.8013634e-01   1.6003478e-01  -5.3099879e+07
   7.0423474e-10  -2.3148638e-02   9.7547892e-01   1.6103383e-01  -5.2755316e+07
   7.0690230e-10  -2.3008367e-02   9.7086912e-01   1.6203183e-01  -5.2413404e+07
   7.0956986e-10  -2.2869004e-02   9.6630635e-01   1.6302874e-01  -5.2074114e+07
   7.1223741e-10  -2.2730544e-02   9.6179000e-01   1.6402454e-01  -5.1737420e+07
   7.1490497e-10  -2.2592977e-02   9.5731950e-01   1.6501920e-01  -5.1403294e+07
   7.1757252e-10  -2.2456299e-02   9.5289429e-01   1.6601269e-01  -5.1071709e+07
   7.2024008e-10  -2.2320502e-02   9.4851379e-01   1.6700499e-01  -5.0742641e+07
   7.2290764e-10  -2.2185580e-02   9.4417745e-01   1.6799605e-01  -5.0416062e+07
   7.2557519e-10  -2.2051525e-02   9.3988472e-01   1.6898586e-01  -5.0091947e+07
   7.2824275e-10  -2.1918332e-02   9.3563507e-01   1.6997439e-01  -4.9770272e+07
   7.3091030e-10  -2.1785993e-02   9.3142796e-01   1.7096162e-01  -4.9451012e+07
   7.3357786e-10  -2.1654503e-02   9.2726287e-01   1.7194750e-01  -4.9134142e+07
   7.3624542e-10  -2.1523856e-02   9.2313928e-01   1.7293203e-01  -4.8819639e+07
   7.3891297e-10  -2.1394043e-02   9.1905669e-01   1.7391517e-01  -4.8507478e+07
   7.4158053e-10  -2.1265061e-02   9.1501459e-01   1.7489690e-01  -4.8197637e+07
   7.4424808e-10  -2.1136902e-02   9.1101248e-01   1.7587719e-01  -4.7890092e+07
   7.4691564e-10  -2.1009560e-02   9.0704990e-01   1.7685601e-01  -4.7584821e+07
   7.4958319e-10  -2.0883030e-02   9.0312634e-01   1.7783335e-01  -4.7281802e+07
   7.5225075e-10  -2.0757305e-02   8.9924135e-01   1.7880918e-01  -4.6981012e+07
   7.5491831e-10  -2.0632379e-02   8.9539445e-01   1.7978347e-01  -4.6682429e+07
   7.5758586e-10  -2.0508247e-02   8.9158519e-01   1.8075621e-01  -4.6386033e+07
   7.6025342e-10  -2.0384903e-02   8.8781311e-01   1.8172736e-01  -4.6091802e+07
   7.6292097e-10  -2.0262341e-02   8.8407777e-01   1.8269690e-01  -4.5799716e+07
   7.6558853e-10  -2.0140555e-02   8.8037873e-01   1.8366481e-01  -4.5509753e+07
   7.6825609e-10  -2.0019539e-02   8.7671555e-01   1.8463108e-01  -4.5221893e+07
   7.7092364e-10  -1.9899289e-02   8.7308780e-01   1.8559567e-01  -4.4936117e+07
   7.7359120e-10  -1.9779798e-02   8.6949508e-01   1.8655856e-01  -4.4652405e+07
   7.7625875e-10  -1.9661062e-02   8.6593695e-01   1.8751974e-01  -4.4370736e+07
   7.7892631e-10  -1.9543074e-02   8.6241301e-01   1.8847918e-01  -4.4091093e+07
   7.8159386e-10  -1.9425829e-02   8.5892286e-01   1.8943686e-01  -4.3813455e+07
   7.8426142e-10  -1.9309323e-02   8.5546610e-01   1.9039277e-01  -4.3537805e+07
   7.8692898e-10  -1.9193549e-02   8.5204234e-01   1.9134687e-01  -4.3264124e+07
   7.8959653e-10  -1.9078502e-02   8.4865119e-01   1.9229915e-01  -4.2992393e+07
   7.9226409e-10  -1.8964178e-02   8.4529227e-01   1.9324959e-01  -4.2722595e+07
   7.9493164e-10  -1.8850571e-02   8.4196520e-01   1.9419818e-01  -4.2454711e+07
   7.9759920e-10  -1.8737676e-02   8.3866961e-01   1.9514488e-01  -4.2188724e+07
   8.0026676e-10  -1.8625488e-02   8.3540514e-01   1.9608969e-01  -4.1924618e+07
   8.0293431e-10  -1.8514002e-02   8.3217143e-01   1.9703258e-01  -4.1662374e+07
   8.0560187e-10  -1.8403213e-02   8.2896812e-01   1.9797354e-01  -4.1401977e+07
   8.0826942e-10  -1.8293116e-02   8.2579486e-01   1.9891255e-01  -4.1143408e+07
   8.1093698e-10  -1.8183707e-02   8.2265130e-01   1.9984959e-01  -4.0886653e+07
   8.1360453e-10  -1.8074980e-02   8.1953710e-01   2.0078464e-01  -4.0631694e+07
   8.1627209e-10  -1.7966931e-02   8.1645193e-01   2.0171768e-01  -4.0378516e+07
   8.1893965e-10  -1.7859554e-02   8.1339546e-01   2.0264871e-01  -4.0127102e+07
   8.2160720e-10  -1.7752847e-02   8.1036736e-01   2.0357769e-01  -3.9877438e+07
   8.2427476e-10  -1.7646802e-02   8.0736730e-01   2.0450462e-01  -3.9629507e+07
   8.2694231e-10  -1.7541417e-02   8.0439497e-01   2.0542949e-01  -3.9383295e+07
   8.2960987e-10  -1.7436687e-02   8.0145005e-01   2.0635226e-01  -3.9138786e+07
   8.3227743e-10  -1.7332606e-02   7.9853224e-01   2.0727293e-01  -3.8895965e+07
   8.3494498e-10  -1.7229171e-02   7.9564123e-01   2.0819149e-01  -3.8654819e+07
   8.3761254e-10  -1.7126377e-02   7.9277671e-01   2.0910791e-01  -3.8415331e+07
   8.4028009e-10  -1.7024220e-02   7.8993839e-01   2.1002219e-01  -3.8177489e+07
   8.4294765e-10  -1.6922694e-02   7.8712598e-01   2.1093431e-01  -3.7941277e+07
   8.4561521e-10  -1.6821797e-02   7.8433919e-01   2.1184425e-01  -3.7706682e+07
   8.4828276e-10  -1.6721524e-02   7.8157772e-01   2.1275200e-01  -3.7473690e+07
   8.5095032e-10  -1.6621870e-02   7.7884131e-01   2.1365754e-01  -3.7242288e+07
   8.5361787e-10  -1.6522831e-02   7.7612967e-01   2.1456087e-01  -3.7012461e+07
   8.5628543e-10  -1.6424403e-02   7.7344253e-01   2.1546197e-01  -3.6784196e+07
   8.5895298e-10  -1.6326582e-02   7.7077962e-01   2.1636083e-01  -3.6557481e+07
   8.6162054e-10  -1.6229363e-02   7.6814067e-01   2.1725743e-01  -3.6332302e+07
   8.6428810e-10  -1.6132743e-02   7.6552542e-01   2.1815176e-01  -3.6108646e+07
   8.6695565e-10  -1.6036718e-02   7.6293360e-01   2.1904382e-01  -3.5886500e+07
   8.6962321e-10  -1.5941284e-02   7.6036497e-01   2.1993358e-01  -3.5665853e+07
   8.7229076e-10  -1.5846436e-02   7.5781927e-01   2.2082103e-01  -3.5446691e+07
   8.7495832e-10  -1.5752170e-02   7.5529624e-01   2.2170617e-01  -3.5229003e+07
   8.7762588e-10  -1.5658484e-02   7.5279565e-01   2.2258898e-01  -3.5012775e+07
   8.8029343e-10  -1.5565372e-02   7.5031724e-01   2.2346946e-01  -3.4797996e+07
   8.8296099e-10  -1.5472831e-02   7.4786079e-01   2.2434758e-01  -3.4584655e+07
   8.8562854e-10  -1.5380858e-02   7.4542604e-01   2.2522335e-01  -3.4372739e+07
   8.8829610e-10  -1.5289448e-02   7.4301278e-01   2.2609674e-01  -3.4162237e+07
   8.9096365e-10  -1.5198597e-02   7.4062076e-01   2.2696776e-01  -3.3953137e+07
   8.9363121e-10  -1.5108303e-02   7.3824977e-01   2.2783638e-01  -3.3745428e+07
   8.9629877e-10  -1.5018561e-02   7.3589957e-01   2.2870261e-01  -3.3539099e+07
   8.9896632e-10  -1.4929367e-02   7.3356994e-01   2.2956642e-01  -3.3334138e+07
   9.0163388e-10  -1.4840718e-02   7.3126066e-01   2.3042782e-01  -3.3130535e+07
   9.0430143e-10  -1.4752611e-02   7.2897153e-01   2.3128679e-01  -3.2928279e+07
   9.0696899e-10  -1.4665041e-02   7.2670231e-01   2.3214332e-01  -3.2727358e+07
   9.0963655e-10  -1.4578005e-02   7.2445281e-01   2.3299741e-01  -3.2527763e+07
   9.1230410e-10  -1.4491501e-02   7.2222282e-01   2.3384904e-01  -3.2329483e+07
   9.1497166e-10  -1.4405523e-02   7.2001213e-01   2.3469822e-01  -3.2132507e+07
   9.1763921e-10  -1.4320069e-02   7.1782053e-01   2.3554492e-01  -3.1936826e+07
   9.2030677e-10  -1.4235135e-02   7.1564783e-01   2.3638915e-01  -3.1742428e+07
   9.2297432e-10  -1.4150718e-02   7.1349383e-01   2.3723089e-01  -3.1549304e+07
   9.2564188e-10  -1.4066815e-02   7.1135833e-01   2.3807014e-01  -3.1357444e+07
   9.2830944e-10  -1.3983422e-02   7.0924115e-01   2.3890689e-01  -3.1166838e+07
   9.3097699e-10  -1.3900535e-02   7.0714208e-01   2.3974113e-01  -3.0977477e+07
   9.3364455e-10  -1.3818153e-02   7.0506095e-01   2.4057286e-01  -3.0789350e+07
   9.3631210e-10  -1.3736270e-02   7.0299756e-01   2.4140207e-01  -3.0602448e+07
   9.3897966e-10  -1.3654884e-02   7.0095174e-01   2.4222875e-01  -3.0416762e+07
   9.4164722e-10  -1.3573992e-02   6.9892331e-01   2.4305291e-01  -3.0232282e+07
   9.4431477e-10  -1.3493590e-02   6.9691207e-01   2.4387452e-01  -3.0048999e+07
   9.4698233e-10  -1.3413676e-02   6.9491787e-01   2.4469359e-01  -2.9866904e+07
   9.4964988e-10  -1.3334246e-02   6.9294051e-01   2.4551011e-01  -2.9685988e+07
   9.5231744e-10  -1.3255297e-02   6.9097984e-01   2.4632408e-01  -2.9506241e+07
   9.5498499e-10  -1.3176826e-02   6.8903568e-01   2.4713548e-01  -2.9327655e+07
   9.5765255e-10  -1.3098830e-02   6.8710786e-01   2.4794432e-01  -2.9150222e+07
   9.6032011e-10  -1.3021305e-02   6.8519622e-01   2.4875059e-01  -2.8973932e+07
   9.6298766e-10  -1.2944250e-02   6.8330060e-01   2.4955429e-01  -2.8798777e+07
   9.6565522e-10  -1.2867660e-02   6.8142082e-01   2.5035540e-01  -2.8624748e+07
   9.6832277e-10  -1.2791533e-02   6.7955674e-01   2.5115393e-01  -2.8451836e+07
   9.7099033e-10  -1.2715865e-02   6.7770819e-01   2.5194988e-01  -2.8280035e+07
   9.7365789e-10  -1.2640655e-02   6.7587502e-01   2.5274323e-01  -2.8109334e+07
   9.7632544e-10  -1.2565898e-02   6.7405707e-01   2.5353399e-01  -2.7939727e+07
   9.7899300e-10  -1.2491592e-02   6.7225419e-01   2.5432214e-01  -2.7771204e+07
   9.8166055e-10  -1.2417734e-02   6.7046623e-01   2.5510770e-01  -2.7603758e+07
   9.8432811e-10  -1.2344322e-02   6.6869305e-01   2.5589064e-01  -2.7437381e+07
   9.8699567e-10  -1.2271352e-02   6.6693449e-01   2.5667098e-01  -2.7272064e+07
   9.8966322e-10  -1.2198822e-02   6.6519041e-01   2.5744871e-01  -2.7107801e+07
   9.9233078e-10  -1.2126728e-02   6.6346067e-01   2.5822382e-01  -2.6944584e+07
   9.9499833e-10  -1.2055068e-02   6.6174512e-01   2.5899631e-01  -2.6782404e+07
   9.9766589e-10  -1.1983840e-02   6.6004363e-01   2.5976619e-01  -2.6621254e+07
   1.0003334e-09  -1.1913040e-02   6.5835606e-01   2.6053344e-01  -2.6461127e+07
   1.0030010e-09  -1.1842666e-02   6.5668227e-01   2.6129806e-01  -2.6302015e+07
   1.0056686e-09  -1.1772715e-02   6.5502212e-01   2.6206006e-01  -2.6143911e+07
   1.0083361e-09  -1.1703185e-02   6.5337548e-01   2.6281943e-01  -2.5986808e+07
   1.0110037e-09  -1.1634072e-02   6.5174223e-01   2.6357617e-01  -2.5830698e+07
   1.0136712e-09  -1.1565374e-02   6.5012222e-01   2.6433027e-01  -2.5675574e+07
   1.0163388e-09  -1.1497089e-02   6.4851534e-01   2.6508175e-01  -2.5521429e+07
   1.0190063e-09  -1.1429214e-02   6.4692145e-01   2.6583058e-01  -2.5368256e+07
   1.0216739e-09  -1.1361746e-02   6.4534043e-01   2.6657679e-01  -2.5216049e+07
   1.0243414e-09  -1.1294682e-02   6.4377215e-01   2.6732035e-01  -2.5064799e+07
   1.0270090e-09  -1.1228021e-02   6.4221650e-01   2.6806128e-01  -2.4914501e+07
   1.0296766e-09  -1.1161760e-02   6.4067334e-01   2.6879956e-01  -2.4765147e+07
   1.0323441e-09  -1.1095896e-02   6.3914256e-01   2.6953521e-01  -2.4616731e+07
   1.0350117e-09  -1.1030426e-02   6.3762405e-01   2.7026822e-01  -2.4469246e+07
   1.0376792e-09  -1.0965349e-02   6.3611768e-01   2.7099858e-01  -2.4322686e+07
   1.0403468e-09  -1.0900661e-02   6.3462333e-01   2.7172631e-01  -2.4177044e+07
   1.0430143e-09  -1.0836361e-02   6.3314090e-01   2.7245140e-01  -2.4032314e+07
   1.0456819e-09  -1.0772445e-02   6.3167027e-01   2.7317384e-01  -2.3888488e+07
   1.0483494e-09  -1.0708912e-02   6.3021133e-01   2.7389365e-01  -2.3745562e+07
   1.0510170e-09  -1.0645759e-02   6.2876397e-01   2.7461081e-01  -2.3603528e+07
   1.0536846e-09  -1.0582984e-02   6.2732807e-01   2.7532533e-01  -2.3462380e+07
   1.0563521e-09  -1.0520584e-02   6.2590354e-01   2.7603722e-01  -2.3322112e+07
   1.0590197e-09  -1.0458557e-02   6.2449026e-01   2.7674647e-01  -2.3182718e+07
   1.0616872e-09  -1.0396901e-02   6.2308812e-01   2.7745307e-01  -2.3044192e+07
   1.0643548e-09  -1.0335613e-02   6.2169703e-01   2.7815705e-01  -2.2906528e+07
   1.0670223e-09  -1.0274691e-02   6.2031688e-01   2.7885838e-01  -2.2769720e+07
   1.0696899e-09  -1.0214133e-02   6.1894757e-01   2.7955708e-01  -2.2633762e+07
   1.0723575e-09  -1.0153937e-02   6.1758899e-01   2.8025315e-01  -2.2498648e+07
   1.0750250e-09  -1.0094100e-02   6.1624105e-01   2.8094658e-01  -2.2364371e+07
   1.0776926e-09  -1.0034620e-02   6.1490365e-01   2.8163739e-01  -2.2230928e+07
   1.0803601e-09  -9.9754948e-03   6.1357668e-01   2.8232556e-01  -2.2098311e+07
   1.0830277e-09  -9.9167223e-03   6.1226006e-01   2.8301111e-01  -2.1966515e+07
   1.0856952e-09  -9.8583003e-03   6.1095369e-01   2.8369403e-01  -2.1835535e+07
   1.0883628e-09  -9.8002266e-03   6.0965748e-01   2.8437433e-01  -2.1705365e+07
   1.0910303e-09  -9.7424991e-03   6.0837132e-01   2.8505201e-01  -2.1575999e+07
   1.0936979e-09  -9.6851156e-03   6.0709513e-01   2.8572706e-01  -2.1447431e+07
   1.0963655e-09  -9.6280740e-03   6.0582882e-01   2.8639950e-01  -2.1319657e+07
   1.0990330e-09  -9.5713722e-03   6.0457229e-01   2.8706932e-01  -2.1192672e+07
   1.1017006e-09  -9.5150081e-03   6.0332546e-01   2.8773654e-01  -2.1066469e+07
   1.1043681e-09  -9.4589796e-03   6.0208824e-01   2.8840114e-01  -2.0941043e+07
   1.1070357e-09  -9.4032847e-03   6.0086054e-01   2.8906313e-01  -2.0816389e+07
   1.1097032e-09  -9.3479212e-03   5.9964228e-01   2.8972252e-01  -2.0692503e+07
   1.1123708e-09  -9.2928872e-03   5.9843336e-01   2.9037930e-01  -2.0569378e+07
   1.1150383e-09  -9.2381807e-03   5.9723371e-01   2.9103349e-01  -2.0447010e+07
   1.1177059e-09  -9.1837995e-03   5.9604324e-01   2.9168508e-01  -2.0325393e+07
   1.1203735e-09  -9.1297418e-03   5.9486187e-01   2.9233407e-01  -2.0204523e+07
   1.1230410e-09  -9.0760055e-03   5.9368952e-01   2.9298048e-01  -2.0084394e+07
   1.1257086e-09  -9.0225887e-03   5.9252610e-01   2.9362430e-01  -1.9965002e+07
   1.1283761e-09  -8.9694894e-03   5.9137154e-01   2.9426554e-01  -1.9846342e+07
   1.1310437e-09  -8.9167057e-03   5.9022575e-01   2.9490419e-01  -1.9728408e+07
   1.1337112e-09  -8.8642356e-03   5.8908866e-01   2.9554027e-01  -1.9611196e+07
   1.1363788e-09  -8.8120772e-03   5.8796019e-01   2.9617378e-01  -1.9494702e+07
   1.1390463e-09  -8.7602286e-03   5.8684027e-01   2.9680471e-01  -1.9378919e+07
   1.1417139e-09  -8.7086879e-03   5.8572881e-01   2.9743308e-01  -1.9263844e+07
   1.1443815e-09  -8.6574533e-03   5.8462575e-01   2.9805889e-01  -1.9149473e+07
   1.1470490e-09  -8.6065228e-03   5.8353100e-01   2.9868214e-01  -1.9035799e+07
   1.1497166e-09  -8.5558946e-03   5.8244450e-01   2.9930284e-01  -1.8922819e+07
   1.1523841e-09  -8.5055669e-03   5.8136618e-01   2.9992099e-01  -1.8810529e+07
   1.1550517e-09  -8.4555378e-03   5.8029595e-01   3.0053659e-01  -1.8698922e+07
   1.1577192e-09  -8.4058055e-03   5.7923375e-01   3.0114965e-01  -1.8587996e+07
   1.1603868e-09  -8.3563682e-03   5.7817951e-01   3.0176017e-01  -1.8477746e+07
   1.1630544e-09  -8.3072241e-03   5.7713316e-01   3.0236816e-01  -1.8368166e+07
   1.1657219e-09  -8.2583715e-03   5.7609463e-01   3.0297362e-01  -1.8259254e+07
   1.1683895e-09  -8.2098084e-03   5.7506385e-01   3.0357655e-01  -1.8151003e+07
   1.1710570e-09  -8.1615333e-03   5.7404076e-01   3.0417697e-01  -1.8043411e+07
   1.1737246e-09  -8.1135443e-03   5.7302528e-01   3.0477487e-01  -1.7936473e+07
   1.1763921e-09  -8.0658397e-03   5.7201736e-01   3.0537026e-01  -1.7830184e+07
   1.1790597e-09  -8.0184178e-03   5.7101692e-01   3.0596315e-01  -1.7724540e+07
   1.1817272e-09  -7.9712768e-03   5.7002390e-01   3.0655353e-01  -1.7619538e+07
   1.1843948e-09  -7.9244151e-03   5.6903824e-01   3.0714142e-01  -1.7515172e+07
   1.1870624e-09  -7.8778309e-03   5.6805987e-01   3.0772682e-01  -1.7411439e+07
   1.1897299e-09  -7.8315226e-03   5.6708874e-01   3.0830973e-01  -1.7308335e+07
   1.1923975e-09  -7.7854885e-03   5.6612477e-01   3.0889016e-01  -1.7205856e+07
   1.1950650e-09  -7.7397270e-03   5.6516791e-01   3.0946811e-01  -1.7103997e+07
   1.1977326e-09  -7.6942363e-03   5.6421810e-01   3.1004360e-01  -1.7002754e+07
   1.2004001e-09  -7.6490149e-03   5.6327527e-01   3.1061661e-01  -1.6902124e+07
   1.2030677e-09  -7.6040611e-03   5.6233937e-01   3.1118717e-01  -1.6802103e+07
   1.2057352e-09  -7.5593733e-03   5.6141034e-01   3.1175527e-01  -1.6702687e+07
   1.2084028e-09  -7.5149499e-03   5.6048811e-01   3.1232093e-01  -1.6603871e+07
   1.2110704e-09  -7.4707894e-03   5.5957264e-01   3.1288414e-01  -1.6505652e+07
   1.2137379e-09  -7.4268900e-03   5.5866386e-01   3.1344491e-01  -1.6408026e+07
   1.2164055e-09  -7.3832502e-03   5.5776172e-01   3.1400324e-01  -1.6310990e+07
   1.2190730e-09  -7.3398686e-03   5.5686616e-01   3.1455915e-01  -1.6214539e+07
   1.2217406e-09  -7.2967434e-03   5.5597713e-01   3.1511264e-01  -1.6118671e+07
   1.2244081e-09  -7.2538732e-03   5.5509457e-01   3.1566371e-01  -1.6023380e+07
   1.2270757e-09  -7.2112565e-03   5.5421842e-01   3.1621237e-01  -1.5928663e+07
   1.2297432e-09  -7.1688916e-03   5.5334864e-01   3.1675863e-01  -1.5834518e+07
   1.2324108e-09  -7.1267771e-03   5.5248516e-01   3.1730249e-01  -1.5740939e+07
   1.2350784e-09  -7.0849115e-03   5.5162794e-01   3.1784395e-01  -1.5647924e+07
   1.2377459e-09  -7.0432933e-03   5.5077693e-01   3.1838303e-01  -1.5555469e+07
   1.2404135e-09  -7.0019209e-03   5.4993207e-01   3.1891972e-01  -1.5463570e+07
   1.2430810e-09  -6.9607930e-03   5.4909331e-01   3.1945404e-01  -1.5372224e+07
   1.2457486e-09  -6.9199080e-03   5.4826060e-01   3.1998599e-01  -1.5281427e+07
   1.2484161e-09  -6.8792645e-03   5.4743389e-01   3.2051558e-01  -1.5191176e+07
   1.2510837e-09  -6.8388610e-03   5.4661313e-01   3.2104281e-01  -1.5101467e+07
   1.2537513e-09  -6.7986961e-03   5.4579827e-01   3.2156769e-01  -1.5012298e+07
   1.2564188e-09  -6.7587683e-03   5.4498927e-01   3.2209022e-01  -1.4923663e+07
   1.2590864e-09  -6.7190763e-03   5.4418606e-01   3.2261042e-01  -1.4835561e+07
   1.2617539e-09  -6.6796185e-03   5.4338862e-01   3.2312828e-01  -1.4747988e+07
   1.2644215e-09  -6.6403937e-03   5.4259688e-01   3.2364382e-01  -1.4660941e+07
   1.2670890e-09  -6.6014004e-03   5.4181081e-01   3.2415704e-01  -1.4574415e+07
   1.2697566e-09  -6.5626372e-03   5.4103035e-01   3.2466794e-01  -1.4488408e+07
   1.2724241e-09  -6.5241027e-03   5.4025546e-01   3.2517654e-01  -1.4402917e+07
   1.2750917e-09  -6.4857957e-03   5.3948610e-01   3.2568284e-01  -1.4317938e+07
   1.2777593e-09  -6.4477146e-03   5.3872221e-01   3.2618684e-01  -1.4233469e+07
   1.2804268e-09  -6.4098581e-03   5.3796376e-01   3.2668856e-01  -1.4149505e+07
   1.2830944e-09  -6.3722250e-03   5.3721070e-01   3.2718799e-01  -1.4066044e+07
   1.2857619e-09  -6.3348139e-03   5.3646299e-01   3.2768515e-01  -1.3983083e+07
   1.2884295e-09  -6.2976234e-03   5.3572058e-01   3.2818004e-01  -1.3900618e+07
   1.2910970e-09  -6.2606522e-03   5.3498342e-01   3.2867267e-01  -1.3818647e+07
   1.2937646e-09  -6.2238990e-03   5.3425149e-01   3.2916305e-01  -1.3737166e+07
   1.2964321e-09  -6.1873625e-03   5.3352473e-01   3.2965117e-01  -1.3656172e+07
   1.2990997e-09  -6.1510414e-03   5.3280311e-01   3.3013706e-01  -1.3575663e+07
   1.3017673e-09  -6.1149345e-03   5.3208658e-01   3.3062071e-01  -1.3495635e+07
   1.3044348e-09  -6.0790404e-03   5.3137510e-01   3.3110213e-01  -1.3416085e+07
   1.3071024e-09  -6.0433579e-03   5.3066863e-01   3.3158133e-01  -1.3337010e+07
   1.3097699e-09  -6.0078856e-03   5.2996713e-01   3.3205832e-01  -1.3258407e+07
   1.3124375e-09  -5.9726224e-03   5.2927056e-01   3.3253310e-01  -1.3180274e+07
   1.3151050e-09  -5.9375671e-03   5.2857888e-01   3.3300567e-01  -1.3102607e+07
   1.3177726e-09  -5.9027183e-03   5.2789206e-01   3.3347606e-01  -1.3025404e+07
   1.3204401e-09  -5.8680748e-03   5.2721004e-01   3.3394425e-01  -1.2948661e+07
   1.3231077e-09  -5.8336354e-03   5.2653281e-01   3.3441027e-01  -1.2872377e+07
   1.3257753e-09  -5.7993989e-03   5.2586031e-01   3.3487411e-01  -1.2796547e+07
   1.3284428e-09  -5.7653641e-03   5.2519251e-01   3.3533578e-01  -1.2721169e+07
   1.3311104e-09  -5.7315297e-03   5.2452938e-01   3.3579530e-01  -1.2646241e+07
   1.3337779e-09  -5.6978947e-03   5.2387086e-01   3.3625266e-01  -1.2571759e+07
   1.3364455e-09  -5.6644577e-03   5.2321694e-01   3.3670787e-01  -1.2497721e+07
   1.3391130e-09  -5.6312176e-03   5.2256758e-01   3.3716095e-01  -1.2424124e+07
   1.3417806e-09  -5.5981733e-03   5.2192272e-01   3.3761189e-01  -1.2350966e+07
   1.3444481e-09  -5.5653236e-03   5.2128235e-01   3.3806071e-01  -1.2278243e+07
   1.3471157e-09  -5.5326672e-03   5.2064643e-01   3.3850741e-01  -1.2205953e+07
   1.3497833e-09  -5.5002032e-03   5.2001492e-01   3.3895200e-01  -1.2134093e+07
   1.3524508e-09  -5.4679302e-03   5.1938778e-01   3.3939449e-01  -1.2062662e+07
   1.3551184e-09  -5.4358472e-03   5.1876499e-01   3.3983487e-01  -1.1991655e+07
   1.3577859e-09  -5.4039531e-03   5.1814650e-01   3.4027317e-01  -1.1921070e+07
   1.3604535e-09  -5.3722467e-03   5.1753229e-01   3.4070939e-01  -1.1850905e+07
   1.3631210e-09  -5.3407270e-03   5.1692233e-01   3.4114353e-01  -1.1781158e+07
   1.3657886e-09  -5.3093927e-03   5.1631657e-01   3.4157560e-01  -1.1711825e+07
   1.3684562e-09  -5.2782428e-03   5.1571498e-01   3.4200561e-01  -1.1642905e+07
   1.3711237e-09  -5.2472762e-03   5.1511754e-01   3.4243356e-01  -1.1574394e+07
   1.3737913e-09  -5.2164919e-03   5.1452421e-01   3.4285947e-01  -1.1506290e+07
   1.3764588e-09  -5.1858886e-03   5.1393496e-01   3.4328333e-01  -1.1438591e+07
   1.3791264e-09  -5.1554655e-03   5.1334976e-01   3.4370517e-01  -1.1371293e+07
   1.3817939e-09  -5.1252213e-03   5.1276857e-01   3.4412498e-01  -1.1304396e+07
   1.3844615e-09  -5.0951550e-03   5.1219137e-01   3.4454276e-01  -1.1237896e+07
   1.3871290e-09  -5.0652656e-03   5.1161813e-01   3.4495854e-01  -1.1171790e+07
   1.3897966e-09  -5.0355520e-03   5.1104881e-01   3.4537231e-01  -1.1106077e+07
   1.3924642e-09  -5.0060132e-03   5.1048338e-01   3.4578409e-01  -1.1040754e+07
   1.3951317e-09  -4.9766481e-03   5.0992182e-01   3.4619387e-01  -1.0975819e+07
   1.3977993e-09  -4.9474558e-03   5.0936410e-01   3.4660167e-01  -1.0911268e+07
   1.4004668e-09  -4.9184351e-03   5.0881018e-01   3.4700749e-01  -1.0847101e+07
   1.4031344e-09  -4.8895850e-03   5.0826003e-01   3.4741135e-01  -1.0783314e+07
   1.4058019e-09  -4.8609047e-03   5.0771363e-01   3.4781324e-01  -1.0719906e+07
   1.4084695e-09  -4.8323929e-03   5.0717096e-01   3.4821318e-01  -1.0656873e+07
   1.4111370e-09  -4.8040488e-03   5.0663197e-01   3.4861117e-01  -1.0594214e+07
   1.4138046e-09  -4.7758714e-03   5.0609664e-01   3.4900722e-01  -1.0531927e+07
   1.4164722e-09  -4.7478596e-03   5.0556496e-01   3.4940134e-01  -1.0470009e+07
   1.4191397e-09  -4.7200125e-03   5.0503687e-01   3.4979354e-01  -1.0408457e+07
   1.4218073e-09  -4.6923291e-03   5.0451237e-01   3.5018381e-01  -1.0347270e+07
   1.4244748e-09  -4.6648085e-03   5.0399142e-01   3.5057217e-01  -1.0286446e+07
   1.4271424e-09  -4.6374496e-03   5.0347400e-01   3.5095863e-01  -1.0225982e+07
   1.4298099e-09  -4.6102515e-03   5.0296007e-01   3.5134319e-01  -1.0165876e+07
   1.4324775e-09  -4.5832133e-03   5.0244962e-01   3.5172586e-01  -1.0106126e+07
   1.4351450e-09  -4.5563340e-03   5.0194262e-01   3.5210665e-01  -1.0046730e+07
   1.4378126e-09  -4.5296127e-03   5.0143904e-01   3.5248556e-01  -9.9876848e+06
   1.4404802e-09  -4.5030484e-03   5.0093885e-01   3.5286261e-01  -9.9289895e+06
   1.4431477e-09  -4.4766402e-03   5.0044203e-01   3.5323779e-01  -9.8706415e+06
   1.4458153e-09  -4.4503873e-03   4.9994856e-01   3.5361112e-01  -9.8126388e+06
   1.4484828e-09  -4.4242885e-03   4.9945840e-01   3.5398260e-01  -9.7549793e+06
   1.4511504e-09  -4.3983432e-03   4.9897154e-01   3.5435224e-01  -9.6976609e+06
   1.4538179e-09  -4.3725503e-03   4.9848795e-01   3.5472005e-01  -9.6406815e+06
   1.4564855e-09  -4.3469089e-03   4.9800761e-01   3.5508603e-01  -9.5840391e+06
   1.4591531e-09  -4.3214182e-03   4.9753049e-01   3.5545020e-01  -9.5277316e+06
   1.4618206e-09  -4.2960772e-03   4.9705656e-01   3.5581255e-01  -9.4717571e+06
   1.4644882e-09  -4.2708851e-03   4.9658581e-01   3.5617310e-01  -9.4161134e+06
   1.4671557e-09  -4.2458410e-03   4.9611821e-01   3.5653185e-01  -9.3607987e+06
   1.4698233e-09  -4.2209440e-03   4.9565374e-01   3.5688881e-01  -9.3058110e+06
   1.4724908e-09  -4.1961933e-03   4.9519237e-01   3.5724399e-01  -9.2511482e+06
   1.4751584e-09  -4.1715880e-03   4.9473408e-01   3.5759740e-01  -9.1968084e+06
   1.4778259e-09  -4.1471272e-03   4.9427885e-01   3.5794903e-01  -9.1427897e+06
   1.4804935e-09  -4.1228100e-03   4.9382665e-01   3.5829891e-01  -9.0890902e+06
   1.4831611e-09  -4.0986357e-03   4.9337747e-01   3.5864703e-01  -9.0357078e+06
   1.4858286e-09  -4.0746034e-03   4.9293128e-01   3.5899340e-01  -8.9826408e+06
   1.4884962e-09  -4.0507122e-03   4.9248805e-01   3.5933803e-01  -8.9298871e+06
   1.4911637e-09  -4.0269613e-03   4.9204778e-01   3.5968093e-01  -8.8774450e+06
   1.4938313e-09  -4.0033499e-03   4.9161043e-01   3.6002210e-01  -8.8253125e+06
   1.4964988e-09  -3.9798771e-03   4.9117598e-01   3.6036155e-01  -8.7734879e+06
   1.4991664e-09  -3.9565422e-03   4.9074442e-01   3.6069929e-01  -8.7219692e+06
   1.5018339e-09  -3.9333443e-03   4.9031571e-01   3.6103533e-01  -8.6707545e+06
   1.5045015e-09  -3.9102826e-03   4.8988985e-01   3.6136967e-01  -8.6198422e+06
   1.5071691e-09  -3.8873563e-03   4.8946681e-01   3.6170232e-01  -8.5692303e+06
   1.5098366e-09  -3.8645647e-03   4.8904657e-01   3.6203328e-01  -8.5189171e+06
   1.5125042e-09  -3.8419068e-03   4.8862911e-01   3.6236256e-01  -8.4689008e+06
   1.5151717e-09  -3.8193820e-03   4.8821440e-01   3.6269018e-01  -8.4191796e+06
   1.5178393e-09  -3.7969894e-03   4.8780244e-01   3.6301613e-01  -8.3697517e+06
   1.5205068e-09  -3.7747283e-03   4.8739319e-01   3.6334043e-01  -8.3206153e+06
   1.5231744e-09  -3.7525979e-03   4.8698664e-01   3.6366308e-01  -8.2717688e+06
   1.5258419e-09  -3.7305974e-03   4.8658277e-01   3.6398408e-01  -8.2232104e+06
   1.5285095e-09  -3.7087260e-03   4.8618157e-01   3.6430345e-01  -8.1749383e+06
   1.5311771e-09  -3.6869831e-03   4.8578300e-01   3.6462119e-01  -8.1269509e+06
   1.5338446e-09  -3.6653677e-03   4.8538706e-01   3.6493731e-01  -8.0792464e+06
   1.5365122e-09  -3.6438793e-03   4.8499372e-01   3.6525181e-01  -8.0318232e+06
   1.5391797e-09  -3.6225170e-03   4.8460296e-01   3.6556471e-01  -7.9846795e+06
   1.5418473e-09  -3.6012800e-03   4.8421477e-01   3.6587600e-01  -7.9378138e+06
   1.5445148e-09  -3.5801677e-03   4.8382912e-01   3.6618571e-01  -7.8912242e+06
   1.5471824e-09  -3.5591793e-03   4.8344601e-01   3.6649382e-01  -7.8449093e+06
   1.5498499e-09  -3.5383142e-03   4.8306540e-01   3.6680035e-01  -7.7988673e+06
   1.5525175e-09  -3.5175714e-03   4.8268729e-01   3.6710531e-01  -7.7530967e+06
   1.5551851e-09  -3.4969504e-03   4.8231165e-01   3.6740870e-01  -7.7075957e+06
   1.5578526e-09  -3.4764504e-03   4.8193848e-01   3.6771054e-01  -7.6623628e+06
   1.5605202e-09  -3.4560708e-03   4.8156774e-01   3.6801081e-01  -7.6173964e+06
   1.5631877e-09  -3.4358107e-03   4.8119942e-01   3.6830955e-01  -7.5726949e+06
   1.5658553e-09  -3.4156695e-03   4.8083351e-01   3.6860674e-01  -7.5282567e+06
   1.5685228e-09  -3.3956465e-03   4.8046998e-01   3.6890240e-01  -7.4840803e+06
   1.5711904e-09  -3.3757410e-03   4.8010883e-01   3.6919653e-01  -7.4401640e+06
   1.5738580e-09  -3.3559523e-03   4.7975003e-01   3.6948914e-01  -7.3965064e+06
   1.5765255e-09  -3.3362797e-03   4.7939357e-01   3.6978024e-01  -7.3531059e+06
   1.5791931e-09  -3.3167226e-03   4.7903942e-01   3.7006983e-01  -7.3099609e+06
   1.5818606e-09  -3.2972802e-03   4.7868759e-01   3.7035792e-01  -7.2670700e+06
   1.5845282e-09  -3.2779519e-03   4.7833804e-01   3.7064452e-01  -7.2244316e+06
   1.5871957e-09  -3.2587370e-03   4.7799076e-01   3.7092963e-01  -7.1820442e+06
   1.5898633e-09  -3.2396348e-03   4.7764574e-01   3.7121327e-01  -7.1399064e+06
   1.5925308e-09  -3.2206447e-03   4.7730295e-01   3.7149542e-01  -7.0980166e+06
   1.5951984e-09  -3.2017660e-03   4.7696239e-01   3.7177612e-01  -7.0563733e+06
   1.5978660e-09  -3.1829981e-03   4.7662404e-01   3.7205535e-01  -7.0149752e+06
   1.6005335e-09  -3.1643402e-03   4.7628789e-01   3.7233312e-01  -6.9738207e+06
   1.6032011e-09  -3.1457919e-03   4.7595391e-01   3.7260945e-01  -6.9329084e+06
   1.6058686e-09  -3.1273523e-03   4.7562209e-01   3.7288434e-01  -6.8922368e+06
   1.6085362e-09  -3.1090210e-03   4.7529242e-01   3.7315780e-01  -6.8518046e+06
   1.6112037e-09  -3.0907971e-03   4.7496488e-01   3.7342982e-01  -6.8116102e+06
   1.6138713e-09  -3.0726802e-03   4.7463945e-01   3.7370043e-01  -6.7716524e+06
   1.6165388e-09  -3.0546695e-03   4.7431613e-01   3.7396962e-01  -6.7319296e+06
   1.6192064e-09  -3.0367645e-03   4.7399490e-01   3.7423740e-01  -6.6924405e+06
   1.6218740e-09  -3.0189646e-03   4.7367573e-01   3.7450377e-01  -6.6531837e+06
   1.6245415e-09  -3.0012690e-03   4.7335863e-01   3.7476876e-01  -6.6141578e+06
   1.6272091e-09  -2.9836772e-03   4.7304357e-01   3.7503235e-01  -6.5753615e+06
   1.6298766e-09  -2.9661887e-03   4.7273054e-01   3.7529456e-01  -6.5367934e+06
   1.6325442e-09  -2.9488027e-03   4.7241953e-01   3.7555539e-01  -6.4984520e+06
   1.6352117e-09  -2.9315186e-03   4.7211051e-01   3.7581485e-01  -6.4603362e+06
   1.6378793e-09  -2.9143360e-03   4.7180349e-01   3.7607295e-01  -6.4224445e+06
   1.6405468e-09  -2.8972541e-03   4.7149844e-01   3.7632969e-01  -6.3847756e+06
   1.6432144e-09  -2.8802725e-03   4.7119534e-01   3.7658508e-01  -6.3473282e+06
   1.6458820e-09  -2.8633904e-03   4.7089420e-01   3.7683912e-01  -6.3101010e+06
   1.6485495e-09  -2.8466073e-03   4.7059498e-01   3.7709182e-01  -6.2730927e+06
   1.6512171e-09  -2.8299227e-03   4.7029769e-01   3.7734319e-01  -6.2363019e+06
   1.6538846e-09  -2.8133359e-03   4.7000230e-01   3.7759323e-01  -6.1997274e+06
   1.6565522e-09  -2.7968464e-03   4.6970881e-01   3.7784195e-01  -6.1633679e+06
   1.6592197e-09  -2.7804536e-03   4.6941719e-01   3.7808936e-01  -6.1272222e+06
   1.6618873e-09  -2.7641570e-03   4.6912745e-01   3.7833546e-01  -6.0912889e+06
   1.6645549e-09  -2.7479559e-03   4.6883955e-01   3.7858025e-01  -6.0555669e+06
   1.6672224e-09  -2.7318498e-03   4.6855350e-01   3.7882375e-01  -6.0200547e+06
   1.6698900e-09  -2.7158382e-03   4.6826928e-01   3.7906596e-01  -5.9847513e+06
   1.6725575e-09  -2.6999204e-03   4.6798687e-01   3.7930688e-01  -5.9496554e+06
   1.6752251e-09  -2.6840961e-03   4.6770627e-01   3.7954653e-01  -5.9147657e+06
   1.6778926e-09  -2.6683645e-03   4.6742745e-01   3.7978490e-01  -5.8800811e+06
   1.6805602e-09  -2.6527251e-03   4.6715042e-01   3.8002201e-01  -5.8456002e+06
   1.6832277e-09  -2.6371775e-03   4.6687515e-01   3.8025786e-01  -5.8113220e+06
   1.6858953e-09  -2.6217211e-03   4.6660164e-01   3.8049245e-01  -5.7772451e+06
   1.6885629e-09  -2.6063552e-03   4.6632987e-01   3.8072579e-01  -5.7433685e+06
   1.6912304e-09  -2.5910795e-03   4.6605983e-01   3.8095789e-01  -5.7096909e+06
   1.6938980e-09  -2.5758934e-03   4.6579151e-01   3.8118876e-01  -5.6762112e+06
   1.6965655e-09  -2.5607963e-03   4.6552490e-01   3.8141839e-01  -5.6429282e+06
   1.6992331e-09  -2.5457877e-03   4.6525998e-01   3.8164680e-01  -5.6098407e+06
   1.7019006e-09  -2.5308671e-03   4.6499675e-01   3.8187399e-01  -5.5769475e+06
   1.7045682e-09  -2.5160340e-03   4.6473519e-01   3.8209996e-01  -5.5442476e+06
   1.7072357e-09  -2.5012879e-03   4.6447529e-01   3.8232473e-01  -5.5117397e+06
   1.7099033e-09  -2.4866283e-03   4.6421704e-01   3.8254830e-01  -5.4794228e+06
   1.7125709e-09  -2.4720546e-03   4.6396043e-01   3.8277067e-01  -5.4472956e+06
   1.7152384e-09  -2.4575663e-03   4.6370544e-01   3.8299185e-01  -5.4153572e+06
   1.7179060e-09  -2.4431630e-03   4.6345208e-01   3.8321184e-01  -5.3836064e+06
   1.7205735e-09  -2.4288442e-03   4.6320032e-01   3.8343066e-01  -5.3520420e+06
   1.7232411e-09  -2.4146093e-03   4.6295015e-01   3.8364830e-01  -5.3206630e+06
   1.7259086e-09  -2.4004578e-03   4.6270157e-01   3.8386478e-01  -5.2894682e+06
   1.7285762e-09  -2.3863893e-03   4.6245456e-01   3.8408009e-01  -5.2584566e+06
   1.7312437e-09  -2.3724033e-03   4.6220911e-01   3.8429425e-01  -5.2276272e+06
   1.7339113e-09  -2.3584993e-03   4.6196521e-01   3.8450726e-01  -5.1969787e+06
   1.7365789e-09  -2.3446769e-03   4.6172286e-01   3.8471912e-01  -5.1665102e+06
   1.7392464e-09  -2.3309354e-03   4.6148203e-01   3.8492984e-01  -5.1362206e+06
   1.7419140e-09  -2.3172746e-03   4.6124273e-01   3.8513943e-01  -5.1061089e+06
   1.7445815e-09  -2.3036938e-03   4.6100494e-01   3.8534789e-01  -5.0761739e+06
   1.7472491e-09  -2.2901926e-03   4.6076865e-01   3.8555523e-01  -5.0464147e+06
   1.7499166e-09  -2.2767706e-03   4.6053385e-01   3.8576145e-01  -5.0168301e+06
   1.7525842e-09  -2.2634272e-03   4.6030053e-01   3.8596655e-01  -4.9874193e+06
   1.7552518e-09  -2.2501621e-03   4.6006867e-01   3.8617056e-01  -4.9581811e+06
   1.7579193e-09  -2.2369748e-03   4.5983828e-01   3.8637345e-01  -4.9291146e+06
   1.7605869e-09  -2.2238647e-03   4.5960934e-01   3.8657526e-01  -4.9002186e+06
   1.7632544e-09  -2.2108316e-03   4.5938185e-01   3.8677597e-01  -4.8714923e+06
   1.7659220e-09  -2.1978748e-03   4.5915578e-01   3.8697560e-01  -4.8429346e+06
   1.7685895e-09  -2.1849940e-03   4.5893113e-01   3.8717415e-01  -4.8145445e+06
   1.7712571e-09  -2.1721887e-03   4.5870790e-01   3.8737162e-01  -4.7863211e+06
   1.7739246e-09  -2.1594584e-03   4.5848607e-01   3.8756802e-01  -4.7582633e+06
   1.7765922e-09  -2.1468028e-03   4.5826563e-01   3.8776336e-01  -4.7303702e+06
   1.7792598e-09  -2.1342214e-03   4.5804658e-01   3.8795765e-01  -4.7026407e+06
   1.7819273e-09  -2.1217137e-03   4.5782890e-01   3.8815087e-01  -4.6750741e+06
   1.7845949e-09  -2.1092793e-03   4.5761259e-01   3.8834305e-01  -4.6476691e+06
   1.7872624e-09  -2.0969179e-03   4.5739763e-01   3.8853419e-01  -4.6204251e+06
   1.7899300e-09  -2.0846288e-03   4.5718402e-01   3.8872429e-01  -4.5933409e+06
   1.7925975e-09  -2.0724119e-03   4.5697175e-01   3.8891336e-01  -4.5664156e+06
   1.7952651e-09  -2.0602665e-03   4.5676081e-01   3.8910140e-01  -4.5396483e+06
   1.7979326e-09  -2.0481923e-03   4.5655119e-01   3.8928841e-01  -4.5130381e+06
   1.8006002e-09  -2.0361890e-03   4.5634288e-01   3.8947441e-01  -4.4865841e+06
   1.8032678e-09  -2.0242559e-03   4.5613588e-01   3.8965940e-01  -4.4602852e+06
   1.8059353e-09  -2.0123928e-03   4.5593017e-01   3.8984338e-01  -4.4341407e+06
   1.8086029e-09  -2.0005993e-03   4.5572575e-01   3.9002636e-01  -4.4081496e+06
   1.8112704e-09  -1.9888749e-03   4.5552261e-01   3.9020834e-01  -4.3823110e+06
   1.8139380e-09  -1.9772192e-03   4.5532073e-01   3.9038933e-01  -4.3566239e+06
   1.8166055e-09  -1.9656318e-03   4.5512012e-01   3.9056933e-01  -4.3310876e+06
   1.8192731e-09  -1.9541124e-03   4.5492075e-01   3.9074835e-01  -4.3057011e+06
   1.8219406e-09  -1.9426604e-03   4.5472264e-01   3.9092639e-01  -4.2804636e+06
   1.8246082e-09  -1.9312756e-03   4.5452575e-01   3.9110346e-01  -4.2553741e+06
   1.8272758e-09  -1.9199576e-03   4.5433010e-01   3.9127956e-01  -4.2304317e+06
   1.8299433e-09  -1.9087058e-03   4.5413567e-01   3.9145470e-01  -4.2056358e+06
   1.8326109e-09  -1.8975200e-03   4.5394245e-01   3.9162888e-01  -4.1809852e+06
   1.8352784e-09  -1.8863998e-03   4.5375043e-01   3.9180211e-01  -4.1564793e+06
   1.8379460e-09  -1.8753448e-03   4.5355960e-01   3.9197439e-01  -4.1321171e+06
   1.8406135e-09  -1.8643545e-03   4.5336997e-01   3.9214573e-01  -4.1078979e+06
   1.8432811e-09  -1.8534287e-03   4.5318152e-01   3.9231613e-01  -4.0838207e+06
   1.8459486e-09  -1.8425669e-03   4.5299424e-01   3.9248559e-01  -4.0598847e+06
   1.8486162e-09  -1.8317688e-03   4.5280812e-01   3.9265413e-01  -4.0360891e+06
   1.8512838e-09  -1.8210339e-03   4.5262316e-01   3.9282174e-01  -4.0124331e+06
   1.8539513e-09  -1.8103620e-03   4.5243935e-01   3.9298843e-01  -3.9889159e+06
   1.8566189e-09  -1.7997526e-03   4.5225668e-01   3.9315421e-01  -3.9655366e+06
   1.8592864e-09  -1.7892055e-03   4.5207515e-01   3.9331908e-01  -3.9422944e+06
   1.8619540e-09  -1.7787201e-03   4.5189475e-01   3.9348304e-01  -3.9191886e+06
   1.8646215e-09  -1.7682962e-03   4.5171546e-01   3.9364610e-01  -3.8962182e+06
   1.8672891e-09  -1.7579334e-03   4.5153729e-01   3.9380826e-01  -3.8733826e+06
   1.8699567e-09  -1.7476313e-03   4.5136022e-01   3.9396954e-01  -3.8506809e+06
   1.8726242e-09  -1.7373896e-03   4.5118425e-01   3.9412992e-01  -3.8281124e+06
   1.8752918e-09  -1.7272079e-03   4.5100937e-01   3.9428942e-01  -3.8056762e+06
   1.8779593e-09  -1.7170859e-03   4.5083557e-01   3.9444805e-01  -3.7833716e+06
   1.8806269e-09  -1.7070232e-03   4.5066286e-01   3.9460580e-01  -3.7611978e+06
   1.8832944e-09  -1.6970195e-03   4.5049121e-01   3.9476268e-01  -3.7391540e+06
   1.8859620e-09  -1.6870744e-03   4.5032062e-01   3.9491870e-01  -3.7172395e+06
   1.8886295e-09  -1.6771876e-03   4.5015109e-01   3.9507385e-01  -3.6954535e+06
   1.8912971e-09  -1.6673588e-03   4.4998261e-01   3.9522815e-01  -3.6737953e+06
   1.8939647e-09  -1.6575875e-03   4.4981517e-01   3.9538160e-01  -3.6522641e+06
   1.8966322e-09  -1.6478736e-03   4.4964877e-01   3.9553421e-01  -3.6308591e+06
   1.8992998e-09  -1.6382165e-03   4.4948339e-01   3.9568597e-01  -3.6095797e+06
   1.9019673e-09  -1.6286161e-03   4.4931904e-01   3.9583689e-01  -3.5884250e+06
   1.9046349e-09  -1.6190719e-03   4.4915570e-01   3.9598697e-01  -3.5673944e+06
   1.9073024e-09  -1.6095837e-03   4.4899337e-01   3.9613623e-01  -3.5464871e+06
   1.9099700e-09  -1.6001510e-03   4.4883204e-01   3.9628466e-01  -3.5257024e+06
   1.9126375e-09  -1.5907737e-03   4.4867171e-01   3.9643228e-01  -3.5050396e+06
   1.9153051e-09  -1.5814513e-03   4.4851237e-01   3.9657907e-01  -3.4844979e+06
   1.9179727e-09  -1.5721835e-03   4.4835401e-01   3.9672505e-01  -3.4640767e+06
   1.9206402e-09  -1.5629701e-03   4.4819663e-01   3.9687022e-01  -3.4437752e+06
   1.9233078e-09  -1.5538106e-03   4.4804022e-01   3.9701459e-01  -3.4235927e+06
   1.9259753e-09  -1.5447049e-03   4.4788477e-01   3.9715816e-01  -3.4035286e+06
   1.9286429e-09  -1.5356525e-03   4.4773028e-01   3.9730094e-01  -3.3835821e+06
   1.9313104e-09  -1.5266531e-03   4.4757675e-01   3.9744292e-01  -3.3637525e+06
   1.9339780e-09  -1.5177065e-03   4.4742415e-01   3.9758411e-01  -3.3440393e+06
   1.9366455e-09  -1.5088123e-03   4.4727250e-01   3.9772452e-01  -3.3244416e+06
   1.9393131e-09  -1.4999703e-03   4.4712178e-01   3.9786415e-01  -3.3049588e+06
   1.9419807e-09  -1.4911800e-03   4.4697199e-01   3.9800301e-01  -3.2855902e+06
   1.9446482e-09  -1.4824413e-03   4.4682312e-01   3.9814110e-01  -3.2663352e+06
   1.9473158e-09  -1.4737538e-03   4.4667516e-01   3.9827841e-01  -3.2471930e+06
   1.9499833e-09  -1.4651172e-03   4.4652812e-01   3.9841497e-01  -3.2281631e+06
   1.9526509e-09  -1.4565312e-03   4.4638198e-01   3.9855076e-01  -3.2092448e+06
   1.9553184e-09  -1.4479956e-03   4.4623673e-01   3.9868580e-01  -3.1904373e+06
   1.9579860e-09  -1.4395099e-03   4.4609238e-01   3.9882009e-01  -3.1717401e+06
   1.9606536e-09  -1.4310740e-03   4.4594891e-01   3.9895363e-01  -3.1531526e+06
   1.9633211e-09  -1.4226875e-03   4.4580633e-01   3.9908643e-01  -3.1346740e+06
   1.9659887e-09  -1.4143502e-03   4.4566462e-01   3.9921849e-01  -3.1163037e+06
   1.9686562e-09  -1.4060617e-03   4.4552378e-01   3.9934981e-01  -3.0980411e+06
   1.9713238e-09  -1.3978218e-03   4.4538381e-01   3.9948040e-01  -3.0798856e+06
   1.9739913e-09  -1.3896302e-03   4.4524469e-01   3.9961027e-01  -3.0618365e+06
   1.9766589e-09  -1.3814866e-03   4.4510642e-01   3.9973941e-01  -3.0438932e+06
   1.9793264e-09  -1.3733908e-03   4.4496901e-01   3.9986783e-01  -3.0260551e+06
   1.9819940e-09  -1.3653423e-03   4.4483243e-01   3.9999553e-01  -3.0083215e+06
   1.9846616e-09  -1.3573411e-03   4.4469670e-01   4.0012252e-01  -2.9906920e+06
   1.9873291e-09  -1.3493867e-03   4.4456179e-01   4.0024880e-01  -2.9731657e+06
   1.9899967e-09  -1.3414789e-03   4.4442771e-01   4.0037438e-01  -2.9557422e+06
   1.9926642e-09  -1.3336175e-03   4.4429445e-01   4.0049926e-01  -2.9384208e+06
   1.9953318e-09  -1.3258022e-03   4.4416201e-01   4.0062343e-01  -2.9212010e+06
   1.9979993e-09  -1.3180326e-03   4.4403037e-01   4.0074692e-01  -2.9040821e+06
   2.0006669e-09  -1.3103086e-03   4.4389955e-01   4.0086971e-01  -2.8870635e+06
   2.0033344e-09  -1.3026298e-03   4.4376952e-01   4.0099182e-01  -2.8701447e+06
   2.0060020e-09  -1.2949961e-03   4.4364029e-01   4.0111324e-01  -2.8533251e+06
   2.0086696e-09  -1.2874071e-03   4.4351184e-01   4.0123399e-01  -2.8366041e+06
   2.0113371e-09  -1.2798625e-03   4.4338419e-01   4.0135406e-01  -2.8199811e+06
   2.0140047e-09  -1.2723622e-03   4.4325731e-01   4.0147345e-01  -2.8034555e+06
   2.0166722e-09  -1.2649058e-03   4.4313121e-01   4.0159218e-01  -2.7870267e+06
   2.0193398e-09  -1.2574931e-03   4.4300587e-01   4.0171024e-01  -2.7706943e+06
   2.0220073e-09  -1.2501239e-03   4.4288131e-01   4.0182765e-01  -2.7544576e+06
   2.0246749e-09  -1.2427978e-03   4.4275750e-01   4.0194439e-01  -2.7383161e+06
   2.0273424e-09  -1.2355147e-03   4.4263445e-01   4.0206048e-01  -2.7222691e+06
   2.0300100e-09  -1.2282743e-03   4.4251215e-01   4.0217592e-01  -2.7063163e+06
   2.0326776e-09  -1.2210763e-03   4.4239059e-01   4.0229071e-01  -2.6904569e+06
   2.0353451e-09  -1.2139204e-03   4.4226978e-01   4.0240486e-01  -2.6746905e+06
   2.0380127e-09  -1.2068065e-03   4.4214971e-01   4.0251837e-01  -2.6590165e+06
   2.0406802e-09  -1.1997343e-03   4.4203036e-01   4.0263124e-01  -2.6434344e+06
   2.0433478e-09  -1.1927035e-03   4.4191174e-01   4.0274347e-01  -2.6279436e+06
   2.0460153e-09  -1.1857140e-03   4.4179385e-01   4.0285508e-01  -2.6125436e+06
   2.0486829e-09  -1.1787654e-03   4.4167667e-01   4.0296606e-01  -2.5972338e+06
   2.0513505e-09  -1.1718575e-03   4.4156021e-01   4.0307641e-01  -2.5820138e+06
   2.0540180e-09  -1.1649901e-03   4.4144446e-01   4.0318615e-01  -2.5668830e+06
   2.0566856e-09  -1.1581629e-03   4.4132941e-01   4.0329527e-01  -2.5518408e+06
   2.0593531e-09  -1.1513758e-03   4.4121506e-01   4.0340377e-01  -2.5368868e+06
   2.0620207e-09  -1.1446284e-03   4.4110141e-01   4.0351167e-01  -2.5220205e+06
   2.0646882e-09  -1.1379205e-03   4.4098845e-01   4.0361896e-01  -2.5072413e+06
   2.0673558e-09  -1.1312520e-03   4.4087618e-01   4.0372564e-01  -2.4925487e+06
   2.0700233e-09  -1.1246226e-03   4.4076458e-01   4.0383172e-01  -2.4779422e+06
   2.0726909e-09  -1.1180320e-03   4.4065367e-01   4.0393721e-01  -2.4634214e+06
   2.0753585e-09  -1.1114800e-03   4.4054343e-01   4.0404210e-01  -2.4489856e+06
   2.0780260e-09  -1.1049664e-03   4.4043387e-01   4.0414641e-01  -2.4346344e+06
   2.0806936e-09  -1.0984910e-03   4.4032496e-01   4.0425012e-01  -2.4203674e+06
   2.0833611e-09  -1.0920535e-03   4.4021672e-01   4.0435325e-01  -2.4061839e+06
   2.0860287e-09  -1.0856537e-03   4.4010914e-01   4.0445580e-01  -2.3920836e+06
   2.0886962e-09  -1.0792915e-03   4.4000221e-01   4.0455777e-01  -2.3780659e+06
   2.0913638e-09  -1.0729665e-03   4.3989593e-01   4.0465916e-01  -2.3641304e+06
   2.0940313e-09  -1.0666786e-03   4.3979029e-01   4.0475999e-01  -2.3502765e+06
   2.0966989e-09  -1.0604276e-03   4.3968530e-01   4.0486024e-01  -2.3365038e+06
   2.0993665e-09  -1.0542132e-03   4.3958094e-01   4.0495993e-01  -2.3228119e+06
   2.1020340e-09  -1.0480352e-03   4.3947721e-01   4.0505906e-01  -2.3092002e+06
   2.1047016e-09  -1.0418934e-03   4.3937412e-01   4.0515763e-01  -2.2956682e+06
   2.1073691e-09  -1.0357876e-03   4.3927165e-01   4.0525564e-01  -2.2822156e+06
   2.1100367e-09  -1.0297175e-03   4.3916980e-01   4.0535309e-01  -2.2688418e+06
   2.1127042e-09  -1.0236831e-03   4.3906856e-01   4.0545000e-01  -2.2555463e+06
   2.1153718e-09  -1.0176840e-03   4.3896795e-01   4.0554636e-01  -2.2423288e+06
   2.1180393e-09  -1.0117201e-03   4.3886794e-01   4.0564217e-01  -2.2291888e+06
   2.1207069e-09  -1.0057911e-03   4.3876853e-01   4.0573744e-01  -2.2161257e+06
   2.1233745e-09  -9.9989682e-04   4.3866973e-01   4.0583218e-01  -2.2031392e+06
   2.1260420e-09  -9.9403711e-04   4.3857153e-01   4.0592638e-01  -2.1902288e+06
   2.1287096e-09  -9.8821174e-04   4.3847392e-01   4.0602004e-01  -2.1773941e+06
   2.1313771e-09  -9.8242051e-04   4.3837691e-01   4.0611318e-01  -2.1646346e+06
   2.1340447e-09  -9.7666322e-04   4.3828048e-01   4.0620579e-01  -2.1519498e+06
   2.1367122e-09  -9.7093966e-04   4.3818463e-01   4.0629787e-01  -2.1393394e+06
   2.1393798e-09  -9.6524964e-04   4.3808936e-01   4.0638943e-01  -2.1268029e+06
   2.1420473e-09  -9.5959297e-04   4.3799467e-01   4.0648048e-01  -2.1143399e+06
   2.1447149e-09  -9.5396945e-04   4.3790056e-01   4.0657101e-01  -2.1019499e+06
   2.1473825e-09  -9.4837887e-04   4.3780701e-01   4.0666102e-01  -2.0896325e+06
   2.1500500e-09  -9.4282106e-04   4.3771402e-01   4.0675053e-01  -2.0773872e+06
   2.1527176e-09  -9.3729582e-04   4.3762160e-01   4.0683953e-01  -2.0652138e+06
   2.1553851e-09  -9.3180296e-04   4.3752974e-01   4.0692802e-01  -2.0531117e+06
   2.1580527e-09  -9.2634228e-04   4.3743843e-01   4.0701601e-01  -2.0410805e+06
   2.1607202e-09  -9.2091361e-04   4.3734768e-01   4.0710351e-01  -2.0291198e+06
   2.1633878e-09  -9.1551674e-04   4.3725747e-01   4.0719051e-01  -2.0172292e+06
   2.1660554e-09  -9.1015151e-04   4.3716781e-01   4.0727701e-01  -2.0054082e+06
   2.1687229e-09  -9.0481771e-04   4.3707869e-01   4.0736302e-01  -1.9936566e+06
   2.1713905e-09  -8.9951517e-04   4.3699010e-01   4.0744855e-01  -1.9819738e+06
   2.1740580e-09  -8.9424370e-04   4.3690205e-01   4.0753359e-01  -1.9703594e+06
   2.1767256e-09  -8.8900312e-04   4.3681454e-01   4.0761814e-01  -1.9588132e+06
   2.1793931e-09  -8.8379325e-04   4.3672755e-01   4.0770222e-01  -1.9473346e+06
   2.1820607e-09  -8.7861391e-04   4.3664108e-01   4.0778582e-01  -1.9359232e+06
   2.1847282e-09  -8.7346493e-04   4.3655514e-01   4.0786895e-01  -1.9245787e+06
   2.1873958e-09  -8.6834611e-04   4.3646972e-01   4.0795160e-01  -1.9133007e+06
   2.1900634e-09  -8.6325729e-04   4.3638481e-01   4.0803378e-01  -1.9020888e+06
   2.1927309e-09  -8.5819830e-04   4.3630041e-01   4.0811550e-01  -1.8909426e+06
   2.1953985e-09  -8.5316894e-04   4.3621652e-01   4.0819675e-01  -1.8798617e+06
   2.1980660e-09  -8.4816906e-04   4.3613314e-01   4.0827754e-01  -1.8688458e+06
   2.2007336e-09  -8.4319848e-04   4.3605026e-01   4.0835787e-01  -1.8578944e+06
   2.2034011e-09  -8.3825703e-04   4.3596788e-01   4.0843774e-01  -1.8470071e+06
   2.2060687e-09  -8.3334453e-04   4.3588599e-01   4.0851716e-01  -1.8361837e+06
   2.2087362e-09  -8.2846083e-04   4.3580460e-01   4.0859612e-01  -1.8254237e+06
   2.2114038e-09  -8.2360574e-04   4.3572370e-01   4.0867464e-01  -1.8147267e+06
   2.2140714e-09  -8.1877910e-04   4.3564328e-01   4.0875271e-01  -1.8040925e+06
   2.2167389e-09  -8.1398074e-04   4.3556335e-01   4.0883034e-01  -1.7935205e+06
   2.2194065e-09  -8.0921050e-04   4.3548391e-01   4.0890752e-01  -1.7830105e+06
   2.2220740e-09  -8.0446822e-04   4.3540493e-01   4.0898427e-01  -1.7725621e+06
   2.2247416e-09  -7.9975373e-04   4.3532644e-01   4.0906057e-01  -1.7621749e+06
   2.2274091e-09  -7.9506686e-04   4.3524842e-01   4.0913645e-01  -1.7518485e+06
   2.2300767e-09  -7.9040746e-04   4.3517086e-01   4.0921189e-01  -1.7415827e+06
   2.2327442e-09  -7.8577536e-04   4.3509377e-01   4.0928690e-01  -1.7313770e+06
   2.2354118e-09  -7.8117041e-04   4.3501715e-01   4.0936148e-01  -1.7212312e+06
   2.2380794e-09  -7.7659244e-04   4.3494099e-01   4.0943564e-01  -1.7111448e+06
   2.2407469e-09  -7.7204130e-04   4.3486528e-01   4.0950937e-01  -1.7011175e+06
   2.2434145e-09  -7.6751683e-04   4.3479003e-01   4.0958269e-01  -1.6911489e+06
   2.2460820e-09  -7.6301887e-04   4.3471523e-01   4.0965559e-01  -1.6812388e+06
   2.2487496e-09  -7.5854727e-04   4.3464089e-01   4.0972807e-01  -1.6713867e+06
   2.2514171e-09  -7.5410187e-04   4.3456698e-01   4.0980013e-01  -1.6615924e+06
   2.2540847e-09  -7.4968253e-04   4.3449353e-01   4.0987179e-01  -1.6518554e+06
   2.2567523e-09  -7.4528908e-04   4.3442051e-01   4.0994304e-01  -1.6421756e+06
   2.2594198e-09  -7.4092138e-04   4.3434793e-01   4.1001388e-01  -1.6325524e+06
   2.2620874e-09  -7.3657927e-04   4.3427579e-01   4.1008432e-01  -1.6229856e+06
   2.2647549e-09  -7.3226261e-04   4.3420408e-01   4.1015435e-01  -1.6134749e+06
   2.2674225e-09  -7.2797124e-04   4.3413280e-01   4.1022398e-01  -1.6040199e+06
   2.2700900e-09  -7.2370502e-04   4.3406195e-01   4.1029322e-01  -1.5946203e+06
   2.2727576e-09  -7.1946380e-04   4.3399153e-01   4.1036206e-01  -1.5852758e+06
   2.2754251e-09  -7.1524743e-04   4.3392152e-01   4.1043051e-01  -1.5759861e+06
   2.2780927e-09  -7.1105578e-04   4.3385194e-01   4.1049857e-01  -1.5667508e+06
   2.2807603e-09  -7.0688868e-04   4.3378278e-01   4.1056623e-01  -1.5575696e+06
   2.2834278e-09  -7.0274601e-04   4.3371403e-01   4.1063351e-01  -1.5484422e+06
   2.2860954e-09  -6.9862761e-04   4.3364569e-01   4.1070041e-01  -1.5393683e+06
   2.2887629e-09  -6.9453334e-04   4.3357776e-01   4.1076693e-01  -1.5303475e+06
   2.2914305e-09  -6.9046307e-04   4.3351024e-01   4.1083306e-01  -1.5213796e+06
   2.2940980e-09  -6.8641665e-04   4.3344312e-01   4.1089881e-01  -1.5124643e+06
   2.2967656e-09  -6.8239394e-04   4.3337641e-01   4.1096419e-01  -1.5036012e+06
   2.2994331e-09  -6.7839481e-04   4.3331010e-01   4.1102920e-01  -1.4947900e+06
   2.3021007e-09  -6.7441911e-04   4.3324418e-01   4.1109383e-01  -1.4860305e+06
   2.3047683e-09  -6.7046671e-04   4.3317866e-01   4.1115810e-01  -1.4773223e+06
   2.3074358e-09  -6.6653746e-04   4.3311353e-01   4.1122199e-01  -1.4686651e+06
   2.3101034e-09  -6.6263125e-04   4.3304879e-01   4.1128552e-01  -1.4600587e+06
   2.3127709e-09  -6.5874793e-04   4.3298444e-01   4.1134869e-01  -1.4515027e+06
   2.3154385e-09  -6.5488736e-04   4.3292048e-01   4.1141149e-01  -1.4429968e+06
   2.3181060e-09  -6.5104941e-04   4.3285689e-01   4.1147394e-01  -1.4345408e+06
   2.3207736e-09  -6.4723396e-04   4.3279369e-01   4.1153603e-01  -1.4261343e+06
   2.3234411e-09  -6.4344086e-04   4.3273087e-01   4.1159776e-01  -1.4177770e+06
   2.3261087e-09  -6.3967000e-04   4.3266842e-01   4.1165914e-01  -1.4094688e+06
   2.3287763e-09  -6.3592123e-04   4.3260635e-01   4.1172016e-01  -1.4012092e+06
   2.3314438e-09  -6.3219442e-04   4.3254465e-01   4.1178084e-01  -1.3929980e+06
   2.3341114e-09  -6.2848946e-04   4.3248332e-01   4.1184117e-01  -1.3848350e+06
   2.3367789e-09  -6.2480621e-04   4.3242235e-01   4.1190115e-01  -1.3767197e+06
   2.3394465e-09  -6.2114454e-04   4.3236175e-01   4.1196079e-01  -1.3686521e+06
   2.3421140e-09  -6.1750433e-04   4.3230151e-01   4.1202009e-01  -1.3606316e+06
   2.3447816e-09  -6.1388546e-04   4.3224163e-01   4.1207905e-01  -1.3526582e+06
   2.3474491e-09  -6.1028779e-04   4.3218211e-01   4.1213767e-01  -1.3447316e+06
   2.3501167e-09  -6.0671120e-04   4.3212295e-01   4.1219595e-01  -1.3368513e+06
   2.3527843e-09  -6.0315557e-04   4.3206414e-01   4.1225390e-01  -1.3290173e+06
   2.3554518e-09  -5.9962078e-04   4.3200568e-01   4.1231152e-01  -1.3212291e+06
   2.3581194e-09  -5.9610670e-04   4.3194757e-01   4.1236880e-01  -1.3134866e+06
   2.3607869e-09  -5.9261322e-04   4.3188981e-01   4.1242576e-01  -1.3057894e+06
   2.3634545e-09  -5.8914020e-04   4.3183239e-01   4.1248239e-01  -1.2981374e+06
   2.3661220e-09  -5.8568754e-04   4.3177532e-01   4.1253870e-01  -1.2905301e+06
   2.3687896e-09  -5.8225511e-04   4.3171859e-01   4.1259468e-01  -1.2829675e+06
   2.3714572e-09  -5.7884280e-04   4.3166219e-01   4.1265034e-01  -1.2754492e+06
   2.3741247e-09  -5.7545048e-04   4.3160614e-01   4.1270568e-01  -1.2679749e+06
   2.3767923e-09  -5.7207805e-04   4.3155041e-01   4.1276070e-01  -1.2605444e+06
   2.3794598e-09  -5.6872537e-04   4.3149502e-01   4.1281541e-01  -1.2531575e+06
   2.3821274e-09  -5.6539235e-04   4.3143997e-01   4.1286980e-01  -1.2458139e+06
   2.3847949e-09  -5.6207885e-04   4.3138524e-01   4.1292388e-01  -1.2385132e+06
   2.3874625e-09  -5.5878477e-04   4.3133083e-01   4.1297765e-01  -1.2312554e+06
   2.3901300e-09  -5.5551000e-04   4.3127676e-01   4.1303112e-01  -1.2240401e+06
   2.3927976e-09  -5.5225442e-04   4.3122300e-01   4.1308427e-01  -1.2168671e+06
   2.3954652e-09  -5.4901791e-04   4.3116957e-01   4.1313712e-01  -1.2097361e+06
   2.3981327e-09  -5.4580037e-04   4.3111645e-01   4.1318966e-01  -1.2026468e+06
   2.4008003e-09  -5.4260169e-04   4.3106365e-01   4.1324190e-01  -1.1955992e+06
   2.4034678e-09  -5.3942175e-04   4.3101117e-01   4.1329385e-01  -1.1885928e+06
   2.4061354e-09  -5.3626044e-04   4.3095900e-01   4.1334549e-01  -1.1816275e+06
   2.4088029e-09  -5.3311767e-04   4.3090714e-01   4.1339684e-01  -1.1747030e+06
   2.4114705e-09  -5.2999331e-04   4.3085559e-01   4.1344789e-01  -1.1678190e+06
   2.4141380e-09  -5.2688725e-04   4.3080435e-01   4.1349865e-01  -1.1609754e+06
   2.4168056e-09  -5.2379940e-04   4.3075341e-01   4.1354911e-01  -1.1541719e+06
   2.4194732e-09  -5.2072965e-04   4.3070278e-01   4.1359929e-01  -1.1474083e+06
   2.4221407e-09  -5.1767788e-04   4.3065245e-01   4.1364917e-01  -1.1406843e+06
   2.4248083e-09  -5.1464400e-04   4.3060241e-01   4.1369877e-01  -1.1339997e+06
   2.4274758e-09  -5.1162790e-04   4.3055268e-01   4.1374809e-01  -1.1273543e+06
   2.4301434e-09  -5.0862947e-04   4.3050325e-01   4.1379712e-01  -1.1207478e+06
   2.4328109e-09  -5.0564862e-04   4.3045410e-01   4.1384586e-01  -1.1141800e+06
   2.4354785e-09  -5.0268523e-04   4.3040525e-01   4.1389433e-01  -1.1076507e+06
   2.4381460e-09  -4.9973921e-04   4.3035670e-01   4.1394252e-01  -1.1011597e+06
   2.4408136e-09  -4.9681045e-04   4.3030843e-01   4.1399043e-01  -1.0947067e+06
   2.4434812e-09  -4.9389885e-04   4.3026045e-01   4.1403807e-01  -1.0882915e+06
   2.4461487e-09  -4.9100432e-04   4.3021275e-01   4.1408543e-01  -1.0819139e+06
   2.4488163e-09  -4.8812675e-04   4.3016534e-01   4.1413251e-01  -1.0755737e+06
   2.4514838e-09  -4.8526605e-04   4.3011821e-01   4.1417933e-01  -1.0692706e+06
   2.4541514e-09  -4.8242211e-04   4.3007136e-01   4.1422588e-01  -1.0630045e+06
   2.4568189e-09  -4.7959483e-04   4.3002480e-01   4.1427216e-01  -1.0567751e+06
   2.4594865e-09  -4.7678412e-04   4.2997850e-01   4.1431817e-01  -1.0505822e+06
   2.4621541e-09  -4.7398989e-04   4.2993249e-01   4.1436392e-01  -1.0444255e+06
   2.4648216e-09  -4.7121202e-04   4.2988675e-01   4.1440940e-01  -1.0383050e+06
   2.4674892e-09  -4.6845044e-04   4.2984128e-01   4.1445462e-01  -1.0322203e+06
   2.4701567e-09  -4.6570504e-04   4.2979608e-01   4.1449958e-01  -1.0261713e+06
   2.4728243e-09  -4.6297573e-04   4.2975115e-01   4.1454428e-01  -1.0201577e+06
   2.4754918e-09  -4.6026242e-04   4.2970648e-01   4.1458872e-01  -1.0141793e+06
   2.4781594e-09  -4.5756500e-04   4.2966209e-01   4.1463291e-01  -1.0082360e+06
   2.4808269e-09  -4.5488339e-04   4.2961795e-01   4.1467684e-01  -1.0023275e+06
   2.4834945e-09  -4.5221750e-04   4.2957408e-01   4.1472052e-01  -9.9645364e+05
   2.4861621e-09  -4.4956723e-04   4.2953047e-01   4.1476395e-01  -9.9061418e+05
   2.4888296e-09  -4.4693249e-04   4.2948712e-01   4.1480713e-01  -9.8480895e+05
   2.4914972e-09  -4.4431319e-04   4.2944403e-01   4.1485005e-01  -9.7903773e+05
   2.4941647e-09  -4.4170924e-04   4.2940120e-01   4.1489273e-01  -9.7330033e+05
   2.4968323e-09  -4.3912055e-04   4.2935862e-01   4.1493517e-01  -9.6759655e+05
   2.4994998e-09  -4.3654704e-04   4.2931629e-01   4.1497736e-01  -9.6192620e+05
   2.5021674e-09  -4.3398860e-04   4.2927421e-01   4.1501930e-01  -9.5628907e+05
   2.5048349e-09  -4.3144515e-04   4.2923239e-01   4.1506100e-01  -9.5068497e+05
   2.5075025e-09  -4.2891662e-04   4.2919081e-01   4.1510247e-01  -9.4511371e+05
   2.5101701e-09  -4.2640289e-04   4.2914948e-01   4.1514369e-01  -9.3957509e+05
   2.5128376e-09  -4.2390390e-04   4.2910839e-01   4.1518467e-01  -9.3406893e+05
   2.5155052e-09  -4.2141956e-04   4.2906755e-01   4.1522542e-01  -9.2859504e+05
   2.5181727e-09  -4.1894977e-04   4.2902696e-01   4.1526594e-01  -9.2315322e+05
   2.5208403e-09  -4.1649446e-04   4.2898660e-01   4.1530622e-01  -9.1774329e+05
   2.5235078e-09  -4.1405354e-04   4.2894648e-01   4.1534626e-01  -9.1236506e+05
   2.5261754e-09  -4.1162692e-04   4.2890661e-01   4.1538608e-01  -9.0701834e+05
   2.5288429e-09  -4.0921452e-04   4.2886696e-01   4.1542566e-01  -9.0170296e+05
   2.5315105e-09  -4.0681626e-04   4.2882756e-01   4.1546502e-01  -8.9641872e+05
   2.5341781e-09  -4.0443205e-04   4.2878839e-01   4.1550415e-01  -8.9116544e+05
   2.5368456e-09  -4.0206182e-04   4.2874945e-01   4.1554305e-01  -8.8594295e+05
   2.5395132e-09  -3.9970547e-04   4.2871074e-01   4.1558173e-01  -8.8075106e+05
   2.5421807e-09  -3.9736294e-04   4.2867226e-01   4.1562018e-01  -8.7558960e+05
   2.5448483e-09  -3.9503413e-04   4.2863401e-01   4.1565842e-01  -8.7045838e+05
   2.5475158e-09  -3.9271897e-04   4.2859599e-01   4.1569643e-01  -8.6535723e+05
   2.5501834e-09  -3.9041738e-04   4.2855819e-01   4.1573422e-01  -8.6028596e+05
   2.5528510e-09  -3.8812927e-04   4.2852062e-01   4.1577179e-01  -8.5524442e+05
   2.5555185e-09  -3.8585458e-04   4.2848327e-01   4.1580915e-01  -8.5023242e+05
   2.5581861e-09  -3.8359321e-04   4.2844615e-01   4.1584629e-01  -8.4524979e+05
   2.5608536e-09  -3.8134510e-04   4.2840924e-01   4.1588322e-01  -8.4029635e+05
   2.5635212e-09  -3.7911016e-04   4.2837255e-01   4.1591993e-01  -8.3537194e+05
   2.5661887e-09  -3.7688832e-04   4.2833608e-01   4.1595643e-01  -8.3047639e+05
   2.5688563e-09  -3.7467950e-04   4.2829983e-01   4.1599272e-01  -8.2560952e+05
   2.5715238e-09  -3.7248362e-04   4.2826379e-01   4.1602879e-01  -8.2077117e+05
   2.5741914e-09  -3.7030062e-04   4.2822796e-01   4.1606466e-01  -8.1596118e+05
   2.5768590e-09  -3.6813040e-04   4.2819235e-01   4.1610033e-01  -8.1117937e+05
   2.5795265e-09  -3.6597291e-04   4.2815695e-01   4.1613578e-01  -8.0642558e+05
   2.5821941e-09  -3.6382806e-04   4.2812176e-01   4.1617103e-01  -8.0169964e+05
   2.5848616e-09  -3.6169578e-04   4.2808678e-01   4.1620608e-01  -7.9700140e+05
   2.5875292e-09  -3.5957599e-04   4.2805200e-01   4.1624093e-01  -7.9233070e+05
   2.5901967e-09  -3.5746863e-04   4.2801744e-01   4.1627557e-01  -7.8768736e+05
   2.5928643e-09  -3.5537361e-04   4.2798307e-01   4.1631001e-01  -7.8307123e+05
   2.5955318e-09  -3.5329088e-04   4.2794891e-01   4.1634425e-01  -7.7848214e+05
   2.5981994e-09  -3.5122035e-04   4.2791496e-01   4.1637830e-01  -7.7391996e+05
   2.6008670e-09  -3.4916195e-04   4.2788120e-01   4.1641215e-01  -7.6938450e+05
   2.6035345e-09  -3.4711562e-04   4.2784764e-01   4.1644580e-01  -7.6487562e+05
   2.6062021e-09  -3.4508127e-04   4.2781429e-01   4.1647925e-01  -7.6039316e+05
   2.6088696e-09  -3.4305886e-04   4.2778113e-01   4.1651252e-01  -7.5593697e+05
   2.6115372e-09  -3.4104829e-04   4.2774817e-01   4.1654559e-01  -7.5150690e+05
   2.6142047e-09  -3.3904950e-04   4.2771540e-01   4.1657847e-01  -7.4710278e+05
   2.6168723e-09  -3.3706243e-04   4.2768283e-01   4.1661116e-01  -7.4272447e+05
   2.6195398e-09  -3.3508701e-04   4.2765045e-01   4.1664365e-01  -7.3837181e+05
   2.6222074e-09  -3.3312316e-04   4.2761826e-01   4.1667597e-01  -7.3404466e+05
   2.6248750e-09  -3.3117082e-04   4.2758626e-01   4.1670809e-01  -7.2974287e+05
   2.6275425e-09  -3.2922992e-04   4.2755445e-01   4.1674003e-01  -7.2546629e+05
   2.6302101e-09  -3.2730040e-04   4.2752284e-01   4.1677178e-01  -7.2121477e+05
   2.6328776e-09  -3.2538218e-04   4.2749140e-01   4.1680335e-01  -7.1698816e+05
   2.6355452e-09  -3.2347520e-04   4.2746016e-01   4.1683474e-01  -7.1278631e+05
   2.6382127e-09  -3.2157941e-04   4.2742910e-01   4.1686594e-01  -7.0860909e+05
   2.6408803e-09  -3.1969472e-04   4.2739822e-01   4.1689696e-01  -7.0445635e+05
   2.6435478e-09  -3.1782107e-04   4.2736753e-01   4.1692781e-01  -7.0032794e+05
   2.6462154e-09  -3.1595841e-04   4.2733702e-01   4.1695847e-01  -6.9622373e+05
   2.6488830e-09  -3.1410666e-04   4.2730669e-01   4.1698896e-01  -6.9214356e+05
   2.6515505e-09  -3.1226577e-04   4.2727653e-01   4.1701927e-01  -6.8808731e+05
   2.6542181e-09  -3.1043566e-04   4.2724656e-01   4.1704940e-01  -6.8405482e+05
   2.6568856e-09  -3.0861628e-04   4.2721677e-01   4.1707936e-01  -6.8004597e+05
   2.6595532e-09  -3.0680756e-04   4.2718715e-01   4.1710915e-01  -6.7606060e+05
   2.6622207e-09  -3.0500944e-04   4.2715770e-01   4.1713876e-01  -6.7209859e+05
   2.6648883e-09  -3.0322186e-04   4.2712843e-01   4.1716820e-01  -6.6815980e+05
   2.6675559e-09  -3.0144475e-04   4.2709934e-01   4.1719747e-01  -6.6424409e+05
   2.6702234e-09  -2.9967806e-04   4.2707042e-01   4.1722658e-01  -6.6035132e+05
   2.6728910e-09  -2.9792172e-04   4.2704166e-01   4.1725551e-01  -6.5648137e+05
   2.6755585e-09  -2.9617568e-04   4.2701308e-01   4.1728427e-01  -6.5263409e+05
   2.6782261e-09  -2.9443986e-04   4.2698467e-01   4.1731287e-01  -6.4880936e+05
   2.6808936e-09  -2.9271422e-04   4.2695642e-01   4.1734130e-01  -6.4500704e+05
   2.6835612e-09  -2.9099870e-04   4.2692834e-01   4.1736957e-01  -6.4122700e+05
   2.6862287e-09  -2.8929323e-04   4.2690043e-01   4.1739767e-01  -6.3746911e+05
   2.6888963e-09  -2.8759775e-04   4.2687269e-01   4.1742561e-01  -6.3373325e+05
   2.6915639e-09  -2.8591221e-04   4.2684510e-01   4.1745339e-01  -6.3001927e+05
   2.6942314e-09  -2.8423654e-04   4.2681768e-01   4.1748101e-01  -6.2632706e+05
   2.6968990e-09  -2.8257070e-04   4.2679043e-01   4.1750846e-01  -6.2265649e+05
   2.6995665e-09  -2.8091462e-04   4.2676333e-01   4.1753576e-01  -6.1900743e+05
   2.7022341e-09  -2.7926824e-04   4.2673640e-01   4.1756290e-01  -6.1537975e+05
   2.7049016e-09  -2.7763152e-04   4.2670962e-01   4.1758988e-01  -6.1177332e+05
   2.7075692e-09  -2.7600438e-04   4.2668300e-01   4.1761671e-01  -6.0818804e+05
   2.7102367e-09  -2.7438678e-04   4.2665654e-01   4.1764338e-01  -6.0462376e+05
   2.7129043e-09  -2.7277866e-04   4.2663024e-01   4.1766989e-01  -6.0108036e+05
   2.7155719e-09  -2.7117997e-04   4.2660409e-01   4.1769625e-01  -5.9755774e+05
   2.7182394e-09  -2.6959064e-04   4.2657810e-01   4.1772246e-01  -5.9405575e+05
   2.7209070e-09  -2.6801063e-04   4.2655226e-01   4.1774851e-01  -5.9057429e+05
   2.7235745e-09  -2.6643988e-04   4.2652657e-01   4.1777442e-01  -5.8711323e+05
   2.7262421e-09  -2.6487833e-04   4.2650104e-01   4.1780017e-01  -5.8367245e+05
   2.7289096e-09  -2.6332594e-04   4.2647565e-01   4.1782577e-01  -5.8025183e+05
   2.7315772e-09  -2.6178264e-04   4.2645042e-01   4.1785123e-01  -5.7685126e+05
   2.7342447e-09  -2.6024839e-04   4.2642533e-01   4.1787654e-01  -5.7347061e+05
   2.7369123e-09  -2.5872313e-04   4.2640040e-01   4.1790170e-01  -5.7010978e+05
   2.7395799e-09  -2.5720681e-04   4.2637561e-01   4.1792671e-01  -5.6676864e+05
   2.7422474e-09  -2.5569937e-04   4.2635096e-01   4.1795158e-01  -5.6344708e+05
   2.7449150e-09  -2.5420077e-04   4.2632647e-01   4.1797630e-01  -5.6014499e+05
   2.7475825e-09  -2.5271095e-04   4.2630212e-01   4.1800089e-01  -5.5686224e+05
   2.7502501e-09  -2.5122986e-04   4.2627791e-01   4.1802532e-01  -5.5359873e+05
   2.7529176e-09  -2.4975746e-04   4.2625384e-01   4.1804962e-01  -5.5035435e+05
   2.7555852e-09  -2.4829368e-04   4.2622992e-01   4.1807378e-01  -5.4712898e+05
   2.7582528e-09  -2.4683848e-04   4.2620614e-01   4.1809779e-01  -5.4392251e+05
   2.7609203e-09  -2.4539180e-04   4.2618250e-01   4.1812167e-01  -5.4073483e+05
   2.7635879e-09  -2.4395361e-04   4.2615899e-01   4.1814540e-01  -5.3756583e+05
   2.7662554e-09  -2.4252385e-04   4.2613563e-01   4.1816900e-01  -5.3441540e+05
   2.7689230e-09  -2.4110246e-04   4.2611241e-01   4.1819246e-01  -5.3128343e+05
   2.7715905e-09  -2.3968940e-04   4.2608932e-01   4.1821579e-01  -5.2816982e+05
   2.7742581e-09  -2.3828463e-04   4.2606637e-01   4.1823898e-01  -5.2507445e+05
   2.7769256e-09  -2.3688809e-04   4.2604355e-01   4.1826203e-01  -5.2199722e+05
   2.7795932e-09  -2.3549973e-04   4.2602087e-01   4.1828495e-01  -5.1893803e+05
   2.7822608e-09  -2.3411951e-04   4.2599833e-01   4.1830774e-01  -5.1589676e+05
   2.7849283e-09  -2.3274738e-04   4.2597591e-01   4.1833039e-01  -5.1287332e+05
   2.7875959e-09  -2.3138329e-04   4.2595363e-01   4.1835292e-01  -5.0986759e+05
   2.7902634e-09  -2.3002719e-04   4.2593148e-01   4.1837531e-01  -5.0687947e+05
   2.7929310e-09  -2.2867904e-04   4.2590946e-01   4.1839757e-01  -5.0390887e+05
   2.7955985e-09  -2.2733880e-04   4.2588758e-01   4.1841971e-01  -5.0095567e+05
   2.7982661e-09  -2.2600640e-04   4.2586582e-01   4.1844171e-01  -4.9801979e+05
   2.8009336e-09  -2.2468182e-04   4.2584419e-01   4.1846359e-01  -4.9510110e+05
   2.8036012e-09  -2.2336500e-04   4.2582268e-01   4.1848534e-01  -4.9219952e+05
   2.8062688e-09  -2.2205589e-04   4.2580131e-01   4.1850696e-01  -4.8931494e+05
   2.8089363e-09  -2.2075446e-04   4.2578006e-01   4.1852845e-01  -4.8644727e+05
   2.8116039e-09  -2.1946065e-04   4.2575893e-01   4.1854983e-01  -4.8359640e+05
   2.8142714e-09  -2.1817443e-04   4.2573793e-01   4.1857107e-01  -4.8076224e+05
   2.8169390e-09  -2.1689575e-04   4.2571706e-01   4.1859220e-01  -4.7794469e+05
   2.8196065e-09  -2.1562456e-04   4.2569630e-01   4.1861320e-01  -4.7514365e+05
   2.8222741e-09  -2.1436082e-04   4.2567567e-01   4.1863408e-01  -4.7235902e+05
   2.8249416e-09  -2.1310448e-04   4.2565517e-01   4.1865483e-01  -4.6959071e+05
   2.8276092e-09  -2.1185551e-04   4.2563478e-01   4.1867547e-01  -4.6683863e+05
   2.8302768e-09  -2.1061386e-04   4.2561451e-01   4.1869599e-01  -4.6410267e+05
   2.8329443e-09  -2.0937948e-04   4.2559436e-01   4.1871639e-01  -4.6138275e+05
   2.8356119e-09  -2.0815234e-04   4.2557434e-01   4.1873666e-01  -4.5867876e+05
   2.8382794e-09  -2.0693239e-04   4.2555443e-01   4.1875682e-01  -4.5599062e+05
   2.8409470e-09  -2.0571959e-04   4.2553463e-01   4.1877687e-01  -4.5331823e+05
   2.8436145e-09  -2.0451390e-04   4.2551496e-01   4.1879679e-01  -4.5066151e+05
   2.8462821e-09  -2.0331528e-04   4.2549540e-01   4.1881661e-01  -4.4802035e+05
   2.8489496e-09  -2.0212367e-04   4.2547595e-01   4.1883630e-01  -4.4539467e+05
   2.8516172e-09  -2.0093906e-04   4.2545662e-01   4.1885588e-01  -4.4278438e+05
   2.8542848e-09  -1.9976138e-04   4.2543741e-01   4.1887535e-01  -4.4018939e+05
   2.8569523e-09  -1.9859061e-04   4.2541831e-01   4.1889470e-01  -4.3760960e+05
   2.8596199e-09  -1.9742670e-04   4.2539932e-01   4.1891394e-01  -4.3504493e+05
   2.8622874e-09  -1.9626961e-04   4.2538044e-01   4.1893307e-01  -4.3249529e+05
   2.8649550e-09  -1.9511930e-04   4.2536167e-01   4.1895209e-01  -4.2996059e+05
   2.8676225e-09  -1.9397573e-04   4.2534302e-01   4.1897100e-01  -4.2744075e+05
   2.8702901e-09  -1.9283887e-04   4.2532447e-01   4.1898979e-01  -4.2493567e+05
   2.8729577e-09  -1.9170866e-04   4.2530604e-01   4.1900848e-01  -4.2244527e+05
   2.8756252e-09  -1.9058508e-04   4.2528771e-01   4.1902706e-01  -4.1996947e+05
   2.8782928e-09  -1.8946809e-04   4.2526949e-01   4.1904553e-01  -4.1750817e+05
   2.8809603e-09  -1.8835764e-04   4.2525138e-01   4.1906389e-01  -4.1506130e+05
   2.8836279e-09  -1.8725370e-04   4.2523337e-01   4.1908215e-01  -4.1262877e+05
   2.8862954e-09  -1.8615623e-04   4.2521547e-01   4.1910030e-01  -4.1021050e+05
   2.8889630e-09  -1.8506519e-04   4.2519768e-01   4.1911834e-01  -4.0780639e+05
   2.8916305e-09  -1.8398055e-04   4.2517999e-01   4.1913628e-01  -4.0541638e+05
   2.8942981e-09  -1.8290226e-04   4.2516241e-01   4.1915412e-01  -4.0304037e+05
   2.8969657e-09  -1.8183029e-04   4.2514493e-01   4.1917185e-01  -4.0067828e+05
   2.8996332e-09  -1.8076461e-04   4.2512755e-01   4.1918948e-01  -3.9833004e+05
   2.9023008e-09  -1.7970517e-04   4.2511028e-01   4.1920700e-01  -3.9599556e+05
   2.9049683e-09  -1.7865194e-04   4.2509310e-01   4.1922442e-01  -3.9367476e+05
   2.9076359e-09  -1.7760488e-04   4.2507603e-01   4.1924174e-01  -3.9136756e+05
   2.9103034e-09  -1.7656396e-04   4.2505906e-01   4.1925896e-01  -3.8907388e+05
   2.9129710e-09  -1.7552914e-04   4.2504219e-01   4.1927608e-01  -3.8679364e+05
   2.9156385e-09  -1.7450038e-04   4.2502542e-01   4.1929310e-01  -3.8452677e+05
   2.9183061e-09  -1.7347765e-04   4.2500875e-01   4.1931003e-01  -3.8227318e+05
   2.9209737e-09  -1.7246092e-04   4.2499217e-01   4.1932685e-01  -3.8003279e+05
   2.9236412e-09  -1.7145015e-04   4.2497570e-01   4.1934357e-01  -3.7780554e+05
   2.9263088e-09  -1.7044530e-04   4.2495932e-01   4.1936020e-01  -3.7559134e+05
   2.9289763e-09  -1.6944633e-04   4.2494303e-01   4.1937673e-01  -3.7339011e+05
   2.9316439e-09  -1.6845323e-04   4.2492685e-01   4.1939316e-01  -3.7120179e+05
   2.9343114e-09  -1.6746594e-04   4.2491076e-01   4.1940950e-01  -3.6902629e+05
   2.9369790e-09  -1.6648444e-04   4.2489476e-01   4.1942575e-01  -3.6686353e+05
   2.9396465e-09  -1.6550869e-04   4.2487886e-01   4.1944189e-01  -3.6471346e+05
   2.9423141e-09  -1.6453866e-04   4.2486305e-01   4.1945795e-01  -3.6257598e+05
   2.9449817e-09  -1.6357432e-04   4.2484733e-01   4.1947391e-01  -3.6045103e+05
   2.9476492e-09  -1.6261562e-04   4.2483171e-01   4.1948978e-01  -3.5833853e+05
   2.9503168e-09  -1.6166255e-04   4.2481618e-01   4.1950555e-01  -3.5623841e+05
   2.9529843e-09  -1.6071506e-04   4.2480074e-01   4.1952124e-01  -3.5415060e+05
   2.9556519e-09  -1.5977312e-04   4.2478539e-01   4.1953683e-01  -3.5207503e+05
   2.9583194e-09  -1.5883671e-04   4.2477013e-01   4.1955233e-01  -3.5001161e+05
   2.9609870e-09  -1.5790578e-04   4.2475496e-01   4.1956774e-01  -3.4796029e+05
   2.9636546e-09  -1.5698031e-04   4.2473989e-01   4.1958306e-01  -3.4592100e+05
   2.9663221e-09  -1.5606026e-04   4.2472490e-01   4.1959829e-01  -3.4389365e+05
   2.9689897e-09  -1.5514561e-04   4.2470999e-01   4.1961344e-01  -3.4187818e+05
   2.9716572e-09  -1.5423631e-04   4.2469518e-01   4.1962849e-01  -3.3987453e+05
   2.9743248e-09  -1.5333235e-04   4.2468045e-01   4.1964346e-01  -3.3788262e+05
   2.9769923e-09  -1.5243368e-04   4.2466581e-01   4.1965834e-01  -3.3590238e+05
   2.9796599e-09  -1.5154028e-04   4.2465126e-01   4.1967313e-01  -3.3393374e+05
   2.9823274e-09  -1.5065211e-04   4.2463679e-01   4.1968784e-01  -3.3197664e+05
   2.9849950e-09  -1.4976915e-04   4.2462241e-01   4.1970246e-01  -3.3003102e+05
   2.9876626e-09  -1.4889137e-04   4.2460811e-01   4.1971699e-01  -3.2809679e+05
   2.9903301e-09  -1.4801873e-04   4.2459390e-01   4.1973144e-01  -3.2617390e+05
   2.9929977e-09  -1.4715120e-04   4.2457977e-01   4.1974581e-01  -3.2426228e+05
   2.9956652e-09  -1.4628876e-04   4.2456572e-01   4.1976009e-01  -3.2236186e+05
   2.9983328e-09  -1.4543137e-04   4.2455176e-01   4.1977429e-01  -3.2047258e+05
   3.0010003e-09  -1.4457901e-04   4.2453788e-01   4.1978841e-01  -3.1859437e+05
   3.0036679e-09  -1.4373164e-04   4.2452408e-01   4.1980244e-01  -3.1672717e+05
   3.0063354e-09  -1.4288924e-04   4.2451036e-01   4.1981640e-01  -3.1487091e+05
   3.0090030e-09  -1.4205178e-04   4.2449672e-01   4.1983027e-01  -3.1302553e+05
   3.0116706e-09  -1.4121922e-04   4.2448316e-01   4.1984406e-01  -3.1119096e+05
   3.0143381e-09  -1.4039155e-04   4.2446968e-01   4.1985777e-01  -3.0936714e+05
   3.0170057e-09  -1.3956872e-04   4.2445629e-01   4.1987140e-01  -3.0755402e+05
   3.0196732e-09  -1.3875072e-04   4.2444297e-01   4.1988495e-01  -3.0575152e+05
   3.0223408e-09  -1.3793751e-04   4.2442973e-01   4.1989842e-01  -3.0395958e+05
   3.0250083e-09  -1.3712907e-04   4.2441656e-01   4.1991181e-01  -3.0217814e+05
   3.0276759e-09  -1.3632536e-04   4.2440348e-01   4.1992513e-01  -3.0040715e+05
   3.0303434e-09  -1.3552637e-04   4.2439047e-01   4.1993836e-01  -2.9864653e+05
   3.0330110e-09  -1.3473206e-04   4.2437754e-01   4.1995152e-01  -2.9689623e+05
   3.0356786e-09  -1.3394240e-04   4.2436468e-01   4.1996461e-01  -2.9515619e+05
   3.0383461e-09  -1.3315737e-04   4.2435190e-01   4.1997761e-01  -2.9342634e+05
   3.0410137e-09  -1.3237694e-04   4.2433920e-01   4.1999054e-01  -2.9170664e+05
   3.0436812e-09  -1.3160109e-04   4.2432657e-01   4.2000340e-01  -2.8999701e+05
   3.0463488e-09  -1.3082978e-04   4.2431401e-01   4.2001618e-01  -2.8829740e+05
   3.0490163e-09  -1.3006300e-04   4.2430153e-01   4.2002889e-01  -2.8660775e+05
   3.0516839e-09  -1.2930071e-04   4.2428912e-01   4.2004152e-01  -2.8492800e+05
   3.0543515e-09  -1.2854288e-04   4.2427678e-01   4.2005408e-01  -2.8325810e+05
   3.0570190e-09  -1.2778950e-04   4.2426452e-01   4.2006656e-01  -2.8159799e+05
   3.0596866e-09  -1.2704053e-04   4.2425233e-01   4.2007897e-01  -2.7994760e+05
   3.0623541e-09  -1.2629595e-04   4.2424021e-01   4.2009131e-01  -2.7830688e+05
   3.0650217e-09  -1.2555574e-04   4.2422816e-01   4.2010358e-01  -2.7667578e+05
   3.0676892e-09  -1.2481986e-04   4.2421619e-01   4.2011578e-01  -2.7505424e+05
   3.0703568e-09  -1.2408830e-04   4.2420428e-01   4.2012790e-01  -2.7344221e+05
   3.0730243e-09  -1.2336102e-04   4.2419245e-01   4.2013995e-01  -2.7183962e+05
   3.0756919e-09  -1.2263801e-04   4.2418068e-01   4.2015194e-01  -2.7024642e+05
   3.0783595e-09  -1.2191923e-04   4.2416898e-01   4.2016385e-01  -2.6866256e+05
   3.0810270e-09  -1.2120467e-04   4.2415735e-01   4.2017570e-01  -2.6708798e+05
   3.0836946e-09  -1.2049429e-04   4.2414579e-01   4.2018747e-01  -2.6552263e+05
   3.0863621e-09  -1.1978808e-04   4.2413430e-01   4.2019918e-01  -2.6396645e+05
   3.0890297e-09  -1.1908601e-04   4.2412288e-01   4.2021082e-01  -2.6241939e+05
   3.0916972e-09  -1.1838805e-04   4.2411152e-01   4.2022239e-01  -2.6088140e+05
   3.0943648e-09  -1.1769418e-04   4.2410023e-01   4.2023389e-01  -2.5935242e+05
   3.0970323e-09  -1.1700438e-04   4.2408901e-01   4.2024532e-01  -2.5783241e+05
   3.0996999e-09  -1.1631862e-04   4.2407785e-01   4.2025669e-01  -2.5632130e+05
   3.1023675e-09  -1.1563688e-04   4.2406676e-01   4.2026799e-01  -2.5481904e+05
   3.1050350e-09  -1.1495914e-04   4.2405573e-01   4.2027923e-01  -2.5332560e+05
   3.1077026e-09  -1.1428537e-04   4.2404477e-01   4.2029040e-01  -2.5184090e+05
   3.1103701e-09  -1.1361555e-04   4.2403387e-01   4.2030151e-01  -2.5036490e+05
   3.1130377e-09  -1.1294965e-04   4.2402304e-01   4.2031255e-01  -2.4889756e+05
   3.1157052e-09  -1.1228765e-04   4.2401227e-01   4.2032352e-01  -2.4743881e+05
   3.1183728e-09  -1.1162954e-04   4.2400156e-01   4.2033444e-01  -2.4598862e+05
   3.1210403e-09  -1.1097528e-04   4.2399092e-01   4.2034529e-01  -2.4454692e+05
   3.1237079e-09  -1.1032486e-04   4.2398034e-01   4.2035607e-01  -2.4311367e+05
   3.1263755e-09  -1.0967825e-04   4.2396982e-01   4.2036679e-01  -2.4168882e+05
   3.1290430e-09  -1.0903543e-04   4.2395936e-01   4.2037745e-01  -2.4027232e+05
   3.1317106e-09  -1.0839637e-04   4.2394897e-01   4.2038805e-01  -2.3886412e+05
   3.1343781e-09  -1.0776106e-04   4.2393863e-01   4.2039859e-01  -2.3746418e+05
   3.1370457e-09  -1.0712948e-04   4.2392836e-01   4.2040906e-01  -2.3607244e+05
   3.1397132e-09  -1.0650159e-04   4.2391815e-01   4.2041947e-01  -2.3468886e+05
   3.1423808e-09  -1.0587739e-04   4.2390800e-01   4.2042982e-01  -2.3331338e+05
   3.1450483e-09  -1.0525685e-04   4.2389790e-01   4.2044012e-01  -2.3194597e+05
   3.1477159e-09  -1.0463994e-04   4.2388787e-01   4.2045035e-01  -2.3058657e+05
   3.1503835e-09  -1.0402664e-04   4.2387790e-01   4.2046052e-01  -2.2923514e+05
   3.1530510e-09  -1.0341695e-04   4.2386798e-01   4.2047063e-01  -2.2789162e+05
   3.1557186e-09  -1.0281082e-04   4.2385812e-01   4.2048068e-01  -2.2655598e+05
   3.1583861e-09  -1.0220825e-04   4.2384832e-01   4.2049068e-01  -2.2522817e+05
   3.1610537e-09  -1.0160921e-04   4.2383858e-01   4.2050062e-01  -2.2390814e+05
   3.1637212e-09  -1.0101368e-04   4.2382890e-01   4.2051049e-01  -2.2259585e+05
   3.1663888e-09  -1.0042164e-04   4.2381927e-01   4.2052031e-01  -2.2129124e+05
   3.1690564e-09  -9.9833068e-05   4.2380970e-01   4.2053008e-01  -2.1999429e+05
   3.1717239e-09  -9.9247948e-05   4.2380018e-01   4.2053978e-01  -2.1870493e+05
   3.1743915e-09  -9.8666257e-05   4.2379072e-01   4.2054943e-01  -2.1742313e+05
   3.1770590e-09  -9.8087975e-05   4.2378132e-01   4.2055903e-01  -2.1614884e+05
   3.1797266e-09  -9.7513082e-05   4.2377197e-01   4.2056856e-01  -2.1488202e+05
   3.1823941e-09  -9.6941558e-05   4.2376268e-01   4.2057804e-01  -2.1362263e+05
   3.1850617e-09  -9.6373385e-05   4.2375344e-01   4.2058747e-01  -2.1237061e+05
   3.1877292e-09  -9.5808541e-05   4.2374426e-01   4.2059684e-01  -2.1112594e+05
   3.1903968e-09  -9.5247008e-05   4.2373513e-01   4.2060616e-01  -2.0988856e+05
   3.1930644e-09  -9.4688765e-05   4.2372605e-01   4.2061542e-01  -2.0865843e+05
   3.1957319e-09  -9.4133795e-05   4.2371703e-01   4.2062463e-01  -2.0743550e+05
   3.1983995e-09  -9.3582077e-05   4.2370806e-01   4.2063378e-01  -2.0621975e+05
   3.2010670e-09  -9.3033593e-05   4.2369914e-01   4.2064288e-01  -2.0501112e+05
   3.2037346e-09  -9.2488323e-05   4.2369028e-01   4.2065193e-01  -2.0380958e+05
   3.2064021e-09  -9.1946249e-05   4.2368146e-01   4.2066092e-01  -2.0261507e+05
   3.2090697e-09  -9.1407352e-05   4.2367270e-01   4.2066986e-01  -2.0142757e+05
   3.2117372e-09  -9.0871613e-05   4.2366399e-01   4.2067875e-01  -2.0024702e+05
   3.2144048e-09  -9.0339015e-05   4.2365533e-01   4.2068759e-01  -1.9907340e+05
   3.2170724e-09  -8.9809538e-05   4.2364673e-01   4.2069638e-01  -1.9790665e+05
   3.2197399e-09  -8.9283164e-05   4.2363817e-01   4.2070511e-01  -1.9674674e+05
   3.2224075e-09  -8.8759875e-05   4.2362966e-01   4.2071380e-01  -1.9559363e+05
   3.2250750e-09  -8.8239653e-05   4.2362121e-01   4.2072243e-01  -1.9444728e+05
   3.2277426e-09  -8.7722480e-05   4.2361280e-01   4.2073101e-01  -1.9330764e+05
   3.2304101e-09  -8.7208338e-05   4.2360444e-01   4.2073954e-01  -1.9217469e+05
   3.2330777e-09  -8.6697209e-05   4.2359614e-01   4.2074803e-01  -1.9104837e+05
   3.2357452e-09  -8.6189076e-05   4.2358788e-01   4.2075646e-01  -1.8992866e+05
   3.2384128e-09  -8.5683921e-05   4.2357967e-01   4.2076484e-01  -1.8881551e+05
   3.2410804e-09  -8.5181727e-05   4.2357150e-01   4.2077318e-01  -1.8770888e+05
   3.2437479e-09  -8.4682476e-05   4.2356339e-01   4.2078146e-01  -1.8660873e+05
   3.2464155e-09  -8.4186151e-05   4.2355532e-01   4.2078970e-01  -1.8551504e+05
   3.2490830e-09  -8.3692735e-05   4.2354730e-01   4.2079789e-01  -1.8442775e+05
   3.2517506e-09  -8.3202211e-05   4.2353933e-01   4.2080603e-01  -1.8334684e+05
   3.2544181e-09  -8.2714561e-05   4.2353141e-01   4.2081412e-01  -1.8227226e+05
   3.2570857e-09  -8.2229770e-05   4.2352353e-01   4.2082217e-01  -1.8120398e+05
   3.2597533e-09  -8.1747820e-05   4.2351570e-01   4.2083017e-01  -1.8014196e+05
   3.2624208e-09  -8.1268695e-05   4.2350791e-01   4.2083812e-01  -1.7908616e+05
   3.2650884e-09  -8.0792378e-05   4.2350017e-01   4.2084603e-01  -1.7803655e+05
   3.2677559e-09  -8.0318852e-05   4.2349247e-01   4.2085389e-01  -1.7699310e+05
   3.2704235e-09  -7.9848102e-05   4.2348482e-01   4.2086170e-01  -1.7595575e+05
   3.2730910e-09  -7.9380111e-05   4.2347722e-01   4.2086947e-01  -1.7492449e+05
   3.2757586e-09  -7.8914863e-05   4.2346966e-01   4.2087720e-01  -1.7389927e+05
   3.2784261e-09  -7.8452341e-05   4.2346214e-01   4.2088487e-01  -1.7288006e+05
   3.2810937e-09  -7.7992530e-05   4.2345467e-01   4.2089251e-01  -1.7186683e+05
   3.2837613e-09  -7.7535414e-05   4.2344724e-01   4.2090010e-01  -1.7085953e+05
   3.2864288e-09  -7.7080978e-05   4.2343986e-01   4.2090764e-01  -1.6985814e+05
   3.2890964e-09  -7.6629204e-05   4.2343252e-01   4.2091514e-01  -1.6886261e+05
   3.2917639e-09  -7.6180079e-05   4.2342522e-01   4.2092260e-01  -1.6787292e+05
   3.2944315e-09  -7.5733586e-05   4.2341796e-01   4.2093001e-01  -1.6688903e+05
   3.2970990e-09  -7.5289709e-05   4.2341075e-01   4.2093738e-01  -1.6591090e+05
   3.2997666e-09  -7.4848434e-05   4.2340358e-01   4.2094470e-01  -1.6493851e+05
   3.3024341e-09  -7.4409746e-05   4.2339646e-01   4.2095199e-01  -1.6397182e+05
   3.3051017e-09  -7.3973628e-05   4.2338937e-01   4.2095923e-01  -1.6301079e+05
   3.3077693e-09  -7.3540067e-05   4.2338233e-01   4.2096643e-01  -1.6205539e+05
   3.3104368e-09  -7.3109046e-05   4.2337532e-01   4.2097358e-01  -1.6110560e+05
   3.3131044e-09  -7.2680552e-05   4.2336836e-01   4.2098070e-01  -1.6016137e+05
   3.3157719e-09  -7.2254569e-05   4.2336144e-01   4.2098777e-01  -1.5922267e+05
   3.3184395e-09  -7.1831083e-05   4.2335456e-01   4.2099480e-01  -1.5828948e+05
   3.3211070e-09  -7.1410079e-05   4.2334772e-01   4.2100179e-01  -1.5736175e+05
   3.3237746e-09  -7.0991542e-05   4.2334092e-01   4.2100874e-01  -1.5643946e+05
   3.3264421e-09  -7.0575458e-05   4.2333416e-01   4.2101565e-01  -1.5552258e+05
   3.3291097e-09  -7.0161813e-05   4.2332744e-01   4.2102252e-01  -1.5461107e+05
   3.3317773e-09  -6.9750593e-05   4.2332076e-01   4.2102935e-01  -1.5370491e+05
   3.3344448e-09  -6.9341782e-05   4.2331412e-01   4.2103614e-01  -1.5280405e+05
   3.3371124e-09  -6.8935367e-05   4.2330752e-01   4.2104289e-01  -1.5190847e+05
   3.3397799e-09  -6.8531335e-05   4.2330096e-01   4.2104960e-01  -1.5101815e+05
   3.3424475e-09  -6.8129670e-05   4.2329443e-01   4.2105627e-01  -1.5013304e+05
   3.3451150e-09  -6.7730360e-05   4.2328794e-01   4.2106290e-01  -1.4925311e+05
   3.3477826e-09  -6.7333390e-05   4.2328150e-01   4.2106949e-01  -1.4837835e+05
   3.3504502e-09  -6.6938746e-05   4.2327509e-01   4.2107604e-01  -1.4750871e+05
   3.3531177e-09  -6.6546415e-05   4.2326871e-01   4.2108256e-01  -1.4664417e+05
   3.3557853e-09  -6.6156384e-05   4.2326238e-01   4.2108904e-01  -1.4578469e+05
   3.3584528e-09  -6.5768639e-05   4.2325608e-01   4.2109548e-01  -1.4493025e+05
   3.3611204e-09  -6.5383166e-05   4.2324982e-01   4.2110188e-01  -1.4408082e+05
   3.3637879e-09  -6.4999953e-05   4.2324359e-01   4.2110824e-01  -1.4323637e+05
   3.3664555e-09  -6.4618986e-05   4.2323741e-01   4.2111457e-01  -1.4239687e+05
   3.3691230e-09  -6.4240251e-05   4.2323126e-01   4.2112086e-01  -1.4156229e+05
   3.3717906e-09  -6.3863736e-05   4.2322514e-01   4.2112711e-01  -1.4073260e+05
   3.3744582e-09  -6.3489428e-05   4.2321906e-01   4.2113333e-01  -1.3990777e+05
   3.3771257e-09  -6.3117314e-05   4.2321302e-01   4.2113951e-01  -1.3908777e+05
   3.3797933e-09  -6.2747380e-05   4.2320701e-01   4.2114565e-01  -1.3827258e+05
   3.3824608e-09  -6.2379615e-05   4.2320104e-01   4.2115176e-01  -1.3746217e+05
   3.3851284e-09  -6.2014005e-05   4.2319510e-01   4.2115784e-01  -1.3665651e+05
   3.3877959e-09  -6.1650538e-05   4.2318919e-01   4.2116387e-01  -1.3585557e+05
   3.3904635e-09  -6.1289202e-05   4.2318333e-01   4.2116987e-01  -1.3505933e+05
   3.3931310e-09  -6.0929983e-05   4.2317749e-01   4.2117584e-01  -1.3426775e+05
   3.3957986e-09  -6.0572869e-05   4.2317169e-01   4.2118177e-01  -1.3348081e+05
   3.3984662e-09  -6.0217849e-05   4.2316593e-01   4.2118767e-01  -1.3269848e+05
   3.4011337e-09  -5.9864909e-05   4.2316020e-01   4.2119353e-01  -1.3192074e+05
   3.4038013e-09  -5.9514038e-05   4.2315450e-01   4.2119936e-01  -1.3114755e+05
   3.4064688e-09  -5.9165223e-05   4.2314883e-01   4.2120516e-01  -1.3037890e+05
   3.4091364e-09  -5.8818453e-05   4.2314320e-01   4.2121092e-01  -1.2961475e+05
   3.4118039e-09  -5.8473715e-05   4.2313760e-01   4.2121664e-01  -1.2885508e+05
   3.4144715e-09  -5.8130997e-05   4.2313204e-01   4.2122234e-01  -1.2809987e+05
   3.4171390e-09  -5.7790288e-05   4.2312651e-01   4.2122800e-01  -1.2734908e+05
   3.4198066e-09  -5.7451576e-05   4.2312101e-01   4.2123362e-01  -1.2660268e+05
   3.4224742e-09  -5.7114850e-05   4.2311554e-01   4.2123922e-01  -1.2586067e+05
   3.4251417e-09  -5.6780096e-05   4.2311010e-01   4.2124478e-01  -1.2512300e+05
   3.4278093e-09  -5.6447305e-05   4.2310470e-01   4.2125031e-01  -1.2438966e+05
   3.4304768e-09  -5.6116464e-05   4.2309933e-01   4.2125580e-01  -1.2366061e+05
   3.4331444e-09  -5.5787563e-05   4.2309399e-01   4.2126127e-01  -1.2293584e+05
   3.4358119e-09  -5.5460589e-05   4.2308868e-01   4.2126670e-01  -1.2221531e+05
   3.4384795e-09  -5.5135531e-05   4.2308340e-01   4.2127210e-01  -1.2149901e+05
   3.4411470e-09  -5.4812378e-05   4.2307815e-01   4.2127747e-01  -1.2078690e+05
   3.4438146e-09  -5.4491120e-05   4.2307294e-01   4.2128281e-01  -1.2007897e+05
   3.4464822e-09  -5.4171744e-05   4.2306775e-01   4.2128811e-01  -1.1937519e+05
   3.4491497e-09  -5.3854240e-05   4.2306260e-01   4.2129339e-01  -1.1867553e+05
   3.4518173e-09  -5.3538598e-05   4.2305747e-01   4.2129863e-01  -1.1797998e+05
   3.4544848e-09  -5.3224805e-05   4.2305238e-01   4.2130385e-01  -1.1728850e+05
   3.4571524e-09  -5.2912851e-05   4.2304731e-01   4.2130903e-01  -1.1660107e+05
   3.4598199e-09  -5.2602725e-05   4.2304228e-01   4.2131418e-01  -1.1591767e+05
   3.4624875e-09  -5.2294418e-05   4.2303727e-01   4.2131930e-01  -1.1523828e+05
   3.4651551e-09  -5.1987917e-05   4.2303229e-01   4.2132440e-01  -1.1456287e+05
   3.4678226e-09  -5.1683212e-05   4.2302735e-01   4.2132946e-01  -1.1389141e+05
   3.4704902e-09  -5.1380294e-05   4.2302243e-01   4.2133449e-01  -1.1322390e+05
   3.4731577e-09  -5.1079151e-05   4.2301754e-01   4.2133950e-01  -1.1256029e+05
   3.4758253e-09  -5.0779772e-05   4.2301268e-01   4.2134447e-01  -1.1190057e+05
   3.4784928e-09  -5.0482149e-05   4.2300785e-01   4.2134942e-01  -1.1124472e+05
   3.4811604e-09  -5.0186270e-05   4.2300305e-01   4.2135433e-01  -1.1059272e+05
   3.4838279e-09  -4.9892125e-05   4.2299827e-01   4.2135922e-01  -1.0994453e+05
   3.4864955e-09  -4.9599704e-05   4.2299352e-01   4.2136408e-01  -1.0930015e+05
   3.4891631e-09  -4.9308997e-05   4.2298880e-01   4.2136891e-01  -1.0865954e+05
   3.4918306e-09  -4.9019993e-05   4.2298411e-01   4.2137371e-01  -1.0802268e+05
   3.4944982e-09  -4.8732684e-05   4.2297945e-01   4.2137849e-01  -1.0738956e+05
   3.4971657e-09  -4.8447058e-05   4.2297481e-01   4.2138324e-01  -1.0676015e+05
   3.4998333e-09  -4.8163107e-05   4.2297020e-01   4.2138795e-01  -1.0613443e+05
   3.5025008e-09  -4.7880819e-05   4.2296562e-01   4.2139264e-01  -1.0551237e+05
   3.5051684e-09  -4.7600187e-05   4.2296106e-01   4.2139731e-01  -1.0489396e+05
   3.5078359e-09  -4.7321199e-05   4.2295654e-01   4.2140194e-01  -1.0427918e+05
   3.5105035e-09  -4.7043846e-05   4.2295203e-01   4.2140655e-01  -1.0366800e+05
   3.5131711e-09  -4.6768118e-05   4.2294756e-01   4.2141114e-01  -1.0306040e+05
   3.5158386e-09  -4.6494007e-05   4.2294311e-01   4.2141569e-01  -1.0245636e+05
   3.5185062e-09  -4.6221503e-05   4.2293869e-01   4.2142022e-01  -1.0185586e+05
   3.5211737e-09  -4.5950595e-05   4.2293429e-01   4.2142472e-01  -1.0125888e+05
   3.5238413e-09  -4.5681275e-05   4.2292992e-01   4.2142920e-01  -1.0066540e+05
   3.5265088e-09  -4.5413534e-05   4.2292557e-01   4.2143365e-01  -1.0007540e+05
   3.5291764e-09  -4.5147362e-05   4.2292125e-01   4.2143807e-01  -9.9488853e+04
   3.5318439e-09  -4.4882750e-05   4.2291695e-01   4.2144247e-01  -9.8905747e+04
   3.5345115e-09  -4.4619689e-05   4.2291269e-01   4.2144684e-01  -9.8326058e+04
   3.5371791e-09  -4.4358169e-05   4.2290844e-01   4.2145119e-01  -9.7749767e+04
   3.5398466e-09  -4.4098183e-05   4.2290422e-01   4.2145551e-01  -9.7176853e+04
   3.5425142e-09  -4.3839720e-05   4.2290003e-01   4.2145981e-01  -9.6607297e+04
   3.5451817e-09  -4.3582772e-05   4.2289586e-01   4.2146408e-01  -9.6041079e+04
   3.5478493e-09  -4.3327330e-05   4.2289171e-01   4.2146832e-01  -9.5478179e+04
   3.5505168e-09  -4.3073385e-05   4.2288759e-01   4.2147254e-01  -9.4918579e+04
   3.5531844e-09  -4.2820929e-05   4.2288349e-01   4.2147674e-01  -9.4362258e+04
   3.5558520e-09  -4.2569952e-05   4.2287942e-01   4.2148091e-01  -9.3809198e+04
   3.5585195e-09  -4.2320446e-05   4.2287537e-01   4.2148506e-01  -9.3259379e+04
   3.5611871e-09  -4.2072403e-05   4.2287134e-01   4.2148918e-01  -9.2712783e+04
   3.5638546e-09  -4.1825813e-05   4.2286734e-01   4.2149328e-01  -9.2169391e+04
   3.5665222e-09  -4.1580669e-05   4.2286336e-01   4.2149735e-01  -9.1629183e+04
   3.5691897e-09  -4.1336961e-05   4.2285941e-01   4.2150140e-01  -9.1092141e+04
   3.5718573e-09  -4.1094682e-05   4.2285547e-01   4.2150543e-01  -9.0558247e+04
   3.5745248e-09  -4.0853823e-05   4.2285156e-01   4.2150943e-01  -9.0027481e+04
   3.5771924e-09  -4.0614375e-05   4.2284768e-01   4.2151341e-01  -8.9499827e+04
   3.5798600e-09  -4.0376331e-05   4.2284382e-01   4.2151737e-01  -8.8975265e+04
   3.5825275e-09  -4.0139682e-05   4.2283997e-01   4.2152131e-01  -8.8453778e+04
   3.5851951e-09  -3.9904420e-05   4.2283616e-01   4.2152522e-01  -8.7935347e+04
   3.5878626e-09  -3.9670537e-05   4.2283236e-01   4.2152910e-01  -8.7419954e+04
   3.5905302e-09  -3.9438025e-05   4.2282859e-01   4.2153297e-01  -8.6907582e+04
   3.5931977e-09  -3.9206875e-05   4.2282484e-01   4.2153681e-01  -8.6398213e+04
   3.5958653e-09  -3.8977081e-05   4.2282111e-01   4.2154063e-01  -8.5891829e+04
   3.5985328e-09  -3.8748633e-05   4.2281740e-01   4.2154443e-01  -8.5388414e+04
   3.6012004e-09  -3.8521524e-05   4.2281371e-01   4.2154820e-01  -8.4887949e+04
   3.6038680e-09  -3.8295746e-05   4.2281005e-01   4.2155196e-01  -8.4390416e+04
   3.6065355e-09  -3.8071291e-05   4.2280641e-01   4.2155569e-01  -8.3895800e+04
   3.6092031e-09  -3.7848152e-05   4.2280279e-01   4.2155940e-01  -8.3404083e+04
   3.6118706e-09  -3.7626321e-05   4.2279919e-01   4.2156309e-01  -8.2915248e+04
   3.6145382e-09  -3.7405790e-05   4.2279561e-01   4.2156675e-01  -8.2429278e+04
   3.6172057e-09  -3.7186551e-05   4.2279205e-01   4.2157040e-01  -8.1946156e+04
   3.6198733e-09  -3.6968598e-05   4.2278852e-01   4.2157402e-01  -8.1465865e+04
   3.6225408e-09  -3.6751921e-05   4.2278500e-01   4.2157762e-01  -8.0988390e+04
   3.6252084e-09  -3.6536515e-05   4.2278150e-01   4.2158120e-01  -8.0513713e+04
   3.6278760e-09  -3.6322372e-05   4.2277803e-01   4.2158476e-01  -8.0041818e+04
   3.6305435e-09  -3.6109483e-05   4.2277457e-01   4.2158830e-01  -7.9572688e+04
   3.6332111e-09  -3.5897842e-05   4.2277114e-01   4.2159182e-01  -7.9106309e+04
   3.6358786e-09  -3.5687442e-05   4.2276773e-01   4.2159532e-01  -7.8642662e+04
   3.6385462e-09  -3.5478274e-05   4.2276433e-01   4.2159880e-01  -7.8181733e+04
   3.6412137e-09  -3.5270333e-05   4.2276096e-01   4.2160225e-01  -7.7723506e+04
   3.6438813e-09  -3.5063610e-05   4.2275760e-01   4.2160569e-01  -7.7267964e+04
   3.6465488e-09  -3.4858099e-05   4.2275427e-01   4.2160911e-01  -7.6815092e+04
   3.6492164e-09  -3.4653793e-05   4.2275095e-01   4.2161250e-01  -7.6364875e+04
   3.6518840e-09  -3.4450684e-05   4.2274766e-01   4.2161588e-01  -7.5917296e+04
   3.6545515e-09  -3.4248765e-05   4.2274438e-01   4.2161924e-01  -7.5472340e+04
   3.6572191e-09  -3.4048030e-05   4.2274113e-01   4.2162258e-01  -7.5029992e+04
   3.6598866e-09  -3.3848472e-05   4.2273789e-01   4.2162589e-01  -7.4590237e+04
   3.6625542e-09  -3.3650083e-05   4.2273467e-01   4.2162919e-01  -7.4153059e+04
   3.6652217e-09  -3.3452856e-05   4.2273147e-01   4.2163247e-01  -7.3718443e+04
   3.6678893e-09  -3.3256786e-05   4.2272829e-01   4.2163573e-01  -7.3286375e+04
   3.6705569e-09  -3.3061865e-05   4.2272512e-01   4.2163897e-01  -7.2856839e+04
   3.6732244e-09  -3.2868086e-05   4.2272198e-01   4.2164219e-01  -7.2429820e+04
   3.6758920e-09  -3.2675443e-05   4.2271886e-01   4.2164540e-01  -7.2005305e+04
   3.6785595e-09  -3.2483930e-05   4.2271575e-01   4.2164858e-01  -7.1583277e+04
   3.6812271e-09  -3.2293538e-05   4.2271266e-01   4.2165175e-01  -7.1163723e+04
   3.6838946e-09  -3.2104263e-05   4.2270959e-01   4.2165489e-01  -7.0746627e+04
   3.6865622e-09  -3.1916097e-05   4.2270654e-01   4.2165802e-01  -7.0331977e+04
   3.6892297e-09  -3.1729033e-05   4.2270350e-01   4.2166113e-01  -6.9919756e+04
   3.6918973e-09  -3.1543066e-05   4.2270048e-01   4.2166423e-01  -6.9509952e+04
   3.6945649e-09  -3.1358190e-05   4.2269748e-01   4.2166730e-01  -6.9102549e+04
   3.6972324e-09  -3.1174396e-05   4.2269450e-01   4.2167036e-01  -6.8697535e+04
   3.6999000e-09  -3.0991680e-05   4.2269154e-01   4.2167339e-01  -6.8294893e+04
   3.7025675e-09  -3.0810035e-05   4.2268859e-01   4.2167641e-01  -6.7894612e+04
   3.7052351e-09  -3.0629454e-05   4.2268566e-01   4.2167942e-01  -6.7496677e+04
   3.7079026e-09  -3.0449932e-05   4.2268275e-01   4.2168240e-01  -6.7101074e+04
   3.7105702e-09  -3.0271462e-05   4.2267985e-01   4.2168537e-01  -6.6707790e+04
   3.7132377e-09  -3.0094038e-05   4.2267697e-01   4.2168832e-01  -6.6316811e+04
   3.7159053e-09  -2.9917654e-05   4.2267411e-01   4.2169125e-01  -6.5928123e+04
   3.7185729e-09  -2.9742304e-05   4.2267127e-01   4.2169417e-01  -6.5541714e+04
   3.7212404e-09  -2.9567981e-05   4.2266844e-01   4.2169707e-01  -6.5157569e+04
   3.7239080e-09  -2.9394680e-05   4.2266563e-01   4.2169995e-01  -6.4775675e+04
   3.7265755e-09  -2.9222395e-05   4.2266283e-01   4.2170281e-01  -6.4396020e+04
   3.7292431e-09  -2.9051120e-05   4.2266006e-01   4.2170566e-01  -6.4018590e+04
   3.7319106e-09  -2.8880848e-05   4.2265729e-01   4.2170849e-01  -6.3643372e+04
   3.7345782e-09  -2.8711575e-05   4.2265455e-01   4.2171131e-01  -6.3270354e+04
   3.7372457e-09  -2.8543293e-05   4.2265182e-01   4.2171411e-01  -6.2899521e+04
   3.7399133e-09  -2.8375998e-05   4.2264910e-01   4.2171689e-01  -6.2530862e+04
   3.7425809e-09  -2.8209684e-05   4.2264641e-01   4.2171965e-01  -6.2164364e+04
   3.7452484e-09  -2.8044344e-05   4.2264372e-01   4.2172240e-01  -6.1800014e+04
   3.7479160e-09  -2.7879973e-05   4.2264106e-01   4.2172514e-01  -6.1437799e+04
   3.7505835e-09  -2.7716566e-05   4.2263841e-01   4.2172786e-01  -6.1077707e+04
   3.7532511e-09  -2.7554116e-05   4.2263577e-01   4.2173056e-01  -6.0719725e+04
   3.7559186e-09  -2.7392619e-05   4.2263315e-01   4.2173324e-01  -6.0363842e+04
   3.7585862e-09  -2.7232068e-05   4.2263055e-01   4.2173591e-01  -6.0010045e+04
   3.7612538e-09  -2.7072458e-05   4.2262796e-01   4.2173857e-01  -5.9658321e+04
   3.7639213e-09  -2.6913783e-05   4.2262538e-01   4.2174121e-01  -5.9308658e+04
   3.7665889e-09  -2.6756039e-05   4.2262282e-01   4.2174383e-01  -5.8961045e+04
   3.7692564e-09  -2.6599219e-05   4.2262028e-01   4.2174644e-01  -5.8615470e+04
   3.7719240e-09  -2.6443318e-05   4.2261775e-01   4.2174903e-01  -5.8271919e+04
   3.7745915e-09  -2.6288331e-05   4.2261524e-01   4.2175161e-01  -5.7930383e+04
   3.7772591e-09  -2.6134253e-05   4.2261274e-01   4.2175417e-01  -5.7590848e+04
   3.7799266e-09  -2.5981077e-05   4.2261025e-01   4.2175672e-01  -5.7253303e+04
   3.7825942e-09  -2.5828799e-05   4.2260778e-01   4.2175925e-01  -5.6917736e+04
   3.7852618e-09  -2.5677414e-05   4.2260533e-01   4.2176177e-01  -5.6584136e+04
   3.7879293e-09  -2.5526916e-05   4.2260289e-01   4.2176427e-01  -5.6252492e+04
   3.7905969e-09  -2.5377300e-05   4.2260046e-01   4.2176676e-01  -5.5922791e+04
   3.7932644e-09  -2.5228561e-05   4.2259805e-01   4.2176923e-01  -5.5595022e+04
   3.7959320e-09  -2.5080694e-05   4.2259565e-01   4.2177169e-01  -5.5269175e+04
   3.7985995e-09  -2.4933693e-05   4.2259326e-01   4.2177414e-01  -5.4945237e+04
   3.8012671e-09  -2.4787554e-05   4.2259089e-01   4.2177657e-01  -5.4623198e+04
   3.8039346e-09  -2.4642272e-05   4.2258854e-01   4.2177898e-01  -5.4303047e+04
   3.8066022e-09  -2.4497841e-05   4.2258619e-01   4.2178139e-01  -5.3984772e+04
   3.8092698e-09  -2.4354257e-05   4.2258387e-01   4.2178377e-01  -5.3668362e+04
   3.8119373e-09  -2.4211514e-05   4.2258155e-01   4.2178615e-01  -5.3353807e+04
   3.8146049e-09  -2.4069607e-05   4.2257925e-01   4.2178851e-01  -5.3041095e+04
   3.8172724e-09  -2.3928533e-05   4.2257696e-01   4.2179085e-01  -5.2730216e+04
   3.8199400e-09  -2.3788285e-05   4.2257469e-01   4.2179319e-01  -5.2421160e+04
   3.8226075e-09  -2.3648859e-05   4.2257242e-01   4.2179551e-01  -5.2113914e+04
   3.8252751e-09  -2.3510251e-05   4.2257018e-01   4.2179781e-01  -5.1808470e+04
   3.8279426e-09  -2.3372455e-05   4.2256794e-01   4.2180010e-01  -5.1504815e+04
   3.8306102e-09  -2.3235466e-05   4.2256572e-01   4.2180238e-01  -5.1202941e+04
   3.8332778e-09  -2.3099281e-05   4.2256351e-01   4.2180465e-01  -5.0902835e+04
   3.8359453e-09  -2.2963893e-05   4.2256131e-01   4.2180690e-01  -5.0604489e+04
   3.8386129e-09  -2.2829300e-05   4.2255913e-01   4.2180914e-01  -5.0307891e+04
   3.8412804e-09  -2.2695495e-05   4.2255696e-01   4.2181136e-01  -5.0013031e+04
   3.8439480e-09  -2.2562474e-05   4.2255480e-01   4.2181357e-01  -4.9719900e+04
   3.8466155e-09  -2.2430233e-05   4.2255266e-01   4.2181577e-01  -4.9428487e+04
   3.8492831e-09  -2.2298767e-05   4.2255053e-01   4.2181796e-01  -4.9138782e+04
   3.8519507e-09  -2.2168071e-05   4.2254841e-01   4.2182013e-01  -4.8850774e+04
   3.8546182e-09  -2.2038142e-05   4.2254630e-01   4.2182230e-01  -4.8564455e+04
   3.8572858e-09  -2.1908974e-05   4.2254420e-01   4.2182444e-01  -4.8279814e+04
   3.8599533e-09  -2.1780563e-05   4.2254212e-01   4.2182658e-01  -4.7996841e+04
   3.8626209e-09  -2.1652905e-05   4.2254005e-01   4.2182870e-01  -4.7715527e+04
   3.8652884e-09  -2.1525995e-05   4.2253799e-01   4.2183081e-01  -4.7435861e+04
   3.8679560e-09  -2.1399828e-05   4.2253595e-01   4.2183291e-01  -4.7157835e+04
   3.8706235e-09  -2.1274402e-05   4.2253391e-01   4.2183500e-01  -4.6881438e+04
   3.8732911e-09  -2.1149710e-05   4.2253189e-01   4.2183707e-01  -4.6606661e+04
   3.8759587e-09  -2.1025749e-05   4.2252988e-01   4.2183914e-01  -4.6333495e+04
   3.8786262e-09  -2.0902515e-05   4.2252788e-01   4.2184119e-01  -4.6061929e+04
   3.8812938e-09  -2.0780003e-05   4.2252589e-01   4.2184322e-01  -4.5791955e+04
   3.8839613e-09  -2.0658209e-05   4.2252392e-01   4.2184525e-01  -4.5523564e+04
   3.8866289e-09  -2.0537129e-05   4.2252196e-01   4.2184726e-01  -4.5256746e+04
   3.8892964e-09  -2.0416759e-05   4.2252000e-01   4.2184927e-01  -4.4991491e+04
   3.8919640e-09  -2.0297094e-05   4.2251806e-01   4.2185126e-01  -4.4727791e+04
   3.8946315e-09  -2.0178130e-05   4.2251613e-01   4.2185323e-01  -4.4465637e+04
   3.8972991e-09  -2.0059864e-05   4.2251422e-01   4.2185520e-01  -4.4205019e+04
   3.8999667e-09  -1.9942291e-05   4.2251231e-01   4.2185716e-01  -4.3945929e+04
