   0.0000000e+00  -1.1670892e-01   6.3866339e+00   7.2632612e-04  -5.2230927e+08
   7.6692231e-13  -1.1630875e-01   6.3865137e+00   7.4928468e-04  -5.2124696e+08
   1.5338446e-12  -1.1590941e-01   6.3863916e+00   7.7291971e-04  -5.2018466e+08
   2.3007669e-12  -1.1551087e-01   6.3862675e+00   7.9724949e-04  -5.1912236e+08
   3.0676892e-12  -1.1511315e-01   6.3861415e+00   8.2229272e-04  -5.1806006e+08
   3.8346115e-12  -1.1471625e-01   6.3860134e+00   8.4806858e-04  -5.1699777e+08
   4.6015338e-12  -1.1432016e-01   6.3858833e+00   8.7459670e-04  -5.1593547e+08
   5.3684562e-12  -1.1392489e-01   6.3857511e+00   9.0189715e-04  -5.1487318e+08
   6.1353785e-12  -1.1353043e-01   6.3856168e+00   9.2999052e-04  -5.1381089e+08
   6.9023008e-12  -1.1313678e-01   6.3854804e+00   9.5889786e-04  -5.1274861e+08
   7.6692231e-12  -1.1274395e-01   6.3853417e+00   9.8864073e-04  -5.1168633e+08
   8.4361454e-12  -1.1235194e-01   6.3852009e+00   1.0192412e-03  -5.1062406e+08
   9.2030677e-12  -1.1196073e-01   6.3850579e+00   1.0507218e-03  -5.0956179e+08
   9.9699900e-12  -1.1157035e-01   6.3849126e+00   1.0831057e-03  -5.0849953e+08
   1.0736912e-11  -1.1118078e-01   6.3847649e+00   1.1164165e-03  -5.0743727e+08
   1.1503835e-11  -1.1079202e-01   6.3846150e+00   1.1506784e-03  -5.0637502e+08
   1.2270757e-11  -1.1040408e-01   6.3844626e+00   1.1859162e-03  -5.0531277e+08
   1.3037679e-11  -1.1001695e-01   6.3843079e+00   1.2221551e-03  -5.0425054e+08
   1.3804602e-11  -1.0963064e-01   6.3841507e+00   1.2594211e-03  -5.0318831e+08
   1.4571524e-11  -1.0924514e-01   6.3839910e+00   1.2977406e-03  -5.0212609e+08
   1.5338446e-11  -1.0886045e-01   6.3838287e+00   1.3371407e-03  -5.0106388e+08
   1.6105368e-11  -1.0847659e-01   6.3836639e+00   1.3776492e-03  -5.0000168e+08
   1.6872291e-11  -1.0809353e-01   6.3834965e+00   1.4192943e-03  -4.9893949e+08
   1.7639213e-11  -1.0771129e-01   6.3833265e+00   1.4621050e-03  -4.9787731e+08
   1.8406135e-11  -1.0732987e-01   6.3831538e+00   1.5061109e-03  -4.9681514e+08
   1.9173058e-11  -1.0694925e-01   6.3829783e+00   1.5513422e-03  -4.9575299e+08
   1.9939980e-11  -1.0656946e-01   6.3828001e+00   1.5978300e-03  -4.9469084e+08
   2.0706902e-11  -1.0619048e-01   6.3826190e+00   1.6456058e-03  -4.9362871e+08
   2.1473825e-11  -1.0581231e-01   6.3824352e+00   1.6947020e-03  -4.9256660e+08
   2.2240747e-11  -1.0543496e-01   6.3822484e+00   1.7451515e-03  -4.9150450e+08
   2.3007669e-11  -1.0505842e-01   6.3820587e+00   1.7969881e-03  -4.9044241e+08
   2.3774592e-11  -1.0468270e-01   6.3818659e+00   1.8502462e-03  -4.8938034e+08
   2.4541514e-11  -1.0430779e-01   6.3816702e+00   1.9049612e-03  -4.8831829e+08
   2.5308436e-11  -1.0393369e-01   6.3814714e+00   1.9611689e-03  -4.8725625e+08
   2.6075358e-11  -1.0356041e-01   6.3812694e+00   2.0189061e-03  -4.8619424e+08
   2.6842281e-11  -1.0318795e-01   6.3810643e+00   2.0782104e-03  -4.8513224e+08
   2.7609203e-11  -1.0281630e-01   6.3808560e+00   2.1391200e-03  -4.8407026e+08
   2.8376125e-11  -1.0244546e-01   6.3806444e+00   2.2016742e-03  -4.8300831e+08
   2.9143048e-11  -1.0207544e-01   6.3804295e+00   2.2659128e-03  -4.8194637e+08
   2.9909970e-11  -1.0170623e-01   6.3802112e+00   2.3318767e-03  -4.8088446e+08
   3.0676892e-11  -1.0133784e-01   6.3799895e+00   2.3996076e-03  -4.7982257e+08
   3.1443815e-11  -1.0097026e-01   6.3797643e+00   2.4691479e-03  -4.7876070e+08
   3.2210737e-11  -1.0060350e-01   6.3795356e+00   2.5405411e-03  -4.7769886e+08
   3.2977659e-11  -1.0023755e-01   6.3793033e+00   2.6138314e-03  -4.7663705e+08
   3.3744582e-11  -9.9872410e-02   6.3790674e+00   2.6890641e-03  -4.7557526e+08
   3.4511504e-11  -9.9508088e-02   6.3788278e+00   2.7662853e-03  -4.7451351e+08
   3.5278426e-11  -9.9144581e-02   6.3785844e+00   2.8455421e-03  -4.7345178e+08
   3.6045348e-11  -9.8781888e-02   6.3783373e+00   2.9268824e-03  -4.7239008e+08
   3.6812271e-11  -9.8420009e-02   6.3780863e+00   3.0103554e-03  -4.7132841e+08
   3.7579193e-11  -9.8058945e-02   6.3778314e+00   3.0960108e-03  -4.7026678e+08
   3.8346115e-11  -9.7698694e-02   6.3775725e+00   3.1838997e-03  -4.6920517e+08
   3.9113038e-11  -9.7339258e-02   6.3773096e+00   3.2740741e-03  -4.6814361e+08
   3.9879960e-11  -9.6980636e-02   6.3770425e+00   3.3665870e-03  -4.6708208e+08
   4.0646882e-11  -9.6622828e-02   6.3767714e+00   3.4614924e-03  -4.6602058e+08
   4.1413805e-11  -9.6265834e-02   6.3764960e+00   3.5588454e-03  -4.6495912e+08
   4.2180727e-11  -9.5909654e-02   6.3762163e+00   3.6587021e-03  -4.6389771e+08
   4.2947649e-11  -9.5554289e-02   6.3759323e+00   3.7611199e-03  -4.6283633e+08
   4.3714572e-11  -9.5199737e-02   6.3756438e+00   3.8661571e-03  -4.6177500e+08
   4.4481494e-11  -9.4845999e-02   6.3753509e+00   3.9738732e-03  -4.6071370e+08
   4.5248416e-11  -9.4493075e-02   6.3750534e+00   4.0843288e-03  -4.5965246e+08
   4.6015338e-11  -9.4140965e-02   6.3747514e+00   4.1975857e-03  -4.5859126e+08
   4.6782261e-11  -9.3789668e-02   6.3744446e+00   4.3137067e-03  -4.5753010e+08
   4.7549183e-11  -9.3439186e-02   6.3741331e+00   4.4327561e-03  -4.5646900e+08
   4.8316105e-11  -9.3089517e-02   6.3738168e+00   4.5547991e-03  -4.5540794e+08
   4.9083028e-11  -9.2740662e-02   6.3734956e+00   4.6799022e-03  -4.5434694e+08
   4.9849950e-11  -9.2392621e-02   6.3731694e+00   4.8081333e-03  -4.5328599e+08
   5.0616872e-11  -9.2045393e-02   6.3728381e+00   4.9395612e-03  -4.5222509e+08
   5.1383795e-11  -9.1698979e-02   6.3725018e+00   5.0742563e-03  -4.5116425e+08
   5.2150717e-11  -9.1353378e-02   6.3721602e+00   5.2122902e-03  -4.5010347e+08
   5.2917639e-11  -9.1008591e-02   6.3718134e+00   5.3537355e-03  -4.4904275e+08
   5.3684562e-11  -9.0664618e-02   6.3714613e+00   5.4986666e-03  -4.4798209e+08
   5.4451484e-11  -9.0321458e-02   6.3711037e+00   5.6471588e-03  -4.4692149e+08
   5.5218406e-11  -8.9979111e-02   6.3707406e+00   5.7992889e-03  -4.4586096e+08
   5.5985328e-11  -8.9637577e-02   6.3703719e+00   5.9551352e-03  -4.4480049e+08
   5.6752251e-11  -8.9296857e-02   6.3699976e+00   6.1147771e-03  -4.4374009e+08
   5.7519173e-11  -8.8956950e-02   6.3696175e+00   6.2782957e-03  -4.4267976e+08
   5.8286095e-11  -8.8617857e-02   6.3692315e+00   6.4457731e-03  -4.4161951e+08
   5.9053018e-11  -8.8279576e-02   6.3688397e+00   6.6172933e-03  -4.4055932e+08
   5.9819940e-11  -8.7942108e-02   6.3684418e+00   6.7929413e-03  -4.3949921e+08
   6.0586862e-11  -8.7605454e-02   6.3680378e+00   6.9728039e-03  -4.3843918e+08
   6.1353785e-11  -8.7269612e-02   6.3676277e+00   7.1569691e-03  -4.3737923e+08
   6.2120707e-11  -8.6934583e-02   6.3672113e+00   7.3455265e-03  -4.3631937e+08
   6.2887629e-11  -8.6600367e-02   6.3667885e+00   7.5385673e-03  -4.3525958e+08
   6.3654552e-11  -8.6266964e-02   6.3663592e+00   7.7361840e-03  -4.3419988e+08
   6.4421474e-11  -8.5934373e-02   6.3659234e+00   7.9384709e-03  -4.3314027e+08
   6.5188396e-11  -8.5602595e-02   6.3654810e+00   8.1455236e-03  -4.3208075e+08
   6.5955318e-11  -8.5271629e-02   6.3650318e+00   8.3574393e-03  -4.3102132e+08
   6.6722241e-11  -8.4941476e-02   6.3645758e+00   8.5743169e-03  -4.2996199e+08
   6.7489163e-11  -8.4612136e-02   6.3641128e+00   8.7962568e-03  -4.2890275e+08
   6.8256085e-11  -8.4283607e-02   6.3636428e+00   9.0233610e-03  -4.2784361e+08
   6.9023008e-11  -8.3955891e-02   6.3631657e+00   9.2557333e-03  -4.2678458e+08
   6.9789930e-11  -8.3628987e-02   6.3626813e+00   9.4934788e-03  -4.2572565e+08
   7.0556852e-11  -8.3302895e-02   6.3621896e+00   9.7367045e-03  -4.2466683e+08
   7.1323775e-11  -8.2977615e-02   6.3616904e+00   9.9855191e-03  -4.2360811e+08
   7.2090697e-11  -8.2653148e-02   6.3611837e+00   1.0240033e-02  -4.2254951e+08
   7.2857619e-11  -8.2329491e-02   6.3606693e+00   1.0500357e-02  -4.2149102e+08
   7.3624542e-11  -8.2006647e-02   6.3601472e+00   1.0766607e-02  -4.2043265e+08
   7.4391464e-11  -8.1684614e-02   6.3596171e+00   1.1038896e-02  -4.1937440e+08
   7.5158386e-11  -8.1363393e-02   6.3590791e+00   1.1317343e-02  -4.1831627e+08
   7.5925308e-11  -8.1042983e-02   6.3585330e+00   1.1602066e-02  -4.1725827e+08
   7.6692231e-11  -8.0723385e-02   6.3579787e+00   1.1893185e-02  -4.1620039e+08
   7.7459153e-11  -8.0404597e-02   6.3574160e+00   1.2190824e-02  -4.1514265e+08
   7.8226075e-11  -8.0086621e-02   6.3568449e+00   1.2495106e-02  -4.1408504e+08
   7.8992998e-11  -7.9769456e-02   6.3562652e+00   1.2806157e-02  -4.1302757e+08
   7.9759920e-11  -7.9453102e-02   6.3556769e+00   1.3124106e-02  -4.1197024e+08
   8.0526842e-11  -7.9137559e-02   6.3550798e+00   1.3449081e-02  -4.1091305e+08
   8.1293765e-11  -7.8822827e-02   6.3544737e+00   1.3781213e-02  -4.0985601e+08
   8.2060687e-11  -7.8508905e-02   6.3538586e+00   1.4120638e-02  -4.0879912e+08
   8.2827609e-11  -7.8195793e-02   6.3532343e+00   1.4467488e-02  -4.0774238e+08
   8.3594532e-11  -7.7883492e-02   6.3526008e+00   1.4821902e-02  -4.0668580e+08
   8.4361454e-11  -7.7572002e-02   6.3519578e+00   1.5184018e-02  -4.0562937e+08
   8.5128376e-11  -7.7261321e-02   6.3513053e+00   1.5553977e-02  -4.0457311e+08
   8.5895298e-11  -7.6951450e-02   6.3506431e+00   1.5931921e-02  -4.0351702e+08
   8.6662221e-11  -7.6642389e-02   6.3499711e+00   1.6317995e-02  -4.0246110e+08
   8.7429143e-11  -7.6334138e-02   6.3492891e+00   1.6712345e-02  -4.0140535e+08
   8.8196065e-11  -7.6026697e-02   6.3485971e+00   1.7115120e-02  -4.0034977e+08
   8.8962988e-11  -7.5720065e-02   6.3478949e+00   1.7526469e-02  -3.9929438e+08
   8.9729910e-11  -7.5414243e-02   6.3471823e+00   1.7946545e-02  -3.9823917e+08
   9.0496832e-11  -7.5109229e-02   6.3464593e+00   1.8375502e-02  -3.9718415e+08
   9.1263755e-11  -7.4805025e-02   6.3457256e+00   1.8813495e-02  -3.9612932e+08
   9.2030677e-11  -7.4501629e-02   6.3449812e+00   1.9260683e-02  -3.9507469e+08
   9.2797599e-11  -7.4199042e-02   6.3442259e+00   1.9717226e-02  -3.9402026e+08
   9.3564522e-11  -7.3897264e-02   6.3434595e+00   2.0183285e-02  -3.9296603e+08
   9.4331444e-11  -7.3596295e-02   6.3426820e+00   2.0659023e-02  -3.9191201e+08
   9.5098366e-11  -7.3296133e-02   6.3418931e+00   2.1144607e-02  -3.9085820e+08
   9.5865288e-11  -7.2996780e-02   6.3410928e+00   2.1640205e-02  -3.8980461e+08
   9.6632211e-11  -7.2698234e-02   6.3402808e+00   2.2145985e-02  -3.8875124e+08
   9.7399133e-11  -7.2400497e-02   6.3394571e+00   2.2662119e-02  -3.8769810e+08
   9.8166055e-11  -7.2103567e-02   6.3386214e+00   2.3188781e-02  -3.8664518e+08
   9.8932978e-11  -7.1807444e-02   6.3377737e+00   2.3726146e-02  -3.8559250e+08
   9.9699900e-11  -7.1512128e-02   6.3369137e+00   2.4274392e-02  -3.8454005e+08
   1.0046682e-10  -7.1217620e-02   6.3360413e+00   2.4833698e-02  -3.8348785e+08
   1.0123374e-10  -7.0923919e-02   6.3351564e+00   2.5404244e-02  -3.8243589e+08
   1.0200067e-10  -7.0631024e-02   6.3342588e+00   2.5986215e-02  -3.8138419e+08
   1.0276759e-10  -7.0338935e-02   6.3333484e+00   2.6579795e-02  -3.8033275e+08
   1.0353451e-10  -7.0047653e-02   6.3324249e+00   2.7185172e-02  -3.7928156e+08
   1.0430143e-10  -6.9757177e-02   6.3314883e+00   2.7802535e-02  -3.7823064e+08
   1.0506836e-10  -6.9467507e-02   6.3305383e+00   2.8432074e-02  -3.7718000e+08
   1.0583528e-10  -6.9178642e-02   6.3295748e+00   2.9073982e-02  -3.7612963e+08
   1.0660220e-10  -6.8890583e-02   6.3285977e+00   2.9728455e-02  -3.7507954e+08
   1.0736912e-10  -6.8603329e-02   6.3276067e+00   3.0395688e-02  -3.7402974e+08
   1.0813605e-10  -6.8316881e-02   6.3266017e+00   3.1075880e-02  -3.7298023e+08
   1.0890297e-10  -6.8031237e-02   6.3255826e+00   3.1769233e-02  -3.7193101e+08
   1.0966989e-10  -6.7746397e-02   6.3245491e+00   3.2475947e-02  -3.7088210e+08
   1.1043681e-10  -6.7462362e-02   6.3235011e+00   3.3196228e-02  -3.6983350e+08
   1.1120373e-10  -6.7179131e-02   6.3224384e+00   3.3930280e-02  -3.6878521e+08
   1.1197066e-10  -6.6896703e-02   6.3213609e+00   3.4678313e-02  -3.6773724e+08
   1.1273758e-10  -6.6615080e-02   6.3202683e+00   3.5440536e-02  -3.6668959e+08
   1.1350450e-10  -6.6334259e-02   6.3191606e+00   3.6217160e-02  -3.6564228e+08
   1.1427142e-10  -6.6054242e-02   6.3180375e+00   3.7008399e-02  -3.6459530e+08
   1.1503835e-10  -6.5775027e-02   6.3168988e+00   3.7814467e-02  -3.6354866e+08
   1.1580527e-10  -6.5496615e-02   6.3157443e+00   3.8635581e-02  -3.6250237e+08
   1.1657219e-10  -6.5219006e-02   6.3145740e+00   3.9471960e-02  -3.6145643e+08
   1.1733911e-10  -6.4942198e-02   6.3133876e+00   4.0323824e-02  -3.6041085e+08
   1.1810604e-10  -6.4666192e-02   6.3121849e+00   4.1191395e-02  -3.5936564e+08
   1.1887296e-10  -6.4390988e-02   6.3109657e+00   4.2074897e-02  -3.5832080e+08
   1.1963988e-10  -6.4116584e-02   6.3097299e+00   4.2974554e-02  -3.5727634e+08
   1.2040680e-10  -6.3842982e-02   6.3084773e+00   4.3890595e-02  -3.5623226e+08
   1.2117372e-10  -6.3570180e-02   6.3072077e+00   4.4823246e-02  -3.5518857e+08
   1.2194065e-10  -6.3298178e-02   6.3059208e+00   4.5772738e-02  -3.5414528e+08
   1.2270757e-10  -6.3026977e-02   6.3046166e+00   4.6739303e-02  -3.5310240e+08
   1.2347449e-10  -6.2756575e-02   6.3032948e+00   4.7723174e-02  -3.5205992e+08
   1.2424141e-10  -6.2486972e-02   6.3019553e+00   4.8724585e-02  -3.5101786e+08
   1.2500834e-10  -6.2218168e-02   6.3005978e+00   4.9743773e-02  -3.4997622e+08
   1.2577526e-10  -6.1950163e-02   6.2992221e+00   5.0780975e-02  -3.4893502e+08
   1.2654218e-10  -6.1682957e-02   6.2978282e+00   5.1836429e-02  -3.4789425e+08
   1.2730910e-10  -6.1416548e-02   6.2964157e+00   5.2910377e-02  -3.4685393e+08
   1.2807603e-10  -6.1150937e-02   6.2949845e+00   5.4003059e-02  -3.4581406e+08
   1.2884295e-10  -6.0886124e-02   6.2935344e+00   5.5114719e-02  -3.4477464e+08
   1.2960987e-10  -6.0622107e-02   6.2920652e+00   5.6245600e-02  -3.4373570e+08
   1.3037679e-10  -6.0358887e-02   6.2905767e+00   5.7395949e-02  -3.4269722e+08
   1.3114371e-10  -6.0096463e-02   6.2890687e+00   5.8566011e-02  -3.4165923e+08
   1.3191064e-10  -5.9834835e-02   6.2875410e+00   5.9756035e-02  -3.4062172e+08
   1.3267756e-10  -5.9574003e-02   6.2859935e+00   6.0966269e-02  -3.3958471e+08
   1.3344448e-10  -5.9313966e-02   6.2844259e+00   6.2196962e-02  -3.3854820e+08
   1.3421140e-10  -5.9054723e-02   6.2828380e+00   6.3448367e-02  -3.3751220e+08
   1.3497833e-10  -5.8796275e-02   6.2812296e+00   6.4720734e-02  -3.3647672e+08
   1.3574525e-10  -5.8538620e-02   6.2796006e+00   6.6014317e-02  -3.3544177e+08
   1.3651217e-10  -5.8281760e-02   6.2779508e+00   6.7329369e-02  -3.3440735e+08
   1.3727909e-10  -5.8025692e-02   6.2762798e+00   6.8666144e-02  -3.3337347e+08
   1.3804602e-10  -5.7770417e-02   6.2745877e+00   7.0024899e-02  -3.3234014e+08
   1.3881294e-10  -5.7515934e-02   6.2728740e+00   7.1405889e-02  -3.3130737e+08
   1.3957986e-10  -5.7262243e-02   6.2711388e+00   7.2809371e-02  -3.3027517e+08
   1.4034678e-10  -5.7009344e-02   6.2693817e+00   7.4235602e-02  -3.2924353e+08
   1.4111370e-10  -5.6757235e-02   6.2676025e+00   7.5684840e-02  -3.2821248e+08
   1.4188063e-10  -5.6505917e-02   6.2658011e+00   7.7157344e-02  -3.2718202e+08
   1.4264755e-10  -5.6255389e-02   6.2639773e+00   7.8653373e-02  -3.2615217e+08
   1.4341447e-10  -5.6005651e-02   6.2621308e+00   8.0173186e-02  -3.2512291e+08
   1.4418139e-10  -5.5756701e-02   6.2602615e+00   8.1717044e-02  -3.2409428e+08
   1.4494832e-10  -5.5508541e-02   6.2583692e+00   8.3285205e-02  -3.2306627e+08
   1.4571524e-10  -5.5261168e-02   6.2564537e+00   8.4877931e-02  -3.2203889e+08
   1.4648216e-10  -5.5014583e-02   6.2545147e+00   8.6495483e-02  -3.2101215e+08
   1.4724908e-10  -5.4768786e-02   6.2525521e+00   8.8138120e-02  -3.1998607e+08
   1.4801601e-10  -5.4523775e-02   6.2505658e+00   8.9806104e-02  -3.1896064e+08
   1.4878293e-10  -5.4279550e-02   6.2485554e+00   9.1499696e-02  -3.1793589e+08
   1.4954985e-10  -5.4036111e-02   6.2465208e+00   9.3219156e-02  -3.1691181e+08
   1.5031677e-10  -5.3793457e-02   6.2444618e+00   9.4964745e-02  -3.1588842e+08
   1.5108369e-10  -5.3551587e-02   6.2423782e+00   9.6736723e-02  -3.1486572e+08
   1.5185062e-10  -5.3310502e-02   6.2402699e+00   9.8535352e-02  -3.1384374e+08
   1.5261754e-10  -5.3070200e-02   6.2381366e+00   1.0036089e-01  -3.1282246e+08
   1.5338446e-10  -5.2830681e-02   6.2359781e+00   1.0221360e-01  -3.1180191e+08
   1.5415138e-10  -5.2591944e-02   6.2337943e+00   1.0409373e-01  -3.1078210e+08
   1.5491831e-10  -5.2353990e-02   6.2315849e+00   1.0600156e-01  -3.0976303e+08
   1.5568523e-10  -5.2116816e-02   6.2293498e+00   1.0793732e-01  -3.0874471e+08
   1.5645215e-10  -5.1880423e-02   6.2270888e+00   1.0990129e-01  -3.0772715e+08
   1.5721907e-10  -5.1644811e-02   6.2248017e+00   1.1189372e-01  -3.0671037e+08
   1.5798600e-10  -5.1409978e-02   6.2224884e+00   1.1391486e-01  -3.0569437e+08
   1.5875292e-10  -5.1175923e-02   6.2201485e+00   1.1596498e-01  -3.0467916e+08
   1.5951984e-10  -5.0942647e-02   6.2177820e+00   1.1804432e-01  -3.0366475e+08
   1.6028676e-10  -5.0710149e-02   6.2153887e+00   1.2015313e-01  -3.0265116e+08
   1.6105368e-10  -5.0478427e-02   6.2129683e+00   1.2229167e-01  -3.0163838e+08
   1.6182061e-10  -5.0247482e-02   6.2105208e+00   1.2446020e-01  -3.0062644e+08
   1.6258753e-10  -5.0017313e-02   6.2080459e+00   1.2665895e-01  -2.9961534e+08
   1.6335445e-10  -4.9787919e-02   6.2055435e+00   1.2888818e-01  -2.9860510e+08
   1.6412137e-10  -4.9559300e-02   6.2030134e+00   1.3114813e-01  -2.9759571e+08
   1.6488830e-10  -4.9331454e-02   6.2004553e+00   1.3343905e-01  -2.9658720e+08
   1.6565522e-10  -4.9104381e-02   6.1978693e+00   1.3576118e-01  -2.9557958e+08
   1.6642214e-10  -4.8878081e-02   6.1952550e+00   1.3811478e-01  -2.9457284e+08
   1.6718906e-10  -4.8652552e-02   6.1926123e+00   1.4050006e-01  -2.9356701e+08
   1.6795599e-10  -4.8427794e-02   6.1899411e+00   1.4291728e-01  -2.9256210e+08
   1.6872291e-10  -4.8203807e-02   6.1872411e+00   1.4536667e-01  -2.9155811e+08
   1.6948983e-10  -4.7980590e-02   6.1845123e+00   1.4784847e-01  -2.9055506e+08
   1.7025675e-10  -4.7758141e-02   6.1817545e+00   1.5036291e-01  -2.8955296e+08
   1.7102367e-10  -4.7536460e-02   6.1789674e+00   1.5291021e-01  -2.8855181e+08
   1.7179060e-10  -4.7315547e-02   6.1761510e+00   1.5549061e-01  -2.8755163e+08
   1.7255752e-10  -4.7095401e-02   6.1733052e+00   1.5810434e-01  -2.8655243e+08
   1.7332444e-10  -4.6876020e-02   6.1704297e+00   1.6075162e-01  -2.8555422e+08
   1.7409136e-10  -4.6657405e-02   6.1675244e+00   1.6343266e-01  -2.8455702e+08
   1.7485829e-10  -4.6439554e-02   6.1645891e+00   1.6614769e-01  -2.8356082e+08
   1.7562521e-10  -4.6222467e-02   6.1616238e+00   1.6889693e-01  -2.8256565e+08
   1.7639213e-10  -4.6006142e-02   6.1586283e+00   1.7168059e-01  -2.8157151e+08
   1.7715905e-10  -4.5790579e-02   6.1556024e+00   1.7449887e-01  -2.8057842e+08
   1.7792598e-10  -4.5575778e-02   6.1525461e+00   1.7735200e-01  -2.7958639e+08
   1.7869290e-10  -4.5361737e-02   6.1494591e+00   1.8024016e-01  -2.7859542e+08
   1.7945982e-10  -4.5148456e-02   6.1463415e+00   1.8316357e-01  -2.7760553e+08
   1.8022674e-10  -4.4935933e-02   6.1431929e+00   1.8612243e-01  -2.7661673e+08
   1.8099366e-10  -4.4724169e-02   6.1400133e+00   1.8911692e-01  -2.7562904e+08
   1.8176059e-10  -4.4513161e-02   6.1368027e+00   1.9214725e-01  -2.7464246e+08
   1.8252751e-10  -4.4302910e-02   6.1335608e+00   1.9521359e-01  -2.7365700e+08
   1.8329443e-10  -4.4093414e-02   6.1302876e+00   1.9831615e-01  -2.7267268e+08
   1.8406135e-10  -4.3884672e-02   6.1269830e+00   2.0145510e-01  -2.7168950e+08
   1.8482828e-10  -4.3676684e-02   6.1236468e+00   2.0463062e-01  -2.7070749e+08
   1.8559520e-10  -4.3469449e-02   6.1202789e+00   2.0784288e-01  -2.6972664e+08
   1.8636212e-10  -4.3262965e-02   6.1168793e+00   2.1109206e-01  -2.6874698e+08
   1.8712904e-10  -4.3057232e-02   6.1134479e+00   2.1437832e-01  -2.6776851e+08
   1.8789597e-10  -4.2852250e-02   6.1099845e+00   2.1770183e-01  -2.6679125e+08
   1.8866289e-10  -4.2648016e-02   6.1064890e+00   2.2106275e-01  -2.6581520e+08
   1.8942981e-10  -4.2444530e-02   6.1029615e+00   2.2446124e-01  -2.6484038e+08
   1.9019673e-10  -4.2241792e-02   6.0994018e+00   2.2789744e-01  -2.6386680e+08
   1.9096365e-10  -4.2039799e-02   6.0958098e+00   2.3137151e-01  -2.6289448e+08
   1.9173058e-10  -4.1838552e-02   6.0921854e+00   2.3488359e-01  -2.6192341e+08
   1.9249750e-10  -4.1638049e-02   6.0885286e+00   2.3843381e-01  -2.6095362e+08
   1.9326442e-10  -4.1438290e-02   6.0848394e+00   2.4202232e-01  -2.5998512e+08
   1.9403134e-10  -4.1239272e-02   6.0811175e+00   2.4564924e-01  -2.5901792e+08
   1.9479827e-10  -4.1040996e-02   6.0773631e+00   2.4931471e-01  -2.5805203e+08
   1.9556519e-10  -4.0843460e-02   6.0735760e+00   2.5301883e-01  -2.5708746e+08
   1.9633211e-10  -4.0646664e-02   6.0697562e+00   2.5676173e-01  -2.5612422e+08
   1.9709903e-10  -4.0450605e-02   6.0659037e+00   2.6054353e-01  -2.5516233e+08
   1.9786596e-10  -4.0255284e-02   6.0620183e+00   2.6436432e-01  -2.5420180e+08
   1.9863288e-10  -4.0060699e-02   6.0581001e+00   2.6822422e-01  -2.5324263e+08
   1.9939980e-10  -3.9866849e-02   6.0541490e+00   2.7212331e-01  -2.5228485e+08
   2.0016672e-10  -3.9673733e-02   6.0501650e+00   2.7606170e-01  -2.5132846e+08
   2.0093364e-10  -3.9481350e-02   6.0461481e+00   2.8003947e-01  -2.5037348e+08
   2.0170057e-10  -3.9289698e-02   6.0420982e+00   2.8405670e-01  -2.4941991e+08
   2.0246749e-10  -3.9098778e-02   6.0380154e+00   2.8811347e-01  -2.4846777e+08
   2.0323441e-10  -3.8908587e-02   6.0338995e+00   2.9220986e-01  -2.4751707e+08
   2.0400133e-10  -3.8719125e-02   6.0297507e+00   2.9634592e-01  -2.4656782e+08
   2.0476826e-10  -3.8530390e-02   6.0255688e+00   3.0052174e-01  -2.4562004e+08
   2.0553518e-10  -3.8342381e-02   6.0213540e+00   3.0473735e-01  -2.4467373e+08
   2.0630210e-10  -3.8155098e-02   6.0171062e+00   3.0899281e-01  -2.4372891e+08
   2.0706902e-10  -3.7968539e-02   6.0128254e+00   3.1328818e-01  -2.4278558e+08
   2.0783595e-10  -3.7782702e-02   6.0085116e+00   3.1762348e-01  -2.4184377e+08
   2.0860287e-10  -3.7597588e-02   6.0041649e+00   3.2199876e-01  -2.4090348e+08
   2.0936979e-10  -3.7413194e-02   5.9997852e+00   3.2641404e-01  -2.3996473e+08
   2.1013671e-10  -3.7229519e-02   5.9953726e+00   3.3086936e-01  -2.3902752e+08
   2.1090363e-10  -3.7046562e-02   5.9909272e+00   3.3536472e-01  -2.3809186e+08
   2.1167056e-10  -3.6864322e-02   5.9864489e+00   3.3990014e-01  -2.3715778e+08
   2.1243748e-10  -3.6682798e-02   5.9819379e+00   3.4447563e-01  -2.3622528e+08
   2.1320440e-10  -3.6501989e-02   5.9773941e+00   3.4909118e-01  -2.3529437e+08
   2.1397132e-10  -3.6321893e-02   5.9728176e+00   3.5374681e-01  -2.3436506e+08
   2.1473825e-10  -3.6142509e-02   5.9682084e+00   3.5844249e-01  -2.3343737e+08
   2.1550517e-10  -3.5963836e-02   5.9635667e+00   3.6317821e-01  -2.3251130e+08
   2.1627209e-10  -3.5785872e-02   5.9588925e+00   3.6795396e-01  -2.3158688e+08
   2.1703901e-10  -3.5608617e-02   5.9541858e+00   3.7276969e-01  -2.3066410e+08
   2.1780594e-10  -3.5432069e-02   5.9494468e+00   3.7762538e-01  -2.2974298e+08
   2.1857286e-10  -3.5256227e-02   5.9446755e+00   3.8252100e-01  -2.2882354e+08
   2.1933978e-10  -3.5081089e-02   5.9398719e+00   3.8745649e-01  -2.2790578e+08
   2.2010670e-10  -3.4906654e-02   5.9350363e+00   3.9243181e-01  -2.2698972e+08
   2.2087362e-10  -3.4732921e-02   5.9301686e+00   3.9744689e-01  -2.2607536e+08
   2.2164055e-10  -3.4559889e-02   5.9252690e+00   4.0250169e-01  -2.2516272e+08
   2.2240747e-10  -3.4387556e-02   5.9203376e+00   4.0759612e-01  -2.2425181e+08
   2.2317439e-10  -3.4215921e-02   5.9153744e+00   4.1273011e-01  -2.2334263e+08
   2.2394131e-10  -3.4044983e-02   5.9103797e+00   4.1790359e-01  -2.2243521e+08
   2.2470824e-10  -3.3874740e-02   5.9053534e+00   4.2311647e-01  -2.2152956e+08
   2.2547516e-10  -3.3705191e-02   5.9002959e+00   4.2836866e-01  -2.2062567e+08
   2.2624208e-10  -3.3536334e-02   5.8952070e+00   4.3366006e-01  -2.1972357e+08
   2.2700900e-10  -3.3368168e-02   5.8900871e+00   4.3899056e-01  -2.1882326e+08
   2.2777593e-10  -3.3200692e-02   5.8849362e+00   4.4436005e-01  -2.1792476e+08
   2.2854285e-10  -3.3033905e-02   5.8797544e+00   4.4976843e-01  -2.1702807e+08
   2.2930977e-10  -3.2867805e-02   5.8745420e+00   4.5521557e-01  -2.1613322e+08
   2.3007669e-10  -3.2702390e-02   5.8692990e+00   4.6070133e-01  -2.1524020e+08
   2.3084361e-10  -3.2537659e-02   5.8640257e+00   4.6622560e-01  -2.1434902e+08
   2.3161054e-10  -3.2373611e-02   5.8587221e+00   4.7178823e-01  -2.1345971e+08
   2.3237746e-10  -3.2210245e-02   5.8533885e+00   4.7738907e-01  -2.1257227e+08
   2.3314438e-10  -3.2047558e-02   5.8480249e+00   4.8302798e-01  -2.1168670e+08
   2.3391130e-10  -3.1885549e-02   5.8426317e+00   4.8870479e-01  -2.1080303e+08
   2.3467823e-10  -3.1724218e-02   5.8372089e+00   4.9441936e-01  -2.0992125e+08
   2.3544515e-10  -3.1563562e-02   5.8317567e+00   5.0017150e-01  -2.0904139e+08
   2.3621207e-10  -3.1403581e-02   5.8262754e+00   5.0596105e-01  -2.0816345e+08
   2.3697899e-10  -3.1244271e-02   5.8207651e+00   5.1178782e-01  -2.0728744e+08
   2.3774592e-10  -3.1085633e-02   5.8152259e+00   5.1765164e-01  -2.0641336e+08
   2.3851284e-10  -3.0927665e-02   5.8096582e+00   5.2355231e-01  -2.0554124e+08
   2.3927976e-10  -3.0770364e-02   5.8040621e+00   5.2948963e-01  -2.0467108e+08
   2.4004668e-10  -3.0613731e-02   5.7984378e+00   5.3546341e-01  -2.0380289e+08
   2.4081360e-10  -3.0457762e-02   5.7927855e+00   5.4147344e-01  -2.0293668e+08
   2.4158053e-10  -3.0302457e-02   5.7871055e+00   5.4751951e-01  -2.0207246e+08
   2.4234745e-10  -3.0147814e-02   5.7813979e+00   5.5360140e-01  -2.0121024e+08
   2.4311437e-10  -2.9993831e-02   5.7756630e+00   5.5971888e-01  -2.0035002e+08
   2.4388129e-10  -2.9840507e-02   5.7699010e+00   5.6587173e-01  -1.9949183e+08
   2.4464822e-10  -2.9687841e-02   5.7641121e+00   5.7205972e-01  -1.9863566e+08
   2.4541514e-10  -2.9535830e-02   5.7582966e+00   5.7828260e-01  -1.9778153e+08
   2.4618206e-10  -2.9384474e-02   5.7524547e+00   5.8454014e-01  -1.9692944e+08
   2.4694898e-10  -2.9233771e-02   5.7465867e+00   5.9083208e-01  -1.9607940e+08
   2.4771591e-10  -2.9083718e-02   5.7406927e+00   5.9715817e-01  -1.9523143e+08
   2.4848283e-10  -2.8934315e-02   5.7347731e+00   6.0351816e-01  -1.9438554e+08
   2.4924975e-10  -2.8785560e-02   5.7288281e+00   6.0991178e-01  -1.9354172e+08
   2.5001667e-10  -2.8637452e-02   5.7228580e+00   6.1633876e-01  -1.9269999e+08
   2.5078359e-10  -2.8489988e-02   5.7168630e+00   6.2279882e-01  -1.9186036e+08
   2.5155052e-10  -2.8343167e-02   5.7108433e+00   6.2929170e-01  -1.9102284e+08
   2.5231744e-10  -2.8196988e-02   5.7047993e+00   6.3581711e-01  -1.9018743e+08
   2.5308436e-10  -2.8051449e-02   5.6987312e+00   6.4237476e-01  -1.8935415e+08
   2.5385128e-10  -2.7906548e-02   5.6926393e+00   6.4896436e-01  -1.8852299e+08
   2.5461821e-10  -2.7762283e-02   5.6865239e+00   6.5558562e-01  -1.8769398e+08
   2.5538513e-10  -2.7618654e-02   5.6803851e+00   6.6223823e-01  -1.8686711e+08
   2.5615205e-10  -2.7475657e-02   5.6742235e+00   6.6892190e-01  -1.8604240e+08
   2.5691897e-10  -2.7333293e-02   5.6680391e+00   6.7563631e-01  -1.8521986e+08
   2.5768590e-10  -2.7191558e-02   5.6618323e+00   6.8238115e-01  -1.8439948e+08
   2.5845282e-10  -2.7050452e-02   5.6556034e+00   6.8915610e-01  -1.8358128e+08
   2.5921974e-10  -2.6909972e-02   5.6493527e+00   6.9596085e-01  -1.8276527e+08
   2.5998666e-10  -2.6770118e-02   5.6430805e+00   7.0279507e-01  -1.8195145e+08
   2.6075358e-10  -2.6630887e-02   5.6367871e+00   7.0965843e-01  -1.8113983e+08
   2.6152051e-10  -2.6492277e-02   5.6304727e+00   7.1655060e-01  -1.8033042e+08
   2.6228743e-10  -2.6354287e-02   5.6241377e+00   7.2347124e-01  -1.7952323e+08
   2.6305435e-10  -2.6216915e-02   5.6177824e+00   7.3042002e-01  -1.7871825e+08
   2.6382127e-10  -2.6080160e-02   5.6114071e+00   7.3739660e-01  -1.7791551e+08
   2.6458820e-10  -2.5944020e-02   5.6050121e+00   7.4440062e-01  -1.7711500e+08
   2.6535512e-10  -2.5808493e-02   5.5985978e+00   7.5143174e-01  -1.7631673e+08
   2.6612204e-10  -2.5673577e-02   5.5921643e+00   7.5848960e-01  -1.7552071e+08
   2.6688896e-10  -2.5539271e-02   5.5857122e+00   7.6557386e-01  -1.7472695e+08
   2.6765589e-10  -2.5405572e-02   5.5792416e+00   7.7268414e-01  -1.7393545e+08
   2.6842281e-10  -2.5272480e-02   5.5727529e+00   7.7982010e-01  -1.7314622e+08
   2.6918973e-10  -2.5139992e-02   5.5662464e+00   7.8698137e-01  -1.7235926e+08
   2.6995665e-10  -2.5008107e-02   5.5597224e+00   7.9416758e-01  -1.7157458e+08
   2.7072357e-10  -2.4876823e-02   5.5531813e+00   8.0137835e-01  -1.7079218e+08
   2.7149050e-10  -2.4746138e-02   5.5466234e+00   8.0861333e-01  -1.7001208e+08
   2.7225742e-10  -2.4616050e-02   5.5400491e+00   8.1587213e-01  -1.6923427e+08
   2.7302434e-10  -2.4486558e-02   5.5334586e+00   8.2315437e-01  -1.6845877e+08
   2.7379126e-10  -2.4357660e-02   5.5268522e+00   8.3045968e-01  -1.6768558e+08
   2.7455819e-10  -2.4229354e-02   5.5202304e+00   8.3778768e-01  -1.6691470e+08
   2.7532511e-10  -2.4101638e-02   5.5135935e+00   8.4513798e-01  -1.6614613e+08
   2.7609203e-10  -2.3974511e-02   5.5069417e+00   8.5251019e-01  -1.6537990e+08
   2.7685895e-10  -2.3847970e-02   5.5002755e+00   8.5990394e-01  -1.6461599e+08
   2.7762588e-10  -2.3722015e-02   5.4935951e+00   8.6731882e-01  -1.6385441e+08
   2.7839280e-10  -2.3596643e-02   5.4869010e+00   8.7475445e-01  -1.6309517e+08
   2.7915972e-10  -2.3471852e-02   5.4801933e+00   8.8221043e-01  -1.6233828e+08
   2.7992664e-10  -2.3347640e-02   5.4734726e+00   8.8968638e-01  -1.6158373e+08
   2.8069356e-10  -2.3224007e-02   5.4667391e+00   8.9718189e-01  -1.6083154e+08
   2.8146049e-10  -2.3100949e-02   5.4599931e+00   9.0469656e-01  -1.6008170e+08
   2.8222741e-10  -2.2978465e-02   5.4532351e+00   9.1223001e-01  -1.5933423e+08
   2.8299433e-10  -2.2856554e-02   5.4464653e+00   9.1978182e-01  -1.5858911e+08
   2.8376125e-10  -2.2735214e-02   5.4396841e+00   9.2735160e-01  -1.5784637e+08
   2.8452818e-10  -2.2614442e-02   5.4328918e+00   9.3493895e-01  -1.5710600e+08
   2.8529510e-10  -2.2494237e-02   5.4260888e+00   9.4254345e-01  -1.5636800e+08
   2.8606202e-10  -2.2374597e-02   5.4192754e+00   9.5016472e-01  -1.5563239e+08
   2.8682894e-10  -2.2255520e-02   5.4124520e+00   9.5780234e-01  -1.5489916e+08
   2.8759587e-10  -2.2137005e-02   5.4056189e+00   9.6545591e-01  -1.5416831e+08
   2.8836279e-10  -2.2019049e-02   5.3987765e+00   9.7312502e-01  -1.5343986e+08
   2.8912971e-10  -2.1901651e-02   5.3919250e+00   9.8080927e-01  -1.5271380e+08
   2.8989663e-10  -2.1784809e-02   5.3850649e+00   9.8850825e-01  -1.5199014e+08
   2.9066355e-10  -2.1668522e-02   5.3781965e+00   9.9622155e-01  -1.5126887e+08
   2.9143048e-10  -2.1552786e-02   5.3713201e+00   1.0039488e+00  -1.5055001e+08
   2.9219740e-10  -2.1437601e-02   5.3644360e+00   1.0116895e+00  -1.4983355e+08
   2.9296432e-10  -2.1322964e-02   5.3575447e+00   1.0194433e+00  -1.4911950e+08
   2.9373124e-10  -2.1208874e-02   5.3506464e+00   1.0272098e+00  -1.4840786e+08
   2.9449817e-10  -2.1095329e-02   5.3437415e+00   1.0349886e+00  -1.4769863e+08
   2.9526509e-10  -2.0982326e-02   5.3368303e+00   1.0427793e+00  -1.4699181e+08
   2.9603201e-10  -2.0869865e-02   5.3299132e+00   1.0505815e+00  -1.4628742e+08
   2.9679893e-10  -2.0757944e-02   5.3229905e+00   1.0583947e+00  -1.4558544e+08
   2.9756586e-10  -2.0646559e-02   5.3160626e+00   1.0662186e+00  -1.4488588e+08
   2.9833278e-10  -2.0535710e-02   5.3091297e+00   1.0740527e+00  -1.4418875e+08
   2.9909970e-10  -2.0425395e-02   5.3021923e+00   1.0818967e+00  -1.4349403e+08
   2.9986662e-10  -2.0315612e-02   5.2952506e+00   1.0897501e+00  -1.4280175e+08
   3.0063354e-10  -2.0206359e-02   5.2883050e+00   1.0976126e+00  -1.4211189e+08
   3.0140047e-10  -2.0097634e-02   5.2813558e+00   1.1054837e+00  -1.4142446e+08
   3.0216739e-10  -1.9989435e-02   5.2744034e+00   1.1133630e+00  -1.4073946e+08
   3.0293431e-10  -1.9881761e-02   5.2674480e+00   1.1212502e+00  -1.4005689e+08
   3.0370123e-10  -1.9774609e-02   5.2604901e+00   1.1291448e+00  -1.3937676e+08
   3.0446816e-10  -1.9667978e-02   5.2535299e+00   1.1370464e+00  -1.3869905e+08
   3.0523508e-10  -1.9561866e-02   5.2465677e+00   1.1449547e+00  -1.3802379e+08
   3.0600200e-10  -1.9456270e-02   5.2396040e+00   1.1528693e+00  -1.3735095e+08
   3.0676892e-10  -1.9351190e-02   5.2326390e+00   1.1607896e+00  -1.3668055e+08
   3.0753585e-10  -1.9246623e-02   5.2256730e+00   1.1687154e+00  -1.3601259e+08
   3.0830277e-10  -1.9142567e-02   5.2187063e+00   1.1766463e+00  -1.3534706e+08
   3.0906969e-10  -1.9039021e-02   5.2117393e+00   1.1845819e+00  -1.3468397e+08
   3.0983661e-10  -1.8935982e-02   5.2047723e+00   1.1925217e+00  -1.3402331e+08
   3.1060353e-10  -1.8833449e-02   5.1978056e+00   1.2004654e+00  -1.3336510e+08
   3.1137046e-10  -1.8731420e-02   5.1908396e+00   1.2084127e+00  -1.3270932e+08
   3.1213738e-10  -1.8629893e-02   5.1838744e+00   1.2163630e+00  -1.3205597e+08
   3.1290430e-10  -1.8528866e-02   5.1769105e+00   1.2243161e+00  -1.3140506e+08
   3.1367122e-10  -1.8428337e-02   5.1699482e+00   1.2322716e+00  -1.3075659e+08
   3.1443815e-10  -1.8328305e-02   5.1629877e+00   1.2402290e+00  -1.3011056e+08
   3.1520507e-10  -1.8228767e-02   5.1560293e+00   1.2481881e+00  -1.2946695e+08
   3.1597199e-10  -1.8129722e-02   5.1490734e+00   1.2561484e+00  -1.2882579e+08
   3.1673891e-10  -1.8031168e-02   5.1421203e+00   1.2641095e+00  -1.2818706e+08
   3.1750584e-10  -1.7933103e-02   5.1351702e+00   1.2720711e+00  -1.2755076e+08
   3.1827276e-10  -1.7835524e-02   5.1282234e+00   1.2800329e+00  -1.2691689e+08
   3.1903968e-10  -1.7738431e-02   5.1212803e+00   1.2879943e+00  -1.2628545e+08
   3.1980660e-10  -1.7641821e-02   5.1143411e+00   1.2959552e+00  -1.2565644e+08
   3.2057352e-10  -1.7545693e-02   5.1074062e+00   1.3039151e+00  -1.2502987e+08
   3.2134045e-10  -1.7450044e-02   5.1004757e+00   1.3118737e+00  -1.2440572e+08
   3.2210737e-10  -1.7354873e-02   5.0935501e+00   1.3198306e+00  -1.2378399e+08
   3.2287429e-10  -1.7260178e-02   5.0866295e+00   1.3277855e+00  -1.2316469e+08
   3.2364121e-10  -1.7165957e-02   5.0797143e+00   1.3357380e+00  -1.2254781e+08
   3.2440814e-10  -1.7072208e-02   5.0728047e+00   1.3436877e+00  -1.2193336e+08
   3.2517506e-10  -1.6978930e-02   5.0659010e+00   1.3516343e+00  -1.2132132e+08
   3.2594198e-10  -1.6886120e-02   5.0590034e+00   1.3595775e+00  -1.2071170e+08
   3.2670890e-10  -1.6793776e-02   5.0521124e+00   1.3675170e+00  -1.2010450e+08
   3.2747583e-10  -1.6701897e-02   5.0452280e+00   1.3754523e+00  -1.1949971e+08
   3.2824275e-10  -1.6610482e-02   5.0383506e+00   1.3833832e+00  -1.1889733e+08
   3.2900967e-10  -1.6519527e-02   5.0314804e+00   1.3913093e+00  -1.1829736e+08
   3.2977659e-10  -1.6429031e-02   5.0246178e+00   1.3992303e+00  -1.1769980e+08
   3.3054351e-10  -1.6338993e-02   5.0177629e+00   1.4071458e+00  -1.1710465e+08
   3.3131044e-10  -1.6249410e-02   5.0109160e+00   1.4150556e+00  -1.1651189e+08
   3.3207736e-10  -1.6160281e-02   5.0040773e+00   1.4229594e+00  -1.1592154e+08
   3.3284428e-10  -1.6071604e-02   4.9972472e+00   1.4308567e+00  -1.1533358e+08
   3.3361120e-10  -1.5983377e-02   4.9904258e+00   1.4387473e+00  -1.1474802e+08
   3.3437813e-10  -1.5895598e-02   4.9836134e+00   1.4466309e+00  -1.1416484e+08
   3.3514505e-10  -1.5808265e-02   4.9768103e+00   1.4545071e+00  -1.1358406e+08
   3.3591197e-10  -1.5721377e-02   4.9700166e+00   1.4623757e+00  -1.1300566e+08
   3.3667889e-10  -1.5634931e-02   4.9632327e+00   1.4702363e+00  -1.1242965e+08
   3.3744582e-10  -1.5548926e-02   4.9564587e+00   1.4780887e+00  -1.1185601e+08
   3.3821274e-10  -1.5463361e-02   4.9496948e+00   1.4859326e+00  -1.1128475e+08
   3.3897966e-10  -1.5378232e-02   4.9429414e+00   1.4937676e+00  -1.1071587e+08
   3.3974658e-10  -1.5293539e-02   4.9361986e+00   1.5015935e+00  -1.1014935e+08
   3.4051350e-10  -1.5209280e-02   4.9294667e+00   1.5094100e+00  -1.0958520e+08
   3.4128043e-10  -1.5125452e-02   4.9227458e+00   1.5172167e+00  -1.0902342e+08
   3.4204735e-10  -1.5042054e-02   4.9160362e+00   1.5250135e+00  -1.0846399e+08
   3.4281427e-10  -1.4959084e-02   4.9093381e+00   1.5328000e+00  -1.0790691e+08
   3.4358119e-10  -1.4876541e-02   4.9026517e+00   1.5405759e+00  -1.0735219e+08
   3.4434812e-10  -1.4794422e-02   4.8959772e+00   1.5483411e+00  -1.0679982e+08
   3.4511504e-10  -1.4712726e-02   4.8893149e+00   1.5560952e+00  -1.0624979e+08
   3.4588196e-10  -1.4631451e-02   4.8826649e+00   1.5638379e+00  -1.0570211e+08
   3.4664888e-10  -1.4550595e-02   4.8760274e+00   1.5715690e+00  -1.0515675e+08
   3.4741581e-10  -1.4470156e-02   4.8694026e+00   1.5792882e+00  -1.0461373e+08
   3.4818273e-10  -1.4390133e-02   4.8627908e+00   1.5869954e+00  -1.0407304e+08
   3.4894965e-10  -1.4310524e-02   4.8561920e+00   1.5946901e+00  -1.0353468e+08
   3.4971657e-10  -1.4231326e-02   4.8496066e+00   1.6023722e+00  -1.0299863e+08
   3.5048349e-10  -1.4152539e-02   4.8430346e+00   1.6100414e+00  -1.0246490e+08
   3.5125042e-10  -1.4074160e-02   4.8364763e+00   1.6176976e+00  -1.0193348e+08
   3.5201734e-10  -1.3996188e-02   4.8299318e+00   1.6253403e+00  -1.0140436e+08
   3.5278426e-10  -1.3918621e-02   4.8234014e+00   1.6329695e+00  -1.0087755e+08
   3.5355118e-10  -1.3841457e-02   4.8168852e+00   1.6405848e+00  -1.0035303e+08
   3.5431811e-10  -1.3764695e-02   4.8103833e+00   1.6481861e+00  -9.9830810e+07
   3.5508503e-10  -1.3688332e-02   4.8038960e+00   1.6557731e+00  -9.9310876e+07
   3.5585195e-10  -1.3612367e-02   4.7974233e+00   1.6633455e+00  -9.8793226e+07
   3.5661887e-10  -1.3536798e-02   4.7909656e+00   1.6709033e+00  -9.8277854e+07
   3.5738580e-10  -1.3461623e-02   4.7845228e+00   1.6784461e+00  -9.7764755e+07
   3.5815272e-10  -1.3386841e-02   4.7780953e+00   1.6859737e+00  -9.7253926e+07
   3.5891964e-10  -1.3312450e-02   4.7716831e+00   1.6934860e+00  -9.6745361e+07
   3.5968656e-10  -1.3238448e-02   4.7652864e+00   1.7009827e+00  -9.6239054e+07
   3.6045348e-10  -1.3164834e-02   4.7589053e+00   1.7084636e+00  -9.5735002e+07
   3.6122041e-10  -1.3091605e-02   4.7525400e+00   1.7159285e+00  -9.5233198e+07
   3.6198733e-10  -1.3018760e-02   4.7461907e+00   1.7233773e+00  -9.4733637e+07
   3.6275425e-10  -1.2946298e-02   4.7398574e+00   1.7308096e+00  -9.4236316e+07
   3.6352117e-10  -1.2874216e-02   4.7335404e+00   1.7382254e+00  -9.3741226e+07
   3.6428810e-10  -1.2802513e-02   4.7272397e+00   1.7456244e+00  -9.3248365e+07
   3.6505502e-10  -1.2731187e-02   4.7209555e+00   1.7530065e+00  -9.2757727e+07
   3.6582194e-10  -1.2660236e-02   4.7146879e+00   1.7603715e+00  -9.2269305e+07
   3.6658886e-10  -1.2589659e-02   4.7084371e+00   1.7677192e+00  -9.1783094e+07
   3.6735579e-10  -1.2519455e-02   4.7022031e+00   1.7750494e+00  -9.1299090e+07
   3.6812271e-10  -1.2449620e-02   4.6959862e+00   1.7823619e+00  -9.0817286e+07
   3.6888963e-10  -1.2380154e-02   4.6897863e+00   1.7896566e+00  -9.0337677e+07
   3.6965655e-10  -1.2311056e-02   4.6836037e+00   1.7969333e+00  -8.9860258e+07
   3.7042347e-10  -1.2242322e-02   4.6774385e+00   1.8041919e+00  -8.9385022e+07
   3.7119040e-10  -1.2173952e-02   4.6712907e+00   1.8114322e+00  -8.8911963e+07
   3.7195732e-10  -1.2105945e-02   4.6651605e+00   1.8186540e+00  -8.8441078e+07
   3.7272424e-10  -1.2038297e-02   4.6590479e+00   1.8258571e+00  -8.7972358e+07
   3.7349116e-10  -1.1971008e-02   4.6529532e+00   1.8330416e+00  -8.7505798e+07
   3.7425809e-10  -1.1904076e-02   4.6468764e+00   1.8402070e+00  -8.7041394e+07
   3.7502501e-10  -1.1837500e-02   4.6408175e+00   1.8473534e+00  -8.6579138e+07
   3.7579193e-10  -1.1771277e-02   4.6347768e+00   1.8544807e+00  -8.6119025e+07
   3.7655885e-10  -1.1705406e-02   4.6287542e+00   1.8615885e+00  -8.5661049e+07
   3.7732578e-10  -1.1639885e-02   4.6227499e+00   1.8686769e+00  -8.5205203e+07
   3.7809270e-10  -1.1574714e-02   4.6167640e+00   1.8757456e+00  -8.4751482e+07
   3.7885962e-10  -1.1509889e-02   4.6107966e+00   1.8827946e+00  -8.4299881e+07
   3.7962654e-10  -1.1445410e-02   4.6048477e+00   1.8898238e+00  -8.3850391e+07
   3.8039346e-10  -1.1381275e-02   4.5989175e+00   1.8968329e+00  -8.3403008e+07
   3.8116039e-10  -1.1317482e-02   4.5930060e+00   1.9038219e+00  -8.2957725e+07
   3.8192731e-10  -1.1254030e-02   4.5871132e+00   1.9107907e+00  -8.2514536e+07
   3.8269423e-10  -1.1190917e-02   4.5812394e+00   1.9177391e+00  -8.2073435e+07
   3.8346115e-10  -1.1128142e-02   4.5753844e+00   1.9246670e+00  -8.1634416e+07
   3.8422808e-10  -1.1065702e-02   4.5695486e+00   1.9315744e+00  -8.1197471e+07
   3.8499500e-10  -1.1003597e-02   4.5637318e+00   1.9384610e+00  -8.0762595e+07
   3.8576192e-10  -1.0941825e-02   4.5579341e+00   1.9453269e+00  -8.0329783e+07
   3.8652884e-10  -1.0880383e-02   4.5521557e+00   1.9521719e+00  -7.9899026e+07
   3.8729577e-10  -1.0819271e-02   4.5463966e+00   1.9589959e+00  -7.9470319e+07
   3.8806269e-10  -1.0758487e-02   4.5406569e+00   1.9657987e+00  -7.9043656e+07
   3.8882961e-10  -1.0698030e-02   4.5349365e+00   1.9725804e+00  -7.8619030e+07
   3.8959653e-10  -1.0637898e-02   4.5292356e+00   1.9793408e+00  -7.8196434e+07
   3.9036345e-10  -1.0578088e-02   4.5235543e+00   1.9860799e+00  -7.7775862e+07
   3.9113038e-10  -1.0518601e-02   4.5178925e+00   1.9927974e+00  -7.7357308e+07
   3.9189730e-10  -1.0459434e-02   4.5122504e+00   1.9994935e+00  -7.6940764e+07
   3.9266422e-10  -1.0400585e-02   4.5066280e+00   2.0061679e+00  -7.6526225e+07
   3.9343114e-10  -1.0342054e-02   4.5010253e+00   2.0128206e+00  -7.6113684e+07
   3.9419807e-10  -1.0283838e-02   4.4954423e+00   2.0194515e+00  -7.5703134e+07
   3.9496499e-10  -1.0225937e-02   4.4898792e+00   2.0260605e+00  -7.5294569e+07
   3.9573191e-10  -1.0168348e-02   4.4843360e+00   2.0326477e+00  -7.4887981e+07
   3.9649883e-10  -1.0111070e-02   4.4788127e+00   2.0392128e+00  -7.4483365e+07
   3.9726576e-10  -1.0054101e-02   4.4733093e+00   2.0457559e+00  -7.4080714e+07
   3.9803268e-10  -9.9974408e-03   4.4678258e+00   2.0522768e+00  -7.3680021e+07
   3.9879960e-10  -9.9410869e-03   4.4623624e+00   2.0587755e+00  -7.3281278e+07
   3.9956652e-10  -9.8850382e-03   4.4569191e+00   2.0652520e+00  -7.2884482e+07
   4.0033344e-10  -9.8292930e-03   4.4514958e+00   2.0717062e+00  -7.2489622e+07
   4.0110037e-10  -9.7738498e-03   4.4460926e+00   2.0781380e+00  -7.2096694e+07
   4.0186729e-10  -9.7187073e-03   4.4407096e+00   2.0845474e+00  -7.1705691e+07
   4.0263421e-10  -9.6638640e-03   4.4353467e+00   2.0909343e+00  -7.1316604e+07
   4.0340113e-10  -9.6093183e-03   4.4300040e+00   2.0972987e+00  -7.0929429e+07
   4.0416806e-10  -9.5550687e-03   4.4246815e+00   2.1036405e+00  -7.0544158e+07
   4.0493498e-10  -9.5011140e-03   4.4193792e+00   2.1099598e+00  -7.0160784e+07
   4.0570190e-10  -9.4474525e-03   4.4140972e+00   2.1162563e+00  -6.9779301e+07
   4.0646882e-10  -9.3940829e-03   4.4088354e+00   2.1225302e+00  -6.9399702e+07
   4.0723575e-10  -9.3410037e-03   4.4035940e+00   2.1287813e+00  -6.9021979e+07
   4.0800267e-10  -9.2882134e-03   4.3983728e+00   2.1350096e+00  -6.8646126e+07
   4.0876959e-10  -9.2357107e-03   4.3931719e+00   2.1412152e+00  -6.8272138e+07
   4.0953651e-10  -9.1834941e-03   4.3879913e+00   2.1473979e+00  -6.7900005e+07
   4.1030343e-10  -9.1315622e-03   4.3828311e+00   2.1535577e+00  -6.7529721e+07
   4.1107036e-10  -9.0799135e-03   4.3776912e+00   2.1596947e+00  -6.7161281e+07
   4.1183728e-10  -9.0285467e-03   4.3725716e+00   2.1658087e+00  -6.6794676e+07
   4.1260420e-10  -8.9774604e-03   4.3674724e+00   2.1718997e+00  -6.6429899e+07
   4.1337112e-10  -8.9266531e-03   4.3623935e+00   2.1779678e+00  -6.6066946e+07
   4.1413805e-10  -8.8761235e-03   4.3573350e+00   2.1840129e+00  -6.5705807e+07
   4.1490497e-10  -8.8258702e-03   4.3522968e+00   2.1900350e+00  -6.5346476e+07
   4.1567189e-10  -8.7758917e-03   4.3472790e+00   2.1960340e+00  -6.4988948e+07
   4.1643881e-10  -8.7261868e-03   4.3422815e+00   2.2020100e+00  -6.4633213e+07
   4.1720574e-10  -8.6767539e-03   4.3373043e+00   2.2079630e+00  -6.4279266e+07
   4.1797266e-10  -8.6275919e-03   4.3323476e+00   2.2138928e+00  -6.3927101e+07
   4.1873958e-10  -8.5786993e-03   4.3274111e+00   2.2197996e+00  -6.3576708e+07
   4.1950650e-10  -8.5300747e-03   4.3224950e+00   2.2256833e+00  -6.3228083e+07
   4.2027342e-10  -8.4817167e-03   4.3175992e+00   2.2315438e+00  -6.2881218e+07
   4.2104035e-10  -8.4336242e-03   4.3127237e+00   2.2373813e+00  -6.2536106e+07
   4.2180727e-10  -8.3857956e-03   4.3078685e+00   2.2431957e+00  -6.2192740e+07
   4.2257419e-10  -8.3382297e-03   4.3030335e+00   2.2489869e+00  -6.1851114e+07
   4.2334111e-10  -8.2909252e-03   4.2982189e+00   2.2547551e+00  -6.1511220e+07
   4.2410804e-10  -8.2438806e-03   4.2934245e+00   2.2605001e+00  -6.1173051e+07
   4.2487496e-10  -8.1970948e-03   4.2886504e+00   2.2662220e+00  -6.0836602e+07
   4.2564188e-10  -8.1505663e-03   4.2838964e+00   2.2719208e+00  -6.0501864e+07
   4.2640880e-10  -8.1042939e-03   4.2791627e+00   2.2775965e+00  -6.0168831e+07
   4.2717573e-10  -8.0582762e-03   4.2744492e+00   2.2832491e+00  -5.9837496e+07
   4.2794265e-10  -8.0125120e-03   4.2697559e+00   2.2888787e+00  -5.9507852e+07
   4.2870957e-10  -7.9670000e-03   4.2650827e+00   2.2944851e+00  -5.9179892e+07
   4.2947649e-10  -7.9217388e-03   4.2604296e+00   2.3000685e+00  -5.8853611e+07
   4.3024341e-10  -7.8767273e-03   4.2557966e+00   2.3056288e+00  -5.8528999e+07
   4.3101034e-10  -7.8319640e-03   4.2511837e+00   2.3111661e+00  -5.8206051e+07
   4.3177726e-10  -7.7874478e-03   4.2465908e+00   2.3166804e+00  -5.7884760e+07
   4.3254418e-10  -7.7431774e-03   4.2420180e+00   2.3221716e+00  -5.7565119e+07
   4.3331110e-10  -7.6991515e-03   4.2374652e+00   2.3276399e+00  -5.7247121e+07
   4.3407803e-10  -7.6553688e-03   4.2329323e+00   2.3330852e+00  -5.6930759e+07
   4.3484495e-10  -7.6118281e-03   4.2284194e+00   2.3385075e+00  -5.6616027e+07
   4.3561187e-10  -7.5685282e-03   4.2239264e+00   2.3439069e+00  -5.6302917e+07
   4.3637879e-10  -7.5254678e-03   4.2194532e+00   2.3492834e+00  -5.5991423e+07
   4.3714572e-10  -7.4826456e-03   4.2150000e+00   2.3546370e+00  -5.5681538e+07
   4.3791264e-10  -7.4400605e-03   4.2105665e+00   2.3599678e+00  -5.5373256e+07
   4.3867956e-10  -7.3977112e-03   4.2061528e+00   2.3652757e+00  -5.5066569e+07
   4.3944648e-10  -7.3555966e-03   4.2017589e+00   2.3705608e+00  -5.4761470e+07
   4.4021340e-10  -7.3137152e-03   4.1973846e+00   2.3758232e+00  -5.4457953e+07
   4.4098033e-10  -7.2720661e-03   4.1930301e+00   2.3810627e+00  -5.4156011e+07
   4.4174725e-10  -7.2306479e-03   4.1886952e+00   2.3862796e+00  -5.3855638e+07
   4.4251417e-10  -7.1894595e-03   4.1843799e+00   2.3914738e+00  -5.3556825e+07
   4.4328109e-10  -7.1484997e-03   4.1800841e+00   2.3966453e+00  -5.3259569e+07
   4.4404802e-10  -7.1077672e-03   4.1758079e+00   2.4017942e+00  -5.2963859e+07
   4.4481494e-10  -7.0672610e-03   4.1715512e+00   2.4069206e+00  -5.2669692e+07
   4.4558186e-10  -7.0269797e-03   4.1673139e+00   2.4120243e+00  -5.2377059e+07
   4.4634878e-10  -6.9869223e-03   4.1630960e+00   2.4171056e+00  -5.2085954e+07
   4.4711571e-10  -6.9470876e-03   4.1588974e+00   2.4221644e+00  -5.1796370e+07
   4.4788263e-10  -6.9074743e-03   4.1547182e+00   2.4272007e+00  -5.1508301e+07
   4.4864955e-10  -6.8680814e-03   4.1505583e+00   2.4322147e+00  -5.1221740e+07
   4.4941647e-10  -6.8289078e-03   4.1464176e+00   2.4372063e+00  -5.0936679e+07
   4.5018339e-10  -6.7899521e-03   4.1422961e+00   2.4421756e+00  -5.0653115e+07
   4.5095032e-10  -6.7512134e-03   4.1381937e+00   2.4471226e+00  -5.0371037e+07
   4.5171724e-10  -6.7126904e-03   4.1341104e+00   2.4520474e+00  -5.0090441e+07
   4.5248416e-10  -6.6743820e-03   4.1300462e+00   2.4569499e+00  -4.9811321e+07
   4.5325108e-10  -6.6362872e-03   4.1260009e+00   2.4618304e+00  -4.9533668e+07
   4.5401801e-10  -6.5984047e-03   4.1219747e+00   2.4666887e+00  -4.9257477e+07
   4.5478493e-10  -6.5607335e-03   4.1179673e+00   2.4715250e+00  -4.8982741e+07
   4.5555185e-10  -6.5232724e-03   4.1139788e+00   2.4763393e+00  -4.8709454e+07
   4.5631877e-10  -6.4860204e-03   4.1100091e+00   2.4811316e+00  -4.8437608e+07
   4.5708570e-10  -6.4489763e-03   4.1060582e+00   2.4859021e+00  -4.8167199e+07
   4.5785262e-10  -6.4121390e-03   4.1021260e+00   2.4906506e+00  -4.7898218e+07
   4.5861954e-10  -6.3755075e-03   4.0982124e+00   2.4953774e+00  -4.7630659e+07
   4.5938646e-10  -6.3390806e-03   4.0943174e+00   2.5000824e+00  -4.7364518e+07
   4.6015338e-10  -6.3028573e-03   4.0904410e+00   2.5047656e+00  -4.7099785e+07
   4.6092031e-10  -6.2668365e-03   4.0865832e+00   2.5094273e+00  -4.6836456e+07
   4.6168723e-10  -6.2310171e-03   4.0827437e+00   2.5140673e+00  -4.6574523e+07
   4.6245415e-10  -6.1953981e-03   4.0789227e+00   2.5186857e+00  -4.6313981e+07
   4.6322107e-10  -6.1599783e-03   4.0751200e+00   2.5232827e+00  -4.6054822e+07
   4.6398800e-10  -6.1247568e-03   4.0713356e+00   2.5278582e+00  -4.5797042e+07
   4.6475492e-10  -6.0897324e-03   4.0675695e+00   2.5324124e+00  -4.5540632e+07
   4.6552184e-10  -6.0549042e-03   4.0638215e+00   2.5369452e+00  -4.5285588e+07
   4.6628876e-10  -6.0202710e-03   4.0600917e+00   2.5414567e+00  -4.5031902e+07
   4.6705569e-10  -5.9858319e-03   4.0563799e+00   2.5459470e+00  -4.4779568e+07
   4.6782261e-10  -5.9515858e-03   4.0526862e+00   2.5504161e+00  -4.4528580e+07
   4.6858953e-10  -5.9175316e-03   4.0490104e+00   2.5548642e+00  -4.4278932e+07
   4.6935645e-10  -5.8836684e-03   4.0453526e+00   2.5592911e+00  -4.4030617e+07
   4.7012337e-10  -5.8499952e-03   4.0417126e+00   2.5636971e+00  -4.3783629e+07
   4.7089030e-10  -5.8165108e-03   4.0380904e+00   2.5680822e+00  -4.3537962e+07
   4.7165722e-10  -5.7832144e-03   4.0344859e+00   2.5724464e+00  -4.3293610e+07
   4.7242414e-10  -5.7501048e-03   4.0308991e+00   2.5767898e+00  -4.3050566e+07
   4.7319106e-10  -5.7171811e-03   4.0273300e+00   2.5811124e+00  -4.2808825e+07
   4.7395799e-10  -5.6844424e-03   4.0237784e+00   2.5854143e+00  -4.2568379e+07
   4.7472491e-10  -5.6518875e-03   4.0202443e+00   2.5896956e+00  -4.2329224e+07
   4.7549183e-10  -5.6195156e-03   4.0167277e+00   2.5939563e+00  -4.2091353e+07
   4.7625875e-10  -5.5873256e-03   4.0132284e+00   2.5981966e+00  -4.1854759e+07
   4.7702568e-10  -5.5553166e-03   4.0097465e+00   2.6024164e+00  -4.1619438e+07
   4.7779260e-10  -5.5234875e-03   4.0062819e+00   2.6066158e+00  -4.1385382e+07
   4.7855952e-10  -5.4918375e-03   4.0028345e+00   2.6107948e+00  -4.1152585e+07
   4.7932644e-10  -5.4603655e-03   3.9994042e+00   2.6149537e+00  -4.0921042e+07
   4.8009336e-10  -5.4290707e-03   3.9959910e+00   2.6190923e+00  -4.0690747e+07
   4.8086029e-10  -5.3979519e-03   3.9925949e+00   2.6232108e+00  -4.0461693e+07
   4.8162721e-10  -5.3670084e-03   3.9892158e+00   2.6273093e+00  -4.0233875e+07
   4.8239413e-10  -5.3362391e-03   3.9858535e+00   2.6313877e+00  -4.0007287e+07
   4.8316105e-10  -5.3056431e-03   3.9825081e+00   2.6354463e+00  -3.9781922e+07
   4.8392798e-10  -5.2752195e-03   3.9791795e+00   2.6394849e+00  -3.9557775e+07
   4.8469490e-10  -5.2449673e-03   3.9758677e+00   2.6435038e+00  -3.9334840e+07
   4.8546182e-10  -5.2148857e-03   3.9725725e+00   2.6475029e+00  -3.9113111e+07
   4.8622874e-10  -5.1849736e-03   3.9692939e+00   2.6514823e+00  -3.8892582e+07
   4.8699567e-10  -5.1552302e-03   3.9660319e+00   2.6554422e+00  -3.8673247e+07
   4.8776259e-10  -5.1256545e-03   3.9627863e+00   2.6593825e+00  -3.8455101e+07
   4.8852951e-10  -5.0962457e-03   3.9595572e+00   2.6633034e+00  -3.8238138e+07
   4.8929643e-10  -5.0670029e-03   3.9563445e+00   2.6672048e+00  -3.8022351e+07
   4.9006335e-10  -5.0379250e-03   3.9531481e+00   2.6710869e+00  -3.7807736e+07
   4.9083028e-10  -5.0090114e-03   3.9499679e+00   2.6749498e+00  -3.7594286e+07
   4.9159720e-10  -4.9802609e-03   3.9468038e+00   2.6787934e+00  -3.7381996e+07
   4.9236412e-10  -4.9516729e-03   3.9436559e+00   2.6826179e+00  -3.7170860e+07
   4.9313104e-10  -4.9232463e-03   3.9405241e+00   2.6864234e+00  -3.6960872e+07
   4.9389797e-10  -4.8949804e-03   3.9374083e+00   2.6902098e+00  -3.6752026e+07
   4.9466489e-10  -4.8668741e-03   3.9343083e+00   2.6939774e+00  -3.6544318e+07
   4.9543181e-10  -4.8389268e-03   3.9312243e+00   2.6977261e+00  -3.6337741e+07
   4.9619873e-10  -4.8111374e-03   3.9281561e+00   2.7014559e+00  -3.6132290e+07
   4.9696566e-10  -4.7835051e-03   3.9251036e+00   2.7051671e+00  -3.5927959e+07
   4.9773258e-10  -4.7560292e-03   3.9220668e+00   2.7088596e+00  -3.5724743e+07
   4.9849950e-10  -4.7287087e-03   3.9190456e+00   2.7125336e+00  -3.5522636e+07
   4.9926642e-10  -4.7015427e-03   3.9160399e+00   2.7161890e+00  -3.5321632e+07
   5.0003334e-10  -4.6745305e-03   3.9130498e+00   2.7198260e+00  -3.5121727e+07
   5.0080027e-10  -4.6476711e-03   3.9100751e+00   2.7234446e+00  -3.4922914e+07
   5.0156719e-10  -4.6209639e-03   3.9071158e+00   2.7270449e+00  -3.4725188e+07
   5.0233411e-10  -4.5944078e-03   3.9041718e+00   2.7306270e+00  -3.4528544e+07
   5.0310103e-10  -4.5680022e-03   3.9012430e+00   2.7341909e+00  -3.4332976e+07
   5.0386796e-10  -4.5417461e-03   3.8983294e+00   2.7377367e+00  -3.4138479e+07
   5.0463488e-10  -4.5156388e-03   3.8954309e+00   2.7412645e+00  -3.3945048e+07
   5.0540180e-10  -4.4896794e-03   3.8925475e+00   2.7447744e+00  -3.3752676e+07
   5.0616872e-10  -4.4638671e-03   3.8896791e+00   2.7482663e+00  -3.3561360e+07
   5.0693565e-10  -4.4382012e-03   3.8868256e+00   2.7517405e+00  -3.3371093e+07
   5.0770257e-10  -4.4126808e-03   3.8839870e+00   2.7551969e+00  -3.3181870e+07
   5.0846949e-10  -4.3873051e-03   3.8811632e+00   2.7586356e+00  -3.2993686e+07
   5.0923641e-10  -4.3620733e-03   3.8783541e+00   2.7620567e+00  -3.2806535e+07
   5.1000333e-10  -4.3369847e-03   3.8755597e+00   2.7654603e+00  -3.2620413e+07
   5.1077026e-10  -4.3120384e-03   3.8727800e+00   2.7688464e+00  -3.2435315e+07
   5.1153718e-10  -4.2872337e-03   3.8700148e+00   2.7722152e+00  -3.2251234e+07
   5.1230410e-10  -4.2625698e-03   3.8672641e+00   2.7755666e+00  -3.2068166e+07
   5.1307102e-10  -4.2380459e-03   3.8645278e+00   2.7789007e+00  -3.1886106e+07
   5.1383795e-10  -4.2136612e-03   3.8618059e+00   2.7822177e+00  -3.1705048e+07
   5.1460487e-10  -4.1894150e-03   3.8590983e+00   2.7855176e+00  -3.1524988e+07
   5.1537179e-10  -4.1653065e-03   3.8564050e+00   2.7888004e+00  -3.1345920e+07
   5.1613871e-10  -4.1413349e-03   3.8537258e+00   2.7920663e+00  -3.1167839e+07
   5.1690564e-10  -4.1174996e-03   3.8510608e+00   2.7953153e+00  -3.0990740e+07
   5.1767256e-10  -4.0937997e-03   3.8484098e+00   2.7985474e+00  -3.0814619e+07
   5.1843948e-10  -4.0702345e-03   3.8457728e+00   2.8017628e+00  -3.0639470e+07
   5.1920640e-10  -4.0468033e-03   3.8431498e+00   2.8049614e+00  -3.0465288e+07
   5.1997332e-10  -4.0235052e-03   3.8405406e+00   2.8081435e+00  -3.0292068e+07
   5.2074025e-10  -4.0003397e-03   3.8379453e+00   2.8113090e+00  -3.0119806e+07
   5.2150717e-10  -3.9773059e-03   3.8353637e+00   2.8144580e+00  -2.9948495e+07
   5.2227409e-10  -3.9544031e-03   3.8327958e+00   2.8175907e+00  -2.9778133e+07
   5.2304101e-10  -3.9316306e-03   3.8302416e+00   2.8207070e+00  -2.9608712e+07
   5.2380794e-10  -3.9089877e-03   3.8277009e+00   2.8238070e+00  -2.9440230e+07
   5.2457486e-10  -3.8864736e-03   3.8251737e+00   2.8268908e+00  -2.9272680e+07
   5.2534178e-10  -3.8640877e-03   3.8226599e+00   2.8299585e+00  -2.9106058e+07
   5.2610870e-10  -3.8418292e-03   3.8201596e+00   2.8330101e+00  -2.8940360e+07
   5.2687563e-10  -3.8196975e-03   3.8176726e+00   2.8360457e+00  -2.8775580e+07
   5.2764255e-10  -3.7976917e-03   3.8151988e+00   2.8390654e+00  -2.8611713e+07
   5.2840947e-10  -3.7758113e-03   3.8127383e+00   2.8420693e+00  -2.8448756e+07
   5.2917639e-10  -3.7540555e-03   3.8102909e+00   2.8450574e+00  -2.8286702e+07
   5.2994331e-10  -3.7324237e-03   3.8078565e+00   2.8480297e+00  -2.8125548e+07
   5.3071024e-10  -3.7109150e-03   3.8054352e+00   2.8509865e+00  -2.7965289e+07
   5.3147716e-10  -3.6895290e-03   3.8030269e+00   2.8539276e+00  -2.7805920e+07
   5.3224408e-10  -3.6682649e-03   3.8006315e+00   2.8568532e+00  -2.7647436e+07
   5.3301100e-10  -3.6471219e-03   3.7982489e+00   2.8597634e+00  -2.7489834e+07
   5.3377793e-10  -3.6260995e-03   3.7958791e+00   2.8626583e+00  -2.7333107e+07
   5.3454485e-10  -3.6051969e-03   3.7935220e+00   2.8655378e+00  -2.7177252e+07
   5.3531177e-10  -3.5844136e-03   3.7911776e+00   2.8684021e+00  -2.7022265e+07
   5.3607869e-10  -3.5637488e-03   3.7888459e+00   2.8712512e+00  -2.6868140e+07
   5.3684562e-10  -3.5432018e-03   3.7865266e+00   2.8740852e+00  -2.6714872e+07
   5.3761254e-10  -3.5227721e-03   3.7842198e+00   2.8769043e+00  -2.6562459e+07
   5.3837946e-10  -3.5024589e-03   3.7819255e+00   2.8797083e+00  -2.6410894e+07
   5.3914638e-10  -3.4822616e-03   3.7796436e+00   2.8824975e+00  -2.6260175e+07
   5.3991330e-10  -3.4621796e-03   3.7773739e+00   2.8852718e+00  -2.6110295e+07
   5.4068023e-10  -3.4422123e-03   3.7751165e+00   2.8880314e+00  -2.5961251e+07
   5.4144715e-10  -3.4223589e-03   3.7728714e+00   2.8907762e+00  -2.5813038e+07
   5.4221407e-10  -3.4026189e-03   3.7706383e+00   2.8935065e+00  -2.5665652e+07
   5.4298099e-10  -3.3829916e-03   3.7684174e+00   2.8962222e+00  -2.5519089e+07
   5.4374792e-10  -3.3634763e-03   3.7662084e+00   2.8989234e+00  -2.5373344e+07
   5.4451484e-10  -3.3440726e-03   3.7640114e+00   2.9016102e+00  -2.5228413e+07
   5.4528176e-10  -3.3247797e-03   3.7618264e+00   2.9042827e+00  -2.5084291e+07
   5.4604868e-10  -3.3055970e-03   3.7596532e+00   2.9069408e+00  -2.4940975e+07
   5.4681561e-10  -3.2865239e-03   3.7574917e+00   2.9095848e+00  -2.4798460e+07
   5.4758253e-10  -3.2675598e-03   3.7553420e+00   2.9122145e+00  -2.4656742e+07
   5.4834945e-10  -3.2487040e-03   3.7532040e+00   2.9148302e+00  -2.4515816e+07
   5.4911637e-10  -3.2299561e-03   3.7510777e+00   2.9174319e+00  -2.4375679e+07
   5.4988329e-10  -3.2113153e-03   3.7489629e+00   2.9200196e+00  -2.4236326e+07
   5.5065022e-10  -3.1927811e-03   3.7468596e+00   2.9225934e+00  -2.4097752e+07
   5.5141714e-10  -3.1743529e-03   3.7447677e+00   2.9251534e+00  -2.3959955e+07
   5.5218406e-10  -3.1560301e-03   3.7426873e+00   2.9276996e+00  -2.3822929e+07
   5.5295098e-10  -3.1378120e-03   3.7406182e+00   2.9302322e+00  -2.3686671e+07
   5.5371791e-10  -3.1196982e-03   3.7385604e+00   2.9327511e+00  -2.3551177e+07
   5.5448483e-10  -3.1016880e-03   3.7365138e+00   2.9352564e+00  -2.3416442e+07
   5.5525175e-10  -3.0837808e-03   3.7344784e+00   2.9377482e+00  -2.3282462e+07
   5.5601867e-10  -3.0659761e-03   3.7324541e+00   2.9402266e+00  -2.3149234e+07
   5.5678560e-10  -3.0482733e-03   3.7304409e+00   2.9426916e+00  -2.3016753e+07
   5.5755252e-10  -3.0306718e-03   3.7284387e+00   2.9451433e+00  -2.2885015e+07
   5.5831944e-10  -3.0131710e-03   3.7264475e+00   2.9475818e+00  -2.2754017e+07
   5.5908636e-10  -2.9957705e-03   3.7244672e+00   2.9500070e+00  -2.2623754e+07
   5.5985328e-10  -2.9784695e-03   3.7224977e+00   2.9524192e+00  -2.2494223e+07
   5.6062021e-10  -2.9612676e-03   3.7205390e+00   2.9548183e+00  -2.2365419e+07
   5.6138713e-10  -2.9441642e-03   3.7185911e+00   2.9572044e+00  -2.2237339e+07
   5.6215405e-10  -2.9271588e-03   3.7166538e+00   2.9595775e+00  -2.2109979e+07
   5.6292097e-10  -2.9102508e-03   3.7147272e+00   2.9619378e+00  -2.1983334e+07
   5.6368790e-10  -2.8934396e-03   3.7128112e+00   2.9642853e+00  -2.1857402e+07
   5.6445482e-10  -2.8767247e-03   3.7109057e+00   2.9666201e+00  -2.1732177e+07
   5.6522174e-10  -2.8601056e-03   3.7090107e+00   2.9689421e+00  -2.1607657e+07
   5.6598866e-10  -2.8435818e-03   3.7071261e+00   2.9712516e+00  -2.1483838e+07
   5.6675559e-10  -2.8271526e-03   3.7052519e+00   2.9735485e+00  -2.1360715e+07
   5.6752251e-10  -2.8108175e-03   3.7033880e+00   2.9758329e+00  -2.1238286e+07
   5.6828943e-10  -2.7945762e-03   3.7015344e+00   2.9781048e+00  -2.1116546e+07
   5.6905635e-10  -2.7784279e-03   3.6996909e+00   2.9803644e+00  -2.0995491e+07
   5.6982327e-10  -2.7623721e-03   3.6978577e+00   2.9826117e+00  -2.0875119e+07
   5.7059020e-10  -2.7464085e-03   3.6960346e+00   2.9848467e+00  -2.0755424e+07
   5.7135712e-10  -2.7305364e-03   3.6942215e+00   2.9870695e+00  -2.0636404e+07
   5.7212404e-10  -2.7147553e-03   3.6924184e+00   2.9892802e+00  -2.0518055e+07
   5.7289096e-10  -2.6990647e-03   3.6906253e+00   2.9914788e+00  -2.0400374e+07
   5.7365789e-10  -2.6834641e-03   3.6888421e+00   2.9936654e+00  -2.0283355e+07
   5.7442481e-10  -2.6679530e-03   3.6870688e+00   2.9958401e+00  -2.0166997e+07
   5.7519173e-10  -2.6525309e-03   3.6853053e+00   2.9980028e+00  -2.0051296e+07
   5.7595865e-10  -2.6371972e-03   3.6835515e+00   3.0001537e+00  -1.9936247e+07
   5.7672558e-10  -2.6219516e-03   3.6818074e+00   3.0022929e+00  -1.9821848e+07
   5.7749250e-10  -2.6067934e-03   3.6800730e+00   3.0044203e+00  -1.9708094e+07
   5.7825942e-10  -2.5917223e-03   3.6783482e+00   3.0065361e+00  -1.9594983e+07
   5.7902634e-10  -2.5767376e-03   3.6766330e+00   3.0086403e+00  -1.9482511e+07
   5.7979326e-10  -2.5618389e-03   3.6749273e+00   3.0107329e+00  -1.9370674e+07
   5.8056019e-10  -2.5470258e-03   3.6732310e+00   3.0128140e+00  -1.9259469e+07
   5.8132711e-10  -2.5322977e-03   3.6715442e+00   3.0148838e+00  -1.9148892e+07
   5.8209403e-10  -2.5176542e-03   3.6698667e+00   3.0169421e+00  -1.9038941e+07
   5.8286095e-10  -2.5030948e-03   3.6681986e+00   3.0189891e+00  -1.8929611e+07
   5.8362788e-10  -2.4886190e-03   3.6665397e+00   3.0210249e+00  -1.8820899e+07
   5.8439480e-10  -2.4742263e-03   3.6648900e+00   3.0230495e+00  -1.8712802e+07
   5.8516172e-10  -2.4599163e-03   3.6632495e+00   3.0250630e+00  -1.8605317e+07
   5.8592864e-10  -2.4456885e-03   3.6616181e+00   3.0270653e+00  -1.8498439e+07
   5.8669557e-10  -2.4315424e-03   3.6599958e+00   3.0290566e+00  -1.8392167e+07
   5.8746249e-10  -2.4174776e-03   3.6583826e+00   3.0310370e+00  -1.8286496e+07
   5.8822941e-10  -2.4034936e-03   3.6567783e+00   3.0330065e+00  -1.8181424e+07
   5.8899633e-10  -2.3895899e-03   3.6551829e+00   3.0349650e+00  -1.8076946e+07
   5.8976325e-10  -2.3757662e-03   3.6535965e+00   3.0369128e+00  -1.7973060e+07
   5.9053018e-10  -2.3620219e-03   3.6520189e+00   3.0388498e+00  -1.7869763e+07
   5.9129710e-10  -2.3483566e-03   3.6504500e+00   3.0407762e+00  -1.7767051e+07
   5.9206402e-10  -2.3347698e-03   3.6488900e+00   3.0426919e+00  -1.7664920e+07
   5.9283094e-10  -2.3212612e-03   3.6473386e+00   3.0445970e+00  -1.7563369e+07
   5.9359787e-10  -2.3078302e-03   3.6457959e+00   3.0464915e+00  -1.7462394e+07
   5.9436479e-10  -2.2944764e-03   3.6442618e+00   3.0483756e+00  -1.7361990e+07
   5.9513171e-10  -2.2811995e-03   3.6427363e+00   3.0502493e+00  -1.7262157e+07
   5.9589863e-10  -2.2679988e-03   3.6412193e+00   3.0521126e+00  -1.7162889e+07
   5.9666556e-10  -2.2548741e-03   3.6397108e+00   3.0539656e+00  -1.7064185e+07
   5.9743248e-10  -2.2418249e-03   3.6382108e+00   3.0558083e+00  -1.6966041e+07
   5.9819940e-10  -2.2288507e-03   3.6367191e+00   3.0576408e+00  -1.6868453e+07
   5.9896632e-10  -2.2159511e-03   3.6352357e+00   3.0594631e+00  -1.6771420e+07
   5.9973324e-10  -2.2031258e-03   3.6337607e+00   3.0612754e+00  -1.6674937e+07
   6.0050017e-10  -2.1903742e-03   3.6322939e+00   3.0630775e+00  -1.6579002e+07
   6.0126709e-10  -2.1776960e-03   3.6308354e+00   3.0648697e+00  -1.6483612e+07
   6.0203401e-10  -2.1650908e-03   3.6293850e+00   3.0666520e+00  -1.6388764e+07
   6.0280093e-10  -2.1525580e-03   3.6279427e+00   3.0684243e+00  -1.6294454e+07
   6.0356786e-10  -2.1400974e-03   3.6265085e+00   3.0701868e+00  -1.6200681e+07
   6.0433478e-10  -2.1277086e-03   3.6250824e+00   3.0719395e+00  -1.6107440e+07
   6.0510170e-10  -2.1153910e-03   3.6236643e+00   3.0736824e+00  -1.6014729e+07
   6.0586862e-10  -2.1031443e-03   3.6222541e+00   3.0754157e+00  -1.5922545e+07
   6.0663555e-10  -2.0909681e-03   3.6208518e+00   3.0771393e+00  -1.5830885e+07
   6.0740247e-10  -2.0788621e-03   3.6194574e+00   3.0788533e+00  -1.5739747e+07
   6.0816939e-10  -2.0668257e-03   3.6180709e+00   3.0805578e+00  -1.5649127e+07
   6.0893631e-10  -2.0548586e-03   3.6166921e+00   3.0822528e+00  -1.5559022e+07
   6.0970323e-10  -2.0429604e-03   3.6153211e+00   3.0839383e+00  -1.5469429e+07
   6.1047016e-10  -2.0311307e-03   3.6139577e+00   3.0856144e+00  -1.5380347e+07
   6.1123708e-10  -2.0193692e-03   3.6126021e+00   3.0872812e+00  -1.5291771e+07
   6.1200400e-10  -2.0076754e-03   3.6112541e+00   3.0889387e+00  -1.5203700e+07
   6.1277092e-10  -1.9960489e-03   3.6099136e+00   3.0905870e+00  -1.5116130e+07
   6.1353785e-10  -1.9844895e-03   3.6085807e+00   3.0922261e+00  -1.5029058e+07
   6.1430477e-10  -1.9729966e-03   3.6072553e+00   3.0938560e+00  -1.4942482e+07
   6.1507169e-10  -1.9615699e-03   3.6059373e+00   3.0954768e+00  -1.4856400e+07
   6.1583861e-10  -1.9502090e-03   3.6046268e+00   3.0970885e+00  -1.4770807e+07
   6.1660554e-10  -1.9389136e-03   3.6033237e+00   3.0986913e+00  -1.4685702e+07
   6.1737246e-10  -1.9276833e-03   3.6020279e+00   3.1002851e+00  -1.4601082e+07
   6.1813938e-10  -1.9165177e-03   3.6007394e+00   3.1018700e+00  -1.4516944e+07
   6.1890630e-10  -1.9054164e-03   3.5994582e+00   3.1034460e+00  -1.4433286e+07
   6.1967322e-10  -1.8943791e-03   3.5981841e+00   3.1050132e+00  -1.4350104e+07
   6.2044015e-10  -1.8834055e-03   3.5969173e+00   3.1065716e+00  -1.4267397e+07
   6.2120707e-10  -1.8724950e-03   3.5956576e+00   3.1081213e+00  -1.4185161e+07
   6.2197399e-10  -1.8616475e-03   3.5944051e+00   3.1096624e+00  -1.4103394e+07
   6.2274091e-10  -1.8508625e-03   3.5931596e+00   3.1111948e+00  -1.4022094e+07
   6.2350784e-10  -1.8401397e-03   3.5919211e+00   3.1127186e+00  -1.3941257e+07
   6.2427476e-10  -1.8294787e-03   3.5906896e+00   3.1142339e+00  -1.3860881e+07
   6.2504168e-10  -1.8188791e-03   3.5894651e+00   3.1157406e+00  -1.3780964e+07
   6.2580860e-10  -1.8083407e-03   3.5882475e+00   3.1172390e+00  -1.3701503e+07
   6.2657553e-10  -1.7978630e-03   3.5870368e+00   3.1187289e+00  -1.3622495e+07
   6.2734245e-10  -1.7874458e-03   3.5858329e+00   3.1202105e+00  -1.3543938e+07
   6.2810937e-10  -1.7770886e-03   3.5846358e+00   3.1216837e+00  -1.3465830e+07
   6.2887629e-10  -1.7667911e-03   3.5834455e+00   3.1231487e+00  -1.3388167e+07
   6.2964321e-10  -1.7565531e-03   3.5822619e+00   3.1246055e+00  -1.3310948e+07
   6.3041014e-10  -1.7463741e-03   3.5810851e+00   3.1260541e+00  -1.3234170e+07
   6.3117706e-10  -1.7362538e-03   3.5799148e+00   3.1274945e+00  -1.3157831e+07
   6.3194398e-10  -1.7261919e-03   3.5787512e+00   3.1289269e+00  -1.3081927e+07
   6.3271090e-10  -1.7161880e-03   3.5775942e+00   3.1303511e+00  -1.3006457e+07
   6.3347783e-10  -1.7062419e-03   3.5764438e+00   3.1317674e+00  -1.2931418e+07
   6.3424475e-10  -1.6963531e-03   3.5752998e+00   3.1331758e+00  -1.2856808e+07
   6.3501167e-10  -1.6865214e-03   3.5741624e+00   3.1345762e+00  -1.2782625e+07
   6.3577859e-10  -1.6767464e-03   3.5730313e+00   3.1359687e+00  -1.2708865e+07
   6.3654552e-10  -1.6670279e-03   3.5719067e+00   3.1373534e+00  -1.2635527e+07
   6.3731244e-10  -1.6573654e-03   3.5707885e+00   3.1387303e+00  -1.2562608e+07
   6.3807936e-10  -1.6477587e-03   3.5696766e+00   3.1400994e+00  -1.2490106e+07
   6.3884628e-10  -1.6382074e-03   3.5685710e+00   3.1414608e+00  -1.2418019e+07
   6.3961320e-10  -1.6287112e-03   3.5674717e+00   3.1428146e+00  -1.2346344e+07
   6.4038013e-10  -1.6192699e-03   3.5663786e+00   3.1441607e+00  -1.2275079e+07
   6.4114705e-10  -1.6098831e-03   3.5652917e+00   3.1454993e+00  -1.2204222e+07
   6.4191397e-10  -1.6005504e-03   3.5642110e+00   3.1468303e+00  -1.2133769e+07
   6.4268089e-10  -1.5912716e-03   3.5631364e+00   3.1481537e+00  -1.2063720e+07
   6.4344782e-10  -1.5820464e-03   3.5620679e+00   3.1494698e+00  -1.1994072e+07
   6.4421474e-10  -1.5728745e-03   3.5610055e+00   3.1507784e+00  -1.1924823e+07
   6.4498166e-10  -1.5637555e-03   3.5599491e+00   3.1520796e+00  -1.1855969e+07
   6.4574858e-10  -1.5546892e-03   3.5588987e+00   3.1533735e+00  -1.1787510e+07
   6.4651551e-10  -1.5456752e-03   3.5578543e+00   3.1546600e+00  -1.1719443e+07
   6.4728243e-10  -1.5367132e-03   3.5568158e+00   3.1559393e+00  -1.1651765e+07
   6.4804935e-10  -1.5278031e-03   3.5557833e+00   3.1572114e+00  -1.1584475e+07
   6.4881627e-10  -1.5189443e-03   3.5547565e+00   3.1584763e+00  -1.1517571e+07
   6.4958319e-10  -1.5101368e-03   3.5537357e+00   3.1597341e+00  -1.1451049e+07
   6.5035012e-10  -1.5013801e-03   3.5527206e+00   3.1609847e+00  -1.1384908e+07
   6.5111704e-10  -1.4926740e-03   3.5517113e+00   3.1622283e+00  -1.1319147e+07
   6.5188396e-10  -1.4840182e-03   3.5507078e+00   3.1634648e+00  -1.1253762e+07
   6.5265088e-10  -1.4754124e-03   3.5497099e+00   3.1646944e+00  -1.1188751e+07
   6.5341781e-10  -1.4668563e-03   3.5487177e+00   3.1659170e+00  -1.1124114e+07
   6.5418473e-10  -1.4583496e-03   3.5477312e+00   3.1671326e+00  -1.1059846e+07
   6.5495165e-10  -1.4498921e-03   3.5467503e+00   3.1683414e+00  -1.0995947e+07
   6.5571857e-10  -1.4414834e-03   3.5457750e+00   3.1695434e+00  -1.0932414e+07
   6.5648550e-10  -1.4331234e-03   3.5448052e+00   3.1707386e+00  -1.0869246e+07
   6.5725242e-10  -1.4248116e-03   3.5438410e+00   3.1719269e+00  -1.0806439e+07
   6.5801934e-10  -1.4165479e-03   3.5428822e+00   3.1731086e+00  -1.0743993e+07
   6.5878626e-10  -1.4083319e-03   3.5419289e+00   3.1742836e+00  -1.0681904e+07
   6.5955318e-10  -1.4001634e-03   3.5409811e+00   3.1754519e+00  -1.0620172e+07
   6.6032011e-10  -1.3920421e-03   3.5400386e+00   3.1766136e+00  -1.0558794e+07
   6.6108703e-10  -1.3839677e-03   3.5391015e+00   3.1777687e+00  -1.0497768e+07
   6.6185395e-10  -1.3759400e-03   3.5381698e+00   3.1789172e+00  -1.0437091e+07
   6.6262087e-10  -1.3679587e-03   3.5372434e+00   3.1800593e+00  -1.0376763e+07
   6.6338780e-10  -1.3600236e-03   3.5363222e+00   3.1811948e+00  -1.0316781e+07
   6.6415472e-10  -1.3521343e-03   3.5354063e+00   3.1823240e+00  -1.0257144e+07
   6.6492164e-10  -1.3442906e-03   3.5344956e+00   3.1834467e+00  -1.0197848e+07
   6.6568856e-10  -1.3364923e-03   3.5335902e+00   3.1845630e+00  -1.0138893e+07
   6.6645549e-10  -1.3287390e-03   3.5326899e+00   3.1856731e+00  -1.0080276e+07
   6.6722241e-10  -1.3210306e-03   3.5317947e+00   3.1867768e+00  -1.0021996e+07
   6.6798933e-10  -1.3133668e-03   3.5309046e+00   3.1878742e+00  -9.9640497e+06
   6.6875625e-10  -1.3057472e-03   3.5300196e+00   3.1889654e+00  -9.9064365e+06
   6.6952317e-10  -1.2981717e-03   3.5291397e+00   3.1900505e+00  -9.8491541e+06
   6.7029010e-10  -1.2906401e-03   3.5282648e+00   3.1911293e+00  -9.7922006e+06
   6.7105702e-10  -1.2831519e-03   3.5273949e+00   3.1922021e+00  -9.7355741e+06
   6.7182394e-10  -1.2757071e-03   3.5265300e+00   3.1932687e+00  -9.6792729e+06
   6.7259086e-10  -1.2683053e-03   3.5256700e+00   3.1943293e+00  -9.6232950e+06
   6.7335779e-10  -1.2609464e-03   3.5248149e+00   3.1953838e+00  -9.5676386e+06
   6.7412471e-10  -1.2536300e-03   3.5239647e+00   3.1964324e+00  -9.5123020e+06
   6.7489163e-10  -1.2463559e-03   3.5231193e+00   3.1974750e+00  -9.4572832e+06
   6.7565855e-10  -1.2391239e-03   3.5222788e+00   3.1985116e+00  -9.4025806e+06
   6.7642548e-10  -1.2319337e-03   3.5214431e+00   3.1995424e+00  -9.3481923e+06
   6.7719240e-10  -1.2247851e-03   3.5206122e+00   3.2005673e+00  -9.2941165e+06
   6.7795932e-10  -1.2176779e-03   3.5197860e+00   3.2015864e+00  -9.2403515e+06
   6.7872624e-10  -1.2106118e-03   3.5189645e+00   3.2025997e+00  -9.1868955e+06
   6.7949316e-10  -1.2035865e-03   3.5181478e+00   3.2036072e+00  -9.1337468e+06
   6.8026009e-10  -1.1966019e-03   3.5173357e+00   3.2046089e+00  -9.0809035e+06
   6.8102701e-10  -1.1896577e-03   3.5165282e+00   3.2056050e+00  -9.0283641e+06
   6.8179393e-10  -1.1827537e-03   3.5157254e+00   3.2065954e+00  -8.9761267e+06
   6.8256085e-10  -1.1758897e-03   3.5149272e+00   3.2075802e+00  -8.9241896e+06
   6.8332778e-10  -1.1690653e-03   3.5141335e+00   3.2085593e+00  -8.8725512e+06
   6.8409470e-10  -1.1622805e-03   3.5133444e+00   3.2095329e+00  -8.8212097e+06
   6.8486162e-10  -1.1555349e-03   3.5125598e+00   3.2105009e+00  -8.7701635e+06
   6.8562854e-10  -1.1488283e-03   3.5117797e+00   3.2114634e+00  -8.7194109e+06
   6.8639547e-10  -1.1421606e-03   3.5110041e+00   3.2124205e+00  -8.6689501e+06
   6.8716239e-10  -1.1355314e-03   3.5102329e+00   3.2133720e+00  -8.6187797e+06
   6.8792931e-10  -1.1289406e-03   3.5094661e+00   3.2143182e+00  -8.5688979e+06
   6.8869623e-10  -1.1223880e-03   3.5087037e+00   3.2152589e+00  -8.5193030e+06
   6.8946315e-10  -1.1158732e-03   3.5079457e+00   3.2161943e+00  -8.4699935e+06
   6.9023008e-10  -1.1093962e-03   3.5071920e+00   3.2171244e+00  -8.4209677e+06
   6.9099700e-10  -1.1029567e-03   3.5064426e+00   3.2180491e+00  -8.3722241e+06
   6.9176392e-10  -1.0965545e-03   3.5056976e+00   3.2189686e+00  -8.3237609e+06
   6.9253084e-10  -1.0901893e-03   3.5049568e+00   3.2198828e+00  -8.2755767e+06
   6.9329777e-10  -1.0838609e-03   3.5042202e+00   3.2207918e+00  -8.2276697e+06
   6.9406469e-10  -1.0775692e-03   3.5034879e+00   3.2216957e+00  -8.1800386e+06
   6.9483161e-10  -1.0713139e-03   3.5027597e+00   3.2225943e+00  -8.1326816e+06
   6.9559853e-10  -1.0650949e-03   3.5020358e+00   3.2234879e+00  -8.0855973e+06
   6.9636546e-10  -1.0589118e-03   3.5013160e+00   3.2243763e+00  -8.0387840e+06
   6.9713238e-10  -1.0527646e-03   3.5006003e+00   3.2252596e+00  -7.9922402e+06
   6.9789930e-10  -1.0466529e-03   3.4998887e+00   3.2261380e+00  -7.9459645e+06
   6.9866622e-10  -1.0405766e-03   3.4991812e+00   3.2270113e+00  -7.8999552e+06
   6.9943314e-10  -1.0345355e-03   3.4984778e+00   3.2278796e+00  -7.8542109e+06
   7.0020007e-10  -1.0285294e-03   3.4977784e+00   3.2287429e+00  -7.8087301e+06
   7.0096699e-10  -1.0225580e-03   3.4970830e+00   3.2296013e+00  -7.7635112e+06
   7.0173391e-10  -1.0166213e-03   3.4963916e+00   3.2304548e+00  -7.7185527e+06
   7.0250083e-10  -1.0107189e-03   3.4957041e+00   3.2313035e+00  -7.6738533e+06
   7.0326776e-10  -1.0048507e-03   3.4950207e+00   3.2321473e+00  -7.6294113e+06
   7.0403468e-10  -9.9901651e-04   3.4943411e+00   3.2329862e+00  -7.5852254e+06
   7.0480160e-10  -9.9321608e-04   3.4936654e+00   3.2338204e+00  -7.5412940e+06
   7.0556852e-10  -9.8744926e-04   3.4929936e+00   3.2346498e+00  -7.4976158e+06
   7.0633545e-10  -9.8171583e-04   3.4923257e+00   3.2354744e+00  -7.4541892e+06
   7.0710237e-10  -9.7601562e-04   3.4916616e+00   3.2362944e+00  -7.4110129e+06
   7.0786929e-10  -9.7034842e-04   3.4910014e+00   3.2371096e+00  -7.3680854e+06
   7.0863621e-10  -9.6471405e-04   3.4903449e+00   3.2379202e+00  -7.3254054e+06
   7.0940313e-10  -9.5911231e-04   3.4896922e+00   3.2387261e+00  -7.2829713e+06
   7.1017006e-10  -9.5354303e-04   3.4890432e+00   3.2395275e+00  -7.2407818e+06
   7.1093698e-10  -9.4800601e-04   3.4883979e+00   3.2403242e+00  -7.1988355e+06
   7.1170390e-10  -9.4250106e-04   3.4877564e+00   3.2411164e+00  -7.1571310e+06
   7.1247082e-10  -9.3702801e-04   3.4871186e+00   3.2419040e+00  -7.1156670e+06
   7.1323775e-10  -9.3158666e-04   3.4864844e+00   3.2426872e+00  -7.0744419e+06
   7.1400467e-10  -9.2617685e-04   3.4858539e+00   3.2434658e+00  -7.0334546e+06
   7.1477159e-10  -9.2079837e-04   3.4852270e+00   3.2442400e+00  -6.9927037e+06
   7.1553851e-10  -9.1545106e-04   3.4846036e+00   3.2450098e+00  -6.9521877e+06
   7.1630544e-10  -9.1013472e-04   3.4839839e+00   3.2457751e+00  -6.9119053e+06
   7.1707236e-10  -9.0484920e-04   3.4833678e+00   3.2465361e+00  -6.8718553e+06
   7.1783928e-10  -8.9959430e-04   3.4827551e+00   3.2472927e+00  -6.8320363e+06
   7.1860620e-10  -8.9436985e-04   3.4821460e+00   3.2480450e+00  -6.7924469e+06
   7.1937312e-10  -8.8917567e-04   3.4815404e+00   3.2487930e+00  -6.7530859e+06
   7.2014005e-10  -8.8401160e-04   3.4809383e+00   3.2495367e+00  -6.7139519e+06
   7.2090697e-10  -8.7887745e-04   3.4803397e+00   3.2502761e+00  -6.6750437e+06
   7.2167389e-10  -8.7377305e-04   3.4797445e+00   3.2510113e+00  -6.6363599e+06
   7.2244081e-10  -8.6869824e-04   3.4791527e+00   3.2517422e+00  -6.5978993e+06
   7.2320774e-10  -8.6365283e-04   3.4785643e+00   3.2524690e+00  -6.5596607e+06
   7.2397466e-10  -8.5863667e-04   3.4779793e+00   3.2531916e+00  -6.5216426e+06
   7.2474158e-10  -8.5364958e-04   3.4773977e+00   3.2539101e+00  -6.4838440e+06
   7.2550850e-10  -8.4869140e-04   3.4768194e+00   3.2546244e+00  -6.4462634e+06
   7.2627543e-10  -8.4376195e-04   3.4762445e+00   3.2553347e+00  -6.4088998e+06
   7.2704235e-10  -8.3886108e-04   3.4756728e+00   3.2560409e+00  -6.3717517e+06
   7.2780927e-10  -8.3398861e-04   3.4751045e+00   3.2567430e+00  -6.3348181e+06
   7.2857619e-10  -8.2914439e-04   3.4745394e+00   3.2574411e+00  -6.2980977e+06
   7.2934311e-10  -8.2432825e-04   3.4739776e+00   3.2581352e+00  -6.2615892e+06
   7.3011004e-10  -8.1954002e-04   3.4734190e+00   3.2588253e+00  -6.2252914e+06
   7.3087696e-10  -8.1477956e-04   3.4728636e+00   3.2595115e+00  -6.1892032e+06
   7.3164388e-10  -8.1004668e-04   3.4723114e+00   3.2601937e+00  -6.1533233e+06
   7.3241080e-10  -8.0534125e-04   3.4717624e+00   3.2608720e+00  -6.1176506e+06
   7.3317773e-10  -8.0066310e-04   3.4712166e+00   3.2615464e+00  -6.0821838e+06
   7.3394465e-10  -7.9601207e-04   3.4706739e+00   3.2622169e+00  -6.0469218e+06
   7.3471157e-10  -7.9138800e-04   3.4701343e+00   3.2628836e+00  -6.0118634e+06
   7.3547849e-10  -7.8679074e-04   3.4695978e+00   3.2635464e+00  -5.9770075e+06
   7.3624542e-10  -7.8222014e-04   3.4690645e+00   3.2642055e+00  -5.9423529e+06
   7.3701234e-10  -7.7767604e-04   3.4685342e+00   3.2648608e+00  -5.9078983e+06
   7.3777926e-10  -7.7315828e-04   3.4680069e+00   3.2655123e+00  -5.8736428e+06
   7.3854618e-10  -7.6866672e-04   3.4674827e+00   3.2661600e+00  -5.8395851e+06
   7.3931310e-10  -7.6420121e-04   3.4669615e+00   3.2668041e+00  -5.8057241e+06
   7.4008003e-10  -7.5976159e-04   3.4664433e+00   3.2674444e+00  -5.7720587e+06
   7.4084695e-10  -7.5534771e-04   3.4659281e+00   3.2680811e+00  -5.7385878e+06
   7.4161387e-10  -7.5095943e-04   3.4654159e+00   3.2687141e+00  -5.7053103e+06
   7.4238079e-10  -7.4659659e-04   3.4649066e+00   3.2693434e+00  -5.6722249e+06
   7.4314772e-10  -7.4225906e-04   3.4644003e+00   3.2699692e+00  -5.6393307e+06
   7.4391464e-10  -7.3794668e-04   3.4638969e+00   3.2705913e+00  -5.6066266e+06
   7.4468156e-10  -7.3365931e-04   3.4633963e+00   3.2712099e+00  -5.5741114e+06
   7.4544848e-10  -7.2939680e-04   3.4628987e+00   3.2718249e+00  -5.5417841e+06
   7.4621541e-10  -7.2515902e-04   3.4624039e+00   3.2724364e+00  -5.5096436e+06
   7.4698233e-10  -7.2094581e-04   3.4619120e+00   3.2730444e+00  -5.4776888e+06
   7.4774925e-10  -7.1675704e-04   3.4614230e+00   3.2736489e+00  -5.4459186e+06
   7.4851617e-10  -7.1259256e-04   3.4609367e+00   3.2742499e+00  -5.4143321e+06
   7.4928309e-10  -7.0845224e-04   3.4604532e+00   3.2748474e+00  -5.3829281e+06
   7.5005002e-10  -7.0433593e-04   3.4599726e+00   3.2754415e+00  -5.3517056e+06
   7.5081694e-10  -7.0024350e-04   3.4594947e+00   3.2760322e+00  -5.3206636e+06
   7.5158386e-10  -6.9617481e-04   3.4590195e+00   3.2766195e+00  -5.2898010e+06
   7.5235078e-10  -6.9212972e-04   3.4585471e+00   3.2772034e+00  -5.2591168e+06
   7.5311771e-10  -6.8810809e-04   3.4580775e+00   3.2777840e+00  -5.2286100e+06
   7.5388463e-10  -6.8410979e-04   3.4576105e+00   3.2783612e+00  -5.1982795e+06
   7.5465155e-10  -6.8013468e-04   3.4571462e+00   3.2789351e+00  -5.1681244e+06
   7.5541847e-10  -6.7618264e-04   3.4566847e+00   3.2795057e+00  -5.1381436e+06
   7.5618540e-10  -6.7225352e-04   3.4562257e+00   3.2800730e+00  -5.1083361e+06
   7.5695232e-10  -6.6834719e-04   3.4557695e+00   3.2806370e+00  -5.0787010e+06
   7.5771924e-10  -6.6446353e-04   3.4553158e+00   3.2811978e+00  -5.0492372e+06
   7.5848616e-10  -6.6060240e-04   3.4548648e+00   3.2817554e+00  -5.0199438e+06
   7.5925308e-10  -6.5676366e-04   3.4544164e+00   3.2823098e+00  -4.9908197e+06
   7.6002001e-10  -6.5294720e-04   3.4539705e+00   3.2828609e+00  -4.9618641e+06
   7.6078693e-10  -6.4915289e-04   3.4535273e+00   3.2834089e+00  -4.9330760e+06
   7.6155385e-10  -6.4538058e-04   3.4530866e+00   3.2839538e+00  -4.9044543e+06
   7.6232077e-10  -6.4163017e-04   3.4526484e+00   3.2844955e+00  -4.8759981e+06
   7.6308770e-10  -6.3790151e-04   3.4522128e+00   3.2850341e+00  -4.8477065e+06
   7.6385462e-10  -6.3419449e-04   3.4517797e+00   3.2855696e+00  -4.8195786e+06
   7.6462154e-10  -6.3050898e-04   3.4513490e+00   3.2861020e+00  -4.7916134e+06
   7.6538846e-10  -6.2684485e-04   3.4509209e+00   3.2866313e+00  -4.7638099e+06
   7.6615539e-10  -6.2320198e-04   3.4504953e+00   3.2871576e+00  -4.7361672e+06
   7.6692231e-10  -6.1958026e-04   3.4500721e+00   3.2876808e+00  -4.7086845e+06
   7.6768923e-10  -6.1597955e-04   3.4496513e+00   3.2882011e+00  -4.6813607e+06
   7.6845615e-10  -6.1239973e-04   3.4492330e+00   3.2887183e+00  -4.6541950e+06
   7.6922307e-10  -6.0884069e-04   3.4488171e+00   3.2892326e+00  -4.6271864e+06
   7.6999000e-10  -6.0530230e-04   3.4484036e+00   3.2897439e+00  -4.6003342e+06
   7.7075692e-10  -6.0178444e-04   3.4479924e+00   3.2902522e+00  -4.5736373e+06
   7.7152384e-10  -5.9828700e-04   3.4475837e+00   3.2907577e+00  -4.5470948e+06
   7.7229076e-10  -5.9480986e-04   3.4471773e+00   3.2912602e+00  -4.5207059e+06
   7.7305769e-10  -5.9135290e-04   3.4467733e+00   3.2917598e+00  -4.4944698e+06
   7.7382461e-10  -5.8791600e-04   3.4463716e+00   3.2922565e+00  -4.4683854e+06
   7.7459153e-10  -5.8449904e-04   3.4459722e+00   3.2927504e+00  -4.4424520e+06
   7.7535845e-10  -5.8110192e-04   3.4455751e+00   3.2932414e+00  -4.4166687e+06
   7.7612538e-10  -5.7772452e-04   3.4451803e+00   3.2937296e+00  -4.3910345e+06
   7.7689230e-10  -5.7436671e-04   3.4447879e+00   3.2942150e+00  -4.3655488e+06
   7.7765922e-10  -5.7102840e-04   3.4443976e+00   3.2946976e+00  -4.3402105e+06
   7.7842614e-10  -5.6770946e-04   3.4440096e+00   3.2951774e+00  -4.3150189e+06
   7.7919306e-10  -5.6440979e-04   3.4436239e+00   3.2956544e+00  -4.2899731e+06
   7.7995999e-10  -5.6112926e-04   3.4432404e+00   3.2961287e+00  -4.2650723e+06
   7.8072691e-10  -5.5786778e-04   3.4428591e+00   3.2966003e+00  -4.2403156e+06
   7.8149383e-10  -5.5462524e-04   3.4424800e+00   3.2970691e+00  -4.2157022e+06
   7.8226075e-10  -5.5140151e-04   3.4421032e+00   3.2975352e+00  -4.1912313e+06
   7.8302768e-10  -5.4819650e-04   3.4417284e+00   3.2979987e+00  -4.1669020e+06
   7.8379460e-10  -5.4501009e-04   3.4413559e+00   3.2984594e+00  -4.1427136e+06
   7.8456152e-10  -5.4184218e-04   3.4409855e+00   3.2989175e+00  -4.1186652e+06
   7.8532844e-10  -5.3869265e-04   3.4406172e+00   3.2993730e+00  -4.0947561e+06
   7.8609537e-10  -5.3556141e-04   3.4402511e+00   3.2998258e+00  -4.0709854e+06
   7.8686229e-10  -5.3244835e-04   3.4398871e+00   3.3002761e+00  -4.0473523e+06
   7.8762921e-10  -5.2935336e-04   3.4395252e+00   3.3007237e+00  -4.0238560e+06
   7.8839613e-10  -5.2627634e-04   3.4391654e+00   3.3011687e+00  -4.0004959e+06
   7.8916305e-10  -5.2321718e-04   3.4388077e+00   3.3016112e+00  -3.9772709e+06
   7.8992998e-10  -5.2017579e-04   3.4384520e+00   3.3020511e+00  -3.9541805e+06
   7.9069690e-10  -5.1715205e-04   3.4380984e+00   3.3024885e+00  -3.9312237e+06
   7.9146382e-10  -5.1414586e-04   3.4377469e+00   3.3029234e+00  -3.9084000e+06
   7.9223074e-10  -5.1115713e-04   3.4373973e+00   3.3033557e+00  -3.8857083e+06
   7.9299767e-10  -5.0818575e-04   3.4370498e+00   3.3037856e+00  -3.8631481e+06
   7.9376459e-10  -5.0523162e-04   3.4367043e+00   3.3042130e+00  -3.8407186e+06
   7.9453151e-10  -5.0229464e-04   3.4363608e+00   3.3046379e+00  -3.8184190e+06
   7.9529843e-10  -4.9937472e-04   3.4360193e+00   3.3050603e+00  -3.7962485e+06
   7.9606536e-10  -4.9647175e-04   3.4356798e+00   3.3054803e+00  -3.7742064e+06
   7.9683228e-10  -4.9358564e-04   3.4353422e+00   3.3058979e+00  -3.7522920e+06
   7.9759920e-10  -4.9071628e-04   3.4350066e+00   3.3063131e+00  -3.7305046e+06
   7.9836612e-10  -4.8786358e-04   3.4346729e+00   3.3067259e+00  -3.7088433e+06
   7.9913304e-10  -4.8502745e-04   3.4343412e+00   3.3071363e+00  -3.6873075e+06
   7.9989997e-10  -4.8220779e-04   3.4340114e+00   3.3075443e+00  -3.6658965e+06
   8.0066689e-10  -4.7940450e-04   3.4336834e+00   3.3079500e+00  -3.6446095e+06
   8.0143381e-10  -4.7661749e-04   3.4333574e+00   3.3083533e+00  -3.6234458e+06
   8.0220073e-10  -4.7384666e-04   3.4330333e+00   3.3087543e+00  -3.6024048e+06
   8.0296766e-10  -4.7109192e-04   3.4327110e+00   3.3091530e+00  -3.5814856e+06
   8.0373458e-10  -4.6835318e-04   3.4323906e+00   3.3095494e+00  -3.5606877e+06
   8.0450150e-10  -4.6563034e-04   3.4320721e+00   3.3099435e+00  -3.5400102e+06
   8.0526842e-10  -4.6292332e-04   3.4317554e+00   3.3103353e+00  -3.5194525e+06
   8.0603535e-10  -4.6023201e-04   3.4314406e+00   3.3107248e+00  -3.4990140e+06
   8.0680227e-10  -4.5755634e-04   3.4311275e+00   3.3111121e+00  -3.4786939e+06
   8.0756919e-10  -4.5489620e-04   3.4308163e+00   3.3114972e+00  -3.4584915e+06
   8.0833611e-10  -4.5225152e-04   3.4305069e+00   3.3118800e+00  -3.4384062e+06
   8.0910303e-10  -4.4962219e-04   3.4301992e+00   3.3122607e+00  -3.4184373e+06
   8.0986996e-10  -4.4700813e-04   3.4298934e+00   3.3126391e+00  -3.3985841e+06
   8.1063688e-10  -4.4440925e-04   3.4295893e+00   3.3130153e+00  -3.3788460e+06
   8.1140380e-10  -4.4182547e-04   3.4292870e+00   3.3133894e+00  -3.3592222e+06
   8.1217072e-10  -4.3925669e-04   3.4289864e+00   3.3137613e+00  -3.3397122e+06
   8.1293765e-10  -4.3670284e-04   3.4286876e+00   3.3141311e+00  -3.3203152e+06
   8.1370457e-10  -4.3416381e-04   3.4283905e+00   3.3144987e+00  -3.3010307e+06
   8.1447149e-10  -4.3163953e-04   3.4280951e+00   3.3148642e+00  -3.2818579e+06
   8.1523841e-10  -4.2912992e-04   3.4278014e+00   3.3152276e+00  -3.2627962e+06
   8.1600534e-10  -4.2663488e-04   3.4275094e+00   3.3155888e+00  -3.2438451e+06
   8.1677226e-10  -4.2415433e-04   3.4272191e+00   3.3159480e+00  -3.2250038e+06
   8.1753918e-10  -4.2168819e-04   3.4269305e+00   3.3163051e+00  -3.2062717e+06
   8.1830610e-10  -4.1923638e-04   3.4266436e+00   3.3166602e+00  -3.1876481e+06
   8.1907302e-10  -4.1679880e-04   3.4263583e+00   3.3170132e+00  -3.1691326e+06
   8.1983995e-10  -4.1437539e-04   3.4260747e+00   3.3173642e+00  -3.1507243e+06
   8.2060687e-10  -4.1196605e-04   3.4257928e+00   3.3177131e+00  -3.1324228e+06
   8.2137379e-10  -4.0957071e-04   3.4255124e+00   3.3180600e+00  -3.1142274e+06
   8.2214071e-10  -4.0718928e-04   3.4252337e+00   3.3184049e+00  -3.0961374e+06
   8.2290764e-10  -4.0482168e-04   3.4249566e+00   3.3187478e+00  -3.0781523e+06
   8.2367456e-10  -4.0246784e-04   3.4246811e+00   3.3190887e+00  -3.0602715e+06
   8.2444148e-10  -4.0012767e-04   3.4244072e+00   3.3194277e+00  -3.0424944e+06
   8.2520840e-10  -3.9780109e-04   3.4241349e+00   3.3197647e+00  -3.0248203e+06
   8.2597533e-10  -3.9548803e-04   3.4238641e+00   3.3200998e+00  -3.0072487e+06
   8.2674225e-10  -3.9318841e-04   3.4235950e+00   3.3204329e+00  -2.9897790e+06
   8.2750917e-10  -3.9090215e-04   3.4233274e+00   3.3207640e+00  -2.9724106e+06
   8.2827609e-10  -3.8862916e-04   3.4230613e+00   3.3210933e+00  -2.9551429e+06
   8.2904301e-10  -3.8636939e-04   3.4227968e+00   3.3214207e+00  -2.9379753e+06
   8.2980994e-10  -3.8412274e-04   3.4225338e+00   3.3217461e+00  -2.9209073e+06
   8.3057686e-10  -3.8188914e-04   3.4222723e+00   3.3220697e+00  -2.9039382e+06
   8.3134378e-10  -3.7966852e-04   3.4220124e+00   3.3223915e+00  -2.8870675e+06
   8.3211070e-10  -3.7746080e-04   3.4217539e+00   3.3227113e+00  -2.8702947e+06
   8.3287763e-10  -3.7526590e-04   3.4214970e+00   3.3230293e+00  -2.8536191e+06
   8.3364455e-10  -3.7308376e-04   3.4212415e+00   3.3233455e+00  -2.8370403e+06
   8.3441147e-10  -3.7091429e-04   3.4209876e+00   3.3236598e+00  -2.8205575e+06
   8.3517839e-10  -3.6875743e-04   3.4207351e+00   3.3239723e+00  -2.8041704e+06
   8.3594532e-10  -3.6661310e-04   3.4204840e+00   3.3242830e+00  -2.7878783e+06
   8.3671224e-10  -3.6448123e-04   3.4202344e+00   3.3245919e+00  -2.7716807e+06
   8.3747916e-10  -3.6236175e-04   3.4199863e+00   3.3248991e+00  -2.7555771e+06
   8.3824608e-10  -3.6025458e-04   3.4197396e+00   3.3252044e+00  -2.7395668e+06
   8.3901300e-10  -3.5815965e-04   3.4194943e+00   3.3255080e+00  -2.7236494e+06
   8.3977993e-10  -3.5607689e-04   3.4192505e+00   3.3258098e+00  -2.7078244e+06
   8.4054685e-10  -3.5400624e-04   3.4190080e+00   3.3261099e+00  -2.6920911e+06
   8.4131377e-10  -3.5194762e-04   3.4187670e+00   3.3264082e+00  -2.6764491e+06
   8.4208069e-10  -3.4990096e-04   3.4185274e+00   3.3267048e+00  -2.6608978e+06
   8.4284762e-10  -3.4786619e-04   3.4182891e+00   3.3269997e+00  -2.6454367e+06
   8.4361454e-10  -3.4584324e-04   3.4180522e+00   3.3272929e+00  -2.6300653e+06
   8.4438146e-10  -3.4383205e-04   3.4178168e+00   3.3275844e+00  -2.6147831e+06
   8.4514838e-10  -3.4183254e-04   3.4175826e+00   3.3278742e+00  -2.5995895e+06
   8.4591531e-10  -3.3984465e-04   3.4173499e+00   3.3281623e+00  -2.5844841e+06
   8.4668223e-10  -3.3786832e-04   3.4171184e+00   3.3284488e+00  -2.5694663e+06
   8.4744915e-10  -3.3590347e-04   3.4168884e+00   3.3287336e+00  -2.5545356e+06
   8.4821607e-10  -3.3395003e-04   3.4166596e+00   3.3290167e+00  -2.5396916e+06
   8.4898299e-10  -3.3200795e-04   3.4164322e+00   3.3292983e+00  -2.5249336e+06
   8.4974992e-10  -3.3007715e-04   3.4162061e+00   3.3295781e+00  -2.5102613e+06
   8.5051684e-10  -3.2815757e-04   3.4159813e+00   3.3298564e+00  -2.4956741e+06
   8.5128376e-10  -3.2624915e-04   3.4157578e+00   3.3301330e+00  -2.4811716e+06
   8.5205068e-10  -3.2435182e-04   3.4155356e+00   3.3304081e+00  -2.4667531e+06
   8.5281761e-10  -3.2246551e-04   3.4153147e+00   3.3306815e+00  -2.4524184e+06
   8.5358453e-10  -3.2059016e-04   3.4150951e+00   3.3309534e+00  -2.4381668e+06
   8.5435145e-10  -3.1872571e-04   3.4148767e+00   3.3312237e+00  -2.4239979e+06
   8.5511837e-10  -3.1687210e-04   3.4146597e+00   3.3314924e+00  -2.4099112e+06
   8.5588530e-10  -3.1502926e-04   3.4144438e+00   3.3317596e+00  -2.3959063e+06
   8.5665222e-10  -3.1319713e-04   3.4142293e+00   3.3320253e+00  -2.3819826e+06
   8.5741914e-10  -3.1137564e-04   3.4140159e+00   3.3322893e+00  -2.3681398e+06
   8.5818606e-10  -3.0956475e-04   3.4138038e+00   3.3325519e+00  -2.3543772e+06
   8.5895298e-10  -3.0776437e-04   3.4135930e+00   3.3328129e+00  -2.3406945e+06
   8.5971991e-10  -3.0597446e-04   3.4133833e+00   3.3330725e+00  -2.3270912e+06
   8.6048683e-10  -3.0419495e-04   3.4131749e+00   3.3333305e+00  -2.3135669e+06
   8.6125375e-10  -3.0242578e-04   3.4129677e+00   3.3335870e+00  -2.3001211e+06
   8.6202067e-10  -3.0066690e-04   3.4127617e+00   3.3338421e+00  -2.2867532e+06
   8.6278760e-10  -2.9891824e-04   3.4125569e+00   3.3340956e+00  -2.2734630e+06
   8.6355452e-10  -2.9717974e-04   3.4123532e+00   3.3343477e+00  -2.2602499e+06
   8.6432144e-10  -2.9545134e-04   3.4121508e+00   3.3345984e+00  -2.2471134e+06
   8.6508836e-10  -2.9373299e-04   3.4119495e+00   3.3348476e+00  -2.2340532e+06
   8.6585529e-10  -2.9202463e-04   3.4117494e+00   3.3350953e+00  -2.2210689e+06
   8.6662221e-10  -2.9032619e-04   3.4115505e+00   3.3353416e+00  -2.2081598e+06
   8.6738913e-10  -2.8863763e-04   3.4113527e+00   3.3355865e+00  -2.1953257e+06
   8.6815605e-10  -2.8695888e-04   3.4111560e+00   3.3358299e+00  -2.1825661e+06
   8.6892297e-10  -2.8528989e-04   3.4109605e+00   3.3360720e+00  -2.1698806e+06
   8.6968990e-10  -2.8363060e-04   3.4107662e+00   3.3363126e+00  -2.1572686e+06
   8.7045682e-10  -2.8198096e-04   3.4105729e+00   3.3365519e+00  -2.1447299e+06
   8.7122374e-10  -2.8034090e-04   3.4103808e+00   3.3367898e+00  -2.1322640e+06
   8.7199066e-10  -2.7871037e-04   3.4101898e+00   3.3370262e+00  -2.1198704e+06
   8.7275759e-10  -2.7708932e-04   3.4099999e+00   3.3372614e+00  -2.1075488e+06
   8.7352451e-10  -2.7547770e-04   3.4098111e+00   3.3374951e+00  -2.0952987e+06
   8.7429143e-10  -2.7387544e-04   3.4096234e+00   3.3377275e+00  -2.0831197e+06
   8.7505835e-10  -2.7228249e-04   3.4094368e+00   3.3379586e+00  -2.0710114e+06
   8.7582528e-10  -2.7069881e-04   3.4092512e+00   3.3381883e+00  -2.0589734e+06
   8.7659220e-10  -2.6912433e-04   3.4090668e+00   3.3384167e+00  -2.0470052e+06
   8.7735912e-10  -2.6755900e-04   3.4088834e+00   3.3386437e+00  -2.0351066e+06
   8.7812604e-10  -2.6600277e-04   3.4087011e+00   3.3388695e+00  -2.0232770e+06
   8.7889296e-10  -2.6445559e-04   3.4085198e+00   3.3390939e+00  -2.0115161e+06
   8.7965989e-10  -2.6291740e-04   3.4083396e+00   3.3393170e+00  -1.9998235e+06
   8.8042681e-10  -2.6138815e-04   3.4081605e+00   3.3395389e+00  -1.9881988e+06
   8.8119373e-10  -2.5986779e-04   3.4079823e+00   3.3397594e+00  -1.9766415e+06
   8.8196065e-10  -2.5835627e-04   3.4078052e+00   3.3399787e+00  -1.9651514e+06
   8.8272758e-10  -2.5685353e-04   3.4076292e+00   3.3401967e+00  -1.9537279e+06
   8.8349450e-10  -2.5535953e-04   3.4074541e+00   3.3404135e+00  -1.9423708e+06
   8.8426142e-10  -2.5387422e-04   3.4072801e+00   3.3406289e+00  -1.9310796e+06
   8.8502834e-10  -2.5239754e-04   3.4071071e+00   3.3408432e+00  -1.9198540e+06
   8.8579527e-10  -2.5092944e-04   3.4069351e+00   3.3410562e+00  -1.9086936e+06
   8.8656219e-10  -2.4946988e-04   3.4067641e+00   3.3412679e+00  -1.8975979e+06
   8.8732911e-10  -2.4801880e-04   3.4065940e+00   3.3414785e+00  -1.8865667e+06
   8.8809603e-10  -2.4657616e-04   3.4064250e+00   3.3416878e+00  -1.8755996e+06
   8.8886295e-10  -2.4514190e-04   3.4062570e+00   3.3418959e+00  -1.8646961e+06
   8.8962988e-10  -2.4371599e-04   3.4060899e+00   3.3421028e+00  -1.8538559e+06
   8.9039680e-10  -2.4229836e-04   3.4059238e+00   3.3423085e+00  -1.8430787e+06
   8.9116372e-10  -2.4088897e-04   3.4057586e+00   3.3425130e+00  -1.8323641e+06
   8.9193064e-10  -2.3948778e-04   3.4055944e+00   3.3427163e+00  -1.8217116e+06
   8.9269757e-10  -2.3809473e-04   3.4054312e+00   3.3429184e+00  -1.8111211e+06
   8.9346449e-10  -2.3670978e-04   3.4052689e+00   3.3431194e+00  -1.8005920e+06
   8.9423141e-10  -2.3533288e-04   3.4051076e+00   3.3433192e+00  -1.7901241e+06
   8.9499833e-10  -2.3396399e-04   3.4049472e+00   3.3435178e+00  -1.7797169e+06
   8.9576526e-10  -2.3260306e-04   3.4047877e+00   3.3437153e+00  -1.7693702e+06
   8.9653218e-10  -2.3125003e-04   3.4046291e+00   3.3439116e+00  -1.7590836e+06
   8.9729910e-10  -2.2990488e-04   3.4044715e+00   3.3441068e+00  -1.7488567e+06
   8.9806602e-10  -2.2856754e-04   3.4043148e+00   3.3443009e+00  -1.7386893e+06
   8.9883294e-10  -2.2723798e-04   3.4041590e+00   3.3444938e+00  -1.7285808e+06
   8.9959987e-10  -2.2591615e-04   3.4040041e+00   3.3446857e+00  -1.7185311e+06
   9.0036679e-10  -2.2460200e-04   3.4038501e+00   3.3448764e+00  -1.7085397e+06
   9.0113371e-10  -2.2329550e-04   3.4036970e+00   3.3450660e+00  -1.6986064e+06
   9.0190063e-10  -2.2199659e-04   3.4035448e+00   3.3452545e+00  -1.6887307e+06
   9.0266756e-10  -2.2070523e-04   3.4033934e+00   3.3454419e+00  -1.6789125e+06
   9.0343448e-10  -2.1942138e-04   3.4032430e+00   3.3456282e+00  -1.6691512e+06
   9.0420140e-10  -2.1814499e-04   3.4030934e+00   3.3458135e+00  -1.6594466e+06
   9.0496832e-10  -2.1687603e-04   3.4029447e+00   3.3459976e+00  -1.6497984e+06
   9.0573525e-10  -2.1561444e-04   3.4027968e+00   3.3461807e+00  -1.6402062e+06
   9.0650217e-10  -2.1436019e-04   3.4026498e+00   3.3463628e+00  -1.6306698e+06
   9.0726909e-10  -2.1311323e-04   3.4025037e+00   3.3465438e+00  -1.6211887e+06
   9.0803601e-10  -2.1187352e-04   3.4023584e+00   3.3467237e+00  -1.6117627e+06
   9.0880293e-10  -2.1064102e-04   3.4022139e+00   3.3469026e+00  -1.6023915e+06
   9.0956986e-10  -2.0941569e-04   3.4020703e+00   3.3470805e+00  -1.5930747e+06
   9.1033678e-10  -2.0819748e-04   3.4019276e+00   3.3472573e+00  -1.5838120e+06
   9.1110370e-10  -2.0698635e-04   3.4017856e+00   3.3474331e+00  -1.5746031e+06
   9.1187062e-10  -2.0578226e-04   3.4016445e+00   3.3476078e+00  -1.5654477e+06
   9.1263755e-10  -2.0458518e-04   3.4015042e+00   3.3477816e+00  -1.5563455e+06
   9.1340447e-10  -2.0339506e-04   3.4013647e+00   3.3479544e+00  -1.5472961e+06
   9.1417139e-10  -2.0221185e-04   3.4012260e+00   3.3481261e+00  -1.5382994e+06
   9.1493831e-10  -2.0103553e-04   3.4010881e+00   3.3482969e+00  -1.5293548e+06
   9.1570524e-10  -1.9986604e-04   3.4009511e+00   3.3484666e+00  -1.5204623e+06
   9.1647216e-10  -1.9870336e-04   3.4008148e+00   3.3486354e+00  -1.5116214e+06
   9.1723908e-10  -1.9754744e-04   3.4006793e+00   3.3488032e+00  -1.5028319e+06
   9.1800600e-10  -1.9639823e-04   3.4005446e+00   3.3489700e+00  -1.4940934e+06
   9.1877292e-10  -1.9525571e-04   3.4004107e+00   3.3491359e+00  -1.4854057e+06
   9.1953985e-10  -1.9411984e-04   3.4002776e+00   3.3493008e+00  -1.4767684e+06
   9.2030677e-10  -1.9299057e-04   3.4001452e+00   3.3494647e+00  -1.4681814e+06
   9.2107369e-10  -1.9186786e-04   3.4000136e+00   3.3496277e+00  -1.4596442e+06
   9.2184061e-10  -1.9075168e-04   3.3998828e+00   3.3497898e+00  -1.4511566e+06
   9.2260754e-10  -1.8964200e-04   3.3997527e+00   3.3499509e+00  -1.4427183e+06
   9.2337446e-10  -1.8853876e-04   3.3996234e+00   3.3501110e+00  -1.4343291e+06
   9.2414138e-10  -1.8744194e-04   3.3994948e+00   3.3502703e+00  -1.4259886e+06
   9.2490830e-10  -1.8635150e-04   3.3993670e+00   3.3504286e+00  -1.4176965e+06
   9.2567523e-10  -1.8526740e-04   3.3992399e+00   3.3505860e+00  -1.4094527e+06
   9.2644215e-10  -1.8418961e-04   3.3991136e+00   3.3507424e+00  -1.4012567e+06
   9.2720907e-10  -1.8311808e-04   3.3989880e+00   3.3508980e+00  -1.3931083e+06
   9.2797599e-10  -1.8205278e-04   3.3988631e+00   3.3510527e+00  -1.3850073e+06
   9.2874291e-10  -1.8099368e-04   3.3987389e+00   3.3512065e+00  -1.3769533e+06
   9.2950984e-10  -1.7994074e-04   3.3986155e+00   3.3513593e+00  -1.3689462e+06
   9.3027676e-10  -1.7889392e-04   3.3984928e+00   3.3515113e+00  -1.3609855e+06
   9.3104368e-10  -1.7785318e-04   3.3983708e+00   3.3516624e+00  -1.3530712e+06
   9.3181060e-10  -1.7681850e-04   3.3982495e+00   3.3518127e+00  -1.3452028e+06
   9.3257753e-10  -1.7578984e-04   3.3981289e+00   3.3519620e+00  -1.3373801e+06
   9.3334445e-10  -1.7476715e-04   3.3980090e+00   3.3521105e+00  -1.3296029e+06
   9.3411137e-10  -1.7375042e-04   3.3978899e+00   3.3522582e+00  -1.3218708e+06
   9.3487829e-10  -1.7273960e-04   3.3977714e+00   3.3524049e+00  -1.3141837e+06
   9.3564522e-10  -1.7173465e-04   3.3976535e+00   3.3525509e+00  -1.3065413e+06
   9.3641214e-10  -1.7073555e-04   3.3975364e+00   3.3526959e+00  -1.2989433e+06
   9.3717906e-10  -1.6974226e-04   3.3974200e+00   3.3528402e+00  -1.2913894e+06
   9.3794598e-10  -1.6875475e-04   3.3973042e+00   3.3529836e+00  -1.2838794e+06
   9.3871290e-10  -1.6777298e-04   3.3971891e+00   3.3531261e+00  -1.2764130e+06
   9.3947983e-10  -1.6679692e-04   3.3970747e+00   3.3532679e+00  -1.2689901e+06
   9.4024675e-10  -1.6582653e-04   3.3969609e+00   3.3534088e+00  -1.2616103e+06
   9.4101367e-10  -1.6486179e-04   3.3968478e+00   3.3535489e+00  -1.2542733e+06
   9.4178059e-10  -1.6390266e-04   3.3967354e+00   3.3536882e+00  -1.2469790e+06
   9.4254752e-10  -1.6294910e-04   3.3966236e+00   3.3538266e+00  -1.2397271e+06
   9.4331444e-10  -1.6200110e-04   3.3965124e+00   3.3539643e+00  -1.2325173e+06
   9.4408136e-10  -1.6105860e-04   3.3964019e+00   3.3541012e+00  -1.2253494e+06
   9.4484828e-10  -1.6012159e-04   3.3962921e+00   3.3542372e+00  -1.2182232e+06
   9.4561521e-10  -1.5919002e-04   3.3961829e+00   3.3543725e+00  -1.2111384e+06
   9.4638213e-10  -1.5826388e-04   3.3960743e+00   3.3545070e+00  -1.2040948e+06
   9.4714905e-10  -1.5734312e-04   3.3959663e+00   3.3546407e+00  -1.1970921e+06
   9.4791597e-10  -1.5642771e-04   3.3958590e+00   3.3547737e+00  -1.1901300e+06
   9.4868289e-10  -1.5551763e-04   3.3957523e+00   3.3549059e+00  -1.1832085e+06
   9.4944982e-10  -1.5461284e-04   3.3956462e+00   3.3550373e+00  -1.1763272e+06
   9.5021674e-10  -1.5371332e-04   3.3955408e+00   3.3551679e+00  -1.1694858e+06
   9.5098366e-10  -1.5281902e-04   3.3954359e+00   3.3552978e+00  -1.1626843e+06
   9.5175058e-10  -1.5192993e-04   3.3953317e+00   3.3554269e+00  -1.1559222e+06
   9.5251751e-10  -1.5104601e-04   3.3952281e+00   3.3555553e+00  -1.1491995e+06
   9.5328443e-10  -1.5016722e-04   3.3951250e+00   3.3556829e+00  -1.1425158e+06
   9.5405135e-10  -1.4929355e-04   3.3950226e+00   3.3558098e+00  -1.1358710e+06
   9.5481827e-10  -1.4842496e-04   3.3949207e+00   3.3559360e+00  -1.1292647e+06
   9.5558520e-10  -1.4756142e-04   3.3948195e+00   3.3560614e+00  -1.1226969e+06
   9.5635212e-10  -1.4670291e-04   3.3947188e+00   3.3561861e+00  -1.1161673e+06
   9.5711904e-10  -1.4584939e-04   3.3946188e+00   3.3563101e+00  -1.1096756e+06
   9.5788596e-10  -1.4500083e-04   3.3945193e+00   3.3564333e+00  -1.1032216e+06
   9.5865288e-10  -1.4415720e-04   3.3944204e+00   3.3565558e+00  -1.0968052e+06
   9.5941981e-10  -1.4331849e-04   3.3943220e+00   3.3566777e+00  -1.0904260e+06
   9.6018673e-10  -1.4248465e-04   3.3942242e+00   3.3567988e+00  -1.0840839e+06
   9.6095365e-10  -1.4165566e-04   3.3941270e+00   3.3569192e+00  -1.0777787e+06
   9.6172057e-10  -1.4083149e-04   3.3940304e+00   3.3570389e+00  -1.0715102e+06
   9.6248750e-10  -1.4001212e-04   3.3939343e+00   3.3571579e+00  -1.0652780e+06
   9.6325442e-10  -1.3919751e-04   3.3938388e+00   3.3572762e+00  -1.0590821e+06
   9.6402134e-10  -1.3838764e-04   3.3937439e+00   3.3573939e+00  -1.0529222e+06
   9.6478826e-10  -1.3758248e-04   3.3936494e+00   3.3575108e+00  -1.0467981e+06
   9.6555519e-10  -1.3678201e-04   3.3935556e+00   3.3576271e+00  -1.0407096e+06
   9.6632211e-10  -1.3598618e-04   3.3934623e+00   3.3577427e+00  -1.0346565e+06
   9.6708903e-10  -1.3519499e-04   3.3933695e+00   3.3578576e+00  -1.0286386e+06
   9.6785595e-10  -1.3440840e-04   3.3932773e+00   3.3579719e+00  -1.0226556e+06
   9.6862287e-10  -1.3362639e-04   3.3931856e+00   3.3580855e+00  -1.0167075e+06
   9.6938980e-10  -1.3284892e-04   3.3930944e+00   3.3581984e+00  -1.0107939e+06
   9.7015672e-10  -1.3207598e-04   3.3930038e+00   3.3583107e+00  -1.0049147e+06
   9.7092364e-10  -1.3130753e-04   3.3929137e+00   3.3584224e+00  -9.9906963e+05
   9.7169056e-10  -1.3054355e-04   3.3928241e+00   3.3585333e+00  -9.9325857e+05
   9.7245749e-10  -1.2978401e-04   3.3927350e+00   3.3586437e+00  -9.8748129e+05
   9.7322441e-10  -1.2902890e-04   3.3926465e+00   3.3587534e+00  -9.8173759e+05
   9.7399133e-10  -1.2827817e-04   3.3925584e+00   3.3588624e+00  -9.7602728e+05
   9.7475825e-10  -1.2753181e-04   3.3924709e+00   3.3589709e+00  -9.7035016e+05
   9.7552518e-10  -1.2678980e-04   3.3923839e+00   3.3590786e+00  -9.6470604e+05
   9.7629210e-10  -1.2605209e-04   3.3922974e+00   3.3591858e+00  -9.5909474e+05
   9.7705902e-10  -1.2531868e-04   3.3922114e+00   3.3592924e+00  -9.5351605e+05
   9.7782594e-10  -1.2458954e-04   3.3921259e+00   3.3593983e+00  -9.4796979e+05
   9.7859286e-10  -1.2386464e-04   3.3920409e+00   3.3595036e+00  -9.4245578e+05
   9.7935979e-10  -1.2314395e-04   3.3919564e+00   3.3596083e+00  -9.3697382e+05
   9.8012671e-10  -1.2242745e-04   3.3918723e+00   3.3597124e+00  -9.3152372e+05
   9.8089363e-10  -1.2171513e-04   3.3917888e+00   3.3598159e+00  -9.2610532e+05
   9.8166055e-10  -1.2100694e-04   3.3917058e+00   3.3599188e+00  -9.2071841e+05
   9.8242748e-10  -1.2030288e-04   3.3916232e+00   3.3600211e+00  -9.1536282e+05
   9.8319440e-10  -1.1960291e-04   3.3915411e+00   3.3601228e+00  -9.1003836e+05
   9.8396132e-10  -1.1890701e-04   3.3914595e+00   3.3602239e+00  -9.0474486e+05
   9.8472824e-10  -1.1821516e-04   3.3913784e+00   3.3603244e+00  -8.9948213e+05
   9.8549517e-10  -1.1752734e-04   3.3912977e+00   3.3604243e+00  -8.9425000e+05
   9.8626209e-10  -1.1684351e-04   3.3912175e+00   3.3605237e+00  -8.8904828e+05
   9.8702901e-10  -1.1616367e-04   3.3911378e+00   3.3606224e+00  -8.8387680e+05
   9.8779593e-10  -1.1548778e-04   3.3910585e+00   3.3607206e+00  -8.7873540e+05
   9.8856285e-10  -1.1481581e-04   3.3909797e+00   3.3608183e+00  -8.7362388e+05
   9.8932978e-10  -1.1414776e-04   3.3909014e+00   3.3609153e+00  -8.6854207e+05
   9.9009670e-10  -1.1348360e-04   3.3908235e+00   3.3610118e+00  -8.6348982e+05
   9.9086362e-10  -1.1282330e-04   3.3907461e+00   3.3611078e+00  -8.5846694e+05
   9.9163054e-10  -1.1216683e-04   3.3906691e+00   3.3612031e+00  -8.5347326e+05
   9.9239747e-10  -1.1151419e-04   3.3905925e+00   3.3612980e+00  -8.4850861e+05
   9.9316439e-10  -1.1086535e-04   3.3905164e+00   3.3613923e+00  -8.4357283e+05
   9.9393131e-10  -1.1022027e-04   3.3904408e+00   3.3614860e+00  -8.3866574e+05
   9.9469823e-10  -1.0957895e-04   3.3903656e+00   3.3615792e+00  -8.3378719e+05
   9.9546516e-10  -1.0894137e-04   3.3902908e+00   3.3616718e+00  -8.2893699e+05
   9.9623208e-10  -1.0830749e-04   3.3902165e+00   3.3617639e+00  -8.2411500e+05
   9.9699900e-10  -1.0767729e-04   3.3901425e+00   3.3618555e+00  -8.1932104e+05
   9.9776592e-10  -1.0705077e-04   3.3900691e+00   3.3619465e+00  -8.1455496e+05
   9.9853284e-10  -1.0642788e-04   3.3899960e+00   3.3620370e+00  -8.0981659e+05
   9.9929977e-10  -1.0580863e-04   3.3899234e+00   3.3621270e+00  -8.0510577e+05
   1.0000667e-09  -1.0519297e-04   3.3898512e+00   3.3622165e+00  -8.0042233e+05
   1.0008336e-09  -1.0458089e-04   3.3897794e+00   3.3623054e+00  -7.9576613e+05
   1.0016005e-09  -1.0397238e-04   3.3897080e+00   3.3623938e+00  -7.9113701e+05
   1.0023675e-09  -1.0336740e-04   3.3896371e+00   3.3624817e+00  -7.8653479e+05
   1.0031344e-09  -1.0276595e-04   3.3895665e+00   3.3625691e+00  -7.8195934e+05
   1.0039013e-09  -1.0216799e-04   3.3894964e+00   3.3626560e+00  -7.7741049e+05
   1.0046682e-09  -1.0157351e-04   3.3894267e+00   3.3627424e+00  -7.7288809e+05
   1.0054351e-09  -1.0098249e-04   3.3893574e+00   3.3628283e+00  -7.6839198e+05
   1.0062021e-09  -1.0039491e-04   3.3892885e+00   3.3629137e+00  -7.6392202e+05
   1.0069690e-09  -9.9810750e-05   3.3892199e+00   3.3629986e+00  -7.5947805e+05
   1.0077359e-09  -9.9229984e-05   3.3891518e+00   3.3630830e+00  -7.5505992e+05
   1.0085028e-09  -9.8652598e-05   3.3890841e+00   3.3631669e+00  -7.5066748e+05
   1.0092698e-09  -9.8078570e-05   3.3890168e+00   3.3632503e+00  -7.4630058e+05
   1.0100367e-09  -9.7507881e-05   3.3889499e+00   3.3633332e+00  -7.4195907e+05
   1.0108036e-09  -9.6940513e-05   3.3888833e+00   3.3634157e+00  -7.3764281e+05
   1.0115705e-09  -9.6376445e-05   3.3888171e+00   3.3634976e+00  -7.3335164e+05
   1.0123374e-09  -9.5815658e-05   3.3887514e+00   3.3635791e+00  -7.2908543e+05
   1.0131044e-09  -9.5258134e-05   3.3886860e+00   3.3636601e+00  -7.2484402e+05
   1.0138713e-09  -9.4703853e-05   3.3886210e+00   3.3637407e+00  -7.2062728e+05
   1.0146382e-09  -9.4152796e-05   3.3885563e+00   3.3638208e+00  -7.1643506e+05
   1.0154051e-09  -9.3604946e-05   3.3884921e+00   3.3639004e+00  -7.1226721e+05
   1.0161721e-09  -9.3060282e-05   3.3884282e+00   3.3639795e+00  -7.0812360e+05
   1.0169390e-09  -9.2518787e-05   3.3883647e+00   3.3640582e+00  -7.0400409e+05
   1.0177059e-09  -9.1980442e-05   3.3883015e+00   3.3641365e+00  -6.9990853e+05
   1.0184728e-09  -9.1445229e-05   3.3882388e+00   3.3642142e+00  -6.9583679e+05
   1.0192397e-09  -9.0913130e-05   3.3881764e+00   3.3642916e+00  -6.9178872e+05
   1.0200067e-09  -9.0384126e-05   3.3881143e+00   3.3643685e+00  -6.8776420e+05
   1.0207736e-09  -8.9858200e-05   3.3880526e+00   3.3644449e+00  -6.8376307e+05
   1.0215405e-09  -8.9335333e-05   3.3879913e+00   3.3645209e+00  -6.7978522e+05
   1.0223074e-09  -8.8815508e-05   3.3879303e+00   3.3645964e+00  -6.7583049e+05
   1.0230744e-09  -8.8298707e-05   3.3878697e+00   3.3646715e+00  -6.7189877e+05
   1.0238413e-09  -8.7784913e-05   3.3878094e+00   3.3647462e+00  -6.6798990e+05
   1.0246082e-09  -8.7274108e-05   3.3877495e+00   3.3648204e+00  -6.6410377e+05
   1.0253751e-09  -8.6766275e-05   3.3876900e+00   3.3648942e+00  -6.6024024e+05
   1.0261420e-09  -8.6261396e-05   3.3876307e+00   3.3649676e+00  -6.5639918e+05
   1.0269090e-09  -8.5759454e-05   3.3875719e+00   3.3650406e+00  -6.5258045e+05
   1.0276759e-09  -8.5260432e-05   3.3875133e+00   3.3651131e+00  -6.4878393e+05
   1.0284428e-09  -8.4764314e-05   3.3874551e+00   3.3651852e+00  -6.4500949e+05
   1.0292097e-09  -8.4271082e-05   3.3873973e+00   3.3652569e+00  -6.4125700e+05
   1.0299767e-09  -8.3780719e-05   3.3873398e+00   3.3653282e+00  -6.3752633e+05
   1.0307436e-09  -8.3293209e-05   3.3872826e+00   3.3653990e+00  -6.3381736e+05
   1.0315105e-09  -8.2808535e-05   3.3872257e+00   3.3654695e+00  -6.3012995e+05
   1.0322774e-09  -8.2326681e-05   3.3871692e+00   3.3655395e+00  -6.2646399e+05
   1.0330443e-09  -8.1847631e-05   3.3871130e+00   3.3656091e+00  -6.2281935e+05
   1.0338113e-09  -8.1371367e-05   3.3870572e+00   3.3656783e+00  -6.1919591e+05
   1.0345782e-09  -8.0897874e-05   3.3870016e+00   3.3657472e+00  -6.1559354e+05
   1.0353451e-09  -8.0427136e-05   3.3869464e+00   3.3658156e+00  -6.1201212e+05
   1.0361120e-09  -7.9959137e-05   3.3868915e+00   3.3658836e+00  -6.0845153e+05
   1.0368790e-09  -7.9493860e-05   3.3868369e+00   3.3659512e+00  -6.0491164e+05
   1.0376459e-09  -7.9031291e-05   3.3867827e+00   3.3660184e+00  -6.0139234e+05
   1.0384128e-09  -7.8571412e-05   3.3867287e+00   3.3660853e+00  -5.9789351e+05
   1.0391797e-09  -7.8114209e-05   3.3866751e+00   3.3661517e+00  -5.9441503e+05
   1.0399466e-09  -7.7659666e-05   3.3866218e+00   3.3662178e+00  -5.9095677e+05
   1.0407136e-09  -7.7207767e-05   3.3865688e+00   3.3662835e+00  -5.8751863e+05
   1.0414805e-09  -7.6758498e-05   3.3865161e+00   3.3663488e+00  -5.8410049e+05
   1.0422474e-09  -7.6311842e-05   3.3864637e+00   3.3664137e+00  -5.8070222e+05
   1.0430143e-09  -7.5867785e-05   3.3864116e+00   3.3664783e+00  -5.7732372e+05
   1.0437813e-09  -7.5426312e-05   3.3863598e+00   3.3665424e+00  -5.7396487e+05
   1.0445482e-09  -7.4987407e-05   3.3863083e+00   3.3666062e+00  -5.7062555e+05
   1.0453151e-09  -7.4551055e-05   3.3862571e+00   3.3666697e+00  -5.6730566e+05
   1.0460820e-09  -7.4117242e-05   3.3862062e+00   3.3667327e+00  -5.6400507e+05
   1.0468489e-09  -7.3685954e-05   3.3861557e+00   3.3667954e+00  -5.6072368e+05
   1.0476159e-09  -7.3257174e-05   3.3861054e+00   3.3668577e+00  -5.5746138e+05
   1.0483828e-09  -7.2830889e-05   3.3860554e+00   3.3669197e+00  -5.5421804e+05
   1.0491497e-09  -7.2407084e-05   3.3860056e+00   3.3669813e+00  -5.5099357e+05
   1.0499166e-09  -7.1985745e-05   3.3859562e+00   3.3670425e+00  -5.4778786e+05
   1.0506836e-09  -7.1566857e-05   3.3859071e+00   3.3671034e+00  -5.4460079e+05
   1.0514505e-09  -7.1150407e-05   3.3858582e+00   3.3671640e+00  -5.4143225e+05
   1.0522174e-09  -7.0736379e-05   3.3858097e+00   3.3672241e+00  -5.3828215e+05
   1.0529843e-09  -7.0324760e-05   3.3857614e+00   3.3672840e+00  -5.3515037e+05
   1.0537513e-09  -6.9915537e-05   3.3857134e+00   3.3673435e+00  -5.3203680e+05
   1.0545182e-09  -6.9508694e-05   3.3856656e+00   3.3674026e+00  -5.2894134e+05
   1.0552851e-09  -6.9104218e-05   3.3856182e+00   3.3674614e+00  -5.2586389e+05
   1.0560520e-09  -6.8702095e-05   3.3855710e+00   3.3675198e+00  -5.2280433e+05
   1.0568189e-09  -6.8302312e-05   3.3855241e+00   3.3675780e+00  -5.1976257e+05
   1.0575859e-09  -6.7904855e-05   3.3854775e+00   3.3676357e+00  -5.1673850e+05
   1.0583528e-09  -6.7509710e-05   3.3854311e+00   3.3676932e+00  -5.1373202e+05
   1.0591197e-09  -6.7116865e-05   3.3853851e+00   3.3677503e+00  -5.1074303e+05
   1.0598866e-09  -6.6726305e-05   3.3853392e+00   3.3678070e+00  -5.0777142e+05
   1.0606536e-09  -6.6338017e-05   3.3852937e+00   3.3678635e+00  -5.0481710e+05
   1.0614205e-09  -6.5951989e-05   3.3852484e+00   3.3679196e+00  -5.0187996e+05
   1.0621874e-09  -6.5568207e-05   3.3852034e+00   3.3679754e+00  -4.9895990e+05
   1.0629543e-09  -6.5186657e-05   3.3851586e+00   3.3680309e+00  -4.9605683e+05
   1.0637212e-09  -6.4807328e-05   3.3851141e+00   3.3680860e+00  -4.9317065e+05
   1.0644882e-09  -6.4430205e-05   3.3850699e+00   3.3681408e+00  -4.9030125e+05
   1.0652551e-09  -6.4055277e-05   3.3850259e+00   3.3681953e+00  -4.8744854e+05
   1.0660220e-09  -6.3682530e-05   3.3849822e+00   3.3682495e+00  -4.8461243e+05
   1.0667889e-09  -6.3311952e-05   3.3849387e+00   3.3683034e+00  -4.8179281e+05
   1.0675559e-09  -6.2943530e-05   3.3848955e+00   3.3683569e+00  -4.7898959e+05
   1.0683228e-09  -6.2577252e-05   3.3848525e+00   3.3684102e+00  -4.7620268e+05
   1.0690897e-09  -6.2213105e-05   3.3848098e+00   3.3684631e+00  -4.7343197e+05
   1.0698566e-09  -6.1851076e-05   3.3847673e+00   3.3685158e+00  -4.7067739e+05
   1.0706235e-09  -6.1491154e-05   3.3847251e+00   3.3685681e+00  -4.6793882e+05
   1.0713905e-09  -6.1133326e-05   3.3846831e+00   3.3686201e+00  -4.6521619e+05
   1.0721574e-09  -6.0777580e-05   3.3846414e+00   3.3686718e+00  -4.6250939e+05
   1.0729243e-09  -6.0423904e-05   3.3845999e+00   3.3687232e+00  -4.5981834e+05
   1.0736912e-09  -6.0072286e-05   3.3845586e+00   3.3687743e+00  -4.5714294e+05
   1.0744582e-09  -5.9722714e-05   3.3845176e+00   3.3688252e+00  -4.5448310e+05
   1.0752251e-09  -5.9375175e-05   3.3844769e+00   3.3688757e+00  -4.5183874e+05
   1.0759920e-09  -5.9029659e-05   3.3844363e+00   3.3689259e+00  -4.4920975e+05
   1.0767589e-09  -5.8686153e-05   3.3843960e+00   3.3689758e+00  -4.4659606e+05
   1.0775258e-09  -5.8344646e-05   3.3843560e+00   3.3690255e+00  -4.4399757e+05
   1.0782928e-09  -5.8005125e-05   3.3843161e+00   3.3690749e+00  -4.4141420e+05
   1.0790597e-09  -5.7667581e-05   3.3842765e+00   3.3691239e+00  -4.3884585e+05
   1.0798266e-09  -5.7332000e-05   3.3842372e+00   3.3691727e+00  -4.3629245e+05
   1.0805935e-09  -5.6998372e-05   3.3841980e+00   3.3692212e+00  -4.3375390e+05
   1.0813605e-09  -5.6666685e-05   3.3841591e+00   3.3692694e+00  -4.3123011e+05
   1.0821274e-09  -5.6336928e-05   3.3841204e+00   3.3693174e+00  -4.2872100e+05
   1.0828943e-09  -5.6009089e-05   3.3840820e+00   3.3693650e+00  -4.2622649e+05
   1.0836612e-09  -5.5683158e-05   3.3840437e+00   3.3694124e+00  -4.2374649e+05
   1.0844281e-09  -5.5359124e-05   3.3840057e+00   3.3694595e+00  -4.2128092e+05
   1.0851951e-09  -5.5036975e-05   3.3839679e+00   3.3695064e+00  -4.1882969e+05
   1.0859620e-09  -5.4716700e-05   3.3839304e+00   3.3695529e+00  -4.1639272e+05
   1.0867289e-09  -5.4398289e-05   3.3838930e+00   3.3695992e+00  -4.1396992e+05
   1.0874958e-09  -5.4081731e-05   3.3838559e+00   3.3696452e+00  -4.1156122e+05
   1.0882628e-09  -5.3767014e-05   3.3838189e+00   3.3696910e+00  -4.0916653e+05
   1.0890297e-09  -5.3454129e-05   3.3837822e+00   3.3697365e+00  -4.0678577e+05
   1.0897966e-09  -5.3143064e-05   3.3837457e+00   3.3697817e+00  -4.0441886e+05
   1.0905635e-09  -5.2833809e-05   3.3837095e+00   3.3698267e+00  -4.0206571e+05
   1.0913304e-09  -5.2526354e-05   3.3836734e+00   3.3698714e+00  -3.9972626e+05
   1.0920974e-09  -5.2220687e-05   3.3836375e+00   3.3699158e+00  -3.9740041e+05
   1.0928643e-09  -5.1916800e-05   3.3836019e+00   3.3699600e+00  -3.9508810e+05
   1.0936312e-09  -5.1614680e-05   3.3835664e+00   3.3700039e+00  -3.9278923e+05
   1.0943981e-09  -5.1314318e-05   3.3835312e+00   3.3700476e+00  -3.9050374e+05
   1.0951651e-09  -5.1015704e-05   3.3834962e+00   3.3700910e+00  -3.8823155e+05
   1.0959320e-09  -5.0718828e-05   3.3834613e+00   3.3701342e+00  -3.8597257e+05
   1.0966989e-09  -5.0423678e-05   3.3834267e+00   3.3701771e+00  -3.8372673e+05
   1.0974658e-09  -5.0130247e-05   3.3833923e+00   3.3702197e+00  -3.8149396e+05
   1.0982327e-09  -4.9838522e-05   3.3833580e+00   3.3702621e+00  -3.7927418e+05
   1.0989997e-09  -4.9548495e-05   3.3833240e+00   3.3703043e+00  -3.7706731e+05
   1.0997666e-09  -4.9260156e-05   3.3832902e+00   3.3703462e+00  -3.7487327e+05
   1.1005335e-09  -4.8973495e-05   3.3832566e+00   3.3703879e+00  -3.7269201e+05
   1.1013004e-09  -4.8688501e-05   3.3832231e+00   3.3704293e+00  -3.7052343e+05
   1.1020674e-09  -4.8405166e-05   3.3831899e+00   3.3704705e+00  -3.6836746e+05
   1.1028343e-09  -4.8123479e-05   3.3831568e+00   3.3705115e+00  -3.6622404e+05
   1.1036012e-09  -4.7843431e-05   3.3831240e+00   3.3705522e+00  -3.6409309e+05
   1.1043681e-09  -4.7565013e-05   3.3830913e+00   3.3705927e+00  -3.6197453e+05
   1.1051350e-09  -4.7288215e-05   3.3830588e+00   3.3706329e+00  -3.5986830e+05
   1.1059020e-09  -4.7013028e-05   3.3830265e+00   3.3706730e+00  -3.5777432e+05
   1.1066689e-09  -4.6739442e-05   3.3829945e+00   3.3707127e+00  -3.5569253e+05
   1.1074358e-09  -4.6467447e-05   3.3829625e+00   3.3707523e+00  -3.5362284e+05
   1.1082027e-09  -4.6197036e-05   3.3829308e+00   3.3707916e+00  -3.5156520e+05
   1.1089697e-09  -4.5928198e-05   3.3828993e+00   3.3708307e+00  -3.4951952e+05
   1.1097366e-09  -4.5660924e-05   3.3828679e+00   3.3708695e+00  -3.4748575e+05
   1.1105035e-09  -4.5395205e-05   3.3828367e+00   3.3709082e+00  -3.4546380e+05
   1.1112704e-09  -4.5131033e-05   3.3828057e+00   3.3709466e+00  -3.4345362e+05
   1.1120373e-09  -4.4868397e-05   3.3827749e+00   3.3709848e+00  -3.4145514e+05
   1.1128043e-09  -4.4607290e-05   3.3827443e+00   3.3710227e+00  -3.3946828e+05
   1.1135712e-09  -4.4347703e-05   3.3827138e+00   3.3710605e+00  -3.3749298e+05
   1.1143381e-09  -4.4089625e-05   3.3826836e+00   3.3710980e+00  -3.3552917e+05
   1.1151050e-09  -4.3833050e-05   3.3826535e+00   3.3711353e+00  -3.3357679e+05
   1.1158720e-09  -4.3577967e-05   3.3826235e+00   3.3711724e+00  -3.3163576e+05
   1.1166389e-09  -4.3324369e-05   3.3825938e+00   3.3712093e+00  -3.2970603e+05
   1.1174058e-09  -4.3072246e-05   3.3825642e+00   3.3712459e+00  -3.2778752e+05
   1.1181727e-09  -4.2821591e-05   3.3825348e+00   3.3712824e+00  -3.2588018e+05
   1.1189396e-09  -4.2572394e-05   3.3825055e+00   3.3713186e+00  -3.2398393e+05
   1.1197066e-09  -4.2324647e-05   3.3824765e+00   3.3713546e+00  -3.2209871e+05
   1.1204735e-09  -4.2078341e-05   3.3824476e+00   3.3713904e+00  -3.2022446e+05
   1.1212404e-09  -4.1833469e-05   3.3824189e+00   3.3714260e+00  -3.1836111e+05
